2.97843 2.99256 1.71119 0.0250269 1.50161 0.000618555 2.6047 0.549593 2.55216 0.00239595 200
2.20391 1.0576 0.0337365 1.04274 2.89136 0.0231238 0.0277253 2.79679 2.96563 5.90327e-06 200
0.180895 1.96333 1.87504 0.51925 2.20661 2.22689 2.50672 2.39299 0.810587 0.00190441 200
2.2227 1.31154 0.110641 1.69007 0.653239 2.8273 0.026671 1.2423 0.000659825 0.00445724 201
2.19756 1.15863 2.96627 2.99226 1.66513 2.47163 1.35002 0.061523 1.9476 0.000407798 201
2.50186 0.145057 0.686323 0.300686 1.50638 1.42989 0.983006 1.35734 0.505308 0.00380281 201
1.14262 1.36107 2.94678 2.80479 2.6229 1.67563 2.95558 1.28513 1.38459 0.000346028 201
0.53299 0.505867 0.385004 1.95774 0.138358 1.1385 0.645043 1.07881 0.827254 0.000114339 202
2.78712 2.50251 1.89331 2.03639 0.738013 0.903093 0.184354 2.695 1.52179 0.00145748 202
1.15832 1.57153 0.323193 0.000180139 2.58456 0.0108271 0.0839265 1.42952 0.0997076 0.00350401 202
0.744333 2.70764 2.30067 1.15779 2.50067 1.50229 1.39357 1.63032 2.1608 0.00365486 203
0.822818 1.42945 0.380412 0.326702 0.0848661 2.67859 0.572116 2.05807 0.610937 0.00429558 203
2.80978 2.31843 0.00777912 2.44487 2.63343 1.1495 0.320105 1.76745 1.96826 0.00390991 203
1.28214 2.75638 1.28056 2.74153 1.29023 2.58209 1.21081 0.491982 1.86588 0.00283083 204
2.44854 1.56088 2.14194 1.35805 2.86853 1.34935 0.283149 0.27387 1.44525 0.00170306 204
0.56569 1.27098 0.527431 2.59616 1.35181 0.250797 1.34538 1.34474 0.570942 0.000466203 204
0.0698754 0.435684 2.76392 0.169234 1.8057 0.256711 1.42106 2.39876 2.81729 0.00403888 204
1.44189 0.753844 0.185334 0.323689 1.72007 0.957687 0.285062 1.66067 2.34139 0.00363005 205
0.671732 0.401306 1.25696 1.21969 2.31512 0.672835 2.31642 1.25089 0.98907 0.00168966 205
0.0413683 2.97512 0.596239 0.109227 1.02932 2.04948 2.7436 1.8908 1.49071 0.00262864 205
2.48057 1.22592 0.938928 2.19693 0.732796 2.97527 2.09491 1.24511 2.09641 0.00470619 206
2.49 1.74721 1.59261 2.0775 2.08538 2.12619 0.323505 2.02688 0.20672 0.00322385 206
1.49841 2.321 2.49948 1.78063 1.89721 0.963725 0.7472 0.811966 2.95159 0.000350318 206
0.842733 0.154683 0.537016 0.619406 1.27167 2.10515 2.61681 1.90288 0.0868548 0.0013426 206
2.7667 0.616264 0.441725 0.0821427 2.12906 2.14067 2.92854 2.74797 2.10548 0.00474342 207
0.1032 2.53082 2.66252 0.413546 0.321225 2.59465 2.00269 1.36187 1.68922 0.00330232 207
0.302182 1.72295 1.77392 1.37993 2.92953 0.691685 1.00509 0.627638 0.647584 0.00102565 207
1.10954 0.618697 0.0734809 1.23245 1.31494 1.3 2.26392 1.40694 0.347678 0.00490065 208
0.892616 0.600284 1.15877 2.38731 1.42107 1.34355 1.90722 2.93759 2.41419 0.00153076 208
0.0620041 2.57226 1.57282 2.24275 0.693424 2.96485 1.89013 1.84546 2.72907 0.0012313 208
1.67287 0.0230709 2.85858 0.645877 1.16445 2.19519 1.33288 0.931022 0.0652074 0.000527686 209
2.82829 0.0844285 0.6471 0.316093 0.292523 1.08048 0.379713 1.28053 0.0255802 0.00193122 209
1.099 1.69129 0.465859 1.6289 2.4032 2.89094 2.30839 2.17874 1.7956 0.0046355 209
0.0921919 1.12254 2.49381 2.84498 1.32581 0.984419 0.997751 1.25327 2.98498 0.00412882 209
0.285174 1.49354 0.422633 0.791478 1.37291 2.70864 0.934927 1.92866 1.92804 0.00223004 210
1.38299 0.444954 0.567962 0.682583 0.536263 1.50465 2.55746 0.485772 2.05208 0.00385769 210
2.45547 1.64702 1.26989 0.554658 2.45309 2.16812 1.27899 2.5381 2.5254 0.00225995 210
0.638707 2.2693 2.27493 1.10313 0.395519 1.04007 1.23766 1.49421 1.9938 0.00152385 210
2.33513 1.1971 1.84098 0.805093 0.417578 2.90471 0.849939 0.950821 0.344675 0.00245056 211
0.193733 0.034654 0.12541 2.00888 2.94219 2.39343 1.36948 1.09359 1.06698 0.00395211 211
0.797712 0.359847 2.17473 2.73072 1.78899 0.447355 2.73881 0.206656 1.49695 0.000858299 211
0.183072 2.07437 2.91687 1.28388 1.34888 2.33012 0.760929 0.199137 0.492092 0.000889423 212
0.600061 1.32101 0.433559 1.98789 1.91953 1.0312 0.590104 2.21395 0.328573 0.00372229 212
1.39072 2.82448 0.804673 1.95336 0.365301 2.98125 2.71681 0.0457148 1.51553 0.00493893 212
2.41843 2.69748 1.56813 2.73832 1.84475 2.31488 0.995157 0.979637 2.7845 0.004436 213
2.49764 0.821247 0.524506 2.75695 1.08957 1.3957 0.886757 1.01712 1.38749 0.00256668 213
1.79876 0.697423 2.86247 1.70308 2.54206 0.44553 1.19023 0.733986 1.39795 0.0026604 213
2.54842 0.246199 1.78631 1.46474 0.979333 1.26883 2.4347 1.35448 1.37228 0.00411363 214
0.979633 2.45141 0.959775 1.64554 0.987145 2.69321 2.72557 2.63978 1.45008 0.00389517 214
0.288769 2.3556 2.32786 2.72498 0.380462 2.30471 1.62953 2.58257 1.02596 0.00113918 214
1.99003 0.727801 1.62368 2.42053 1.82458 2.41041 1.92985 2.19024 2.43379 0.000161344 215
0.582121 2.51523 0.249094 1.97752 0.282374 2.81357 1.66617 0.687043 2.42165 0.000751807 215
2.93107 1.86873 2.7843 1.16774 0.194171 1.33845 1.08273 1.91694 1.99944 0.00439744 215
0.0133397 0.814522 0.813771 2.36448 1.7325 2.8634 2.84709 2.78016 0.00918492 0.00298657 215
0.809679 2.21424 0.845811 0.938936 2.37021 2.38245 1.84617 0.766472 1.77918 0.000511536 216
1.74406 0.315352 1.99978 2.02893 0.269846 1.46744 0.63293 0.880197 1.19557 0.00175542 216
1.80322 1.67894 1.34564 2.1498 2.66832 0.600801 2.55598 1.69197 2.74261 0.00342352 216
0.18824 1.24921 2.00125 2.20453 2.0131 0.0561272 2.34356 2.29394 2.73127 0.00092973 216
1.13863 2.92144 1.18102 0.267109 0.239466 0.717622 1.37813 0.128057 2.56556 0.00290101 217
1.55846 0.743498 2.82282 0.299268 1.72477 0.0190232 0.373599 2.20537 2.32023 0.00207229 217
1.98066 0.0827027 0.981545 1.40498 1.86474 0.418578 0.626939 2.88985 0.830254 0.00204799 217
0.580659 2.92776 1.58513 0.637362 1.1359 2.25903 0.732693 0.762021 1.74103 0.00104022 218
0.793756 2.30217 1.04833 2.69244 1.5959 2.1809 0.511518 1.99394 2.87971 0.000674438 218
2.01831 0.5134 0.135754 2.8725 0.349548 2.89791 2.40148 0.425403 2.94169 0.00296972 218
2.64663 2.1466 2.16124 1.74959 0.899943 0.757654 1.59049 0.504408 1.63343 0.00455608 219
1.28052 1.05423 0.712525 0.9334 0.936074 1.00898 0.111583 1.19427 0.62813 0.00211391 219
1.29731 0.771893 0.186348 0.680797 2.9452 0.247766 0.865322 0.515894 1.14939 0.0032572 219
0.190434 1.58283 2.51882 2.93528 1.07459 0.917532 1.72468 0.0520073 0.533688 0.00364909 220
1.89766 1.5431 0.119652 0.40662 0.109268 1.5884 0.94673 0.402124 2.29675 0.00471144 220
1.88495 1.43228 1.98064 2.59099 1.82785 1.02001 0.790834 0.10781 1.75992 0.00438317 220
2.36785 1.70855 0.164237 2.16305 0.199556 0.241603 1.19479 0.91215 2.10163 0.000249349 220
2.86992 1.19328 2.26466 1.98036 2.51206 0.541187 2.86006 0.318001 1.37685 0.00328763 221
2.74702 1.40248 0.462892 1.92439 0.925034 1.05207 2.36032 2.36692 1.64347 0.000735252 221
0.502462 2.537 1.19125 2.37016 0.698114 1.00173 1.34821 2.03682 2.24192 0.00398291 221
2.81807 2.44253 2.63413 0.793929 1.35476 1.36856 1.68727 2.6195 1.12263 0.00321102 222
2.90972 2.38033 1.07663 0.70842 1.52648 0.546288 0.721987 0.795063 0.366904 0.00297834 222
1.09091 2.25105 1.79649 0.753628 1.00003 0.187212 2.43005 2.06691 2.15233 0.000355971 222
0.00815584 2.68777 0.599883 0.157597 0.892059 2.23376 2.76984 0.186967 2.69107 0.00141992 222
0.838565 2.98148 2.74619 1.92832 1.27938 1.67069 2.97581 1.70783 1.55121 0.00485137 223
2.79766 1.56601 1.81397 2.85709 0.765337 0.844658 1.22578 2.07981 0.636042 0.000122419 223
2.14357 2.50812 2.23077 1.82442 1.42773 2.79544 0.756827 1.51442 2.88786 0.000364026 223
1.75873 0.238792 2.56617 0.811408 1.39006 0.792063 2.96958 0.0979085 1.67194 0.00202966 224
0.578754 1.45707 0.861472 2.48408 2.93946 0.633566 1.04312 2.21403 0.214237 0.000801961 224
2.0598 2.06323 0.809379 1.36745 1.40136 1.28422 1.80146 0.306229 2.88946 0.00489611 224
0.487164 1.06094 1.95838 1.46876 2.41751 2.12392 1.13786 0.969016 0.447961 0.00363725 225
1.0181 0.311054 2.51158 2.34288 0.443928 1.9141 1.11323 2.80236 1.81308 0.00341882 225
1.79596 2.21306 2.64252 1.81788 0.32764 0.133041 1.69062 2.43585 1.15631 0.000959403 225
2.53261 0.674743 2.23525 1.09543 1.46485 0.572238 1.72634 0.528608 2.70746 0.00147889 225
2.65751 1.74379 2.68059 0.533671 2.94964 2.505 1.09938 2.39484 1.10021 0.000573482 226
0.0215774 1.92318 0.502346 0.36974 0.340872 0.406801 1.16582 1.12936 1.81004 0.00441094 226
1.49267 2.19414 1.01536 0.397112 0.90974 1.81064 2.9138 1.74495 2.40974 0.00251685 226
0.66012 1.8212 2.44331 0.458523 0.461726 0.713496 1.58579 1.06114 0.639494 0.00188343 227
0.759913 0.371296 2.01054 1.5888 0.175902 1.90538 2.62607 0.302018 0.995152 0.00184459 227
1.41826 0.256727 2.49669 2.24634 1.64906 2.55271 1.7853 0.851372 2.19752 0.00103212 227
2.8397 2.61061 0.238028 0.949512 1.94268 0.0587003 1.07311 0.715234 2.92487 0.00210536 227
1.54489 2.07053 1.18817 0.721734 2.75288 1.17543 2.05639 2.55252 0.0726871 0.00289645 228
2.08422 0.0981151 0.00175522 2.93732 1.99675 0.0444049 1.87263 0.222069 1.77397 0.00245729 228
0.981897 1.33609 0.735073 1.18948 0.446215 2.20796 2.5372 2.54199 1.47749 0.000368847 228
2.59048 1.89964 1.92146 0.459091 0.901954 2.06515 2.57896 0.590352 2.21693 0.00420891 229
1.52683 2.94572 0.953088 0.928036 1.65074 0.812553 0.356823 0.606381 0.708455 0.0026864 229
2.68489 1.79383 2.07686 2.56817 0.741529 2.64715 1.73131 1.80902 1.86086 0.0031342 229
0.832799 0.338727 1.05443 0.451238 0.539854 1.0354 0.449289 0.0811474 0.856028 0.0031152 230
1.5363 2.39182 0.757199 2.75901 0.288627 0.93177 2.08304 0.926612 0.569975 0.00328294 230
0.251219 0.334632 0.559683 0.251558 0.867587 0.157927 2.8897 2.66326 2.49703 0.00174415 230
0.447161 2.23527 0.159908 0.0850974 2.42971 1.49042 0.85318 2.10585 1.25805 0.00287597 231
1.94455 2.62363 0.998729 0.751974 2.56171 0.628693 2.03126 0.883852 2.12443 0.00191449 231
1.65094 1.08601 1.63286 1.0866 1.17052 2.64157 0.553784 2.55807 1.54463 0.00270323 231
0.065759 0.671341 2.21388 1.27448 0.972555 0.88968 0.0129269 1.09515 0.258248 0.000420788 231
1.0634 1.47735 2.48811 0.488612 2.79187 2.85554 2.49261 0.959784 2.36399 0.00247605 232
2.85382 0.610551 1.67219 1.3977 1.06192 1.40924 0.847042 0.247591 0.967252 0.0041595 232
1.11552 0.993426 1.07977 1.11565 1.47853 2.77212 2.69347 1.96979 0.136347 0.00294524 232
2.48222 1.9912 0.77566 2.07111 0.725685 0.224536 0.252709 1.72595 1.46315 0.00303002 233
0.241659 2.26452 2.53223 0.634835 1.55717 0.967196 1.97983 1.17255 1.91355 0.00479806 233
2.55968 1.02003 2.15378 0.685932 2.00743 0.357199 1.67935 2.1482 0.781061 0.00228612 233
0.57018 0.884369 2.85267 2.84083 0.303929 1.78255 2.17459 2.15127 2.88527 0.00178394 233
0.441136 2.65537 0.345189 2.45625 2.14072 2.18553 0.204779 1.77595 1.25517 0.00388062 234
2.70026 2.16424 1.88644 2.76297 2.78591 0.94632 1.11628 0.771003 2.1133 0.00182911 234
2.16569 0.183741 1.1969 1.64389 1.96577 2.73963 0.539773 2.35035 0.702399 0.00430097 234
1.58835 1.72634 0.498539 1.06896 1.70982 1.61632 1.37476 0.325795 1.04059 0.00127096 235
2.70465 2.39046 2.36884 2.61006 2.82129 1.91944 1.14957 1.97515 0.393254 0.000745024 235
2.5027 1.80047 2.65106 2.24992 2.79729 2.17009 0.584471 1.85747 1.73464 0.00223609 235
1.43141 1.43781 2.91964 1.61898 2.25593 2.9846 1.86928 2.89994 2.36732 0.0038384 236
0.610784 1.55909 2.13675 0.66663 2.79395 2.54457 0.815721 1.97348 2.16665 0.0020751 236
2.42231 1.53909 1.42569 0.226386 0.114048 0.159921 2.76579 0.41685 1.2822 0.000999219 236
1.66638 1.87634 2.46473 1.25212 1.49621 0.280594 0.100108 1.88207 1.18471 0.00461646 236
1.18396 0.687636 2.13276 2.97042 2.17752 1.1572 2.28033 2.3067 0.339568 0.00240249 237
2.03432 2.43428 1.30877 2.96327 0.636757 0.724852 2.33284 0.25472 2.0149 0.00469011 237
2.12479 1.90487 1.30553 1.55909 2.545 1.07397 2.5331 2.36951 0.613301 0.00483712 237
2.97206 2.01314 2.79927 1.34492 0.720697 1.98032 1.89446 0.570606 0.404744 0.00431896 238
2.37194 0.888956 2.1987 0.195145 2.22056 2.57508 0.845486 1.62459 2.27228 0.00486584 238
2.5704 1.10244 2.242 2.56318 0.704768 1.2031 2.01795 1.66863 0.233383 0.00231199 238
0.557251 2.63646 0.3592 2.8485 0.403127 1.96476 1.32697 0.869871 1.44668 0.00316076 238
2.90052 1.86224 1.89205 2.60718 0.835947 0.785436 1.47138 0.494464 2.51761 0.00155097 239
0.758726 2.99949 1.68566 1.99333 2.19143 1.43695 1.22062 2.99875 0.0340627 4.90777e-05 239
1.27776 1.13228 0.530252 0.984767 0.499597 0.589093 1.00896 2.87258 1.96612 0.00321885 239
1.00254 2.03055 2.3612 1.24781 0.7316 1.13148 0.491621 0.888917 1.04512 0.00397743 240
1.95583 1.36989 1.93125 0.147499 1.99145 1.06904 0.596229 1.85588 1.96465 0.000223281 240
2.5631 2.39814 0.175519 0.90878 2.47256 0.955417 1.12795 2.59501 0.66961 0.000951813 240
0.741721 0.468349 1.06158 1.08482 1.41065 2.42869 1.50683 2.34124 2.78771 0.00340128 241
0.536039 0.917707 1.39163 0.51813 0.886941 1.60728 1.69987 1.38455 2.4602 0.000982965 241
1.33771 2.66918 2.6987 1.52832 1.73059 2.31101 1.42801 2.4307 2.56308 0.00163076 241
1.52358 2.39685 0.0199412 1.68199 0.984916 0.194686 2.72213 2.91715 2.00435 0.00305513 242
2.39234 1.18747 2.81963 1.03354 0.223495 1.79491 1.5032 2.08378 1.75746 0.000419445 242
1.33859 0.441028 0.660852 0.602115 1.13093 1.52109 1.64308 2.98335 0.00609639 0.00488289 242
1.89174 2.98907 2.97154 2.99631 2.05753 2.99267 2.7927 1.31225 2.96086 0.00189162 242
1.0871 2.71352 0.280615 0.377246 1.23659 0.980226 2.46967 0.592543 1.15953 0.00442946 242
2.14975 2.22673 1.49612 1.97636 1.0784 2.70335 0.193611 0.553233 1.26895 0.00221269 243
2.36162 1.38895 0.377639 1.74016 0.74507 2.78211 1.03302 2.88676 2.41916 0.00393445 243
1.17288 1.50565 0.577235 1.52464 1.46823 0.700327 0.604839 0.809254 2.70587 0.00222043 243
1.91927 1.55461 1.5435 2.02324 1.42273 2.62532 2.88132 2.0305 1.49956 0.0016783 244
2.04481 1.28822 2.75361 0.779539 1.03676 2.00039 1.13646 0.752387 1.28411 0.00338518 244
2.94186 0.926603 0.444959 0.599527 0.912418 0.0652854 2.86641 2.7246 0.984074 0.00203753 244
2.00284 2.33379 1.50151 2.86997 2.28979 2.71337 2.16262 0.463692 0.766086 0.00241296 245
0.858378 1.42593 1.85572 2.77169 0.596311 0.778177 1.41677 2.26562 0.54185 0.00459183 245
2.52508 2.65999 1.9914 1.67989 1.6843 2.24293 2.66668 1.72353 2.17939 0.00359951 245
1.18114 2.79391 1.33174 0.176789 2.5585 2.3766 0.881493 0.987315 0.509574 0.00413666 246
0.708639 0.734476 1.22899 0.970617 2.58028 1.09458 2.74148 0.14565 1.60743 0.00409739 246
0.936272 1.92802 1.22203 2.15414 0.45079 2.80908 2.7683 0.560871 0.265764 0.00156723 246
2.65062 2.65225 0.0964532 2.03987 0.847543 1.90092 0.602038 1.54025 2.57869 0.000344191 246
1.68441 0.983509 2.67506 2.04717 1.56165 1.20799 0.717762 2.84364 1.47935 0.00131485 247
0.817167 0.562455 2.62126 2.08142 1.79583 0.605604 2.60213 2.0516 0.689651 0.0040886 247
0.763826 1.88327 1.3762 1.84944 2.4309 2.3167 2.64718 0.228326 2.06243 0.00406871 247
0.12358 2.5112 0.798813 1.77098 1.74447 0.933686 2.59492 1.568 1.23076 0.000969615 248
1.10311 0.0273474 1.50789 1.01011 2.66529 2.51227 0.237176 1.42182 1.76829 0.00436345 248
1.64276 0.686966 1.96099 0.987814 1.44347 1.93979 2.70487 2.88518 1.03185 0.00437336 248
1.46259 0.522053 0.146833 2.23441 0.0512911 2.92165 1.49624 2.52557 1.05626 0.00314049 248
2.82282 1.88727 1.2736 2.01166 1.04209 2.02326 2.17886 0.664742 2.83305 0.000850054 249
0.740486 1.24532 1.17504 2.71766 1.36019 2.86512 0.310418 1.43458 0.948716 0.00467611 249
0.00139031 1.48018 1.73092 1.30658 0.0189519 1.82695 0.47548 0.00388106 1.48568 3.85134e-06 249
2.38305 0.790275 2.04511 1.90912 2.85307 1.12293 1.88853 2.90338 1.71943 0.00433004 250
2.06577 1.04865 1.76312 1.26395 0.309062 0.694571 0.555156 2.4707 0.0396868 0.000824136 250
2.11634 0.646497 1.90625 1.50353 1.61813 0.348189 2.85234 1.6512 2.85788 0.00390182 250
1.58617 1.18376 1.68035 0.731715 2.77128 1.45238 0.673619 0.937464 0.0982129 0.00196099 251
1.87686 0.834596 0.329294 2.41689 2.80211 2.34826 0.551706 2.3807 2.19496 0.00192819 251
2.51355 2.15584 2.57783 0.194902 1.78205 2.54111 1.15412 1.00224 2.1555 0.00102095 251
0.256829 1.69453 1.33823 1.54388 0.128784 0.464438 2.53934 1.98177 0.806674 0.00172109 251
2.93695 2.75341 2.75797 1.99753 2.77743 2.35766 2.44477 0.595562 1.24417 0.000102728 252
0.270671 2.64333 2.43127 2.34755 1.99821 2.22582 1.62197 1.74776 0.774469 0.00164519 252
2.80716 2.89074 1.00336 1.76782 2.40048 1.38089 0.0924406 1.46534 1.01788 0.000497625 252
1.57706 1.4055 2.93811 0.0776568 1.00426 2.28979 2.36468 1.64214 1.41143 0.00154965 253
2.07432 2.10574 1.47075 0.114898 2.92642 0.0529756 2.80549 2.7751 2.91176 0.00125303 253
2.82551 2.77537 1.73906 0.584577 1.10712 1.83617 0.276189 2.24432 2.41565 0.00326701 253
0.317165 0.14124 1.64406 1.58336 2.40994 0.305011 0.680469 1.89928 1.14346 2.04268e-05 254
0.229471 1.57462 1.13573 2.43989 1.24136 2.23851 2.56566 0.769597 2.27687 0.00429014 254
1.12776 0.0928246 2.38458 1.19285 2.06706 2.28553 1.91714 1.22657 2.69917 0.0046609 254
0.260122 0.461761 2.53 1.50144 0.616857 2.63193 1.11136 1.04287 0.256116 0.00481284 254
1.3885 1.96729 0.104163 1.33312 0.156525 2.61083 0.181545 2.67269 0.957026 0.00186438 255
1.73705 2.10113 2.37314 1.00752 2.29219 2.43644 1.80465 0.392762 0.431599 0.000961055 255
1.93616 2.02575 0.51205 0.82003 0.342993 1.59787 1.8865 2.41817 0.396553 0.00351518 255
2.83133 0.969014 2.70869 1.43318 1.18012 1.943 2.06824 2.55365 0.0705798 0.00198381 256
1.88912 0.991259 1.68715 2.68996 0.921058 2.50686 2.31499 0.363547 1.33292 0.00325429 256
1.79045 0.91488 2.77117 0.161088 1.56516 2.33589 2.41461 0.92194 2.80634 0.00244342 256
2.96332 0.0643449 0.704537 1.72376 1.25971 2.95652 2.20131 1.50403 0.468492 0.00358727 257
1.15206 0.068198 0.371003 2.60064 0.855182 1.64456 2.72039 2.7282 1.90102 0.00356931 257
1.56022 2.29093 2.24926 0.859595 1.85079 2.94378 1.93209 1.15994 1.26514 0.00489016 257
0.422 2.50613 2.21079 2.1706 0.547052 0.321462 2.50331 1.33851 1.6693 0.00344054 257
1.46008 0.543044 0.715024 1.79756 2.71705 1.92802 0.412896 1.35215 1.87564 0.00300733 258
0.747035 1.85078 0.914482 2.95337 1.5916 1.27973 1.2947 0.417244 0.802927 0.00476144 258
1.81332 2.32922 2.84566 1.45223 2.57509 0.243651 1.94389 2.49864 1.49313 0.000680658 258
0.161235 1.41553 1.57999 0.878031 1.43149 0.0345342 1.88323 2.74939 2.75858 0.00465211 258
1.63235 0.542749 1.52509 1.3759 2.35116 0.0913673 1.82913 0.114881 0.111414 0.000585157 259
2.91207 0.849041 0.741201 0.871884 0.177314 1.42286 1.42272 1.79732 1.04287 0.00027638 259
2.74913 1.06913 0.0699691 1.13987 2.19408 2.2452 1.44158 1.27002 2.42608 0.000923072 259
0.923848 1.71359 1.49398 0.273814 2.91981 0.675218 2.35788 0.0876555 0.874924 0.0018324 260
1.20162 2.05012 2.20641 1.17683 1.23181 2.91083 0.873032 1.94574 0.459536 0.000447443 260
1.17898 1.78863 1.70691 2.74326 0.478406 1.49166 2.12015 0.450926 2.02721 0.00219389 260
2.21094 0.831223 0.968532 2.12277 2.80724 2.33312 1.95184 2.38286 1.10882 0.00183522 261
1.98453 0.770689 2.73781 1.00349 0.564554 0.962068 2.17021 0.776593 0.454891 0.00222758 261
1.2118 1.53268 1.73605 0.505505 0.150003 2.16507 0.0400426 1.92152 2.48359 0.00446567 261
2.52703 2.41207 2.23323 1.01642 1.93069 0.653105 0.399273 2.74349 2.63423 0.0023442 261
0.2916 0.596863 0.319659 1.64006 2.12123 2.24849 2.6348 0.36992 1.09411 0.000767632 262
1.07309 2.68002 1.83862 0.596224 2.68151 1.44323 0.754827 1.09093 1.41635 0.000759524 262
0.949083 0.955836 2.48346 0.719308 2.24851 1.99233 0.357779 2.47989 1.27935 0.00100381 262
0.97398 1.58664 1.08195 2.28204 2.34708 0.585668 0.769986 2.27818 2.63051 0.00285272 263
2.40151 2.46511 0.667993 0.0317841 1.14442 1.73336 0.802779 2.53695 0.878422 0.00012947 263
0.119019 2.61427 0.782718 2.46841 2.22708 1.29253 0.0528803 1.05426 1.16298 0.00143368 263
1.0524 0.568325 1.65914 2.90366 0.934154 0.234617 2.01091 1.95282 2.26632 0.00382363 263
0.34859 1.23324 0.491898 2.3327 1.8924 1.97919 1.93514 2.07832 1.06933 0.000431813 264
0.361776 1.83175 0.855723 0.920738 2.28193 1.41299 0.607096 2.06162 0.251438 0.000517294 264
0.4014 2.84904 2.25348 2.82638 1.75963 1.70789 0.689351 0.602973 0.867411 0.00401926 264
2.01516 1.42187 1.57754 2.05892 0.665056 0.072889 0.922747 2.66076 2.08461 0.00414089 265
0.351287 0.801279 2.41912 2.32155 2.73083 0.817171 0.146651 0.871712 1.53347 0.00292598 265
1.59243 2.80044 0.635862 2.00649 1.14696 1.1117 1.60014 2.642 2.25038 0.00111143 265
0.33822 0.786984 0.0585304 0.608926 1.65881 1.01893 1.06334 2.63589 1.09764 0.00451929 266
0.497734 0.12309 2.97554 0.124981 1.94761 2.53788 2.93488 1.21333 2.27857 0.00323688 266
1.60077 0.0802596 2.03083 1.48623 1.58697 1.89652 2.78238 0.161126 0.84537 0.00387883 266
0.385706 2.17309 2.1247 0.625904 0.874734 2.44807 1.87813 2.83742 0.226127 0.00476774 267
1.40914 2.12621 2.08758 0.0508069 2.09619 0.808703 2.14964 1.68178 0.798766 0.00121958 267
0.195995 1.91126 0.217097 0.258424 1.33602 0.114299 1.47637 1.04817 0.700926 0.00129954 267
1.78745 2.18351 0.350653 0.822109 0.621827 2.45342 0.17306 0.374721 2.39346 0.00238723 267
1.87263 2.29855 0.448514 2.10271 1.85581 0.786621 1.71085 1.74089 0.484769 0.000839951 268
1.89586 0.421085 0.191719 1.15445 1.20856 0.638778 2.14213 0.386124 0.527463 0.00133445 268
0.680337 0.574704 0.549602 1.2852 1.01877 0.974389 2.83541 1.38081 1.37904 0.00181102 268
0.0362432 2.45465 1.96686 2.43445 2.98942 1.14855 2.06305 2.86906 1.38258 0.000583806 269
0.888981 0.716154 0.170139 2.1054 1.75053 1.19338 2.45051 0.298751 2.62352 0.00257647 269
2.01008 2.65152 2.32404 0.0708379 0.551054 0.0816559 0.907099 1.13201 1.69604 0.00498254 269
1.00674 0.679325 0.0469555 1.3538 2.97382 0.896966 1.86216 1.88737 2.26284 0.00043658 269
1.19479 1.44833 2.07195 0.758415 0.262907 2.91529 1.83187 1.97965 2.52758 0.00456226 270
2.64049 0.449467 2.28107 1.13338 2.0024 2.88233 0.77775 2.84458 1.21155 0.00121419 270
1.27134 1.59183 2.7876 0.282388 0.771965 2.77626 0.26068 2.42306 2.74888 0.00106853 271
2.11273 0.782144 2.09627 2.1601 2.69722 2.20213 2.37766 1.37839 0.440539 0.00330649 271
2.26907 1.1433 2.17872 2.53734 0.879767 0.669589 0.809052 1.60865 2.51278 0.00285711 271
1.51248 1.42274 0.10183 0.889715 1.92825 0.34028 0.682907 2.56148 1.94516 0.00119224 271
1.50571 2.52232 2.54574 1.48858 1.12228 2.13717 2.92721 0.0666487 1.93595 0.00140943 271
1.86772 0.657342 0.374731 0.103869 1.18872 2.07177 1.94524 1.45589 1.53894 0.000140463 272
0.312074 2.9848 1.37127 0.0543408 1.36646 0.00311639 0.27373 2.05488 1.50466 0.00499458 272
0.773354 0.0320717 0.257315 0.188885 1.96307 2.55329 0.305818 0.396433 0.0383359 0.00220619 272
2.6659 0.307817 0.231009 0.0511513 0.719869 1.09514 2.94828 1.98663 1.79241 0.00369509 273
2.17203 0.209164 0.974774 2.51099 1.81986 2.12806 0.497863 1.14532 1.43765 0.000322069 273
1.87996 2.043 2.61509 0.45439 2.18019 0.379382 2.17715 0.5072 1.27303 0.00278566 273
0.0587238 0.135037 0.412476 2.78416 2.56277 0.832173 2.48308 1.18556 1.01671 0.00497539 274
2.07723 1.2361 1.91536 0.206515 1.01111 0.910698 1.06597 0.240655 0.60394 0.000699076 274
0.574463 2.05308 2.40318 0.732518 0.191359 0.316134 0.867685 2.83802 0.698854 0.00260954 274
1.53126 2.86349 0.023898 0.360554 1.93234 1.976 2.13763 0.907016 0.293871 0.00272316 274
2.01928 2.1925 0.548283 1.80357 2.16194 1.45742 2.95947 1.67367 1.39472 0.00181995 275
1.36797 1.22154 0.759925 0.0957537 1.01576 0.0679996 2.27784 1.59413 1.88762 0.00368364 275
0.721988 1.29513 1.34982 1.55567 1.70369 0.706476 2.59915 2.28577 0.963778 0.00126312 276
1.00004 1.85253 2.28793 1.42766 2.72522 1.2465 2.61059 1.82078 2.16305 0.000713301 276
1.32205 0.167839 0.625931 1.42001 0.758575 2.41285 2.67605 2.16102 2.46561 0.00192207 276
2.43313 0.694804 2.07369 0.172781 0.568489 1.22824 1.26961 2.70779 1.8461 0.00448199 276
0.908156 2.92975 2.45481 0.337328 2.59723 0.164675 1.32454 1.79341 1.00338 0.00398944 277
1.32744 2.13081 2.98944 1.88144 2.80078 0.730514 2.71434 2.46608 1.78216 0.0033473 277
2.93767 0.301672 2.43383 1.05304 1.169 1.11596 0.953415 1.36646 2.56863 0.00194839 277
2.78045 1.00038 0.0122353 0.349588 0.216725 2.82146 1.12251 2.09807 2.25352 0.00258359 278
0.0828474 0.0523825 2.96393 1.44383 2.43707 1.47862 1.34211 2.04742 0.748931 0.00442158 278
2.87452 0.560715 1.06801 0.65979 2.35626 0.937084 2.69084 1.54602 1.46774 0.00260287 278
2.69172 0.130453 1.79391 0.672852 0.0565499 0.427107 0.335263 0.245561 1.97263 0.00145022 278
0.524946 2.78252 0.794497 1.11861 1.31227 2.56666 1.3631 1.39113 0.058258 0.00189914 279
2.00763 2.62647 1.58315 2.48041 1.69735 2.20965 0.457281 2.25575 1.50731 0.00426181 279
2.47505 0.760964 1.31425 1.61596 0.792846 2.21318 0.655463 1.98392 0.23005 0.002302 279
2.54544 1.20982 0.259262 0.798238 2.00525 1.32219 0.975302 1.70421 1.5487 0.00213859 279
2.30842 0.160903 2.18629 0.675466 1.83876 0.454712 0.665584 2.80112 1.13468 0.00382954 280
2.60424 2.32348 0.770138 0.833706 2.11227 1.81921 0.79227 2.24775 0.978481 0.00416705 280
2.25365 1.30696 1.37018 2.47263 0.227331 2.87722 0.349338 0.792313 2.01047 0.00387024 280
1.95625 1.4885 1.32781 0.701638 0.915651 0.950479 2.8092 1.11176 0.489465 0.00333444 281
1.16638 0.827439 1.69147 0.882995 0.517723 0.432679 1.53569 2.5334 0.617689 0.00232383 281
2.39503 2.90607 2.52062 0.219373 0.0168905 1.48035 2.19622 2.32166 1.98425 0.000863653 281
1.69245 0.531954 1.27684 0.112851 1.2873 1.95196 0.841193 0.877494 2.24478 0.00336855 282
0.0476704 1.99327 0.194439 2.12471 0.034619 0.829229 0.0956906 1.78458 1.30355 0.000159803 282
0.0439986 1.60187 2.11397 0.477517 1.69181 2.80372 2.87716 1.81343 2.71122 0.00479452 282
2.13818 0.26663 1.25108 1.53815 2.13402 0.273396 2.11432 2.4274 2.07707 0.00171232 283
1.46719 2.17189 0.32422 2.00277 2.04755 2.22986 0.397869 1.57115 2.7623 0.00379498 283
1.37603 2.49845 2.55636 2.20941 1.79144 0.393885 1.28631 1.18403 0.203301 0.000536859 283
2.5106 2.11143 0.680618 0.419948 1.00698 0.26252 0.199931 1.56283 2.91646 0.0030514 283
0.548958 1.90808 2.4709 1.64892 1.95379 1.71178 2.48493 2.03771 0.434936 0.00486139 284
2.38877 0.710903 1.14577 1.19585 1.49898 1.38762 0.521931 2.71091 2.98164 0.00176048 284
0.526516 0.21055 1.8471 2.58855 0.598827 2.34412 1.30663 1.57935 1.25064 0.0015977 284
2.18489 0.900133 1.92714 2.74716 2.39257 1.05866 1.04857 1.82662 0.554648 0.00180985 285
2.294 2.56376 2.7187 1.93731 0.958475 2.08347 0.1142 0.466766 1.61507 0.00475817 285
2.61002 1.63456 0.406643 2.12069 1.38479 2.85676 2.1259 2.65479 0.383864 0.00208337 285
0.9941 1.53711 0.0754899 2.13573 1.19837 2.97893 2.32052 1.44812 2.73566 0.000938192 286
1.02424 0.843851 2.66876 0.0458947 2.99855 2.02122 0.0050401 2.78294 2.86195 0.00497069 286
2.10355 1.99879 2.51493 2.36179 0.119513 0.866099 2.80383 0.73095 2.07549 0.00424878 286
0.319008 2.40694 0.182763 0.132765 2.14768 2.9248 2.79424 0.346194 1.91517 0.00371105 286
1.0676 0.778828 2.01599 0.79507 0.37766 2.29279 1.20505 2.62471 0.174587 0.000807732 287
0.209885 2.12358 0.179302 1.85611 2.5935 2.27252 2.45108 0.440763 0.0556673 0.00433826 287
0.702425 1.81186 0.901593 1.6675 1.91041 1.39824 2.75722 0.990618 1.01127 0.0032057 287
0.177773 1.04468 2.18872 0.881092 1.86766 2.74783 2.21328 0.843598 1.11363 0.00265291 288
2.13947 0.319882 1.26629 0.946547 1.47541 2.67554 2.30228 0.69543 0.594778 0.00124173 288
1.14517 2.86139 1.44479 1.88922 2.65139 0.22082 2.21019 0.337276 1.89217 0.00146391 288
2.22741 1.87035 0.663237 2.44559 2.87237 1.79965 1.02553 0.388371 2.37441 0.000131617 288
0.231031 1.12524 1.94424 2.05372 1.71528 2.11954 0.685128 2.76795 1.1063 0.00405515 289
0.755206 0.985672 2.15641 2.38375 1.56962 0.738076 0.150727 2.51258 0.127925 0.00195434 289
0.931944 1.39404 1.1984 2.31346 0.334365 0.423922 0.120162 2.2721 2.78138 0.00199055 289
2.14565 1.11787 2.35809 2.82435 0.00745911 2.93597 0.486166 0.517955 2.672 0.000171584 290
0.653707 0.701684 0.143806 1.65416 0.215611 0.913087 2.05405 0.255378 0.399873 0.00354429 290
2.02926 0.748335 1.55556 2.6301 1.55216 2.13419 1.56238 2.14033 2.83566 0.00477849 290
2.78205 1.49646 1.7672 0.694932 1.4083 2.53056 1.60228 0.580471 2.5616 0.0028672 291
0.152353 1.79503 0.554926 1.6942 1.17538 2.41888 0.736644 0.0632236 1.8985 0.00117468 291
1.68893 0.63059 2.54146 0.463462 1.60061 0.472662 1.02714 0.837296 0.910379 0.00410049 291
0.213032 0.150334 2.44668 2.3298 2.86054 1.28305 1.74561 2.46061 1.98064 0.0020143 292
1.07078 2.77819 0.747707 2.68354 0.273913 2.77866 2.269 1.77983 0.981893 0.00243793 292
1.80723 2.30406 0.35251 0.616627 2.67519 1.64807 0.0776344 2.5074 2.62637 0.00202308 292
2.47443 0.757029 0.438868 0.379658 2.11048 2.77138 2.24567 0.855358 2.33479 0.00376006 292
0.545955 1.39517 2.77561 0.613358 0.584158 2.64947 2.02304 2.95766 1.87403 0.00143559 292
0.552104 0.386808 1.82773 0.347217 2.58922 0.697877 0.752252 2.88049 2.03291 0.00182246 293
2.88853 2.47433 2.43989 2.42188 2.72093 1.52783 2.21955 0.562939 2.80092 0.00449068 293
0.371177 2.59035 1.11161 2.92068 1.05746 0.802734 1.01762 0.163738 2.68742 0.00284012 293
1.84396 1.49913 1.35261 1.56894 0.0605654 2.7538 1.66827 2.04497 2.37669 0.000782666 294
1.92844 1.63508 0.269033 0.0905025 2.9527 2.49265 0.856775 0.674872 0.304678 0.00496036 294
0.170741 0.0581893 1.88397 0.702726 1.08588 2.05725 2.07597 1.0296 1.99195 0.00401069 294
2.95174 2.68405 0.565514 0.661332 0.905961 1.9443 1.8146 0.0576646 0.974155 0.00217547 295
1.33048 2.67382 0.852474 1.83804 0.312047 2.19879 0.437789 1.29436 0.172997 0.00418388 295
1.62065 2.25597 1.91389 2.96452 0.496007 1.77609 0.825594 2.8591 2.80334 0.000880647 295
0.51449 1.03354 2.91509 1.24369 0.0778298 1.49799 1.60687 0.756363 2.40776 0.00381608 296
2.63674 2.27825 0.865683 1.8357 0.639167 1.18891 0.326444 0.853647 0.269925 0.000706063 296
0.997252 2.08805 1.41347 2.54749 0.995526 0.679246 2.26623 2.27623 0.411194 0.00130562 296
1.72007 0.0176768 0.0401988 0.958126 1.57273 1.48523 0.0327241 1.25413 0.739498 0.00484182 297
1.74775 1.97643 1.65639 2.70588 1.7975 1.51152 1.59646 2.3279 1.00104 0.0014121 297
1.67674 0.202893 0.705266 2.32606 2.45694 1.95716 1.65648 1.45463 1.73792 0.00366025 297
0.986988 0.807461 2.70509 2.17577 2.042 2.42327 0.248979 1.16731 0.933772 0.000370142 297
1.95104 0.458814 0.638237 1.29177 1.13817 1.94825 1.29882 0.201857 1.44205 0.00393837 298
0.492031 2.56126 1.15103 2.04138 0.711612 0.901801 0.261758 2.72282 1.02243 0.00292023 298
2.81294 2.96066 1.39282 1.56263 1.80656 0.751862 2.76188 0.225592 1.43427 0.000601606 298
1.48789 0.551459 1.66513 2.87723 0.60342 0.381866 2.61968 0.617368 0.666805 0.00214897 298
1.04941 2.1793 2.06059 2.52873 2.46778 1.57641 0.638037 0.313981 0.586738 0.00070089 299
2.59484 2.47099 1.5112 0.57186 0.945751 2.11393 1.90186 1.66727 0.42351 0.00138667 299
1.23146 1.94432 1.82284 2.25862 2.90333 1.24005 1.98082 1.08675 1.33632 0.00378143 299
1.59324 2.89381 1.55243 0.897622 2.5501 2.06774 2.09839 2.82556 1.18613 0.00120062 300
2.15539 1.24207 2.26636 2.08832 0.44031 0.839344 0.593422 1.47561 0.283062 0.00296481 300
1.05354 1.17197 2.73542 2.96075 2.84655 0.982507 0.702446 1.20225 2.96893 0.00148696 300
0.845165 1.2584 1.47777 1.83003 2.68479 1.76064 2.81217 2.15856 1.0474 0.0032009 301
0.321744 1.34678 1.80966 2.48977 2.08867 2.68847 0.420555 1.10317 2.13043 0.00282845 301
1.40168 0.355136 2.25913 0.327788 2.52739 0.268566 2.65679 1.95316 0.370375 0.00190886 301
0.595682 1.33997 0.282416 2.91309 1.24732 0.451493 2.19355 1.84906 1.85388 0.00241955 301
2.28523 2.00384 2.95286 1.45911 2.8109 2.06284 2.32767 1.84033 1.47478 0.0025306 302
1.16951 2.03833 2.25687 0.641772 2.04932 0.189626 0.361621 1.3158 2.13981 0.00319885 302
0.415116 1.52379 2.74338 0.991168 1.18794 1.44919 1.63352 0.422559 0.28889 0.00131519 302
0.227357 1.35704 0.904628 2.39687 2.50909 2.52035 1.96135 2.01743 2.38249 0.0015432 303
1.99713 0.438595 0.57052 2.70683 1.77107 1.30923 1.99244 1.58631 0.188826 0.000665458 303
0.655909 0.101376 1.12871 2.26596 2.91023 0.141004 0.0983036 0.512916 0.121928 0.00386134 303
0.354802 1.44238 1.83402 2.0182 2.18154 2.39543 2.9431 1.69463 2.9286 0.0011335 304
0.223778 2.87181 0.875168 2.52107 2.99315 0.990755 2.0729 2.30872 2.3591 0.000233875 304
2.29015 2.06978 0.0501639 1.94236 1.66856 2.94865 0.316765 0.26675 1.70598 0.003041 304
0.375427 2.73183 2.83435 2.33753 2.30977 1.63312 2.5862 0.531188 1.87084 0.000816021 305
1.19898 1.68847 1.44834 0.513995 1.54846 1.36634 0.388707 2.90505 1.17943 0.00334206 305
1.0567 0.861036 1.99416 1.84168 0.656844 0.33461 0.662543 2.02238 1.84831 0.000799803 305
0.961073 2.3082 2.6226 2.9059 2.33959 2.69801 1.57539 1.06374 2.20674 0.00421835 305
2.7091 1.64083 0.563452 1.86449 2.29981 2.72831 1.23132 0.519412 0.208815 0.000727848 305
0.913723 0.570288 2.69002 0.307011 1.0504 2.83341 0.107386 0.630648 2.19256 0.00226582 306
1.32443 0.340604 0.425692 2.31678 0.0499463 0.523081 1.46207 1.24094 1.83507 0.00101372 306
1.46582 2.94632 1.97897 2.89652 2.18857 1.68259 0.775278 0.819765 1.64932 0.000334693 306
1.02879 0.403671 0.0318562 1.15135 2.78295 2.34963 0.132312 1.50934 1.73158 0.00129184 307
1.82129 2.1181 2.71018 0.972943 1.02435 0.577943 1.99521 2.09482 2.71433 0.00194459 307
2.26426 2.5826 2.77963 2.50274 0.627934 0.195367 1.16223 0.953679 0.336087 0.0027355 307
1.70841 1.5965 2.6328 1.59396 0.705761 1.96116 0.0499271 2.40409 0.235458 0.00419698 308
2.77751 2.87825 1.12734 2.15343 1.04619 2.72447 1.52181 1.34969 1.69285 0.00225152 308
2.95466 1.06355 0.134483 0.623779 0.203997 0.66293 1.46099 0.685125 2.23756 0.00307493 308
2.52023 2.766 2.60853 0.873932 1.06696 1.18169 0.169977 1.12548 0.444373 0.002349 308
2.10158 0.36305 2.42941 2.60163 2.26994 1.15299 0.218919 2.01177 2.38053 0.00357247 309
0.970222 0.677139 1.03644 2.40284 0.805884 1.2442 0.502381 2.41797 0.211476 0.000985647 309
0.16247 1.26476 0.458385 2.39138 0.352375 1.4612 1.04692 1.26457 0.31848 0.00432257 309
2.23947 0.934217 2.43854 2.18908 0.420526 2.15763 0.506793 2.87915 2.17174 0.00318628 310
1.04168 0.800473 1.55757 2.68185 2.15261 2.25258 0.308964 1.43381 2.47652 0.000168373 310
0.561012 1.4672 1.54751 0.135228 0.298957 2.65758 1.53227 0.535881 1.10346 0.00232758 310
0.657101 1.05176 1.78889 2.08725 2.9244 1.47503 2.07974 0.455031 1.84034 0.00107081 311
1.25598 0.297801 1.93796 0.0296501 2.2458 2.61363 2.44719 0.137749 2.48699 0.0010892 311
0.919296 2.47815 2.37208 1.09255 1.69355 2.49506 0.870694 0.279082 2.21228 0.00335332 311
1.42896 2.02491 0.847384 0.335553 2.33038 1.35428 2.39094 2.59841 1.63852 0.00376997 312
2.25914 1.90542 0.771853 0.490379 2.65427 2.18318 2.66347 1.8783 2.53631 0.00064031 312
1.82575 1.38427 2.03214 0.925046 0.245394 0.166744 0.522632 1.30187 1.70184 0.000147822 312
0.438317 1.20158 1.03908 0.707314 2.77285 2.63882 1.64671 2.75392 1.3258 0.00160166 312
0.877516 0.629433 2.59336 0.663821 0.0803648 2.42407 2.22026 0.0792402 1.92521 0.00109889 313
0.630676 2.85744 2.22193 1.57098 1.90231 0.765534 1.76991 2.3298 0.0605719 0.0014444 313
2.17931 1.72906 1.09333 0.499452 0.562827 2.45565 2.52876 0.446436 0.744897 0.00399735 313
1.14785 1.30926 1.4507 1.63065 2.93183 2.86036 0.473939 2.35769 0.0752924 0.00396626 314
0.210846 0.989912 0.252158 1.90673 0.889329 2.11712 0.433001 0.212492 0.682755 0.000871958 314
1.47771 0.859743 1.74818 0.213308 1.5226 2.08649 0.508458 1.63628 0.753174 0.00151482 314
2.43018 2.97708 0.00370139 2.68784 1.89509 2.58569 0.657631 1.37619 1.16803 1.02628e-05 314
2.68624 2.57966 2.94237 1.90449 2.19901 1.01236 0.225431 1.08518 0.503746 0.00472552 315
0.975179 0.199969 2.47923 2.52988 0.931531 0.920803 2.19079 0.933904 2.11674 0.00091215 315
1.72323 0.179384 1.09594 2.92339 0.818338 1.56857 2.69827 2.56424 1.27653 0.00109122 315
2.23119 0.398605 1.62205 2.04914 2.01204 1.53013 0.691082 0.399671 2.34598 0.00208554 316
0.32773 1.48628 0.579195 1.60994 0.254845 0.492484 0.649729 0.666724 1.65852 0.0042271 316
0.928241 2.54048 2.30686 2.65541 1.5105 0.0507091 1.00088 2.62948 1.82459 0.000383003 316
1.26323 2.35062 0.247298 1.12634 0.844222 1.25888 0.799616 1.52945 2.71653 0.000677703 317
0.634876 0.261135 1.23202 0.0894546 2.01891 1.25147 1.43251 1.81653 1.15298 0.0033355 317
1.22878 0.943037 0.415764 1.13022 1.92495 2.45885 2.3465 0.149838 0.349576 0.00374879 317
2.30682 1.91409 1.34344 2.72962 2.9879 2.96891 1.0928 2.26943 2.79851 6.26628e-05 317
0.392834 0.97633 2.16683 0.30342 0.482687 0.63021 1.77743 2.7707 2.00756 0.00246625 318
0.310413 2.84534 0.396872 0.223813 1.95173 1.86539 1.38759 1.39475 2.82257 0.00346477 318
2.60017 1.82705 0.122746 2.39973 1.47173 2.36499 2.73431 2.00592 2.61875 0.00370149 318
2.65312 2.3744 1.54861 1.22794 1.83565 0.181062 0.878996 1.60291 0.110863 0.00021308 319
0.344067 2.72807 2.79237 2.13713 1.76628 0.887315 0.518835 2.28148 2.14234 0.00301026 319
0.700489 2.63188 0.151435 0.943885 2.05977 2.21462 0.53698 0.677196 0.815866 0.00352964 319
0.775189 0.281869 0.508871 2.3587 1.17762 2.80739 0.0883934 2.23318 0.276156 0.00288848 320
2.86256 1.44458 0.313907 1.62306 1.15964 1.08884 2.15888 1.60512 0.242465 0.00219511 320
0.941921 2.20376 2.4151 2.29611 0.372026 1.82398 1.10599 1.60125 1.66756 0.00286057 320
2.64362 2.81084 2.09004 0.512912 2.70151 2.0107 2.1868 0.555872 0.620946 0.00291439 320
1.42023 0.149035 2.92507 1.41374 0.10482 2.93312 2.99555 1.34399 2.03574 0.00210071 321
0.0359715 0.477226 1.58981 2.20754 0.23604 0.415732 2.99878 2.99622 0.0140063 0.00158608 321
1.882 0.1211 0.76504 1.87085 0.511783 2.51848 0.928122 1.11431 1.89533 0.00130284 321
0.60808 1.00825 2.40703 1.88096 0.280425 0.390084 1.24262 1.12461 0.378766 0.00304678 322
0.615096 2.47635 2.74961 0.743177 2.36834 2.1497 0.38345 1.99528 0.693846 0.00349497 322
2.46727 2.04622 2.44829 0.953774 1.98659 1.63601 0.828199 1.04678 2.52034 0.00306115 322
1.93265 2.9869 2.89437 0.982438 1.74725 0.151224 0.0180536 0.155776 1.4076 0.0023919 323
0.0673969 2.48839 1.74404 1.15952 0.369186 2.40775 0.147046 0.0869723 1.85497 0.00493278 323
1.60382 2.27476 2.03913 2.78941 2.46351 1.85297 2.64581 0.700912 2.40405 0.00162602 323
1.85539 2.67131 2.39712 2.66678 1.1273 1.18754 1.65349 2.20979 2.01955 0.00427461 323
2.99342 2.53441 0.536469 2.86385 0.166312 1.58153 0.483315 1.828 2.4378 0.00483418 324
2.2244 0.682485 1.09197 2.95541 0.390593 1.83036 0.209316 1.39674 1.08985 0.00454759 324
1.83494 1.70326 0.916203 2.60502 0.0717472 1.47059 2.87516 2.81241 1.61728 0.00430911 324
0.477107 2.1444 1.20196 2.80025 0.747867 0.615436 0.233066 0.408083 0.711509 0.00415102 325
0.85366 2.21979 1.05748 1.20688 2.8835 0.15407 0.272795 2.31295 0.443169 0.00274225 325
2.09187 0.103146 0.521048 1.44019 2.41894 0.584827 2.03914 1.56597 0.252227 0.0039208 325
2.5956 1.66944 0.750975 2.06443 0.671604 0.117405 2.84262 1.86292 2.24999 0.00391533 325
2.27573 2.23128 1.16178 0.311434 2.81713 0.710366 0.426156 2.07028 1.98822 0.00425386 326
1.90368 0.0748762 2.77363 1.25914 2.71254 1.74291 1.13122 2.50394 2.6021 0.00231691 326
2.84436 0.642469 1.46475 2.26924 2.51442 0.458911 0.347441 1.50729 0.871118 0.00421478 326
0.34708 1.55007 1.6048 0.557181 1.68892 0.607772 1.48378 0.381736 0.138424 0.00417933 327
1.23925 2.18427 1.21397 1.43847 2.67243 1.63078 0.560757 1.79458 2.17666 0.00110629 327
2.23363 1.89522 0.297508 1.73882 0.50154 2.66016 1.62466 0.726784 1.47235 0.00136899 327
1.69754 2.28163 2.79415 2.11117 0.78111 1.98428 1.86439 0.830513 0.498956 0.00111905 328
0.517648 0.158727 2.21787 2.28356 1.61093 2.84923 2.39329 0.698812 1.45407 0.00326179 328
0.530903 1.78754 2.08144 2.41046 1.45627 0.466391 2.37496 0.368729 2.74055 0.00450055 328
0.0779183 1.73634 2.75473 2.51468 0.552403 1.20106 1.32064 1.16298 0.248721 0.00197853 328
2.11932 1.69526 2.33871 1.31532 1.09979 1.17153 2.14789 2.22381 2.89404 0.00454098 329
1.69826 2.05532 0.129311 0.385694 2.40875 2.07707 0.288085 0.487025 2.28415 0.00236745 329
2.4518 2.91693 1.86397 2.01326 1.25209 0.139306 1.08659 2.83196 2.91544 0.00078641 329
1.47127 0.366624 2.17716 2.28724 0.105585 1.04979 2.82175 2.79524 1.97629 0.00456768 329
1.36291 0.0405833 1.18446 2.4619 1.30151 1.746 0.711592 2.76325 1.59706 0.00407158 330
2.57366 0.5125 0.0662216 2.55376 0.928349 0.86245 2.63855 0.823207 1.30012 0.00364061 330
0.867035 1.93837 0.344669 1.82262 2.70358 0.365817 2.96622 2.82873 0.77175 0.00269872 330
2.20726 2.14015 0.0943858 0.558457 0.508547 1.69587 0.967532 1.93119 1.82184 0.00399416 331
2.31817 2.69534 2.29167 1.26965 0.606878 0.715403 2.75309 0.335162 2.99459 0.00132499 331
0.718974 0.093701 1.33667 1.84682 0.336622 0.211256 1.60944 1.55189 1.0273 0.00263196 331
2.2503 2.94151 2.2681 2.63273 1.05559 1.19572 0.136402 2.31558 0.123044 0.00166767 332
2.21767 0.637414 0.837795 0.550907 1.92084 0.313165 2.37982 1.5208 2.87613 0.000909727 332
0.730416 1.50012 0.977277 1.5099 0.0374959 1.1091 1.79883 2.85322 2.44757 0.00215049 332
1.97758 2.5583 0.517135 2.74941 0.864025 1.23013 2.46105 0.804936 2.23476 0.00144901 333
0.261159 2.82769 1.01851 2.04503 1.34236 2.0367 1.96677 2.6124 1.69918 0.0031473 333
0.955521 0.840876 2.84758 0.713667 2.13207 1.05304 0.416938 1.87518 2.6653 0.00446275 333
1.42485 0.289352 2.65344 0.312091 1.90134 1.04198 2.56976 2.08783 2.3027 0.00045699 333
2.55057 0.41429 2.30115 2.22068 0.276387 0.762537 1.54732 2.17388 1.26204 0.00282164 334
2.11054 2.08561 0.717563 2.63651 0.533416 1.62357 1.35558 0.0502924 0.763904 0.00315319 334
1.21283 0.272658 2.97728 2.18655 2.57117 0.92453 1.81888 0.354441 1.72462 0.00431282 334
1.65748 0.499811 1.63778 1.93815 0.427004 0.897087 1.0911 0.802317 2.46882 0.00477219 335
2.7603 0.115956 0.261492 1.34106 2.90529 2.09088 0.22044 2.17612 0.420345 0.0015351 335
0.0205487 1.38125 2.90667 1.36488 2.37464 1.62055 2.37218 1.47622 2.96312 0.00297221 335
2.33726 1.87338 1.94303 1.4282 1.62722 0.620018 1.97182 0.407077 2.93743 0.00405188 336
2.65881 0.603856 2.80954 0.24831 2.83679 2.65473 1.73953 1.84263 0.649935 0.00204415 336
0.245266 2.48198 0.948542 1.56458 0.250295 1.08962 2.16818 0.287597 2.8242 0.00329655 336
2.98674 0.0181652 2.16565 1.03512 2.88668 0.0293293 0.894089 0.537712 0.534424 0.000106896 336
1.68107 1.76686 0.681145 2.58301 0.556257 0.147826 0.579112 0.644601 0.118037 0.00217238 337
0.105982 1.96983 0.961728 2.24081 0.676498 0.375988 1.46667 0.586578 0.0803647 0.00164384 337
1.35254 0.312008 1.12271 2.36861 0.587534 0.0123321 2.90375 2.11869 1.07255 0.000790032 337
1.61622 1.66598 2.66601 0.817423 1.33228 1.81762 2.61534 0.341249 1.12128 0.00469966 338
2.42585 1.59441 0.505345 0.33915 1.97526 2.18917 2.75038 0.897954 0.516999 0.00375877 338
1.04598 0.189985 0.816206 2.62649 2.31241 1.02588 1.55239 0.349102 0.888016 0.000199093 338
0.910277 2.91573 2.56365 1.53257 0.090877 1.8856 2.59591 2.7329 2.08809 0.00248644 339
0.78149 0.350864 2.71677 0.0656436 1.88161 0.121795 1.52411 0.961193 2.66169 0.00339914 339
0.926014 2.88195 2.86944 2.80844 2.0656 0.648495 2.09331 2.29923 0.390353 0.00342659 339
1.94104 2.45977 1.96336 1.72704 0.466319 2.89915 0.670582 2.1426 0.194845 0.00139182 339
1.33201 0.489409 0.450398 2.78186 2.13643 0.213545 0.342543 1.20899 2.44869 0.00191549 340
2.31261 0.293906 2.6562 2.51261 2.38767 2.02871 2.30512 0.261584 2.12263 0.0022917 340
1.75295 2.6038 0.165057 0.960866 2.32578 2.61979 0.974496 1.71888 1.56968 0.00037856 340
2.09597 1.10558 1.84378 0.420505 2.35402 1.85951 0.940089 0.546656 0.24481 0.00409023 340
1.12494 0.0058229 0.657857 2.69519 1.62431 0.529973 1.19307 2.7734 1.23848 0.00251014 341
0.905333 2.73629 0.209981 2.21402 2.55553 1.07452 1.43903 1.42236 0.768779 0.00242753 341
2.63034 1.77254 2.52695 2.82216 2.09933 0.552713 2.46645 2.19681 0.955823 0.00362374 342
0.274579 2.63724 0.928858 0.905369 0.998473 1.22292 0.384409 2.95141 2.08529 0.00258985 342
1.50214 2.28438 0.515296 0.725077 0.894487 1.07866 0.920966 1.46382 0.0532923 0.000259596 342
2.91682 0.608568 1.8188 1.96509 0.35823 1.65459 2.29608 0.233792 2.93576 0.00316673 342
0.694751 2.19676 2.413 1.07546 2.71062 1.55961 1.84487 0.427398 0.861683 0.00186741 343
0.885957 0.224318 1.22536 0.373893 0.8549 2.72383 1.03002 2.99374 1.71484 0.00205676 343
2.09846 1.64602 2.55978 2.80664 0.690052 2.39952 2.6791 1.93568 1.81505 0.00161303 343
2.03977 0.235017 2.8982 1.51511 1.43433 0.354698 2.47365 1.00527 0.743146 0.00495324 343
0.0959444 1.28338 2.87249 0.401209 1.88846 0.883456 1.0581 2.69097 0.951162 0.00160917 344
1.0345 2.13716 0.934631 1.94993 0.521028 2.21909 0.0573693 1.30625 2.13398 0.00281193 344
1.21566 0.328868 0.822062 1.32892 1.93604 1.0047 1.29159 2.57405 2.72605 0.00338166 344
2.63325 1.62282 2.27108 1.67045 1.08791 0.856248 2.9044 2.44609 0.591379 0.000730421 345
1.90739 2.43823 1.90395 2.16859 2.16843 2.38966 0.312226 2.23656 0.892953 0.00126911 345
2.40544 1.29141 1.02631 1.60137 2.96992 1.84498 1.51715 1.21902 2.8122 0.00428727 345
2.1281 0.920683 2.52395 2.54691 1.46111 1.23505 0.958531 0.541512 0.582293 0.00211514 346
1.63158 1.07841 1.48234 0.979472 2.44328 2.71784 0.954402 0.288969 1.34085 0.00150962 346
2.90111 0.887347 2.72883 2.26498 2.63647 2.52467 1.35607 2.33521 0.758296 0.00436852 346
0.723807 2.29246 1.7979 2.21371 2.48877 2.84219 1.61597 2.66893 0.465804 3.87409e-05 346
2.36595 1.22918 1.32134 0.280089 0.492311 2.7345 0.0664023 0.983323 1.72714 0.000251635 347
0.0892505 0.622609 0.417219 0.803281 1.87219 0.0619866 1.32984 0.141934 1.68303 0.00367435 347
0.147981 1.68043 2.92485 1.5148 0.918553 1.3798 0.546394 0.172529 2.80885 0.00319279 347
1.20399 1.39009 0.924707 1.59795 1.55439 2.27732 1.50919 1.05116 1.05229 9.16013e-05 348
2.54265 0.880534 0.383655 2.19373 1.24331 0.72144 0.822701 2.20036 2.36693 0.000605929 348
1.61841 1.35488 0.481852 1.02084 2.22906 2.9023 0.265388 1.94214 1.66252 0.00426923 348
2.08864 2.10795 1.25051 2.4317 1.53893 2.0445 2.23526 1.63459 0.152559 0.0044761 349
0.413976 0.351467 0.947967 1.7932 0.98297 1.08421 0.126284 2.01423 2.22191 0.00394246 349
2.19183 1.85922 2.65927 0.229608 0.384891 0.105016 0.393563 0.573959 2.65553 0.00266502 349
0.237274 0.360995 0.58208 2.02005 1.32891 2.71948 1.7913 0.544339 2.94782 0.00128721 350
2.33321 0.656392 0.555523 2.87473 0.0310363 2.17702 0.707192 1.92599 0.218095 0.00149388 350
2.31383 1.30064 0.878695 0.0575501 2.8269 1.38486 0.693924 1.13507 1.57593 0.00101745 350
1.18766 2.84271 1.92374 0.593096 2.64528 0.748182 1.58334 1.14676 2.67999 7.43856e-05 350
2.61832 1.80586 0.992228 2.51851 2.83453 0.538041 2.06553 2.26096 1.68749 0.000628245 351
2.96612 0.0875358 1.1061 2.35301 2.3789 1.57048 2.91878 1.28272 0.0174262 0.00175225 351
1.24752 2.6897 0.721476 2.88197 1.5806 1.76286 2.97046 0.0377371 0.961135 0.0032901 351
2.63769 2.81993 1.31901 2.85077 0.624619 1.44169 1.87794 2.67613 0.313637 0.00236463 351
0.0844703 0.0269409 1.56072 2.03304 1.96922 2.04239 0.424196 0.432712 1.4042 0.00218951 352
2.9149 1.34749 2.71397 0.233006 0.396367 1.34561 1.45405 2.95326 1.56112 0.00221911 352
2.06974 0.932974 0.106837 1.82084 0.131238 0.307041 1.31106 2.31881 0.528544 0.00301629 352
0.010103 2.89529 1.40859 1.96071 0.601533 2.90988 0.337439 0.134797 1.51916 0.000386796 353
0.568456 1.12822 2.47429 2.3569 0.473215 1.99082 0.528751 0.964675 0.837686 0.00331655 353
1.04075 2.83655 0.356875 2.83561 2.21411 2.23695 2.00505 1.82382 1.29082 0.00249563 353
0.0803199 0.816724 0.694087 1.62194 0.77487 0.169672 1.66046 1.03577 2.89924 0.00213063 354
0.136262 1.56387 1.38672 0.0360088 2.23465 1.33346 1.70947 0.813344 0.00466539 0.000578979 354
2.66758 1.77312 0.691332 0.319111 2.73851 0.769595 2.34086 1.23675 0.53891 0.00176703 354
2.56661 0.216522 0.477657 1.16535 1.2559 0.135783 1.24942 0.458883 2.51044 0.00132949 354
0.558276 0.382622 1.36056 0.469569 0.486648 0.597187 1.67365 0.331243 0.631109 0.000154526 355
0.673026 1.07554 0.437111 0.101329 2.42188 2.30915 0.76385 0.0991284 2.98709 0.00119624 355
1.76686 1.93604 2.5405 0.868681 2.73545 1.31465 2.53056 2.33249 2.45468 0.00384345 355
2.53788 1.11466 0.88249 0.749248 0.405589 0.504526 1.81663 1.22986 0.841997 0.00463049 356
1.37031 2.59448 1.00617 2.99928 1.69936 0.0693796 2.72833 0.32324 2.98991 0.00184572 356
2.74334 2.20534 0.153345 1.49133 2.8758 1.60245 2.97824 1.67843 2.72373 0.00362561 356
1.80257 2.4397 1.72679 1.47325 0.735249 2.47884 2.02158 0.895162 2.45881 0.00402723 357
1.78447 2.57605 1.69794 1.34056 0.790414 0.476115 0.0468064 0.66982 1.68069 0.00369108 357
2.00655 0.718915 0.669646 0.244331 1.04927 1.00536 0.251011 0.568289 2.37254 0.00279421 357
0.697928 2.1512 2.57291 2.30013 2.03006 0.100482 0.452749 1.49962 0.263109 0.0037367 357
2.94308 1.45106 1.98701 1.7069 2.20364 0.562292 2.51827 0.679147 2.64847 0.000228888 358
0.649757 1.94143 2.9284 1.02506 1.86047 2.10841 0.723933 0.919879 1.97701 5.48944e-05 358
2.55823 2.25614 2.82895 1.80696 0.410767 0.65759 2.5734 0.721405 0.679863 0.00379818 358
1.84098 2.77431 1.02234 1.17284 0.14494 2.60544 1.71949 2.1302 2.8829 0.00173996 359
0.140678 2.54435 2.74116 2.89105 0.346165 2.88602 2.78018 1.37033 2.64352 4.06193e-05 359
0.373532 1.40936 1.63893 1.31014 0.483113 0.326441 2.49812 2.48972 0.921388 0.00459568 359
2.18298 0.662214 2.28448 2.42551 2.54774 1.87877 2.13444 2.73568 2.02286 0.00302213 359
0.506933 1.61099 0.33363 1.80229 0.668426 1.6522 0.634422 2.49281 1.3224 0.00302861 360
0.643125 1.9341 0.234947 1.38386 0.99023 0.260576 2.22974 2.38888 2.04237 0.00361958 360
2.25789 0.111487 1.2473 0.807413 0.838528 1.58502 2.54703 2.94142 2.90246 0.00238055 360
1.58087 0.497193 2.34548 2.84178 1.46031 1.16463 2.54331 2.10971 0.376657 0.00306588 361
2.3258 2.58802 1.50309 2.25368 1.20331 0.59445 1.98436 1.6876 2.30968 0.00294123 361
0.665894 2.49547 1.46012 2.09887 1.83007 1.21159 0.102832 1.20458 2.74644 0.00355933 361
0.59294 1.52651 1.98471 1.69938 1.28688 2.1521 2.90959 2.32439 2.30403 0.00288256 362
1.77 1.09266 0.919782 2.75177 2.97793 1.53492 1.38097 0.291251 1.71624 0.00487795 362
0.476329 1.50787 0.0791523 1.17402 1.48764 2.96269 0.540779 1.46847 1.63154 0.00271293 362
1.60547 2.0051 2.10058 1.23956 1.65515 2.27588 0.418975 0.192502 0.364918 0.00308133 362
1.15097 0.784613 2.72203 1.09974 0.135027 0.772369 2.5526 1.10856 2.40134 0.00199695 363
0.279123 1.7324 0.45494 0.575954 2.74518 1.61109 2.52437 1.80558 0.0958074 0.00388709 363
1.91649 2.13315 0.820209 2.55279 2.43502 0.641188 2.64921 0.661594 0.734787 0.00348388 363
2.86117 2.80752 2.88667 2.26056 2.52402 0.272007 2.04689 1.33029 0.67274 0.00112999 364
1.2528 2.93364 2.99423 0.585602 1.63961 2.87437 2.16575 2.07315 1.29494 0.000218453 364
0.395133 1.84747 1.37732 2.52362 0.172462 1.42076 2.84031 0.0953309 1.16693 0.00122722 364
0.127419 1.5123 2.02648 0.388059 2.96632 1.76825 2.98993 0.0293924 2.94587 0.000551816 365
1.76156 2.60789 0.605269 2.81481 2.29675 1.68736 2.5641 0.967543 2.04628 0.00250055 365
2.83593 0.666867 2.62543 0.201348 1.27544 2.33939 0.328402 1.38604 0.295405 0.00159168 365
2.18843 1.154 1.53805 1.38653 2.53098 2.59973 2.89881 0.745424 2.87028 0.000618968 365
2.04974 0.962416 2.09184 1.14724 2.30639 1.62724 2.45999 0.864071 0.558424 0.000237186 366
2.13298 0.175783 2.33537 2.4286 1.00878 1.98701 2.22533 0.713727 1.01024 0.00112112 366
2.76973 2.78608 2.90187 2.22973 2.81446 2.71116 1.3089 1.07233 0.511012 0.0047383 366
2.58806 1.52888 0.790037 2.57477 2.44532 1.16964 0.727894 0.195901 0.726296 0.00146677 367
2.41441 2.9341 2.80295 1.05891 1.14077 1.7661 0.715428 1.93281 2.27011 0.00172594 367
0.871862 2.74156 0.223568 1.22436 0.828791 2.28708 1.91651 0.621181 0.548716 0.00462032 367
0.521303 2.734 2.47722 1.40797 0.976376 0.33719 2.40422 2.71792 2.76563 0.00495963 368
0.490523 0.739651 1.80358 0.509395 2.45704 1.21539 2.43803 1.48221 2.64073 0.00384702 368
2.78439 2.23232 0.540972 2.06871 2.49655 0.352371 1.85473 2.38627 1.75381 0.00298262 368
1.23304 2.81354 0.0547092 1.81214 0.96429 0.55773 1.5737 0.360978 0.623855 0.00230583 369
2.6222 0.260751 1.11634 2.98058 0.820541 1.7247 1.54875 0.0195239 0.131049 0.00450991 369
1.2671 0.00273827 1.81691 0.91301 1.26226 1.39274 1.39109 1.53262 2.99287 0.00227803 369
0.687439 1.98082 2.09931 1.37393 1.67801 1.73815 1.6279 1.77855 2.57224 0.00494981 369
1.31481 0.343643 2.86789 1.91924 2.15798 0.574316 2.10883 0.359343 0.16293 0.00167252 370
2.26695 0.0551903 0.826057 0.018175 2.49564 1.80745 1.20654 1.62148 2.59142 0.0046698 370
2.71623 0.938067 2.3531 0.179283 2.03149 1.56571 0.498334 1.55812 2.58104 0.00270602 370
0.668264 1.83364 0.315684 1.78446 1.35737 2.17319 2.78564 1.5976 1.35258 0.00256033 370
1.45729 1.37839 2.53775 1.41266 0.661629 0.327925 1.05477 0.140294 2.34707 0.0007734 371
2.86777 1.08229 1.1339 0.0799131 1.40517 1.90896 0.369858 2.85864 2.54726 0.000569902 371
0.968536 1.61764 1.18638 0.540175 1.07273 1.06351 0.332903 2.97375 2.77232 2.72137e-05 371
1.77811 2.95599 0.242816 1.1226 1.64291 1.8749 2.43988 1.55408 2.77047 0.00414684 372
2.24796 0.87807 1.63109 1.75617 2.19605 2.2224 0.213921 1.91182 2.32369 0.00174995 372
0.0293908 0.283175 2.31004 0.0330979 0.948778 2.01824 0.477919 2.81592 2.68257 0.00355133 372
1.22322 1.45488 2.81378 2.57978 0.683651 1.662 0.118007 2.2037 2.33864 0.000544603 373
0.620901 0.869335 2.59921 1.05243 2.52131 1.30506 0.616356 2.22668 2.87277 0.000637589 373
0.736994 0.0778853 0.303176 1.36962 1.59752 1.43217 2.98114 1.75236 2.75426 0.00402054 373
1.71806 1.843 2.02075 2.65463 0.195858 0.799568 0.446694 0.833472 1.9333 0.00187262 373
1.74974 1.43497 0.803962 2.94261 1.53917 0.836367 1.40652 2.91343 0.0870754 0.00354538 374
0.358587 1.01822 2.31581 2.56692 0.088341 2.07564 2.82916 1.90818 0.574935 0.00349735 374
1.39772 1.57664 0.11473 0.431611 0.812331 1.78521 2.04939 0.378711 2.14667 0.000825854 374
0.154817 2.87467 1.70267 2.13023 1.30822 1.03485 2.51194 2.16714 2.65849 8.70442e-05 375
0.713237 0.838946 0.127017 0.236854 0.80811 0.646562 2.63211 1.86962 1.20145 0.00365725 375
1.96777 2.66345 0.648454 2.22716 1.80067 0.893084 2.77559 0.0914082 0.181987 0.000974903 375
0.29885 0.921655 1.95573 1.93485 1.60743 2.63091 0.609811 2.63107 1.95055 0.0016502 376
1.54832 0.231728 2.94402 1.74322 0.296076 1.1781 2.71151 2.67918 1.07774 0.000486167 376
1.81929 2.4 2.58384 0.891422 2.33462 0.614141 0.898984 2.74199 1.91772 0.00263676 376
0.0727783 2.63038 1.88041 1.70749 2.32321 1.80401 1.26709 2.85269 2.58472 0.00264485 376
0.418298 0.908682 1.08764 1.47173 2.27553 0.923355 1.14163 0.304462 2.32994 0.00443067 377
0.264182 0.380807 2.46141 1.65225 0.306052 0.502941 0.297255 2.42431 1.58893 0.00332617 377
2.23572 2.27186 0.427597 1.748 2.2649 2.29541 2.32971 1.36403 0.859341 0.00127708 377
1.97181 1.17366 0.00982993 1.04748 0.952385 2.76744 1.01435 1.21668 0.0477551 0.00352079 378
2.60918 0.463246 2.14865 1.28842 0.826138 2.03899 2.85324 2.57931 1.771 0.00438656 378
2.3479 1.72018 2.22732 0.167012 0.814519 2.10111 2.07629 2.48647 2.11859 0.00451223 378
0.116127 2.44832 2.6952 0.130474 1.67143 2.25499 1.59443 2.59178 1.17204 0.00424205 379
0.598049 1.36545 0.340584 1.91506 0.783347 2.79702 2.51675 0.724398 0.306307 0.00185518 379
1.30507 1.70637 2.40243 2.27685 2.02414 0.1843 2.42843 2.45513 0.8359 0.000507908 379
0.830256 0.0628159 1.26484 0.184207 0.57729 0.477915 2.27545 0.329872 2.84739 0.00275543 379
2.28047 2.70186 0.812359 1.3472 0.956067 1.41535 0.979774 0.917027 0.626061 0.0043561 380
2.17588 2.75729 2.23955 0.365122 1.71265 1.7279 0.235563 2.12667 0.16867 0.000991111 380
1.67989 0.287275 2.27787 1.18796 2.21177 1.35765 0.6752 0.658459 0.0817134 0.00163965 380
0.397184 2.24679 0.849555 0.410912 1.30558 0.98786 1.28309 0.747579 1.75138 0.000977733 380
0.812474 0.703762 1.21955 0.465218 0.529668 2.31948 0.805549 1.11773 0.817498 0.0013393 381
2.21205 2.6646 0.710092 0.86186 1.65973 2.78795 1.14409 0.150671 2.49336 0.00462601 381
0.363146 2.52669 0.0439665 0.692635 0.642475 1.31264 1.77403 1.78715 0.385901 0.00423255 381
1.52077 2.83283 1.62715 0.526359 0.367258 0.389323 0.639959 0.01513 0.940507 0.00161961 382
0.50844 0.173602 1.3635 0.0424418 1.11411 1.86809 0.143931 1.61935 0.325143 0.00284661 382
2.87782 1.09114 1.80751 0.272296 2.38956 0.026722 1.2128 1.94707 2.82947 0.00178788 382
2.88525 0.904136 0.753252 0.475497 2.68517 0.481354 1.92698 0.946736 1.90901 0.00416279 382
2.73371 0.591253 2.93477 2.19016 2.62565 2.44164 0.597662 1.80287 2.38638 0.00470336 383
1.57294 0.425874 1.51526 1.3592 2.05374 0.642143 0.16487 0.175114 1.62396 0.00247484 383
2.84388 1.11259 2.87686 1.96965 0.754205 0.813065 1.4093 1.9408 2.55565 0.000481775 383
0.789065 0.241425 2.24631 0.857738 1.6805 0.755568 0.302762 1.19265 2.31222 0.000742539 384
2.07011 1.6529 0.723005 2.64023 2.83965 1.21274 0.156623 0.834135 1.0608 0.00381058 384
0.32507 1.97293 1.74236 1.82938 2.8921 1.12886 1.12173 1.47007 1.13005 0.00417465 384
0.33124 1.81502 2.37619 2.49538 1.98209 0.48595 1.21556 0.78029 2.76713 0.000503747 385
1.78059 2.76782 0.97158 1.12117 2.56696 0.232562 1.19994 2.35924 2.35172 0.000898825 385
0.510455 2.15753 0.486042 0.496356 1.84697 1.32489 0.188289 1.62632 1.21917 0.00420341 385
0.935503 1.37102 2.16982 0.443148 2.7578 1.53793 0.833262 0.377504 2.39652 0.00339414 386
1.03028 2.46626 2.20318 0.239068 0.317288 1.18395 1.44894 1.91755 2.21937 0.00392789 386
0.379483 0.213211 1.28384 0.141351 0.180777 1.04508 2.74589 2.22283 0.600161 0.00177364 386
1.62664 1.6024 0.367021 0.208498 0.527141 0.175489 2.33443 2.7612 0.80726 0.00425798 386
2.19556 2.41826 0.836473 0.921504 1.04074 0.592929 0.19588 0.886245 1.99706 0.000243308 387
0.769093 2.07967 1.94944 1.01925 1.8131 0.277236 0.125227 1.73829 1.2355 0.0010464 387
1.97647 0.556847 2.06907 1.88414 0.258178 1.09915 0.696393 0.13071 0.8501 0.00439278 387
0.175681 2.11437 0.531414 0.96674 2.87853 0.443595 1.66354 2.00947 2.84257 0.00337075 388
0.367018 2.72271 2.42689 0.240791 0.387982 1.22673 1.31765 1.16533 2.39888 0.000400254 388
1.72787 0.453451 0.0633061 2.29488 1.81122 1.84953 0.43953 0.111588 0.852972 0.00275258 388
1.77056 2.96594 0.930931 2.711 0.79546 0.373851 2.9638 2.82058 2.22785 0.00137636 389
2.34201 0.251817 2.25278 1.61228 0.634322 2.48562 0.0372265 0.682756 0.917948 0.00318058 389
2.0429 1.98336 2.54826 1.77816 1.154 2.14625 2.50806 1.80757 0.908693 0.00370515 389
1.6254 1.21732 2.05686 1.07932 0.132319 1.64222 0.911792 1.03225 2.85009 7.81326e-05 389
2.46031 2.6165 2.59584 2.53829 2.24243 1.29571 0.785916 1.95773 1.32664 0.0033792 390
0.821695 0.547883 1.52936 1.71927 0.148495 2.40455 2.25369 1.65663 1.12589 0.00125686 390
0.7053 1.00615 0.469785 2.98862 2.03534 1.59021 1.68598 1.95949 2.471 0.00224515 390
0.783633 0.893056 2.06311 0.836695 2.62823 0.17837 0.514574 1.02609 0.793062 0.00206997 391
2.69501 1.58918 0.740749 1.18197 0.330509 2.32447 2.42149 2.64868 1.67447 0.00135741 391
1.26229 2.90273 0.402868 1.71776 2.60745 2.40203 0.74691 2.47353 1.36515 0.002781 391
1.73506 0.411325 0.88626 2.61772 2.08469 1.37181 0.700366 2.56716 0.760704 0.00110266 391
1.35536 2.04239 1.6643 0.853088 2.02196 1.46694 1.40052 2.57166 0.943531 0.000305048 392
2.38047 1.51137 1.44285 0.3512 0.0583543 2.57171 0.340138 1.29069 0.521684 0.00351183 392
2.60161 1.21965 2.78309 0.107835 0.842081 1.238 1.96973 0.905282 1.31944 0.00308863 392
2.08096 1.74083 1.16412 0.825988 1.2981 0.301016 1.89635 2.72053 2.28759 0.00177888 393
1.92554 2.79601 2.12336 0.774498 2.65627 2.51644 1.25849 1.51537 1.63606 0.00103761 393
1.50733 1.75811 1.65147 0.218853 1.57638 1.91152 2.66057 2.29744 2.53483 0.000494767 393
1.22456 0.393079 2.45193 2.35116 2.68845 2.26965 0.0569925 0.215316 1.22236 0.00488815 394
0.46676 2.34322 1.23965 1.31812 0.185768 1.4596 1.69473 1.89549 0.786519 0.000933683 394
1.39845 2.59748 2.98659 2.93139 0.413129 1.59994 1.48774 0.817151 0.692524 0.00380938 394
0.873745 1.07212 2.10386 1.1454 1.16157 1.89002 0.466801 1.26269 2.35513 0.0019882 394
0.24655 2.49072 0.0264425 2.97822 1.99301 1.72137 2.36958 0.985876 1.95626 0.00457859 395
1.83805 2.78725 0.292386 2.18059 1.76275 0.841119 1.40218 2.4598 1.80337 0.00478031 395
1.34858 0.139024 1.43068 0.786107 2.36536 0.52747 1.85738 1.10095 0.898467 0.00108351 395
1.70327 2.85443 0.922408 0.851833 0.361294 0.559759 2.68316 1.75954 0.990165 0.00243007 396
1.5534 0.295122 1.40411 0.648145 1.62128 0.626919 0.949181 2.97903 0.90468 0.000477888 396
2.88121 2.09315 0.613272 2.21996 0.0103157 0.686461 0.0347273 2.96796 1.3083 0.00460996 396
0.612793 1.84192 0.893732 0.343545 2.28758 0.282477 1.83763 0.220671 1.79928 0.00440283 396
2.13531 0.274774 2.12899 0.153697 2.25801 0.413406 2.88731 2.25606 1.94115 0.00460403 397
1.73003 1.4651 1.03219 2.89304 1.98376 1.10596 1.31493 2.80988 2.89737 0.00360089 397
2.97305 2.38789 0.610568 2.3344 2.60356 2.7915 2.41131 2.33786 1.50038 0.00295113 397
2.50687 0.493373 1.7499 1.94415 1.41766 0.796978 2.89728 2.53129 1.42909 0.00214404 398
1.93945 1.13696 0.652831 2.64721 1.21073 0.997364 0.179003 2.89381 1.58121 0.00277445 398
1.53571 1.61122 0.575667 0.355919 2.09292 1.11775 2.91116 2.69169 1.20618 5.53275e-05 398
2.9801 2.28873 0.898408 1.592 2.58655 2.84525 1.08361 1.57751 1.17716 0.00259716 399
1.59604 0.188872 1.15693 1.90118 1.21575 0.52127 2.69581 1.70103 0.725779 0.00407718 399
1.41368 2.88748 1.71861 2.63858 2.85106 1.68341 1.78843 2.96129 0.975212 0.00475422 399
1.24287 1.60761 0.204432 0.0603366 2.8475 0.0882585 1.33839 1.71366 1.17396 0.00147049 400
1.20833 0.980336 2.94977 2.25165 0.823657 2.4822 1.15645 2.91193 0.190897 0.000391051 400
1.56516 2.74856 1.60716 0.782469 2.33138 0.0326564 2.04308 1.17507 0.153898 0.00412331 400
0.284239 2.41134 2.00993 1.9999 1.5442 2.03155 0.255731 2.75464 0.928489 0.00440876 400
2.85858 0.331802 2.55106 1.49584 2.54049 0.386839 1.49353 2.60391 1.36111 0.00135119 401
0.40954 0.22154 0.78677 0.762965 1.21416 2.0138 2.31218 1.61553 0.0491589 0.00168374 401
0.541388 1.15049 2.61614 2.82951 1.75611 1.93331 1.65153 2.81958 0.969602 0.00395996 401
2.42787 2.77099 0.676857 0.687829 1.88442 2.74373 2.87374 0.63923 1.71061 0.00179066 401
1.34503 2.76052 1.10833 0.0136057 0.575035 0.0463345 2.93363 1.77186 1.76299 0.00491937 402
0.101936 1.3312 1.35408 2.67532 1.09523 0.460955 1.30328 0.448386 2.60863 0.00140196 402
0.0534457 2.44656 0.0917376 2.70153 1.09451 2.88322 0.988976 1.89635 1.05502 0.000337432 402
1.29145 2.41504 2.3666 1.92161 0.632391 0.309626 2.3614 0.972653 1.74898 0.000623533 403
2.85284 2.4297 1.29697 1.55131 0.285172 0.237296 0.863995 1.90768 2.58656 0.00240563 403
0.779055 0.406258 0.394774 0.997418 1.95871 2.15697 1.70586 2.4112 2.47858 0.00453497 403
2.7205 0.525244 1.04211 1.38107 0.591552 1.27645 0.985107 1.22218 1.11631 8.02114e-05 404
2.1705 2.08462 2.86192 1.81179 1.64598 2.58805 1.07852 0.498253 2.92065 0.00272836 404
1.99838 2.7919 1.38359 1.18425 2.27964 1.83383 1.03683 2.47791 2.93152 0.00494282 404
1.87022 2.7046 2.01757 2.62389 1.08075 1.75757 1.16008 2.66649 2.10618 0.00197193 404
1.4955 0.127894 0.688379 0.164558 1.21848 2.36255 1.70325 2.50805 1.64562 0.00151646 405
0.423324 0.0700668 2.9328 0.151476 2.64767 1.88843 1.10806 0.267167 1.46447 0.000879135 405
0.945384 0.134396 1.67628 0.481874 1.42987 1.35966 1.74132 0.119606 0.105551 0.00386923 405
0.766161 1.37525 1.9971 2.94977 2.25076 1.51544 0.93138 0.501499 1.22541 0.00248044 406
0.734361 0.775232 1.20468 1.98569 2.86491 0.265942 1.17235 2.24178 0.239541 0.00268337 406
1.11208 1.85638 1.72363 2.77407 1.41307 1.42734 1.78387 0.429426 2.09363 0.00457488 406
1.82828 1.30499 2.69177 2.2377 0.125086 1.01468 1.78018 0.0116749 1.13922 0.00235176 407
2.67533 2.46118 1.77914 0.437858 0.590776 0.403554 0.730212 2.34494 1.45752 0.00205287 407
1.74234 2.19913 0.784629 0.127504 1.75268 0.285923 2.00889 0.928223 2.90712 0.00233845 407
1.25742 1.20651 2.64836 2.64311 2.1706 2.56086 2.09081 2.56803 0.946564 0.000651631 408
2.83342 0.488542 1.3567 1.84467 1.31852 2.35812 2.89349 2.18512 1.82015 6.86122e-05 408
1.39428 1.64352 0.390203 2.98341 0.545182 1.79268 2.27393 2.86633 1.50966 0.00218368 408
1.66998 2.93704 0.779907 1.06658 2.26104 0.543569 1.56548 2.45098 0.832033 0.00482736 408
0.641407 0.797094 1.07219 2.30915 2.07373 0.804763 0.612754 1.31028 0.879605 0.00353309 409
0.276574 2.31257 1.24366 1.1981 1.15755 0.208907 2.11702 2.87665 1.39078 0.000902192 409
1.18842 1.24084 1.29597 0.0390171 0.247751 1.12756 2.24777 0.738646 1.28929 0.00343683 409
2.29656 2.36776 2.34728 1.11102 1.23593 1.27076 1.53964 0.999903 1.40386 0.00115366 409
2.84836 0.0435699 1.95064 2.71204 0.0686551 0.0383816 2.62933 1.1782 2.79353 0.00346968 410
2.75486 1.71669 2.11015 2.2734 1.3227 0.398098 1.33734 2.79268 0.589257 0.00419045 410
1.70404 0.62475 2.50353 0.26449 0.272832 1.16073 2.5801 0.859699 2.97482 0.00498658 410
2.31958 2.05921 2.57633 0.295051 2.67645 1.90257 2.57689 1.44515 2.30028 0.00361279 411
0.469043 0.228574 1.85728 2.47082 2.3987 0.228798 1.92412 0.564778 2.92594 0.00235909 411
1.9214 0.109616 2.37901 0.577634 2.48447 1.82745 1.16882 2.52656 0.157322 0.000694046 411
0.988494 0.374626 1.64897 1.40357 0.0835615 1.97376 2.18739 0.469644 0.146185 0.00220316 412
0.167286 1.3998 2.68486 1.39099 2.14201 2.61648 0.545298 1.06687 1.60259 0.00340514 412
1.71589 2.69242 1.05177 2.73569 1.24869 2.30377 2.94251 2.04101 2.95384 0.00115621 412
1.85253 2.425 2.55563 2.50675 2.64263 2.46072 0.443843 2.49599 2.06614 0.000812729 412
1.5106 1.25584 2.10627 1.39354 2.48074 0.0975979 2.10226 0.108355 1.785 0.00293764 413
1.90076 2.03114 1.48606 1.73041 0.613127 0.128175 1.51294 0.702471 1.72972 0.00265501 413
0.381505 0.767664 2.15902 2.77879 0.715863 2.28009 0.888868 1.53669 2.59852 0.00427905 413
0.0268655 1.66366 2.39043 0.865417 0.540553 2.53498 2.84488 0.309698 1.56409 0.0031241 414
0.253374 1.71265 2.88562 2.40476 1.8588 0.824064 0.643318 0.476695 2.97218 0.00480047 414
0.625558 2.34879 1.33477 0.885328 2.74184 2.37905 0.0160867 0.619734 1.59937 0.00435372 414
1.66364 1.20599 1.61437 1.60225 1.52795 0.342697 2.85615 1.07664 2.51448 0.000284874 415
0.881751 1.47301 2.19284 0.501988 1.81732 0.622421 0.293015 2.28734 0.882716 0.00445383 415
0.455873 2.24219 0.586667 0.830367 2.60043 2.47629 1.37141 0.523596 1.3993 0.00255149 415
1.23821 0.304869 0.881406 2.14234 1.07032 2.53857 1.76556 1.7306 1.21468 0.00472287 416
1.40662 2.3767 2.50783 2.49067 1.48464 0.82679 0.376763 1.14975 1.11152 0.00378745 416
2.68852 2.48564 2.61224 0.291872 1.51244 1.71476 2.86361 1.83579 0.463126 0.0019368 416
2.32825 2.43244 1.76055 0.210803 1.77351 0.253513 2.64189 1.4256 1.20423 0.000892597 416
0.965698 0.278842 0.0295428 2.67261 2.72237 0.332988 1.18457 0.651521 1.19974 0.00122373 417
0.645345 1.31667 0.0877244 1.48354 0.77709 1.78063 0.924718 0.582879 2.42737 0.00404623 417
1.51636 0.387688 1.597 0.0215267 1.26609 2.60255 1.24127 1.19797 1.88096 0.00467116 417
2.79464 1.01221 2.03433 0.119379 1.53469 2.63641 0.668757 0.901381 1.92082 0.00244836 418
0.333564 2.40548 2.7007 0.0672492 1.33018 0.145575 1.17451 0.043159 2.04311 0.00307625 418
1.68919 0.707949 2.56942 1.04559 2.31685 1.5553 1.6816 0.603615 2.48758 0.000763089 418
0.30598 1.27735 2.7977 0.99575 1.26539 0.854185 1.95445 0.862711 0.452962 0.0016218 418
2.61548 2.37278 1.41248 1.95186 0.381427 1.81263 0.78753 1.15373 1.41578 0.00173325 419
1.71275 2.7158 1.72083 2.96873 0.186908 2.82451 1.05263 0.260279 1.65991 0.00114987 419
2.40835 1.62701 1.4225 2.54171 0.570471 2.57911 2.68527 1.31903 1.31343 0.000593409 419
1.79289 0.648052 1.88808 0.524059 0.787185 0.819686 0.969735 2.62673 2.25628 0.00396235 420
0.235451 1.92158 0.203215 1.57779 1.61549 1.12011 0.353295 1.07087 0.578943 0.000426718 420
1.44756 1.6761 1.60141 2.22584 1.45106 2.46372 0.835311 1.01654 0.821372 0.00480716 420
1.11673 2.0093 2.83702 0.642648 0.610823 2.52753 0.653371 2.44099 1.19145 0.00254907 421
2.73692 1.32621 2.46829 2.90757 1.34401 0.102889 1.74627 0.743271 1.52428 0.00253897 421
0.603451 0.690434 1.14022 1.52257 2.03862 0.969082 2.06097 2.21715 2.86569 0.00116962 421
1.3583 0.45184 0.641127 0.670798 0.164665 1.95456 2.13914 0.692856 1.59566 0.00200534 421
1.09244 0.0455101 0.593478 0.841648 2.34509 1.41747 0.0101003 1.30411 0.334926 0.000658766 422
0.953277 0.182915 1.16817 1.87678 0.041112 2.04633 0.531624 2.92014 0.478021 0.00293188 422
2.46401 0.243112 2.35565 0.784205 2.15509 2.09903 2.79903 1.01356 0.737805 0.00373396 422
0.802696 2.22528 2.04711 2.39047 1.63307 0.759911 2.7081 1.29766 0.487676 0.00274892 423
2.94699 2.55023 1.53044 1.86747 0.257455 2.26631 1.58015 2.92704 0.219915 0.00367892 423
0.143432 1.95003 2.89623 0.53421 2.95758 0.868671 1.82227 0.473044 0.865334 0.00406219 423
0.827177 1.10872 2.19553 1.33534 1.90627 0.111393 2.42025 2.23064 2.01685 0.00215971 424
2.35604 2.49998 1.42129 0.697484 0.141094 2.49794 1.02205 2.16319 1.0641 0.00224181 424
1.7745 0.965525 0.230622 2.8844 1.4896 2.35479 2.67533 1.25874 1.03293 0.00237762 424
0.715708 0.267179 0.673316 0.954372 0.506758 0.569226 1.20074 2.00361 1.42738 0.00169748 424
0.481937 2.2409 2.05098 0.423029 0.113129 0.508829 1.99913 1.72173 0.684612 0.00312871 425
2.40964 1.75444 0.219548 2.69987 1.38826 0.469205 0.492704 0.477923 2.0608 0.00200098 425
1.44577 2.58532 2.60488 1.22273 1.97714 2.91635 2.9826 0.481342 0.633257 0.00353596 425
2.30239 0.554367 1.84935 1.39865 2.28363 0.993662 1.06907 2.37074 0.797528 0.00403439 425
2.76323 2.59926 1.4385 0.403774 0.0295642 1.40222 1.26337 1.4127 2.50025 0.00465808 426
0.387321 2.32534 2.29441 1.08068 1.96034 2.14294 2.25994 1.18154 1.78922 0.00105903 426
2.75205 0.465975 1.08354 1.67486 2.04503 2.55796 2.49577 0.873761 2.33174 0.00281707 426
1.12071 1.82076 2.72683 0.54692 0.560984 2.19955 0.084119 1.48822 0.937399 0.00397275 427
0.295479 2.11661 0.744134 1.78907 2.66038 2.62273 2.33953 2.05663 2.77576 0.000186667 427
0.0160606 2.88474 0.243859 2.06189 1.7813 2.98904 2.3977 1.64897 0.0308079 0.000182498 427
1.13222 1.32402 1.06752 0.760358 0.726579 2.97275 0.772256 2.12129 1.65202 0.000263292 428
2.72911 2.16239 1.71415 0.180426 1.27264 2.85269 1.36538 2.60958 1.65588 0.000316921 428
0.836447 1.9483 2.45753 2.44885 2.26625 1.72997 1.64907 1.59032 2.7533 0.00156149 428
2.67196 0.723711 0.200412 0.627391 2.69588 0.745107 0.767655 2.10679 1.45921 0.00404058 429
0.991327 2.83882 1.2339 2.65804 0.0235666 0.872896 1.55824 1.69841 0.848843 0.00331155 429
1.31954 1.18872 2.80766 2.53476 1.18242 2.46873 1.76268 2.94587 2.65185 0.000292681 429
1.03736 1.47136 1.87084 2.31105 2.35804 0.198549 2.38584 1.39818 2.31362 0.00423614 429
1.37312 2.9001 0.94179 0.768674 1.454 2.87118 0.79503 2.46542 2.77855 0.00209964 430
2.58435 1.03739 1.48067 0.965453 0.462728 1.67877 1.92003 1.57455 0.224174 0.000611013 430
2.3608 0.665658 2.96715 0.00731153 0.00103951 1.40542 2.35172 1.71051 0.475447 0.000268782 430
1.58299 1.23157 0.89588 0.0163591 2.66214 2.32745 1.5565 1.58183 0.14118 0.000559378 431
2.89448 0.634902 2.21546 1.766 2.41291 0.495316 0.406136 0.00894655 1.8425 0.0046847 431
0.865653 2.31389 0.431495 2.92642 2.22416 1.1992 0.404996 1.1891 2.57624 0.0011858 431
2.48851 0.519478 0.84167 2.45855 2.89948 0.292275 2.25724 2.11679 0.299971 0.00408381 431
2.75907 2.29736 1.38061 1.01346 2.21764 2.43308 0.363567 0.0569098 0.302904 0.00137486 432
1.16211 0.751821 1.10396 2.1589 0.319198 1.80277 2.41744 0.977222 2.05077 0.00448802 432
1.95997 2.36067 2.1997 0.288816 0.6844 1.39031 0.0651546 1.23019 1.54097 0.00142735 432
1.00899 2.14854 1.36749 1.31221 1.11017 2.70225 1.83528 1.86309 1.08176 0.0039483 432
2.95724 0.474661 2.98149 1.85971 1.73595 0.517545 1.24728 0.0251581 2.85409 0.00155847 433
1.85808 1.03924 0.271772 0.815713 1.87651 0.60956 2.86901 0.497065 0.316721 0.00259195 433
1.91339 2.64627 1.40372 0.739481 2.50705 0.131172 1.2237 0.124082 0.358331 0.0023729 433
0.676616 2.82002 1.60899 2.46464 0.763911 1.59348 1.39665 0.460307 1.42423 0.0013993 434
2.28892 0.729804 2.76618 1.77374 1.20072 0.080237 2.29384 1.48507 0.642825 0.000288853 434
2.16273 2.72093 0.360925 2.91005 0.468339 2.16255 2.67099 0.656662 2.60587 0.00487308 434
2.70725 1.76808 0.0865491 2.55706 2.06164 1.78834 1.46707 0.710482 2.66808 0.00322733 435
0.464088 2.18778 1.82435 0.655448 0.266096 1.661 2.47606 0.891713 0.482728 0.00114188 435
1.19173 0.939286 1.45514 2.79524 0.831355 2.59613 2.42491 2.40038 2.81646 0.00444289 435
0.405115 0.517571 2.83821 2.12891 2.11832 1.99707 2.65392 0.121298 1.21762 0.00188917 435
2.80087 0.106236 1.20648 0.096528 1.56715 1.06744 1.18118 1.08008 0.522774 0.00300306 436
0.857647 1.48283 1.01303 1.29382 1.22382 0.410087 2.81613 1.40286 0.148056 0.00280662 436
1.1348 2.91134 0.88999 1.25052 0.168298 0.564193 0.26739 2.0903 2.50707 0.00418667 436
0.815401 0.502665 1.97381 1.57396 0.122281 2.05296 2.23445 1.27425 0.352828 0.00473353 437
2.24126 1.53326 1.89931 0.121972 0.752039 0.487796 1.43538 0.208983 2.50237 0.000118703 437
0.267964 0.192688 1.8527 0.931016 1.91527 2.38578 1.71792 2.0323 1.74305 0.00474531 437
0.863634 1.67283 2.31851 1.46376 0.228726 1.87576 0.819361 0.157376 2.84075 0.00267112 438
2.5818 2.52358 1.76539 2.30134 1.19609 0.295786 2.03441 2.13509 1.62262 0.000547737 438
2.74095 0.76356 1.00144 0.631669 1.44155 2.44258 1.75654 2.67361 0.561976 0.00317222 438
2.96894 1.98769 1.73158 0.00997544 0.416081 0.0418736 2.99364 1.04068 2.62037 0.00276463 439
1.37834 2.56584 0.287548 0.25295 1.02865 2.67226 2.39498 1.49189 0.418268 0.00128417 439
0.21707 0.793705 2.99149 1.47663 2.83114 1.69254 2.56039 1.44224 2.28284 0.000779086 439
0.62281 0.418098 0.301564 0.565018 2.38082 2.43244 0.390629 2.40684 0.545536 0.00345832 439
1.31309 0.0509328 1.46919 0.38242 0.207506 0.370041 1.12886 1.85181 0.132592 0.00368984 440
0.485426 2.35422 2.90832 1.30271 1.2835 1.26408 1.42621 0.276127 0.664264 0.00447486 440
2.62506 0.612837 2.39338 2.58177 1.85125 2.09532 2.02648 0.735882 1.30655 0.0037778 440
1.07909 1.04309 0.911271 1.8515 2.49283 2.92507 0.455517 1.0086 2.73796 0.000634203 441
1.08488 2.26158 1.4995 2.98772 2.2388 0.226772 1.97474 2.89588 1.48441 0.00227237 441
1.08238 2.55367 0.296602 2.55904 0.0428946 1.22047 2.10978 1.76431 2.79177 0.00324149 441
2.24433 0.857148 1.54179 1.71112 0.679987 1.35242 0.155283 1.99807 1.55771 0.0049216 441
0.627209 1.51964 1.43579 0.278434 2.46216 2.34191 2.7748 1.67635 1.70963 0.00341484 442
0.131999 1.19433 1.23637 1.73541 2.72897 0.774012 0.203285 2.29035 2.07255 0.00170973 442
1.4113 0.537582 1.75596 1.63794 1.29302 2.30098 2.48008 0.95585 2.03033 0.00107682 442
2.20083 1.61425 2.05474 2.32446 2.47797 1.87058 2.45457 1.28923 0.894081 0.00187726 443
1.91093 2.36198 0.963538 2.79137 2.61729 0.420811 0.0726378 2.35326 0.914149 0.00250889 443
0.206831 0.871294 2.02423 2.88862 2.75698 0.401785 2.93855 0.635803 0.42847 0.00309589 443
1.27485 0.73652 0.726826 2.37915 2.6926 0.515721 2.58562 1.33409 1.51455 0.0020931 444
1.55601 1.70075 1.90901 0.744423 2.10606 2.64308 0.70914 2.10092 2.28929 0.00444964 444
2.10661 0.97436 0.496972 0.603332 0.424958 0.491902 0.567402 0.166355 0.715334 0.00120775 444
1.30433 2.07871 0.274804 0.528923 0.159156 1.54037 1.49863 2.97209 1.24752 0.00216448 445
2.45847 2.09542 0.732221 0.416927 2.07855 0.735426 0.562848 0.779745 1.35571 0.0044958 445
2.44213 1.78011 2.14519 0.256748 2.62074 1.93123 0.961284 1.10687 0.729779 0.00228351 445
1.54504 1.02357 2.06667 2.81346 0.153913 0.297916 1.61866 1.61142 2.06746 0.000599792 445
2.80318 0.929835 0.472021 0.843392 1.7048 1.57249 2.10457 1.20943 2.2004 0.00106134 446
2.02524 2.17693 0.986354 0.440675 2.85727 1.66562 1.63791 0.21639 2.70151 0.00391248 446
2.9956 2.62131 1.17723 1.23729 1.30221 1.54276 1.91231 1.4594 2.99881 0.00269244 446
0.959993 2.86855 1.66834 1.26617 2.30107 0.703962 2.9535 2.30369 2.18708 0.00310252 446
2.69744 0.0380361 0.474638 2.48216 2.17416 1.92458 1.18505 0.435399 2.11043 0.00499777 447
2.51851 1.46314 1.6192 0.561651 0.231094 2.56267 2.5213 0.609524 1.19035 0.00264756 447
0.727172 1.09784 0.0374023 1.86255 2.63823 0.927905 0.893524 2.93437 1.92945 0.00299981 448
2.12226 2.85195 1.47363 0.714764 1.50424 2.81446 0.578069 1.69612 0.902298 0.00434965 448
2.21486 1.89061 0.62807 1.25545 0.52288 0.907171 1.61334 0.576118 2.6378 0.00291668 448
1.24863 1.65341 1.46302 1.58561 2.88039 2.83819 1.71418 2.95968 1.82723 0.00226094 448
1.48175 1.51614 1.15221 1.32954 2.98367 1.44636 1.96414 0.250898 0.722161 0.000831215 449
0.200181 1.66138 1.02483 2.37806 0.221815 0.944338 0.211221 2.06885 2.67476 0.00216948 449
2.54016 1.54766 2.62974 0.727533 0.850912 2.51049 1.73665 0.394567 2.90549 0.00464643 449
2.39879 0.430555 0.225975 2.62192 1.37896 1.85537 1.14773 1.98945 2.54292 0.00196598 449
2.6208 0.828706 2.81683 1.57861 0.65992 1.96627 1.25491 0.282323 1.5316 0.00044351 450
2.34348 0.997957 2.73029 2.77537 2.76763 0.201245 2.04008 1.14173 0.271039 0.00317948 450
1.38435 2.72539 0.543044 2.81829 2.34068 2.74818 1.91002 2.65545 2.531 0.00484931 450
1.73166 1.7567 2.11668 1.76231 1.48161 0.435853 2.01526 2.52056 0.471532 0.00271648 451
1.48368 1.26706 0.632693 1.06208 2.07926 0.97719 0.460034 0.2943 2.97732 0.00385364 451
1.28624 1.77832 0.484177 2.79843 1.15091 1.1626 2.13034 1.96369 1.5474 0.000190899 451
1.15721 1.74906 1.8667 0.393062 1.63529 1.14534 0.174192 1.05623 2.29275 0.00468742 452
1.29489 2.74295 1.30278 2.76752 0.0632058 2.86884 0.739717 2.96607 0.790551 0.00413363 452
0.89581 0.169939 0.307804 1.99036 2.38206 2.7581 2.78748 1.78924 1.80714 0.00277556 452
2.06252 0.720527 0.196851 0.42762 2.16336 2.66155 1.83941 0.236178 0.925697 0.001656 452
2.68049 2.96781 1.13919 0.736434 2.82419 1.43994 0.742442 1.43886 0.651835 0.00289449 453
2.08694 1.62487 1.11307 1.4493 2.53398 1.51872 0.160099 2.37799 0.564984 0.00149794 453
1.84751 1.55282 1.21191 1.79525 0.0722418 0.859809 2.75626 0.827105 0.0231584 0.000411797 453
1.53906 2.09881 2.51047 2.17289 2.02681 0.665545 0.295207 0.625159 2.18505 0.00124955 454
1.10635 1.16237 1.28625 0.651722 2.81177 0.688427 2.03024 2.13617 0.784785 0.00428343 454
2.37583 1.65678 1.86023 0.539586 1.02109 0.498964 1.75162 2.70297 0.549527 0.00383122 454
2.52978 0.639539 0.623695 1.66012 1.1162 0.681852 2.21622 0.0235898 1.14035 0.00273012 454
2.57526 1.93197 0.40009 0.772376 0.645353 0.346588 2.22804 1.2768 0.706543 0.000452265 455
2.27938 2.5475 2.4119 2.02588 0.940861 1.7549 0.480372 2.2513 2.47483 0.00485806 455
2.48526 1.78273 1.26113 1.54542 2.39613 0.780675 2.48998 0.800724 2.09772 0.00377047 456
2.81491 0.507167 1.91886 1.27557 2.99559 0.533761 0.244354 1.54977 0.275467 9.5079e-05 456
2.15785 0.952961 2.89152 1.10678 2.23779 0.849365 2.83262 1.52504 1.60849 0.00262133 456
1.63595 2.26755 0.606986 1.10912 2.44911 0.289223 2.59167 1.41759 1.61194 0.000473461 456
1.06108 0.530271 1.67737 2.27974 0.943786 1.54606 0.818347 1.54416 1.36868 0.000532621 457
0.882748 0.582 1.94024 0.26171 0.687854 1.84189 2.608 2.78946 2.61328 0.00242088 457
2.99757 0.711334 0.266693 1.13537 2.91455 2.99843 1.82455 0.0768673 2.86342 3.07881e-05 457
0.121229 1.31839 2.8819 0.072843 2.61337 2.7622 2.15159 2.78499 1.88474 0.00123686 458
2.35371 1.45964 0.642277 0.767938 2.60527 1.96803 2.35309 2.65071 1.42189 0.00203052 458
2.4171 1.35217 0.0528023 0.368018 1.12083 0.875103 1.0393 2.14613 0.167038 0.00252368 458
1.43495 2.33448 2.91109 2.40837 0.435791 1.06106 1.097 2.01987 0.998106 0.000135843 458
1.75752 1.79837 0.696554 2.59455 2.47127 1.93765 2.82645 2.09195 1.57929 0.00138137 459
1.98708 0.323912 0.173242 1.48196 0.858449 0.789304 1.98957 1.26615 1.83664 0.0015837 459
0.800311 0.909186 1.80292 0.545051 0.45455 1.49671 0.366304 1.23408 1.2278 0.003487 459
1.48878 1.41726 1.17145 2.47752 0.0953529 0.0942443 1.01153 2.37506 2.44395 0.00332296 459
1.22086 1.16906 2.29647 2.85326 2.32061 2.76361 1.29922 1.40748 1.29602 0.00350689 460
2.38749 1.95468 2.67853 0.33183 0.302217 1.7361 0.91741 0.717196 0.178296 0.00116271 460
0.133462 1.25167 0.494166 1.14162 2.43951 1.28736 2.08651 0.650868 0.354029 0.000648603 460
1.09701 0.482669 0.9434 2.8591 1.66407 0.656888 2.38327 2.92988 1.52999 0.00324906 461
2.05241 1.83872 1.39691 1.78541 1.72612 1.65725 2.79788 2.90725 2.44199 0.00496723 461
0.0988684 1.02667 1.14615 0.58129 2.50394 2.6083 1.26211 0.103525 0.197372 0.00357892 461
2.91938 0.86518 1.00814 1.73224 0.770484 2.56845 1.25393 0.179163 0.38813 0.000722088 462
1.63915 2.38447 0.330517 1.6733 0.100772 2.09352 1.50069 1.76227 2.72058 0.000524945 462
1.85003 0.588884 1.40082 2.37471 0.433718 1.56212 1.4557 1.41363 0.0922367 0.00255769 462
0.690729 1.82622 0.85818 0.473092 2.76017 2.68671 0.10858 0.841406 0.405553 0.000843032 463
1.52896 0.805631 0.871181 0.359822 1.73982 0.43965 0.629338 0.994735 2.2385 0.000398635 463
0.538484 1.87951 0.58881 1.28037 0.801957 1.86166 0.525755 0.351907 1.57209 0.00148262 463
1.94821 0.599414 2.13326 2.49638 2.51834 1.75077 1.51896 1.65362 2.31671 0.000689889 464
0.157807 1.89729 1.77684 1.44878 2.14997 0.881181 0.859181 0.237814 1.93806 0.00157359 464
0.341659 0.576728 1.9708 1.51913 2.42599 2.68223 2.28455 1.86601 0.0273498 0.00452557 464
1.64471 0.583756 2.83165 1.29616 2.97173 1.31866 1.98707 1.37247 1.59089 0.00490632 464
2.96014 1.16672 2.58955 0.447535 1.22417 2.58953 1.49079 1.75746 0.555794 0.00400704 464
1.30902 0.428243 2.39618 0.588375 2.18534 2.83697 0.044531 2.18805 2.65344 0.00118363 465
2.44551 0.950883 1.64366 2.13916 1.10105 2.48762 1.17889 2.7364 1.34916 0.00157586 465
2.89636 1.15653 1.04682 0.20027 2.53791 2.92989 1.10108 2.98898 2.03775 0.00327784 466
0.0480503 2.51991 0.829301 2.72214 0.883017 2.1905 1.73085 1.155 2.22379 0.00313939 466
1.07621 1.95863 0.831816 1.75313 1.03285 0.216035 1.45035 1.02254 1.35719 0.00482237 466
0.10916 0.810292 2.08351 2.94716 1.33913 1.10182 0.619368 0.939478 0.322734 0.000301653 466
2.98251 2.64078 0.309369 1.69755 1.94435 2.94075 0.0692148 1.6839 0.0428832 0.000272573 467
1.99243 1.95954 0.278047 1.42294 2.93523 0.733041 0.573296 0.270411 1.08409 0.000717721 467
1.1292 2.97199 1.97598 1.07195 1.53237 1.70395 1.95615 2.97851 0.185197 0.00229559 467
2.89053 2.24797 1.83183 2.45255 1.60276 0.536376 0.810174 1.48189 2.21062 0.00389088 467
0.402475 0.565176 2.63715 1.45769 1.22786 1.2969 1.697 2.17084 1.24104 0.00366578 468
0.847825 2.36526 2.95916 0.901227 1.49132 0.510314 2.28877 2.41459 0.661183 0.00134584 468
0.203398 0.853941 0.213967 1.6864 0.0252604 2.6688 0.469244 1.66488 1.76526 0.00458965 468
0.45878 0.408037 2.64373 2.94441 0.430853 2.13126 1.58887 0.0349605 1.00625 0.00299123 469
1.56786 1.10069 0.36365 1.05908 2.0722 2.73774 2.66886 2.93236 1.31432 0.00491363 469
1.65909 0.325074 2.84358 1.03811 2.27304 2.26328 0.46477 0.182923 1.58489 0.00327076 469
2.90456 0.895334 1.43216 2.30616 2.56956 2.9582 0.882054 2.70401 0.28572 0.00303726 470
1.80964 2.01156 1.78464 0.567723 0.871621 0.367944 0.224469 0.790702 0.513811 0.00422313 470
1.8303 0.197356 1.51291 2.18395 1.58853 0.2058 0.963272 1.74929 1.77858 0.0043286 470
1.34198 1.9177 0.0824186 2.91849 2.10052 0.55082 1.52718 1.639 2.59688 0.00257444 471
2.67755 0.471667 2.32093 1.32315 0.672711 0.952215 0.431851 1.4492 0.0679421 0.00171946 471
0.171165 0.947344 1.25944 2.43623 1.51669 1.88361 2.82331 0.443098 0.309649 0.00410797 471
2.1687 0.95939 0.956138 0.909314 1.77703 1.89403 0.166148 0.637611 1.03638 0.00276976 471
1.42654 0.39123 2.76291 0.975266 0.447966 0.940146 2.62355 1.33617 1.56616 0.00359353 472
2.49584 0.485068 0.699877 0.434944 0.204665 1.27485 1.07583 2.644 1.88358 0.00323188 472
0.112863 1.28409 0.615402 1.89296 2.77942 1.33068 2.46458 0.0410882 1.95539 0.00180322 472
0.146334 0.875685 1.70085 2.66264 2.74938 1.51491 1.41569 1.83802 2.82878 0.00478647 473
0.452635 1.26192 0.338091 0.444305 1.06215 2.66516 1.67693 2.6844 1.55649 0.00246259 473
1.96352 0.376823 2.11934 2.65081 1.61203 0.360658 0.938784 2.71481 2.18287 0.00105485 473
1.57033 2.60684 1.51836 2.14735 1.37434 2.98571 1.27619 1.58935 2.43042 0.00295902 473
0.850435 1.81413 1.65508 1.23526 2.84248 1.54849 2.12289 2.12737 0.104216 0.00152831 474
2.32316 2.12915 0.729714 0.392261 1.44794 2.25652 0.587103 0.525534 2.45165 0.000945342 474
2.92407 0.0114779 1.32599 2.09567 2.98061 1.25593 0.240637 1.32475 1.62641 0.00252962 474
2.72345 1.17803 0.620466 1.3004 0.96892 1.7172 0.279639 2.51659 0.60604 0.00169119 475
2.37629 2.74691 2.00421 2.34339 2.36124 1.36383 1.75968 1.32205 2.15816 0.00117903 475
0.682683 1.27445 2.85531 2.66743 1.62987 0.742502 0.410407 1.87361 1.07513 0.00345055 475
1.43905 0.00715807 1.0638 2.57244 2.76571 2.73266 2.7318 0.0725993 1.14731 0.00195692 475
1.01142 2.56891 0.459575 0.609464 2.10491 1.92106 1.41132 2.19518 1.90623 0.00166149 476
0.436776 1.0153 1.2166 0.13951 2.89761 0.0860538 0.900404 0.786801 2.69007 0.00212704 476
0.471489 0.534017 1.31209 1.75871 0.475271 2.54758 0.230865 0.848892 2.25967 0.000203805 476
2.66325 1.13842 1.70713 2.86535 0.354974 2.81729 1.84963 1.73177 0.824661 0.00471898 477
1.86126 2.54248 1.30098 2.76338 1.76781 0.171619 1.80811 0.783872 0.92071 0.000296635 477
1.86305 1.14633 0.907035 1.41803 2.57883 2.6968 1.77097 1.32806 0.362038 0.00335526 477
1.17537 1.28003 2.22515 1.6848 1.51994 1.61988 1.63992 0.943064 0.779497 0.00150312 478
2.15187 2.22211 0.0629819 1.60735 1.71806 1.63944 2.92356 1.73504 1.34138 0.00315952 478
0.30787 0.433075 1.4531 1.49845 1.36225 2.00438 2.12829 0.170675 1.85983 0.00375297 478
1.61132 2.86632 2.486 2.11383 0.45863 0.01638 2.2028 0.189104 0.496914 0.00290924 479
0.91795 1.18151 1.28952 2.92877 0.798858 1.68905 2.18127 0.344232 2.63102 0.000564271 479
1.65467 1.08527 1.10078 0.894425 1.87899 2.47329 0.839729 2.36188 2.38898 0.00201529 479
0.459325 2.16789 2.1446 2.1086 0.57903 2.82982 2.40709 2.4822 1.08837 0.00185293 479
2.92539 1.21475 1.5956 2.28924 1.74008 2.80119 1.47535 0.0129486 2.1369 0.00261512 480
0.686358 2.42329 2.18251 2.11729 2.4824 2.0276 0.782888 1.64542 0.161776 0.00212461 480
0.0541849 1.41248 1.77029 1.66438 2.95875 2.00733 0.0605947 2.60599 0.114898 0.00310604 480
2.43932 0.0123974 2.68587 1.26099 1.78632 0.430637 1.85123 0.18599 2.54612 0.00441564 480
0.942938 2.06473 2.67148 2.50143 1.83942 2.7558 1.80994 0.411252 0.410297 0.00233367 481
2.35023 1.29798 2.58742 1.65771 1.86917 1.37542 2.54592 2.58746 0.718575 0.00356322 481
1.023 0.164013 1.56457 1.91331 2.86722 1.77502 1.36006 2.18383 0.657137 0.000311684 481
2.02211 1.00452 1.93495 1.97396 0.401718 1.4832 2.29036 1.53379 1.90293 0.00283717 482
2.47138 1.9971 2.33144 0.999427 2.7892 1.52593 1.44312 2.11418 1.83267 0.00336269 482
1.47581 2.03567 1.53486 1.09056 0.709512 1.57983 1.94728 0.0301472 0.930991 0.00374008 482
0.427516 1.80721 2.8255 1.35175 1.36951 0.847284 1.00347 2.61609 2.00386 0.00261403 483
1.45444 2.8308 2.98433 1.89695 0.242278 1.50652 0.912653 2.45162 0.435405 0.00311246 483
2.30005 0.253112 1.41807 1.43651 0.491646 0.123295 0.905819 2.68541 2.12837 0.000868764 483
2.57836 2.02113 1.29292 1.96499 1.39776 2.36781 1.57125 0.0719852 2.61045 0.00046121 483
2.73036 1.36224 0.212446 1.32149 0.760305 2.78527 1.48027 2.5181 2.67724 0.00372666 484
1.60861 2.95426 1.754 1.21442 0.701623 2.07911 1.79401 2.86378 2.17375 0.00458262 484
1.93044 0.848025 1.6134 1.20182 1.38135 1.26201 2.24345 2.83342 0.457895 0.000205968 484
1.64953 0.587403 2.04017 1.03075 1.97122 2.68017 0.565631 2.34684 0.655584 0.00347337 485
2.72652 1.76355 0.40971 1.92915 0.97055 1.7729 0.191242 0.90977 1.86718 0.00452387 485
1.44938 2.67658 0.797801 1.53444 2.11593 2.93998 2.50137 2.75796 0.280911 0.00254022 485
0.434292 1.14281 0.987126 2.41325 1.10678 1.67376 0.13847 2.43821 0.372619 0.00358435 486
2.27264 1.11965 2.49177 0.847375 0.0987373 2.44646 0.130672 2.5922 1.96049 0.0028043 486
2.71453 2.33825 0.655285 2.71927 0.326798 1.3275 1.75393 1.96529 1.2705 0.00344643 486
0.549633 0.822757 2.60338 2.0821 0.51573 0.8788 2.30036 2.61523 2.59234 0.00179673 486
2.05639 0.746998 2.42209 2.9755 1.58249 1.14101 1.27374 2.9235 0.675252 0.000175292 487
0.805013 1.57847 0.158506 1.50708 0.649013 0.110853 2.15647 0.753855 1.36447 0.00100991 487
0.901289 1.73988 0.867772 0.484037 1.39306 0.728839 2.20528 2.5852 1.67827 0.00347876 487
0.220531 0.117591 1.87394 1.16143 0.960231 2.37028 0.0224788 2.54586 0.416988 0.000849485 488
2.55498 0.65275 1.48965 1.21062 2.61011 0.00728984 2.95094 2.26484 0.332913 0.00455069 488
1.01476 2.3416 0.763442 1.02769 1.13188 1.24939 2.25105 1.1378 2.32748 0.00206458 488
2.03383 1.34259 0.149272 1.20566 1.54698 2.95192 1.38414 1.83001 1.43244 0.00309356 489
2.79285 1.33458 2.35096 2.83496 1.67649 2.11106 0.0792221 0.996588 1.33197 0.00279855 489
0.786382 1.03141 0.389015 1.54082 0.047096 0.318306 1.54274 0.64746 0.580507 0.00267515 489
2.77368 2.81639 2.34084 1.87365 0.878207 1.6081 2.92019 2.49916 2.8441 0.00287015 489
0.899568 1.68381 1.03165 0.940613 0.863527 1.55214 2.70285 2.15578 0.597562 0.000915474 490
0.585098 2.92209 2.38548 0.916962 2.12593 1.70436 1.90224 0.599859 2.35471 0.00437954 490
1.28834 0.347427 2.32876 2.07514 2.74434 1.7437 2.88345 2.44413 2.20246 0.00371746 490
2.98808 2.0184 2.30757 0.191483 1.39908 2.0035 2.24082 2.24017 2.95797 0.00249127 491
2.87162 2.21039 2.99976 1.71413 0.00397961 0.580617 2.81741 1.88448 2.08188 0.00136406 491
0.00365999 1.06558 0.113352 0.286409 2.91659 2.37459 1.56652 0.00231684 2.55822 0.00400387 491
0.590253 2.96314 0.978404 2.67701 1.82236 1.02705 0.944037 2.80515 0.750719 0.00142024 491
1.96879 0.227487 2.95568 1.89358 0.907174 2.41741 1.06188 1.52164 2.6953 0.00360591 492
0.446954 2.71181 0.60298 2.05587 1.93969 1.33778 1.5379 2.94791 2.23072 0.00464383 492
0.0325722 1.62907 0.0177954 1.54948 2.96139 2.89303 0.0076135 1.12141 0.020037 0.00481915 492
1.81539 2.90911 0.994451 2.09235 1.91327 1.84792 1.86855 0.316899 0.887011 0.00411683 493
2.51531 1.88411 1.89836 0.00415022 0.211937 0.0773854 2.98531 1.5028 1.25121 0.00343101 493
1.35916 2.80303 0.14072 2.89878 2.94896 2.0591 1.229 1.02325 1.13128 1.83565e-05 493
2.43802 2.95039 2.58098 0.144355 1.19215 1.30442 2.32477 0.759471 2.49102 0.000326444 493
0.500173 0.206436 1.52274 2.61384 2.70709 2.99631 0.621848 0.706372 2.53946 0.00492862 494
1.29944 1.97939 0.288782 1.6322 1.43857 1.13643 1.28764 2.69725 0.198085 0.00461223 494
2.04691 0.899968 1.69243 2.20072 0.620208 0.668688 1.93892 2.54876 1.80191 0.00434421 495
0.431585 0.967262 1.12029 0.839792 2.90778 1.69948 0.99144 2.8478 1.34418 0.000661961 495
2.92809 2.99582 2.87978 0.494639 2.20846 2.95233 1.23593 0.613037 2.14953 0.00453731 495
0.750688 1.8653 1.57077 1.21726 0.0142186 2.50079 0.00221565 2.98533 2.05746 0.00094342 495
