1670926173.43423,7.32171,2.44586666094421
1670926173.43523,7.326783,2.51620564377682
1670926173.43624,7.323537,2.55124778831943
1670926173.43725,7.318128,2.5755349966619
1670926173.43825,7.322648,2.6682753676681
1670926173.43926,7.326951,2.7687046702432
1670926173.44027,7.33224,2.79833320786651
1670926173.44128,7.333634,2.9138126045308
1670926173.44228,7.33462,2.93326285940947
1670926173.44329,7.331447,2.95273153309011
1670926173.4443,7.329764,2.97218178796878
1670926173.4453,7.313849,2.99162743814695
1670926173.44631,7.293823,3.01107769302562
1670926173.44732,7.289977,3.04923056223176
1670926173.44833,7.284592,3.12348487601335
1670926173.44933,7.293415,3.20464288724672
1670926173.45034,7.324306,3.28358863930143
1670926173.45135,7.3489,3.36744858088374
1670926173.45235,7.350343,3.45132838037313
1670926173.45336,7.345078,3.53520817986251
1670926173.45437,7.341664,3.61906812144482
1670926173.45537,7.327071,3.70294792093421
1670926173.45638,7.315917,3.7869071520519
1670926173.45739,7.312599,3.87078695154128
1670926173.4584,7.316494,3.95464689312359
1670926173.4594,7.333009,4.03852669261298
1670926173.46041,7.337817,4.12240649210236
1670926173.46142,7.333201,4.20626643368467
1670926173.46242,7.324379,4.29014623317406
1670926173.46343,7.312647,4.37400617475637
1670926173.46444,7.304521,4.45788597424575
1670926173.46545,7.316806,4.54176577373514
1670926173.46645,7.319547,4.62562571531745
1670926173.46746,7.307526,4.70950551480683
1670926173.46847,7.318104,4.79346474592452
1670926173.46947,7.334404,4.87734454541391
1670926173.47048,7.35378,4.96120448699622
1670926173.47149,7.352987,5.0450842864856
1670926173.4725,7.3514,5.12896408597499
1670926173.4735,7.35378,5.2128240275573
1670926173.47451,7.370897,5.29670382704668
1670926173.47552,7.374888,5.38058362653607
1670926173.47652,7.380393,5.46444356811838
1670926173.47753,7.366979,5.54832336760776
1670926173.47854,7.355776,5.63220316709715
1670926173.47954,7.346833,5.71606310867946
1670926173.48055,7.332601,5.79994290816884
1670926173.48156,7.335654,5.88390213928653
1670926173.48257,7.332216,5.96778193877592
1670926173.48357,7.319066,6.05164188035823
1670926173.48458,7.320917,6.13552167984761
1670926173.48559,7.343106,6.21938162142992
1670926173.48659,7.367339,6.30326142091931
1670926173.4876,7.380369,6.38714122040869
1670926173.48861,7.374383,6.471001161991
1670926173.48962,7.360103,6.55488096148039
1670926173.49062,7.338803,6.63876076096977
1670926173.49163,7.315003,6.72262070255208
1670926173.49264,7.315604,6.80650050204147
1670926173.49364,7.324691,6.89045973315916
1670926173.49465,7.34426,6.97433953264854
1670926173.49566,7.341808,7.05819947423085
1670926173.49667,7.338659,7.14207927372024
1670926173.49767,7.342626,7.22595907320962
1670926173.49868,7.336086,7.34863353778307
1670926173.49969,7.331326,7.44350013376252
1670926173.50069,7.333755,7.58398998307105
1670926173.5017,7.333755,7.67993926466381
1670926173.50271,7.337024,7.87130776543504
1670926173.50371,7.335462,8.0380310944206
1670926173.50472,7.33075,8.13409645588937
1670926173.50573,7.333611,8.25936199380215
1670926173.50674,7.338082,8.42149751072961
1670926173.50774,7.337457,8.59386686006826
1670926173.50875,7.336279,8.76668979522184
1670926173.50976,7.32998,8.93951273037543
1670926173.51076,7.320052,9.11229475100838
1670926173.51177,7.311397,9.28511768616196
1670926173.51278,7.305146,9.45794062131555
1670926173.51379,7.307983,9.6307226419485
1670926173.51479,7.319739,9.80354557710208
1670926173.5158,7.342024,9.97636851225566
1670926173.51681,7.345582,10.1491505328886
1670926173.51781,7.337409,10.3219734680422
1670926173.51882,7.330678,10.4949600612783
1670926173.51983,7.332624,10.6677829964319
1670926173.52084,7.339476,10.8405650170648
1670926173.52184,7.336567,11.0133879522184
1670926173.52285,7.318176,11.186210887372
1670926173.52386,7.306372,11.358992908005
1670926173.52486,7.310676,11.5318158431586
1670926173.52587,7.33599,11.7046387783121
1670926173.52688,7.337193,11.8774207989451
1670926173.52788,7.324499,12.0502437340987
1670926173.52889,7.319306,12.2230666692523
1670926173.5299,7.312815,12.3958486898852
1670926173.53091,7.301733,12.5686716250388
1670926173.53191,7.308512,12.7416582182749
1670926173.53292,7.319787,12.9144402389079
1670926173.53393,7.321326,13.0872631740614
1670926173.53493,7.338442,13.260086109215
1670926173.53594,7.357459,13.432868129848
1670926173.53695,7.345895,13.6495784356223
1670926173.53796,7.350992,13.903385695279
1670926173.53896,7.360392,14.0698058877235
1670926173.53997,7.359598,14.3229611540296
1670926173.54098,7.367652,14.5241360696233
1670926173.54198,7.35741,14.68833
1670926173.54299,7.343635,14.9611750646161
1670926173.544,7.344188,15.1800199334764
1670926173.54501,7.335966,15.3985904417071
1670926173.54601,7.323393,15.6141197248139
1670926173.54702,7.309906,15.8297000449283
1670926173.54803,7.313897,16.0452803650428
1670926173.54903,7.33337,16.2608096481496
1670926173.55004,7.325412,16.4763899682641
1670926173.55105,7.306108,16.6919702883785
1670926173.55205,7.309882,16.9074995714853
1670926173.55306,7.403929,17.1230798915998
1670926173.55407,7.512424,17.3386602117142
1670926173.55508,7.540671,17.5541894948211
1670926173.55608,7.518386,17.7697698149355
1670926173.55709,7.454198,17.9855542830803
1670926173.5581,7.384048,18.2010835661872
1670926173.5591,7.354646,18.4166638863016
1670926173.56011,7.323658,18.6322442064161
1670926173.56112,7.260647,18.8477734895229
1670926173.56213,7.219874,19.0633538096373
1670926173.56313,7.182684,19.2847778633763
1670926173.56414,7.207061,19.5285078569385
1670926173.56515,7.329067,19.7165939809297
1670926173.56615,7.420854,19.947489520267
1670926173.56716,7.359238,20.213328776824
1670926173.56817,7.289712,20.379052820739
1670926173.56918,7.248435,20.6273749477826
1670926173.57018,7.286972,20.8352002858846
1670926173.57119,7.381211,21.0065801117998
1670926173.5722,7.384096,21.2234832211485
1670926173.5732,7.362218,21.5020506815418
1670926173.57421,7.350944,21.7805521931992
1670926173.57522,7.344212,22.0591196535924
1670926173.57622,7.349982,22.3376871139857
1670926173.57723,7.341183,22.6161886256431
1670926173.57824,7.331567,22.8947560860364
1670926173.57925,7.344068,23.1733235464297
1670926173.58025,7.350631,23.4518250580871
1670926173.58126,7.367099,23.7303925184803
1670926173.58227,7.367195,24.0092237738172
1670926173.58327,7.357795,24.2877252854746
1670926173.58428,7.362579,24.5662927458678
1670926173.58529,7.362218,24.8448602062611
1670926173.5863,7.355151,25.1233617179185
1670926173.5873,7.366065,25.4019291783118
1670926173.58831,7.375585,25.6804966387051
1670926173.58932,7.37121,25.9589981503625
1670926173.59032,7.366041,26.2375656107557
1670926173.59133,7.355824,26.516133071149
1670926173.59234,7.344621,26.7946345828064
1670926173.59334,7.336856,27.0732020431997
1670926173.59435,7.343948,27.3520332985365
1670926173.59536,7.360656,27.6306007589298
1670926173.59637,7.352074,27.9091022705872
1670926173.59737,7.353107,28.1876697309805
1670926173.59838,7.365007,28.4662371913737
1670926173.59939,7.3633,28.7447387030311
1670926173.60039,7.36068,29.0233061634244
1670926173.6014,7.355511,29.3018736238177
1670926173.60241,7.358733,29.5803751354751
1670926173.60342,7.348227,29.8589425958684
1670926173.60442,7.340702,30.1375100562616
1670926173.60543,7.337457,30.416011567919
1670926173.60644,7.335726,30.6945790283123
1670926173.60744,7.353612,30.9734102836491
1670926173.60845,7.366594,31.2519117953065
1670926173.60946,7.36318,31.5304792556998
1670926173.61047,7.367219,31.8090467160931
1670926173.61147,7.361641,32.0875482277505
1670926173.61248,7.346424,32.3661156881438
1670926173.61349,7.33325,32.644683148537
1670926173.61449,7.328201,32.9231846601944
1670926173.6155,7.342144,33.2017521205877
1670926173.61651,7.367075,33.480319580981
1670926173.61751,7.388086,33.7652835250358
1670926173.61852,7.391548,34.0750133834049
1670926173.61953,7.370176,34.3809696388558
1670926173.62054,7.352915,34.6849647911302
1670926173.62154,7.354429,35.0310510739151
1670926173.62255,7.350078,35.3683383246722
1670926173.62356,7.346688,35.6688976983786
1670926173.62456,7.351929,35.9655470143062
1670926173.62557,7.358757,36.3010384121573
1670926173.62658,7.354814,36.5064351076434
1670926173.62759,7.350703,36.5784146033447
1670926173.62859,7.331398,36.6504111436815
1670926173.6296,7.309017,36.7224076840184
1670926173.63061,7.303055,36.8538580448153
1670926173.63161,7.328273,37.158849018598
1670926173.63262,7.351544,37.450638687649
1670926173.63363,7.329451,37.7817008851013
1670926173.63464,7.323369,38.1833249594659
1670926173.63564,7.317287,38.4878435536481
1670926173.63665,7.338418,38.7771450820975
1670926173.63766,7.383927,39.0613485119924
1670926173.63866,7.422753,39.3455519418873
1670926173.63967,7.476315,39.6296880887732
1670926173.64269,7.529252,40.4822310954489
1670926173.6437,7.47319,40.7664345253438
1670926173.64471,7.356328,41.0509070872746
1670926173.64571,7.201051,41.3351105171695
1670926173.64672,7.141983,41.6192466640554
1670926173.64773,7.136382,41.9034500939503
1670926173.64873,7.175063,42.1876535238452
1670926173.64974,7.307358,42.4717896707311
1670926173.65075,7.361546,42.755993100626
1670926173.65176,7.352362,43.0401965305209
1670926173.65276,7.319619,43.3243326774068
1670926173.65377,7.275216,43.6085361073017
1670926173.65478,7.245261,43.8927395371966
1670926173.65578,7.207878,44.1768756840825
1670926173.65679,7.214033,44.4610791139774
1670926173.6578,7.281202,44.7455516759082
1670926173.65881,7.343347,45.0296878227941
1670926173.65981,7.378518,45.313891252689
1670926173.66082,7.383254,45.5980946825839
1670926173.66183,7.338298,45.8822308294698
1670926173.66283,7.291299,46.1664342593647
1670926173.66384,7.286755,46.4506376892596
1670926173.66485,7.290169,46.7347738361455
1670926173.66585,7.286323,47.0189772660404
1670926173.66686,7.284087,47.3031806959353
1670926173.66787,7.273149,47.5873168428212
1670926173.66888,7.255238,47.8715202727161
1670926173.66988,7.286731,48.1559928346469
1670926173.67089,7.337,48.4401962645418
1670926173.6719,7.389721,48.7086290708155
1670926173.6729,7.422585,48.9537497718169
1670926173.67391,7.404482,49.2006486202622
1670926173.67492,7.393712,49.4148302205532
1670926173.67593,7.39013,49.6383472494039
1670926173.67693,7.358276,49.8829309856973
1670926173.67794,7.338226,50.1091271924177
1670926173.67895,7.32135,50.3491793226037
1670926173.67995,7.333803,50.5608695041716
1670926173.68096,7.346111,50.7430050729614
1670926173.68197,7.331158,50.9251972253219
1670926173.68298,7.308464,51.1749820252742
1670926173.68398,7.310147,51.4095914114422
1670926173.68499,7.313368,51.6214743307105
1670926173.686,7.306396,51.8517237691941
1670926173.687,7.313224,52.0650081835518
1670926173.68801,7.326855,52.3247344206009
1670926173.68902,7.336808,52.5562736094421
1670926173.69002,7.336952,52.7323734636472
1670926173.69103,7.331254,52.9486603835873
1670926173.69204,7.314786,53.1904883019645
1670926173.69305,7.29529,53.432258969414
1670926173.69405,7.26596,53.6740868877911
1670926173.69506,7.272908,53.9161438098789
1670926173.69607,7.328754,54.157971728256
1670926173.69707,7.348227,54.3997423957055
1670926173.69808,7.348467,54.6415703140827
1670926173.69909,7.337577,54.8833982324599
1670926173.7001,7.310411,55.1251688999094
1670926173.7011,7.302742,55.3669968182865
1670926173.70211,7.302718,55.6088247366637
1670926173.70312,7.318753,55.8505954041132
1670926173.70412,7.371643,56.0924233224904
1670926173.70513,7.39537,56.3342512408675
1670926173.70614,7.358973,56.576021908317
1670926173.70714,7.321229,56.8178498266942
1670926173.70815,7.305771,57.0599067487819
1670926173.70916,7.297093,57.3016774162314
1670926173.71017,7.287669,57.5435053346086
1670926173.71117,7.285722,57.7853332529857
1670926173.71218,7.337745,58.0271039204353
1670926173.71319,7.346664,58.2689318388124
1670926173.71419,7.322552,58.5107597571896
1670926173.7152,7.316181,58.7525304246391
1670926173.71621,7.317984,58.9943583430162
1670926173.71722,7.331375,59.2361862613934
1670926173.71822,7.34979,59.4779569288429
1670926173.71923,7.343298,59.7197848472201
1670926173.72024,7.338947,59.9618417693078
1670926173.72124,7.318609,60.203669687685
1670926173.72225,7.306949,60.4454403551345
1670926173.72326,7.29065,60.6872682735116
1670926173.72427,7.273365,60.9290961918888
1670926173.72527,7.253435,61.1708668593383
1670926173.72628,7.248435,61.4126947777155
1670926173.72729,7.278918,61.6545226960926
1670926173.72829,7.342698,61.8962933635421
1670926173.7293,7.349862,62.1381212819193
1670926173.73031,7.353107,62.3799492002964
1670926173.73131,7.341928,62.621719867746
1670926173.73232,7.33777,62.8637767898337
1670926173.73333,7.322696,63.1056047082109
1670926173.73434,7.300915,63.3473753756604
1670926173.73534,7.277908,63.5892032940375
1670926173.73635,7.26548,63.8310312124147
1670926173.73736,7.273653,64.0728018798642
1670926173.73836,7.282164,64.3486654635193
1670926173.73937,7.300218,64.6179929706724
1670926173.74038,7.327096,64.8075720474374
1670926173.74139,7.385971,65.007965172866
1670926173.74239,7.388086,65.2237945472103
1670926173.7434,7.333947,65.4605603582837
1670926173.74441,7.311853,65.6973826931331
1670926173.74541,7.30654,65.9182568314259
1670926173.74642,7.307599,66.1433786578445
1670926173.74743,7.30279,66.2961732015207
1670926173.74844,7.299569,66.3284508419867
1670926173.74944,7.303872,66.3607284824527
1670926173.75045,7.307526,66.392998481432
1670926173.75146,7.307574,66.425276121898
1670926173.75246,7.34878,66.457553762364
1670926173.75347,7.402318,66.4898237613433
1670926173.75448,7.384456,66.6719842701478
1670926173.75548,7.333586,66.9090045071599
1670926173.75649,7.287573,67.1456951991425
1670926173.7575,7.17701,67.2726916479142
1670926173.75851,7.158018,67.4127833354859
1670926173.75951,7.230548,67.568182824686
1670926173.76052,7.273894,67.7236191122497
1670926173.76153,7.324018,67.8790553998133
1670926173.76253,7.333034,68.0344548890135
1670926173.76354,7.297261,68.1898911765771
1670926173.76455,7.270816,68.3453274641408
1670926173.76556,7.246247,68.5007269533409
1670926173.76656,7.272788,68.6561632409046
1670926173.76757,7.324956,68.8115995284682
1670926173.76858,7.318873,68.9669990176684
1670926173.76958,7.276418,69.122435305232
1670926173.77059,7.255815,69.2780187862498
1670926173.7716,7.247569,69.4334550738135
1670926173.77261,7.262282,69.5888545630136
1670926173.77361,7.256993,69.7442908505773
1670926173.77462,7.239973,69.899727138141
1670926173.77563,7.236558,70.0551266273411
1670926173.77663,7.279664,70.2105629149047
1670926173.77764,7.320773,70.3659992024684
1670926173.77865,7.308416,70.5213986916685
1670926173.77965,7.281947,70.6768349792322
1670926173.78066,7.280673,70.8322712667959
1670926173.78167,7.260407,70.987670755996
1670926173.78268,7.232784,71.1432542370138
1670926173.78368,7.211677,71.2986905245774
1670926173.78469,7.198454,71.4540900137776
1670926173.7857,7.244804,71.6095263013412
1670926173.7867,7.290987,71.7649625889049
1670926173.78771,7.286731,71.920362078105
1670926173.78872,7.282596,72.0757983656687
1670926173.78973,7.263052,72.2312346532324
1670926173.79073,7.26548,72.3866341424325
1670926173.79174,7.281971,72.5420704299961
1670926173.79275,7.283991,72.6975067175598
1670926173.79375,7.279159,72.8529062067599
1670926173.79476,7.283918,73.0083424943236
1670926173.79577,7.276826,73.1639259753414
1670926173.79678,7.263292,73.3193622629051
1670926173.79778,7.266201,73.4747617521052
1670926173.79879,7.271465,73.6301980396688
1670926173.7998,7.279976,73.7856343272325
1670926173.8008,7.270167,73.9410338164326
1670926173.80181,7.24329,74.0964701039963
1670926173.80282,7.225307,74.25190639156
1670926173.80382,7.236511,74.4073058807601
1670926173.80483,7.278028,74.5668530281354
1670926173.80584,7.335293,74.7565051384982
1670926173.80685,7.351088,74.8513888097282
1670926173.80785,7.359286,74.9728766835322
1670926173.80886,7.351809,75.6872064899136
1670926173.80987,7.294665,75.8103400075976
1670926173.81087,7.224466,75.8277219354839
1670926173.81188,7.223288,76.0329855246331
1670926173.81289,7.246968,76.101841834163
1670926173.8139,7.266201,76.3096800883133
1670926173.8149,7.277187,76.4071079187667
1670926173.81591,7.288054,76.5045126839192
1670926173.81692,7.30493,76.6019405143725
1670926173.81792,7.32986,76.6993683448258
1670926173.81893,7.301324,76.7967731099783
1670926173.81994,7.269759,76.8942009404317
1670926173.82095,7.284856,76.991721032088
1670926173.82195,7.264854,77.0891488625413
1670926173.82296,7.264854,77.1865536276939
1670926173.82397,7.313512,77.2839814581472
1670926173.82497,7.315123,77.3814092886005
1670926173.82598,7.269422,77.478814053753
1670926173.82699,7.241295,77.5762418842063
1670926173.82799,7.241487,77.6736697146596
1670926173.829,7.241776,77.7710744798122
1670926173.83001,7.243073,77.8685023102655
1670926173.83102,7.249084,77.9659301407188
1670926173.83202,7.260912,78.0633349058713
1670926173.83303,7.270047,78.1608549975277
1670926173.83404,7.26197,78.258282827981
1670926173.83504,7.234323,78.3556875931335
1670926173.83605,7.214489,78.4531154235869
1670926173.83706,7.208359,78.5505432540402
1670926173.83807,7.236414,78.6479480191927
1670926173.83907,7.281202,78.745375849646
1670926173.84008,7.282236,78.8428036800993
1670926173.84109,7.268797,78.9402084452518
1670926173.84209,7.253075,79.0376362757051
1670926173.8431,7.238794,79.1350641061585
1670926173.84411,7.217086,79.232468871311
1670926173.84511,7.204657,79.3298967017643
1670926173.84612,7.251464,79.4274167934207
1670926173.84713,7.29702,79.524844623874
1670926173.84814,7.296251,79.6222493890265
1670926173.84914,7.244853,79.7196772194798
1670926173.85015,7.246992,79.8171050499331
1670926173.85116,7.230741,79.9145098150857
1670926173.85216,7.223745,80.011937645539
1670926173.85317,7.235717,80.1093654759923
1670926173.85418,7.235188,80.2067702411448
1670926173.85519,7.207205,80.3041980715981
1670926173.85619,7.234323,80.4016259020514
1670926173.8572,7.273149,80.499030667204
1670926173.85821,7.329163,80.5965507588604
1670926173.85921,7.335485,80.6939785893137
1670926173.86022,7.291539,80.7747313640048
1670926173.86123,7.247858,80.8438111983786
1670926173.86224,7.247065,80.9202138617072
1670926173.86324,7.264326,80.9748571053887
1670926173.86425,7.268773,81.4041503675794
1670926173.86526,7.275504,81.466066720378
1670926173.86626,7.262715,81.5332603905985
1670926173.86727,7.256464,81.6488716092539
1670926173.86828,7.255887,81.4633127057702
1670926173.86928,7.254108,81.5579456201912
1670926173.87029,7.280769,81.6569231944509
1670926173.8713,7.323706,81.7559944974742
1670926173.87231,7.354742,81.8549720717339
1670926173.87331,7.359959,81.9539262138028
1670926173.87432,7.346808,82.0529037880625
1670926173.87533,7.328754,82.1518813623222
1670926173.87633,7.2869,82.2508355043911
1670926173.87734,7.274591,82.3498130786508
1670926173.87835,7.243987,82.4487906529106
1670926173.87936,7.219562,82.5477447949794
1670926173.88036,7.229394,82.6467223692391
1670926173.88137,7.239443,82.7456999434989
1670926173.88238,7.239876,82.8446540855677
1670926173.88338,7.208912,82.943725388591
1670926173.88439,7.17939,83.0427029628507
1670926173.8854,7.170616,83.1416571049196
1670926173.88641,7.187925,83.2406346791793
1670926173.88741,7.228457,83.339612253439
1670926173.88842,7.276298,83.4385663955079
1670926173.88943,7.309041,83.5375439697676
1670926173.89043,7.331062,83.6365215440274
1670926173.89144,7.304233,83.7354756860962
1670926173.89245,7.282716,83.834453260356
1670926173.89345,7.267138,83.9334308346157
1670926173.89446,7.232063,84.0323849766846
1670926173.89547,7.237833,84.1313625509443
1670926173.89648,7.229611,84.2304338539675
1670926173.89748,7.234323,84.3294114282273
1670926173.89849,7.290602,84.4283655702961
1670926173.8995,7.294569,84.5273431445558
1670926173.9005,7.25418,84.6263207188156
1670926173.90151,7.211917,84.7252748608844
1670926173.90252,7.205138,84.8242524351442
1670926173.90353,7.218264,84.9232300094039
1670926173.90453,7.215331,85.0221841514728
1670926173.90554,7.25495,85.1211617257325
1670926173.90655,7.288919,85.2201392999922
1670926173.90755,7.283197,85.3190934420611
1670926173.90856,7.299328,85.4181647450843
1670926173.90957,7.277788,85.5171423193441
1670926173.91058,7.256224,85.6160964614129
1670926173.91158,7.234107,85.7150740356727
1670926173.91259,7.235934,85.8140516099324
1670926173.9136,7.242256,85.9130057520013
1670926173.9146,7.290217,86.011983326261
1670926173.91561,7.292741,86.0634597365284
1670926173.91662,7.293535,86.1976237311085
1670926173.91762,7.301756,86.3052194957081
1670926173.91863,7.31296,86.424765620887
1670926173.91964,7.344621,86.5092191482718
1670926173.92065,7.362123,86.6110436235098
1670926173.92165,7.335774,86.6473759816404
1670926173.92266,7.25382,86.7688149129709
1670926173.92367,7.169317,86.8252916369488
1670926173.92467,7.167322,86.8347941660071
1670926173.92568,7.218216,86.838511779241
1670926173.92669,7.229876,86.8422285123581
1670926173.9277,7.215884,86.845946125592
1670926173.9287,7.195065,86.8496637388258
1670926173.92971,7.178092,86.8533804719429
1670926173.93072,7.178549,86.8570980851768
1670926173.93172,7.197565,86.8608156984107
1670926173.93273,7.246655,86.8645324315277
1670926173.93374,7.286443,86.8682535652287
1670926173.93475,7.272572,86.8719711784625
1670926173.93575,7.236391,86.8756879115796
1670926173.93676,7.215403,86.8794055248135
1670926173.93777,7.207157,86.8831231380474
1670926173.93877,7.230789,86.9147412800954
1670926173.93978,7.251031,87.0211042360515
1670926173.94079,7.259349,87.0662625221745
1670926173.94179,7.292934,87.1525813381021
1670926173.9428,7.323297,87.2570460166865
1670926173.94381,7.307238,87.3219180028612
1670926173.94482,7.276658,87.4497925786379
1670926173.94582,7.237472,87.5287363624732
1670926173.94683,7.200786,87.6077549036796
1670926173.94784,7.190954,87.6902152188841
1670926173.94884,7.194295,87.7812918343266
1670926173.94985,7.167683,87.8889199041488
1670926173.95086,7.123328,88.0064444051025
1670926173.95187,7.122727,88.0668688497854
1670926173.95287,7.16838,88.145636993087
1670926173.95388,7.283101,88.2547974914163
1670926173.95489,7.328826,88.3882185550787
1670926173.95589,7.291323,88.4912383318236
1670926173.9569,7.272451,88.5877264636303
1670926173.95791,7.284808,88.6942756215646
1670926173.95892,7.260912,88.8009256783227
1670926173.95992,7.244853,88.907474836257
1670926173.96093,7.240477,89.0139987694853
1670926173.96194,7.278798,89.1205479274196
1670926173.96294,7.31195,89.2270970853539
1670926173.96395,7.311758,89.3336210185822
1670926173.96496,7.29202,89.4401701765165
1670926173.96596,7.251247,89.5467193344508
1670926173.96697,7.208744,89.6532432676791
1670926173.96798,7.19581,89.7597924256134
1670926173.96899,7.223456,89.8663415835477
1670926173.96999,7.264638,89.972865516776
1670926173.971,7.29642,90.0794146747103
1670926173.97201,7.318609,90.1860647314684
1670926173.97301,7.320172,90.2926138894027
1670926173.97402,7.280865,90.399137822631
1670926173.97503,7.256585,90.5056869805653
1670926173.97604,7.250983,90.6122361384996
1670926173.97704,7.287477,90.7187600717279
1670926173.97805,7.302886,90.8253092296622
1670926173.97906,7.304497,90.9318331628905
1670926173.98006,7.305194,91.0383823208248
1670926173.98107,7.248002,91.1449314787591
1670926173.98208,7.168596,91.2514554119874
1670926173.98308,7.120852,91.3580045699217
1670926173.98409,7.109504,91.4646546266798
1670926173.9851,7.173524,91.5712037846141
1670926173.98611,7.24454,91.6777277178424
1670926173.98711,7.27875,91.7842768757767
1670926173.98812,7.282236,91.890826033711
1670926173.98913,7.245526,91.9973499669393
1670926173.99013,7.205859,92.1374203690987
1670926173.99114,7.239083,92.2368037625179
1670926173.99215,7.298271,92.3132216853397
1670926173.99316,7.328658,92.3822753228422
1670926173.99416,7.310075,92.4926661802575
1670926173.99517,7.301877,92.6270977353993
1670926173.99618,7.293006,92.6976408721984
1670926173.99718,7.289496,92.7572062703863
1670926173.99819,7.257162,92.8534247181688
1670926173.9992,7.23151,93.0249911967603
1670926174.00021,7.215355,93.23049412002
1670926174.00121,7.177876,93.4359483920195
1670926174.00222,7.132535,93.6414513152793
1670926174.00323,7.158956,93.7169205460181
1670926174.00423,7.247016,93.8032026495828
1670926174.00524,7.333778,93.8943071545064
1670926174.00625,7.407126,94.0014854341917
1670926174.00725,7.30231,94.110748627652
1670926174.00826,7.190665,94.138388582022
1670926174.00927,7.14143,94.2720022093467
1670926174.01028,7.167899,94.3512975535161
1670926174.01128,7.246319,94.4408986437768
1670926174.01229,7.303079,94.5290155831592
1670926174.0133,7.293535,94.6168914059437
1670926174.0143,7.248339,94.7047464247928
1670926174.01531,7.216869,94.7926222475772
1670926174.01632,7.194319,94.8804980703617
1670926174.01733,7.201628,94.9683530892108
1670926174.01833,7.202974,95.0562289119953
1670926174.01934,7.223529,95.1441047347798
1670926174.02035,7.251993,95.2319597536289
1670926174.02135,7.22824,95.3198355764133
1670926174.02236,7.221581,95.4077946149391
1670926174.02337,7.258436,95.4956496337882
1670926174.02438,7.27798,95.5835254565727
1670926174.02538,7.284111,95.6714012793571
1670926174.02639,7.299328,95.7592562982062
1670926174.0274,7.280625,95.8471321209907
1670926174.0284,7.267523,95.9350079437752
1670926174.02941,7.240862,96.0228629626243
1670926174.03042,7.249228,96.1107387854087
1670926174.03142,7.23264,96.1986146081932
1670926174.03243,7.22425,96.2864696270423
1670926174.03344,7.239443,96.3743454498268
1670926174.03445,7.246199,96.4623044883525
1670926174.03545,7.248555,96.550180311137
1670926174.03646,7.261513,96.6380353299861
1670926174.03747,7.318705,96.7259111527706
1670926174.03847,7.353083,96.813786975555
1670926174.03948,7.349621,96.9016419944042
1670926174.04049,7.334692,96.9895178171886
1670926174.0415,7.310579,97.0773936399731
1670926174.0425,7.29529,97.1652486588222
1670926174.04351,7.273798,97.2531244816067
1670926174.04452,7.222014,97.3410003043911
1670926174.04552,7.171649,97.441317342789
1670926174.04653,7.145133,97.5866073342871
1670926174.04754,7.103086,97.6478280052456
1670926174.04855,7.09258,97.7456654725799
1670926174.04955,7.140397,97.85916319118
1670926174.05056,7.20408,97.9210793683834
1670926174.05157,7.244901,98.004622981402
1670926174.05257,7.203984,98.0670579473182
1670926174.05358,7.212254,98.1541310808298
1670926174.05459,7.238914,98.21870496075
1670926174.05559,7.316974,98.2551323880502
1670926174.0566,7.314402,98.2915598153504
1670926174.05761,7.276538,98.3279786187331
1670926174.05862,7.23514,98.3644060460333
1670926174.05962,7.210931,98.4008679690033
1670926174.06063,7.204946,98.4372953963034
1670926174.06164,7.224418,98.4737141996862
1670926174.06264,7.223986,98.5101416269863
1670926174.06365,7.229851,98.5465690542865
1670926174.06466,7.217687,98.5829878576692
1670926174.06567,7.183116,98.6194152849694
1670926174.06667,7.176818,98.6558427122696
1670926174.06768,7.196483,98.6922615156523
1670926174.06869,7.242232,98.7286889429525
1670926174.06969,7.312863,98.7651163702527
1670926174.0707,7.31308,98.8015351736354
1670926174.07171,7.318104,98.8379626009356
1670926174.07272,7.288607,98.8744245239055
1670926174.07372,7.255334,98.9108433272883
1670926174.07473,7.23728,98.9472707545884
1670926174.07574,7.207446,98.9836981818886
1670926174.07674,7.22526,99.0201169852713
1670926174.07775,7.260239,99.0565444125715
1670926174.07876,7.2612,99.078751
1670926174.07976,7.270408,99.1076834484979
1670926174.08077,7.273749,99.151108
1670926174.08178,7.235381,99.1660880205006
1670926174.08279,7.200161,99.1796734380067
1670926174.08379,7.252834,99.1924297098236
1670926174.0848,7.242473,99.2155932822408
1670926174.08581,7.216485,99.2214187973295
1670926174.08681,7.200954,99.24157
1670926174.08782,7.207998,99.2592335111894
1670926174.08883,7.246367,99.2981540491466
1670926174.08984,7.271441,99.3370653729613
1670926174.09084,7.263364,99.3759859109184
1670926174.09185,7.241367,99.4149064488756
1670926174.09286,7.263676,99.4538177726903
1670926174.09386,7.306324,99.4927383106475
1670926174.09487,7.303512,99.5316588486047
1670926174.09588,7.28375,99.5705701724194
1670926174.09688,7.236126,99.6094907103766
1670926174.09789,7.18867,99.6484481049038
1670926174.0989,7.199392,99.6873594287185
1670926174.09991,7.218697,99.7262799666757
1670926174.10091,7.241655,99.7652005046329
1670926174.10192,7.262282,99.8041118284476
1670926174.10293,7.273413,99.8430323664048
1670926174.10393,7.258123,99.881952904362
1670926174.10494,7.23151,99.9208642281766
1670926174.10595,7.221148,99.9597847661338
1670926174.10696,7.255142,99.998705304091
1670926174.10796,7.247137,100.037616627906
1670926174.10897,7.197469,100.076537165863
1670926174.10998,7.154893,100.147250080114
1670926174.11098,7.163379,100.193469285408
1670926174.11199,7.216533,100.257044555423
1670926174.113,7.26697,100.64292022572
1670926174.11401,7.265864,100.749794092972
1670926174.11501,7.222904,100.861358377745
1670926174.11602,7.199512,100.913803252562
1670926174.11703,7.212927,101.020959629819
1670926174.11803,7.231198,101.067065861884
1670926174.11904,7.255118,101.161703975348
1670926174.12005,7.281154,101.40388169702
1670926174.12105,7.285433,101.482061679542
1670926174.12206,7.298751,101.527979795126
1670926174.12307,7.295266,101.563178308303
1670926174.12408,7.277187,101.598335195991
1670926174.12508,7.258844,101.633500408777
1670926174.12609,7.241174,101.668665621563
1670926174.1271,7.235284,101.703822509251
1670926174.1281,7.232832,101.738987722037
1670926174.12911,7.223384,101.774152934823
1670926174.13012,7.218336,101.809309822511
1670926174.13113,7.232111,101.844475035297
1670926174.13213,7.246103,101.879640248083
1670926174.13314,7.239708,101.914797135771
1670926174.13415,7.216076,101.949962348557
1670926174.13515,7.221004,101.985160861734
1670926174.13616,7.231582,102.02032607452
1670926174.13717,7.219947,102.055482962208
1670926174.13818,7.213576,102.090648174994
1670926174.13918,7.20682,102.12581338778
1670926174.14019,7.184919,102.160970275468
1670926174.1412,7.226125,102.196135488254
1670926174.1422,7.302286,102.23130070104
1670926174.14321,7.399578,102.266457588728
1670926174.14422,7.415973,102.301622801514
1670926174.14522,7.333081,102.3367880143
1670926174.14623,7.239491,102.371944901988
1670926174.14724,7.192084,102.407110114774
1670926174.14825,7.211004,102.44230862795
1670926174.14925,7.254998,102.477465515639
1670926174.15429,7.148114,102.65328325447
1670926174.1553,7.088758,102.688440142159
1670926174.1563,7.056663,102.723605354944
1670926174.15731,7.074333,102.75877056773
1670926174.15832,7.219899,102.793927455418
1670926174.15932,7.363469,102.829092668204
1670926174.16033,7.357362,102.864291181381
1670926174.16134,7.356593,102.899456394167
1670926174.16235,7.314378,102.934613281855
1670926174.16335,7.259109,102.969778494641
1670926174.16436,7.196411,103.003983188841
1670926174.16537,7.140084,102.98531547199
1670926174.16637,7.156456,102.949465017167
1670926174.16738,7.226005,102.932660381974
1670926174.16839,7.284832,102.94588179118
1670926174.16939,7.273653,102.85672265093
1670926174.1704,7.259277,102.807487746781
1670926174.17141,7.331543,102.836659197378
1670926174.17242,7.377676,102.771809101097
1670926174.17342,7.346472,102.802666247258
1670926174.17443,7.300627,102.770174279734
1670926174.17544,7.24341,102.737674618161
1670926174.17644,7.203503,102.705174956588
1670926174.17745,7.19617,102.672682989063
1670926174.17846,7.193262,102.64018332749
1670926174.17947,7.2255,102.607683665917
1670926174.18047,7.232015,102.575191698393
1670926174.18148,7.223889,102.552048
1670926174.18652,7.194344,102.377453937545
1670926174.18752,7.217903,102.341030918932
1670926174.18853,7.252618,102.304593794945
1670926174.18954,7.273557,102.274430620887
1670926174.19054,7.292044,102.264910136375
1670926174.19155,7.283053,102.271449902065
1670926174.19256,7.270167,102.277989667755
1670926174.19356,7.261585,102.284527885205
1670926174.19457,7.260816,102.291067650894
1670926174.19558,7.221581,102.297607416584
1670926174.19659,7.201868,102.304145634034
1670926174.19759,7.215764,102.310685399724
1670926174.1986,7.202541,102.317231358373
1670926174.19961,7.180688,102.323769575823
1670926174.20061,7.191988,102.330309341513
1670926174.20162,7.20896,102.336849107203
1670926174.20263,7.252546,102.343387324652
1670926174.20364,7.245862,102.349927090342
1670926174.20464,7.225332,102.356466856032
1670926174.20565,7.206628,102.363005073482
1670926174.20666,7.202493,102.369544839172
1670926174.20766,7.219105,102.376084604861
1670926174.20867,7.255022,102.382622822311
1670926174.20968,7.319667,102.389162588001
1670926174.21069,7.28363,102.395708546651
1670926174.21169,7.248386,102.40224831234
1670926174.2127,7.260767,102.40878652979
1670926174.21371,7.260719,102.41532629548
1670926174.21471,7.23115,102.42186606117
1670926174.21572,7.221774,102.428404278619
1670926174.21673,7.210763,102.434944044309
1670926174.21773,7.254878,102.441483809999
1670926174.21874,7.26721,102.448022027449
1670926174.21975,7.278654,102.454561793138
1670926174.22076,7.264133,102.461101558828
1670926174.22176,7.211821,102.467639776278
1670926174.22277,7.213648,102.474179541968
1670926174.22378,7.216797,102.480725500617
1670926174.22478,7.228553,102.487263718067
1670926174.22579,7.286731,102.493803483757
1670926174.2268,7.331375,102.500343249447
1670926174.22781,7.322672,102.506881466897
1670926174.22881,7.27423,102.513421232586
1670926174.22982,7.243314,102.515869
1670926174.23083,7.239203,102.527389200048
1670926174.23183,7.238554,102.568917724368
1670926174.23284,7.208672,102.623570528486
1670926174.23385,7.190713,102.666309157606
1670926174.23485,7.204296,102.702746948736
1670926174.23586,7.238049,102.69051475465
1670926174.23687,7.255863,102.690990244815
1670926174.23788,7.229515,102.734055518836
1670926174.23888,7.148402,102.745440268864
1670926174.23989,7.084622,102.737307536361
1670926174.2409,7.097965,102.72917672922
1670926174.2419,7.148041,102.721043996717
1670926174.24291,7.22776,102.712911264213
1670926174.24392,7.251921,102.704780457072
1670926174.24493,7.180039,102.696647724569
1670926174.24593,7.112221,102.688514992065
1670926174.24694,7.129771,102.680384184925
1670926174.24795,7.303535,102.67224375097
1670926174.24895,7.333611,102.664111018466
1670926174.24996,7.238049,102.655980211326
1670926174.25097,7.208023,102.647847478822
1670926174.25198,7.231775,102.639714746319
1670926174.25298,7.235212,102.631583939178
1670926174.25399,7.220379,102.623451206675
1670926174.255,7.243771,102.615318474171
1670926174.256,7.246078,102.60718766703
1670926174.25701,7.256873,102.599054934527
1670926174.25802,7.317936,102.590922202023
1670926174.25902,7.352843,102.582791394883
1670926174.26003,7.398159,102.574658662379
1670926174.26104,7.41631,102.566518228424
1670926174.26205,7.399866,102.558385495921
1670926174.26305,7.347313,102.55025468878
1670926174.26406,7.287332,102.542121956277
1670926174.26507,7.24192,102.533989223773
1670926174.26607,7.187492,102.525858416633
1670926174.26708,7.104816,102.517725684129
1670926174.26809,7.110178,102.509592951626
1670926174.2691,7.171553,102.501462144485
1670926174.2701,7.202397,102.493329411981
1670926174.27111,7.219562,102.485196679478
1670926174.27212,7.23841,102.477065872337
1670926174.27312,7.24954,102.468925438382
1670926174.27413,7.261609,102.460792705879
1670926174.27514,7.272667,102.452661898738
1670926174.27615,7.256464,102.444529166235
1670926174.27715,7.22776,102.436396433731
1670926174.27816,7.20331,102.428265626591
1670926174.27917,7.190497,102.420132894087
1670926174.28017,7.189247,102.412000161584
1670926174.28118,7.206075,102.403869354443
1670926174.28219,7.221942,102.395736621939
1670926174.28319,7.193862,102.389252
1670926174.2842,7.18391,102.370170809297
1670926174.28521,7.213889,102.302747360515
1670926174.28622,7.222952,102.296447223176
1670926174.28722,7.26899,102.213781246961
1670926174.28823,7.2894,102.154808981402
1670926174.28924,7.284375,102.081934406295
1670926174.29024,7.266609,102.032047632658
1670926174.29125,7.291948,102.054976989032
1670926174.29226,7.290361,102.075402855368
1670926174.29327,7.253988,102.051670496894
1670926174.29427,7.228145,102.027943756877
1670926174.29528,7.201147,102.004211398403
1670926174.29629,7.190329,101.980479039929
1670926174.29729,7.191411,101.956752299911
1670926174.2983,7.200377,101.938127649499
1670926174.29931,7.270047,101.919913328963
1670926174.30032,7.2612,101.901698540773
1670926174.30132,7.223529,101.878425796182
1670926174.30233,7.239227,101.854893970168
1670926174.30334,7.252473,101.831367715135
1670926174.30434,7.239227,101.807835889121
1670926174.30535,7.186386,101.784304063106
1670926174.30636,7.196315,101.760777808073
1670926174.30736,7.267306,101.737245982059
1670926174.30837,7.350631,101.713714156045
1670926174.30938,7.314209,101.690187901012
1670926174.31039,7.210907,101.666656074997
1670926174.31139,7.184679,101.643101965057
1670926174.3124,7.1973,101.619570139042
1670926174.31341,7.27649,101.59604388401
1670926174.31441,7.324355,101.572512057995
1670926174.31542,7.281755,101.548980231981
1670926174.31643,7.259157,101.525453976948
1670926174.31744,7.262498,101.501922150934
1670926174.31844,7.253459,101.478390324919
1670926174.31945,7.246728,101.454864069886
1670926174.32046,7.232231,101.431332243872
1670926174.32146,7.220211,101.407800417858
1670926174.32247,7.227423,101.384274162825
1670926174.32348,7.218336,101.360720052884
1670926174.32449,7.200931,101.33718822687
1670926174.32549,7.176962,101.313661971837
1670926174.3265,7.204681,101.290130145822
1670926174.32751,7.268485,101.266598319808
1670926174.32851,7.31582,101.243072064775
1670926174.32952,7.322287,101.219540238761
1670926174.33053,7.258483,101.196008412746
1670926174.33153,7.21521,101.172482157714
1670926174.33254,7.213239,101.148950331699
1670926174.33355,7.195858,101.125418505685
1670926174.33456,7.18427,101.101892250652
1670926174.33556,7.186386,101.078360424638
1670926174.33657,7.189151,101.054806314697
1670926174.33758,7.225428,101.031274488683
1670926174.33858,7.255983,101.00774823365
1670926174.33959,7.274423,100.984216407635
1670926174.3406,7.261441,100.960684581621
1670926174.34161,7.243627,100.937158326588
1670926174.34261,7.242016,100.913626500574
1670926174.34362,7.227904,100.890094674559
1670926174.34463,7.222062,100.866568419526
1670926174.34563,7.235044,100.843036593512
1670926174.34664,7.245983,100.819504767498
1670926174.34765,7.216869,100.795978512465
1670926174.34866,7.215667,100.752910713877
1670926174.34966,7.231174,100.683384753457
1670926174.35067,7.246343,100.648626047926
1670926174.35168,7.227183,100.581396633611
1670926174.35268,7.187949,100.415464764375
1670926174.35369,7.208287,100.389495135312
1670926174.3547,7.234707,100.329584618557
1670926174.3557,7.27988,100.24617134
1670926174.35671,7.267643,100.170692175
1670926174.35772,7.251319,100.133951876289
1670926174.35873,7.229707,99.8892616595136
1670926174.35973,7.214273,99.8217093069412
1670926174.36074,7.192396,99.7334520268937
1670926174.36175,7.250911,99.6451111698765
1670926174.36275,7.296852,99.556853889829
1670926174.36376,7.291996,99.468617504024
1670926174.36477,7.291419,99.3803602239765
1670926174.36578,7.254349,99.2921029439291
1670926174.36678,7.236823,99.203866558124
1670926174.36779,7.221365,99.1156092780765
1670926174.3688,7.214658,99.0273519980291
1670926174.3698,7.261441,98.939115612224
1670926174.37081,7.3063,98.8508583321766
1670926174.37182,7.260167,98.7626010521291
1670926174.37282,7.21812,98.6743646663241
1670926174.37383,7.213336,98.5860238093068
1670926174.37484,7.212687,98.4977665292594
1670926174.37585,7.211917,98.4095301434543
1670926174.37685,7.232929,98.3212728634069
1670926174.37786,7.236294,98.2330155833594
1670926174.37887,7.243891,98.1447791975543
1670926174.37987,7.237953,98.0565219175069
1670926174.38088,7.23127,97.9682646374594
1670926174.38189,7.221221,97.8800282516544
1670926174.3829,7.205354,97.7917709716069
1670926174.3839,7.201075,97.7035136915594
1670926174.38491,7.202181,97.6152773057544
1670926174.38592,7.251224,97.5270200257069
1670926174.38692,7.270119,97.4386791686897
1670926174.38793,7.274182,97.3504218886422
1670926174.38894,7.28964,97.2621855028372
1670926174.38995,7.280721,97.1739282227897
1670926174.39095,7.245358,97.0856709427423
1670926174.39196,7.211749,96.9974345569372
1670926174.39297,7.219538,96.9091772768898
1670926174.39397,7.257354,96.8209199968423
1670926174.39498,7.249781,96.7326836110372
1670926174.39599,7.227736,96.6444263309898
1670926174.39699,7.221725,96.5561690509423
1670926174.398,7.228914,96.4679326651373
1670926174.39901,7.238434,96.37959180812
1670926174.40002,7.221197,96.2913345280726
1670926174.40102,7.208359,96.2030981422675
1670926174.40203,7.194752,96.1148408622201
1670926174.40304,7.192252,96.0265835821726
1670926174.40404,7.21473,95.9383471963675
1670926174.40505,7.234635,95.8307795337306
1670926174.40606,7.233097,95.7214679947544
1670926174.40707,7.219995,95.6121815073915
1670926174.40807,7.222807,95.605453
1670926174.40908,7.213312,95.4676602253219
1670926174.41009,7.237112,95.4086815832141
1670926174.41109,7.247401,95.3365722812873
1670926174.4121,7.210571,95.2636149127325
1670926174.41311,7.208431,95.2439857322365
1670926174.41412,7.220163,95.2012483603916
1670926174.41512,7.241247,95.158033252837
1670926174.41613,7.224442,95.1148181452824
1670926174.41714,7.22812,95.0716132685772
1670926174.41814,7.241439,95.0283981610226
1670926174.41915,7.252113,94.9851830534681
1670926174.42016,7.263268,94.9419781767629
1670926174.42116,7.29053,94.8987630692083
1670926174.42217,7.311878,94.8555479616537
1670926174.42318,7.317744,94.8123430849485
1670926174.42419,7.308801,94.7690870539966
1670926174.42519,7.238674,94.7258719464421
1670926174.4262,7.217735,94.6826670697368
1670926174.42721,7.171457,94.6394519621823
1670926174.42821,7.113231,94.5962368546277
1670926174.42922,7.117149,94.5530319779225
1670926174.43023,7.182708,94.5098168703679
1670926174.43124,7.216846,94.4666017628134
1670926174.43224,7.19093,94.4233968861081
1670926174.43325,7.171193,94.3801817785536
1670926174.43426,7.205618,94.336966670999
1670926174.43526,7.308031,94.2937617942938
1670926174.43627,7.372628,94.2505466867392
1670926174.43728,7.352818,94.2072906557874
1670926174.43829,7.30267,94.1640755482328
1670926174.43929,7.272451,94.1208706715276
1670926174.4403,7.248675,94.077655563973
1670926174.44131,7.217326,94.0344404564184
1670926174.44231,7.196555,93.9912355797132
1670926174.44332,7.20271,93.9480204721587
1670926174.44433,7.198118,93.9048053646041
1670926174.44533,7.219442,93.8616004878989
1670926174.44634,7.242881,93.8183853803443
1670926174.44735,7.21235,93.7751702727897
1670926174.44836,7.215307,93.7319653960845
1670926174.44936,7.232015,93.6887093651326
1670926174.45037,7.219177,93.6454942575781
1670926174.45138,7.193502,93.6022893808729
1670926174.45238,7.190641,93.5590742733183
1670926174.45339,7.206316,93.5158591657637
1670926174.4544,7.205907,93.4726542890585
1670926174.45541,7.177683,93.4294391815039
1670926174.45641,7.181674,93.3862240739494
1670926174.45742,7.219562,93.3430191972441
1670926174.45843,7.25882,93.2872700214592
1670926174.45943,7.254757,93.1922961945173
1670926174.46044,7.238891,93.163284
1670926174.46145,7.249468,93.1479465243205
1670926174.46246,7.273052,93.0789805982356
1670926174.46346,7.270239,93.0243156557807
1670926174.46447,7.260479,92.9654512939914
1670926174.46548,7.253459,92.9012977389127
1670926174.46648,7.211556,92.8558864102503
1670926174.46749,7.186194,92.7847246813837
1670926174.4685,7.198647,92.718474980883
1670926174.4695,7.245045,92.6522252803823
1670926174.47051,7.256536,92.5859912639964
1670926174.47152,7.222038,92.5197415634957
1670926174.47253,7.209922,92.4535075471097
1670926174.47353,7.23401,92.387257846609
1670926174.47454,7.248819,92.3209454096495
1670926174.47555,7.27786,92.2546957091488
1670926174.47655,7.300747,92.1884616927629
1670926174.47756,7.252954,92.1222119922622
1670926174.47857,7.233217,92.059796606104
1670926174.47958,7.242761,92.0051577609059
1670926174.48058,7.22663,91.9756128583691
1670926174.48159,7.261008,91.9425863025751
1670926174.4826,7.254613,91.5134463665187
1670926174.4836,7.210595,91.4875301863118
1670926174.48461,7.20319,91.4636858123018
1670926174.48562,7.218168,91.6729914678112
1670926174.48662,7.217975,91.6336564014303
1670926174.48763,7.202229,91.5659022350719
1670926174.48864,7.195257,91.5061909467496
1670926174.48965,7.204657,91.4464937946225
1670926174.49065,7.223553,91.3867825063003
1670926174.49166,7.23139,91.327071217978
1670926174.49267,7.22901,91.267374065851
1670926174.49367,7.219418,91.2076627775287
1670926174.49468,7.199753,91.1479656254016
1670926174.49569,7.210258,91.0882543370794
1670926174.4967,7.240453,91.0285430487572
1670926174.4977,7.241199,90.9688458966301
1670926174.49871,7.258363,90.9091346083078
1670926174.49972,7.266561,90.849366775205
1670926174.50072,7.255935,90.7896554868828
1670926174.50173,7.233938,90.7299583347557
1670926174.50274,7.209393,90.6702470464334
1670926174.50375,7.192925,90.6105357581112
1670926174.50475,7.156432,90.5508386059841
1670926174.50576,7.132295,90.4911273176619
1670926174.50677,7.143618,90.4314160293396
1670926174.50777,7.181362,90.3717188772126
1670926174.50878,7.256104,90.3120075888903
1670926174.50979,7.293727,90.2522963005681
1670926174.51079,7.29654,90.192599148441
1670926174.5118,7.308969,90.1328878601188
1670926174.51281,7.285481,90.0731200270159
1670926174.51382,7.244132,90.0134087386937
1670926174.51482,7.227255,89.9537115865666
1670926174.51583,7.221101,89.8940002982444
1670926174.51684,7.206676,89.8343031461173
1670926174.51784,7.222086,89.774591857795
1670926174.51885,7.246608,89.7148805694728
1670926174.51986,7.31784,89.6551834173457
1670926174.52087,7.319547,89.5954721290235
1670926174.52187,7.285529,89.5357608407012
1670926174.52288,7.264614,89.4760636885741
1670926174.52389,7.237088,89.4163524002519
1670926174.52489,7.235645,89.3565845671491
1670926174.5259,7.249252,89.2968732788268
1670926174.52691,7.25406,89.2371761266997
1670926174.52792,7.236799,89.1774648383775
1670926174.52892,7.217975,89.1177535500553
1670926174.52993,7.215643,89.0580563979282
1670926174.53094,7.223409,88.9983451096059
1670926174.53194,7.231943,88.9386338212837
1670926174.53295,7.235309,88.8789366691566
1670926174.53396,7.232929,88.839737
1670926174.53496,7.217855,88.8205736933715
1670926174.53597,7.186314,88.7659351072706
1670926174.53698,7.147777,88.7179253819743
1670926174.53799,7.102316,88.6882381716738
1670926174.53899,7.078132,88.6423931926103
1670926174.54,7.137992,88.5794461666667
1670926174.54101,7.301372,88.5540539938007
1670926174.54201,7.400563,88.4957577839771
1670926174.54302,7.360632,88.4376552042323
1670926174.54403,7.311926,88.4275819569517
1670926174.54504,7.264951,88.417511094436
1670926174.54604,7.229491,88.4074378471554
1670926174.54705,7.241439,88.3973645998748
1670926174.54806,7.23954,88.3872937373591
1670926174.54906,7.220379,88.3772204900785
1670926174.55007,7.216774,88.369408
1670926174.55108,7.228217,88.373643431092
1670926174.55209,7.250791,88.370058876758
1670926174.55309,7.259686,88.31514
1670926174.5541,7.277403,88.3105247639485
1670926174.55511,7.290338,88.2875682104887
1670926174.55611,7.285289,88.251126453505
1670926174.55712,7.246295,88.2096941316166
1670926174.55813,7.192468,88.1601732214541
1670926174.55913,7.163956,88.1280919304514
1670926174.56014,7.173501,88.1067632678087
1670926174.56115,7.22074,88.0854396545654
1670926174.56216,7.223264,88.0641109919228
1670926174.56316,7.212061,88.042762131683
1670926174.56417,7.193887,88.0214385184397
1670926174.56518,7.162177,88.0001098557971
1670926174.56618,7.170375,87.9787811931545
1670926174.56719,7.168332,87.9574575799111
1670926174.5682,7.169005,87.9361289172685
1670926174.56921,7.188237,87.9148002546259
1670926174.57021,7.25959,87.8934766413826
1670926174.57122,7.288198,87.87214797874
1670926174.57223,7.275264,87.8508193160974
1670926174.57323,7.255839,87.8294957028541
1670926174.57424,7.264518,87.8081670402114
1670926174.57525,7.293943,87.7868181799716
1670926174.57626,7.311325,87.765489517329
1670926174.57726,7.324427,87.7441659040857
1670926174.57827,7.306973,87.7228372414431
1670926174.57928,7.257474,87.7015085788005
1670926174.58028,7.22086,87.6801849655572
1670926174.58129,7.222928,87.6588563029145
1670926174.5823,7.23853,87.6375276402719
1670926174.5833,7.249516,87.6162040270286
1670926174.58431,7.230741,87.594875364386
1670926174.58532,7.202229,87.5735467017434
1670926174.58633,7.19617,87.5522230885001
1670926174.58733,7.198142,87.5308944258574
1670926174.58834,7.193093,87.5095455656176
1670926174.58935,7.170183,87.4882219523743
1670926174.59035,7.162177,87.4668932897317
1670926174.59136,7.18379,87.4455646270891
1670926174.59237,7.207181,87.4242410138458
1670926174.59338,7.248459,87.4029123512031
1670926174.59438,7.272042,87.3815836885605
1670926174.59539,7.25067,87.3602600753172
1670926174.5964,7.274374,87.3389314126746
1670926174.5974,7.325052,87.317602750032
1670926174.59841,7.306445,87.2962791367887
1670926174.59942,7.258556,87.2749504741461
1670926174.60043,7.216677,87.265907
1670926174.60143,7.241271,87.2446314038141
1670926174.60244,7.236679,87.197445103958
1670926174.60345,7.250694,87.1863514923701
1670926174.60445,7.254974,87.1825327425507
1670926174.60546,7.196844,87.1866016502146
1670926174.60647,7.166481,87.1822799577969
1670926174.60747,7.189031,87.175461
1670926174.60848,7.185809,87.140890210062
1670926174.60949,7.158235,87.1105001207782
1670926174.6105,7.165086,87.0938013566787
1670926174.6115,7.192733,87.077106545885
1670926174.61251,7.204224,87.0604077817854
1670926174.61352,7.24442,87.0436932044623
1670926174.61452,7.287669,87.0269983936687
1670926174.61553,7.301901,87.0102996295691
1670926174.61654,7.278317,86.9936008654696
1670926174.61755,7.265768,86.9769060546759
1670926174.61855,7.27197,86.9602072905764
1670926174.61956,7.270336,86.9435085264768
1670926174.62057,7.276033,86.9268137156832
1670926174.62157,7.252017,86.9101149515836
1670926174.62258,7.206292,86.8934161874841
1670926174.62359,7.192925,86.8767213766904
1670926174.62459,7.197709,86.8600226125909
1670926174.6256,7.178332,86.8433080352677
1670926174.62661,7.164773,86.8266092711682
1670926174.62762,7.146767,86.8099144603745
1670926174.62862,7.15446,86.793215696275
1670926174.62963,7.188141,86.7765169321754
1670926174.63064,7.25317,86.7598221213818
1670926174.63164,7.30731,86.7431233572822
1670926174.63265,7.304834,86.7264245931827
1670926174.63769,7.184824,86.6429386792967
1670926174.63869,7.231438,86.6262241019736
1670926174.6397,7.278461,86.6095292911799
1670926174.64071,7.26709,86.5928305270804
1670926174.64172,7.256705,86.5761317629808
1670926174.64272,7.281899,86.5594369521872
1670926174.64373,7.259325,86.5427381880876
1670926174.64474,7.214561,86.5260394239881
1670926174.64574,7.204416,86.5093446131944
1670926174.64675,7.214489,86.4926458490949
1670926174.64776,7.228962,86.4759470849953
1670926174.64876,7.241848,86.4592522742017
1670926174.64977,7.25507,86.4425535101021
1670926174.65078,7.242809,86.425838932779
1670926174.65179,7.233962,86.4091401686795
1670926174.65279,7.227736,86.3924453578858
1670926174.6538,7.238578,86.3757465937863
1670926174.65481,7.229996,86.3639747296137
1670926174.65581,7.166889,86.3444887227695
1670926174.65682,7.133545,86.3100059256757
1670926174.65783,7.141046,86.3015228502674
1670926174.65884,7.209128,86.2780804477906
1670926174.65984,7.354261,86.2731120399775
1670926174.66085,7.337072,86.2355587972973
1670926174.66186,7.295266,86.2260836183507
1670926174.66286,7.278605,86.252853
1670926174.66387,7.27173,86.2504733085255
1670926174.66488,7.262835,86.2388420155894
1670926174.66589,7.227495,86.2272079683808
1670926174.66689,7.20319,86.2155739211721
1670926174.6679,7.20045,86.203942628236
1670926174.66891,7.20182,86.1923085810274
1670926174.66991,7.193598,86.1806745338187
1670926174.67092,7.173861,86.1690432408826
1670926174.67193,7.181217,86.157409193674
1670926174.67293,7.19831,86.1457751464653
1670926174.67394,7.212158,86.1341438535292
1670926174.67495,7.222158,86.1225098063206
1670926174.67596,7.239275,86.1108647420218
1670926174.67696,7.25894,86.0992306948131
1670926174.67797,7.286443,86.087599401877
1670926174.67898,7.334332,86.0759653546684
1670926174.67998,7.348876,86.0643313074598
1670926174.68099,7.297718,86.0527000145237
1670926174.682,7.26959,86.041065967315
1670926174.68301,7.234876,86.0294319201064
1670926174.68401,7.166553,86.0178006271703
1670926174.68502,7.128617,86.0061665799616
1670926174.68603,7.094984,85.994532532753
1670926174.68703,7.104744,85.9829012398169
1670926174.68804,7.168764,85.9712671926082
1670926174.68905,7.226918,85.9596221283094
1670926174.69006,7.306565,85.9479908353733
1670926174.69106,7.323273,85.9363567881647
1670926174.69207,7.296588,85.924722740956
1670926174.69308,7.275384,85.9130914480199
1670926174.69408,7.251873,85.9014574008113
1670926174.69509,7.219153,85.8898233536026
1670926174.6961,7.217398,85.8781920606665
1670926174.6971,7.23502,85.8665580134579
1670926174.69811,7.243819,85.8549239662493
1670926174.69912,7.226461,85.8432926733131
1670926174.70013,7.217855,85.8316586261045
1670926174.70113,7.210547,85.8200135618057
1670926174.70214,7.226486,85.8083795145971
1670926174.70315,7.265047,85.796748221661
1670926174.70415,7.288534,85.7851141744523
1670926174.70516,7.295602,85.7734801272437
1670926174.70617,7.277308,85.7618488343076
1670926174.70718,7.238842,85.7502147870989
1670926174.70818,7.210523,85.7220854121573
1670926174.70919,7.139675,85.7468816471149
1670926174.7102,7.106764,85.7520378128279
1670926174.7112,7.156312,85.7088253506555
1670926174.71221,7.248868,85.717305804721
1670926174.71322,7.345823,85.728233
1670926174.71423,7.321758,85.7411310190703
1670926174.71523,7.241607,85.7202857446352
1670926174.71624,7.20331,85.710152
1670926174.71725,7.199344,85.7128541015871
1670926174.71825,7.212831,85.7165601668689
1670926174.71926,7.219153,85.7202671097413
1670926174.72027,7.211677,85.7239740526137
1670926174.72127,7.201652,85.7276801178955
1670926174.72228,7.218408,85.7011823908531
1670926174.72329,7.252137,85.669390022173
1670926174.7243,7.268364,85.6376051800953
1670926174.7253,7.273124,85.6058128114151
1670926174.72631,7.268677,85.5739903363253
1670926174.72732,7.249468,85.5421979676451
1670926174.72832,7.226991,85.5104131255674
1670926174.72933,7.198431,85.4786207568873
1670926174.73034,7.195521,85.4468283882071
1670926174.73135,7.227375,85.4150435461294
1670926174.73235,7.232688,85.3832511774493
1670926174.73336,7.209729,85.3514588087692
1670926174.73437,7.225668,85.3196739666914
1670926174.73537,7.26608,85.2878815980113
1670926174.73638,7.2349,85.2560892293312
1670926174.73739,7.184198,85.2243043872535
1670926174.73839,7.160735,85.1925120185733
1670926174.7394,7.168548,85.1606895434834
1670926174.74041,7.223529,85.1289047014057
1670926174.74142,7.256128,85.0971123327256
1670926174.74242,7.235717,85.0653199640455
1670926174.74343,7.207686,85.0335351219678
1670926174.74444,7.22574,85.0017427532876
1670926174.74544,7.230284,84.9699503846075
1670926174.74645,7.241439,84.9381655425298
1670926174.74746,7.270311,84.9063731738496
1670926174.74847,7.284207,84.8745808051695
1670926174.74947,7.259926,84.8427959630918
1670926174.75048,7.241824,84.8110035944116
1670926174.75149,7.222759,84.7791811193218
1670926174.75249,7.227832,84.7473887506416
1670926174.7535,7.253267,84.7156039085639
1670926174.75451,7.257883,84.6838115398838
1670926174.75552,7.234587,84.6520191712037
1670926174.75652,7.216894,84.6202343291259
1670926174.75753,7.220163,84.5884419604458
1670926174.75854,7.21949,84.5566495917657
1670926174.75954,7.214561,84.524864749688
1670926174.76055,7.185521,84.4930723810078
1670926174.76156,7.194921,84.4612800123277
1670926174.76256,7.222567,84.42949517025
1670926174.76357,7.227615,84.3976726951601
1670926174.76458,7.229996,84.36588032648
1670926174.76559,7.245862,84.3340954844022
1670926174.76659,7.295987,84.3023031157221
1670926174.7676,7.311493,84.270510747042
1670926174.76861,7.290602,84.2387259049643
1670926174.76961,7.258604,84.2069335362841
1670926174.77062,7.244684,84.175141167604
1670926174.77163,7.238145,84.1433563255263
1670926174.77264,7.206436,84.0991360944206
1670926174.77364,7.13179,84.027763
1670926174.77465,7.102172,84.0114956878875
1670926174.77566,7.129314,83.9428239275155
1670926174.77666,7.175015,83.9054882224076
1670926174.77767,7.256752,83.9013614062947
1670926174.77868,7.255142,83.846878
1670926174.77969,7.215018,83.8279870965435
1670926174.78069,7.228986,83.774506
1670926174.7817,7.266441,83.7651302313507
1670926174.78271,7.266513,83.7307822289441
1670926174.78371,7.284111,83.6964342265375
1670926174.78472,7.308801,83.6620943557603
1670926174.78573,7.323129,83.6277463533537
1670926174.78673,7.310604,83.5933983509471
1670926174.78774,7.273269,83.5590584801699
1670926174.78875,7.238842,83.5246779512458
1670926174.78976,7.219202,83.4903299488392
1670926174.79076,7.220211,83.455990078062
1670926174.79177,7.234924,83.4216420756554
1670926174.79278,7.235332,83.3872940732488
1670926174.79378,7.231558,83.3529542024716
1670926174.79479,7.214658,83.318606200065
1670926174.7958,7.204464,83.2842581976584
1670926174.79681,7.197372,83.2499183268812
1670926174.79781,7.212879,83.2155703244746
1670926174.79882,7.210763,83.181222322068
1670926174.79983,7.220451,83.1468824512908
1670926174.80083,7.232592,83.1125344488842
1670926174.80184,7.229394,83.0781539199602
1670926174.80285,7.230597,83.0438059175536
1670926174.80386,7.201291,83.0094660467763
1670926174.80486,7.168476,82.9751180443698
1670926174.80587,7.186146,82.9407700419632
1670926174.80688,7.262426,82.9064301711859
1670926174.80788,7.33462,82.8720821687793
1670926174.80889,7.323057,82.8377341663728
1670926174.8099,7.278774,82.8033942955955
1670926174.8109,7.251776,82.7690462931889
1670926174.81191,7.231606,82.7346982907824
1670926174.81292,7.234539,82.7003584200051
1670926174.81393,7.231678,82.6659778910811
1670926174.81493,7.220403,82.6316298886745
1670926174.81594,7.22473,82.597207396042
1670926174.81695,7.240525,82.5607696518836
1670926174.81795,7.238722,82.5253121673421
1670926174.81896,7.227615,82.5071021072961
1670926174.81997,7.205186,82.4888827761087
1670926174.82098,7.188742,82.472023
1670926174.82198,7.199248,82.4675716646007
1670926174.82299,7.234876,82.4161312262756
1670926174.824,7.220716,82.3979127381974
1670926174.825,7.204344,82.3771179505924
1670926174.82601,7.223336,82.333674800829
1670926174.82702,7.251584,82.2901905117192
1670926174.82803,7.264205,82.2467473619558
1670926174.82903,7.24805,82.2033144970289
1670926174.83004,7.255142,82.1598713472655
1670926174.83105,7.260431,82.1164281975021
1670926174.83205,7.26245,82.0729953325753
1670926174.83306,7.247978,82.0295521828119
1670926174.83407,7.234083,81.9861090330485
1670926174.83507,7.228529,81.9426761681216
1670926174.83608,7.219899,81.8992330183582
1670926174.83709,7.194969,81.8557898685948
1670926174.8381,7.1522,81.8066608162098
1670926174.8391,7.135108,81.7447425805913
1670926174.84011,7.160038,81.7075247114926
1670926174.84112,7.265095,81.6139398736591
1670926174.84212,7.297189,81.5896591931331
1670926174.84313,7.266417,81.5869776273248
1670926174.84414,7.283726,81.5141080014306
1670926174.84515,7.331398,81.4412396145411
1670926174.84615,7.325677,81.372943014783
1670926174.84716,7.289881,81.3234867075241
1670926174.84817,7.261633,81.2890051279495
1670926174.84917,7.228024,81.2545235483749
1670926174.85018,7.208672,81.220050132053
1670926174.85119,7.220139,81.1855685524783
1670926174.8522,7.208215,81.1510543198927
1670926174.8532,7.201844,81.1165727403181
1670926174.85421,7.202638,81.0820993239962
1670926174.85522,7.210114,81.0476177444215
1670926174.85622,7.231847,81.0131361648469
1670926174.85723,7.253267,80.978662748525
1670926174.85824,7.260671,80.9441811689504
1670926174.85924,7.230212,80.9096995893757
1670926174.86025,7.177371,80.8752261730538
1670926174.86126,7.14333,80.8407445934792
1670926174.86227,7.146935,80.8062630139045
1670926174.86327,7.191579,80.7717895975826
1670926174.86428,7.249036,80.737275364997
1670926174.86529,7.313969,80.7027937854224
1670926174.86629,7.298968,80.6683203691005
1670926174.8673,7.272283,80.6338387895258
1670926174.86831,7.264374,80.5993572099512
1670926174.86932,7.251536,80.5648837936293
1670926174.87032,7.249925,80.5304022140547
1670926174.87133,7.259974,80.49592063448
1670926174.87234,7.267931,80.4614472181581
1670926174.87334,7.265023,80.4269656385835
1670926174.87435,7.250767,80.3924840590088
1670926174.87536,7.24216,80.3580106426869
1670926174.87636,7.240405,80.3235290631123
1670926174.87737,7.23728,80.2890148305267
1670926174.87838,7.241487,80.2545332509521
1670926174.87939,7.238001,80.2200598346302
1670926174.88039,7.218504,80.1855782550555
1670926174.8814,7.199825,80.1510966754809
1670926174.88241,7.189824,80.116623259159
1670926174.88341,7.215451,80.0821416795843
1670926174.88442,7.243122,80.0476601000097
1670926174.88543,7.257931,80.0131866836878
1670926174.88644,7.26233,79.9787051041132
1670926174.88744,7.249637,79.9442235245385
1670926174.88845,7.235669,79.9097501082166
1670926174.88946,7.239973,79.875235875631
1670926174.89046,7.2305,79.8407542960564
1670926174.89147,7.23704,79.8062808797345
1670926174.89248,7.248627,79.7717993001598
1670926174.89349,7.24704,79.7373177205852
1670926174.89449,7.257474,79.7028443042633
1670926174.8955,7.26096,79.6683627246887
1670926174.89651,7.237833,79.633881145114
1670926174.89751,7.219995,79.5994077287921
1670926174.89852,7.218168,79.5649261492175
1670926174.89953,7.235284,79.5304445696428
1670926174.90053,7.261321,79.4959711533209
1670926174.90154,7.243771,79.4614895737463
1670926174.90255,7.202662,79.4269753411607
1670926174.90356,7.201051,79.3922547925608
1670926174.90456,7.215812,79.3534730574631
1670926174.90557,7.231077,79.306244
1670926174.90658,7.256897,79.3036389079638
1670926174.90758,7.250045,79.2799643361946
1670926174.90859,7.250647,79.2281677160229
1670926174.9096,7.249468,79.1917315151371
1670926174.91061,7.246608,79.1553103865045
1670926174.91161,7.244035,79.1221118872198
1670926174.91262,7.230428,79.107262
1670926174.91363,7.214658,79.107262
1670926174.91463,7.187107,79.107262
1670926174.91564,7.163139,79.107262
1670926174.91665,7.151407,79.1277355570918
1670926174.91766,7.242953,79.1239308874521
1670926174.91866,7.272042,79.0896377158324
1670926174.91967,7.237617,79.0553526628613
1670926174.92068,7.257906,79.0210594912416
1670926174.92168,7.298391,78.9867663196219
1670926174.92269,7.322215,78.9524812666508
1670926174.9237,7.285722,78.9181880950311
1670926174.9247,7.22752,78.8838949234114
1670926174.92571,7.178621,78.8496098704402
1670926174.92672,7.178452,78.8153166988205
1670926174.92773,7.188261,78.7809910526065
1670926174.92873,7.220139,78.7466978809868
1670926174.92974,7.219923,78.7124128280156
1670926174.93075,7.252666,78.6781196563959
1670926174.93175,7.262402,78.6438264847762
1670926174.93276,7.238602,78.6095414318051
1670926174.93377,7.247329,78.5752482601854
1670926174.93478,7.26471,78.5409550885657
1670926174.93578,7.251824,78.5066700355946
1670926174.93679,7.252738,78.4723768639749
1670926174.9378,7.251993,78.4380836923552
1670926174.9388,7.231702,78.403798639384
1670926174.93981,7.244132,78.36947299317
1670926174.94082,7.266008,78.3351798215503
1670926174.94183,7.265287,78.3008947685792
1670926174.94283,7.271513,78.2666015969595
1670926174.94384,7.250983,78.2323084253397
1670926174.94485,7.232015,78.1980233723686
1670926174.94585,7.228072,78.1637302007489
1670926174.94686,7.215956,78.1294370291292
1670926174.94787,7.233433,78.0951519761581
1670926174.94887,7.235669,78.0608588045384
1670926174.94988,7.227736,78.0265656329187
1670926174.95089,7.215908,77.9922805799476
1670926174.9519,7.222928,77.9562625793991
1670926174.9529,7.240838,77.9197807988081
1670926174.95391,7.243771,77.9133
1670926174.95492,7.235837,77.8830904487363
1670926174.95592,7.212782,77.8618908812873
1670926174.95693,7.214682,77.7515244420601
1670926174.95794,7.24793,77.7633826719123
1670926174.95895,7.306084,77.7373655369576
1670926174.95995,7.337385,77.7166750607867
1670926174.96096,7.321229,77.6803316863079
1670926174.96197,7.282524,77.6412920568801
1670926174.96297,7.249997,77.6022524274523
1670926174.96398,7.205787,77.563222040361
1670926174.96499,7.205306,77.5241454415872
1670926174.966,7.23115,77.4851058121594
1670926174.967,7.225837,77.4460754250681
1670926174.96801,7.220451,77.4932785321888
1670926174.96902,7.239732,77.4127642388558
1670926174.97002,7.257137,77.3557188674297
1670926174.97103,7.25519,77.3868207234144
1670926174.97204,7.247786,77.2906498489752
1670926174.97304,7.1967,77.2819857497303
1670926174.97405,7.112029,77.200183600863
1670926174.97506,7.068395,77.1941327270766
1670926174.97607,7.11263,77.1617798058253
1670926174.97707,7.239636,77.0554324156634
1670926174.97808,7.343611,77.0189684986292
1670926174.97909,7.324667,76.9866262131617
1670926174.98009,7.251752,76.972626
1670926174.9811,7.211821,76.9552568703218
1670926174.98211,7.208191,76.900269
1670926174.98312,7.193935,76.8772976051502
1670926174.98412,7.203743,76.8239796001431
1670926174.98513,7.260335,76.8543836233611
1670926174.98614,7.287405,76.812976828803
1670926174.98714,7.285072,76.778730639485
1670926174.98815,7.26471,76.7872376392432
1670926174.98916,7.257041,76.7716229166057
1670926174.99017,7.268845,76.7559934072989
1670926174.99117,7.267883,76.7403786846614
1670926174.99218,7.272547,76.7247676586911
1670926174.99319,7.279134,76.7091529360535
1670926174.99419,7.277331,76.693538213416
1670926174.9952,7.265816,76.6779271874457
1670926174.99621,7.240958,76.6623124648082
1670926174.99721,7.229154,76.6466977421706
1670926174.99822,7.232304,76.6310867162003
1670926174.99923,7.244804,76.6154719935628
1670926175.00024,7.247809,76.5998572709252
1670926175.00124,7.23151,76.584246244955
1670926175.00225,7.202517,76.5606050753457
1670926175.00326,7.174775,76.538452
1670926175.00426,7.187949,76.5311603435042
1670926175.00527,7.218793,76.520363
1670926175.00628,7.270696,76.5279065529328
1670926175.00729,7.298896,76.5077597961373
1670926175.00829,7.317503,76.466095
1670926175.0093,7.3013,76.4819416435384
1670926175.01031,7.267523,76.502274
1670926175.01131,7.240742,76.50500024398
1670926175.01232,7.211244,76.5110739014543
1670926175.01333,7.195257,76.5171461210363
1670926175.01433,7.186026,76.5232197785107
1670926175.01534,7.184247,76.5292991875546
1670926175.01635,7.170086,76.535372845029
1670926175.01736,7.193454,76.541445064611
1670926175.01836,7.239443,76.5475187220854
1670926175.01937,7.267066,76.5535923795597
1670926175.02038,7.272547,76.5596645991417
1670926175.02138,7.220403,76.5657382566161
1670926175.02239,7.188406,76.5718119140905
1670926175.0234,7.186698,76.5260717453505
1670926175.02441,7.214321,76.4743439289631
1670926175.02541,7.252113,76.466095
1670926175.02642,7.281466,76.4862807081545
1670926175.02743,7.295266,76.4920539046484
1670926175.02843,7.265143,76.5292448168625
1670926175.02944,7.242401,76.5318915044921
1670926175.03045,7.231318,76.5230632239116
1670926175.03146,7.222207,76.5047867083621
1670926175.03246,7.221605,76.551879544575
1670926175.03347,7.217014,76.5233317019552
1670926175.03448,7.233385,76.5105408513305
1670926175.03548,7.240453,76.4998504044667
1670926175.03649,7.231462,76.4891574261214
1670926175.0375,7.22473,76.478464447776
1670926175.0385,7.141911,76.4677740009122
1670926175.03951,7.061303,76.4570810225668
1670926175.04052,7.057144,76.446377918295
1670926175.04153,7.120635,76.4356849399496
1670926175.04253,7.300675,76.4249944930859
1670926175.04354,7.415661,76.4143015147405
1670926175.04455,7.37496,76.4036085363951
1670926175.04555,7.287597,76.3929180895314
1670926175.04656,7.25531,76.382225111186
1670926175.04757,7.256873,76.3715321328406
1670926175.04858,7.255383,76.3608416859768
1670926175.04958,7.249613,76.3501487076315
1670926175.05059,7.243819,76.3394557292861
1670926175.0516,7.218817,76.3287652824223
1670926175.0526,7.215667,76.318072304077
1670926175.05361,7.216076,76.3073691998051
1670926175.05462,7.235789,76.2966787529414
1670926175.05563,7.262763,76.285985774596
1670926175.05663,7.26096,76.2752927962506
1670926175.05764,7.263436,76.2646023493869
1670926175.05865,7.283366,76.2539093710415
1670926175.05965,7.307526,76.2432163926961
1670926175.06066,7.305868,76.2325259458323
1670926175.06167,7.274423,76.221832967487
1670926175.06267,7.231438,76.2111399891416
1670926175.06368,7.216846,76.2004495422778
1670926175.06469,7.231342,76.1897565639325
1670926175.0657,7.2186,76.1790534596606
1670926175.0667,7.213432,76.1683604813152
1670926175.06771,7.227712,76.1576700344515
1670926175.06872,7.216797,76.1469770561061
1670926175.06972,7.220476,76.1362840777607
1670926175.07073,7.239347,76.125593630897
1670926175.07174,7.267499,76.1149006525516
1670926175.07275,7.259662,76.1042076742062
1670926175.07375,7.238122,76.0935172273425
1670926175.07476,7.237568,76.0828242489971
1670926175.07577,7.251199,76.0721312706517
1670926175.07677,7.245309,76.061440823788
1670926175.07778,7.239612,76.0507478454426
1670926175.07879,7.225789,76.0400447411707
1670926175.0798,7.212855,76.0275317331903
1670926175.0808,7.213816,76.0183955761621
1670926175.08181,7.224707,76.0366109957081
1670926175.08282,7.256585,76.0356582851693
1670926175.08382,7.309642,75.995766
1670926175.08483,7.304161,75.995766
1670926175.08584,7.249949,76.0009373664759
1670926175.08684,7.224418,76.0032513227652
1670926175.08785,7.207013,75.9722351626133
1670926175.08886,7.223505,75.9576188151819
1670926175.08987,7.230548,75.9512083624455
1670926175.09087,7.224899,75.9447918392047
1670926175.09188,7.235044,75.9383813864684
1670926175.09289,7.246728,75.9319724513581
1670926175.09389,7.245237,75.9255619986218
1670926175.0949,7.227471,75.9191515458854
1670926175.09591,7.210066,75.9127426107752
1670926175.09692,7.190329,75.9063321580389
1670926175.09792,7.180905,75.8999217053025
1670926175.09893,7.168788,75.8935127701923
1670926175.09994,7.176722,75.8871023174559
1670926175.10094,7.232784,75.8806918647196
1670926175.10195,7.29089,75.8742829296094
1670926175.10296,7.328201,75.867872476873
1670926175.10397,7.335606,75.8614559536322
1670926175.10497,7.28351,75.855047018522
1670926175.10598,7.242713,75.8486365657856
1670926175.10699,7.233842,75.8422261130493
1670926175.10799,7.220692,75.835817177939
1670926175.109,7.21461,75.8294067252027
1670926175.11001,7.193887,75.8229962724663
1670926175.11101,7.162922,75.8165873373561
1670926175.11202,7.121452,75.8101768846198
1670926175.11303,7.108783,75.8037664318834
1670926175.11404,7.174798,75.7973574967732
1670926175.11504,7.247906,75.7909470440368
1670926175.11605,7.342361,75.784530520796
1670926175.11706,7.33825,75.7781200680597
1670926175.11806,7.267715,75.7717111329494
1670926175.11907,7.274711,75.7653006802131
1670926175.12008,7.282043,75.7588902274767
1670926175.12109,7.258772,75.7524812923665
1670926175.12209,7.244444,75.7460708396302
1670926175.1231,7.261104,75.7396603868938
1670926175.12411,7.273894,75.7332514517836
1670926175.12511,7.26798,75.7268409990472
1670926175.12612,7.274951,75.7204305463109
1670926175.12713,7.266898,75.7140216112007
1670926175.12813,7.240645,75.7076111584643
1670926175.12914,7.214898,75.706306
1670926175.13015,7.193646,75.6916545138293
1670926175.13116,7.201892,75.7177847802145
1670926175.13216,7.22514,75.6945859012876
1670926175.13317,7.228217,75.7032480360038
1670926175.13418,7.218937,75.706306
1670926175.13518,7.230308,75.706306
1670926175.13619,7.233289,75.644662804721
1670926175.1372,7.225957,75.6805586791418
1670926175.13821,7.213864,75.682342845622
1670926175.13921,7.226822,75.6755128472909
1670926175.14022,7.242905,75.6686812316266
1670926175.14123,7.256464,75.6618431466293
1670926175.14223,7.251512,75.655011530965
1670926175.14324,7.235909,75.648181532634
1670926175.14425,7.246151,75.6413499169697
1670926175.14526,7.250935,75.6345183013054
1670926175.14626,7.237232,75.6172531204101
1670926175.14727,7.233121,75.5822165485101
1670926175.14828,7.26233,75.6305329885551
1670926175.14928,7.298079,75.5997655389022
1670926175.15029,7.290938,75.597771
1670926175.1513,7.248507,75.597771
1670926175.1523,7.185881,75.5628600765379
1670926175.15331,7.160927,75.561592
1670926175.15432,7.181193,75.561592
1670926175.15533,7.238554,75.5462768170714
1670926175.15633,7.285601,75.5306471160106
1670926175.15734,7.293559,75.5150174149499
1670926175.15835,7.270624,75.4993914141025
1670926175.15935,7.251127,75.4837617130417
1670926175.16036,7.248507,75.468132011981
1670926175.16137,7.25418,75.4525060111335
1670926175.16238,7.254132,75.4368763100728
1670926175.16338,7.228072,75.4989392832618
1670926175.16439,7.200257,75.4750958269368
1670926175.1654,7.210979,75.4386590867907
1670926175.1664,7.214466,75.434967
1670926175.16741,7.234804,75.467998125149
1670926175.16842,7.259157,75.4545052703863
1670926175.16943,7.249132,75.4698261287554
1670926175.17043,7.249276,75.5049431874106
1670926175.17144,7.247737,75.4562642154946
1670926175.17245,7.246848,75.447142486554
1670926175.17345,7.248651,75.4408601221688
1670926175.17446,7.233409,75.4345792450857
1670926175.17547,7.216389,75.4282968807005
1670926175.17647,7.201459,75.4220145163152
1670926175.17748,7.192276,75.4157336392321
1670926175.17849,7.213768,75.4094512748469
1670926175.1795,7.22752,75.4031629612529
1670926175.1805,7.210715,75.3968820841699
1670926175.18151,7.183838,75.3905997197846
1670926175.18252,7.177948,75.3843173553994
1670926175.18352,7.181914,75.3780364783163
1670926175.18453,7.267931,75.371754113931
1670926175.18554,7.348395,75.3654717495458
1670926175.18655,7.307959,75.3591908724627
1670926175.18755,7.271802,75.3529085080775
1670926175.18856,7.255238,75.3466261436922
1670926175.18957,7.246511,75.3403452666091
1670926175.19057,7.255623,75.3340629022239
1670926175.19158,7.281707,75.3277745886299
1670926175.19259,7.280793,75.3214922242447
1670926175.1936,7.264421,75.3152113471616
1670926175.1946,7.262811,75.3089289827763
1670926175.19561,7.25055,75.3026466183911
1670926175.19662,7.230693,75.296365741308
1670926175.19762,7.225091,75.2900833769228
1670926175.19863,7.229274,75.2838010125375
1670926175.19964,7.256344,75.2775201354544
1670926175.20064,7.307791,75.2747875965665
1670926175.20165,7.258388,75.290237
1670926175.20266,7.252858,75.2873429325227
1670926175.20367,7.253603,75.2751707387366
1670926175.20467,7.263292,75.290237
1670926175.20568,7.295698,75.2836565343348
1670926175.20669,7.251536,75.2609035692491
1670926175.20769,7.191964,75.2796023505007
1670926175.2087,7.211268,75.2433164184549
1670926175.20971,7.224899,75.2728266070942
1670926175.21072,7.222302,75.2760802238545
1670926175.21172,7.249973,75.2793330703458
1670926175.21273,7.261633,75.2825866871061
1670926175.21374,7.238554,75.2858403038665
1670926175.21474,7.218192,75.2890931503577
1670926175.21575,7.221004,75.3138589978546
1670926175.21676,7.225428,75.2786422505955
1670926175.21777,7.224899,75.2419865198091
1670926175.21877,7.207446,75.2726031468765
1670926175.21978,7.204825,75.277912010955
1670926175.22079,7.22098,75.2596934291169
1670926175.22179,7.234491,75.1911161015737
1670926175.2228,7.25156,75.2272017053635
1670926175.22381,7.245069,75.254066
1670926175.22481,7.226221,75.2607086397137
1670926175.22582,7.208431,75.2700397039473
1670926175.22683,7.227856,75.2793707681809
1670926175.22784,7.251608,75.2886996233558
1670926175.22884,7.24329,75.2980306875894
1670926175.22985,7.225212,75.3073705880581
1670926175.23086,7.222182,75.316699443233
1670926175.23186,7.225235,75.3260305074666
1670926175.23287,7.242737,75.3353615717002
1670926175.23388,7.240333,75.3446904268751
1670926175.23489,7.238602,75.3540214911087
1670926175.23589,7.239924,75.3633525553423
1670926175.2369,7.282548,75.3726814105172
1670926175.23791,7.296323,75.3820124747508
1670926175.23891,7.281298,75.3913435389844
1670926175.23992,7.25507,75.4006723941593
1670926175.24093,7.231077,75.4100034583929
1670926175.24194,7.214922,75.4193433588616
1670926175.24294,7.257546,75.4286744230953
1670926175.24395,7.289808,75.4380032782701
1670926175.24496,7.238169,75.4473343425038
1670926175.24596,7.195329,75.4566654067374
1670926175.24697,7.162562,75.4659942619122
1670926175.24798,7.17689,75.4753253261459
1670926175.24898,7.201051,75.4846563903795
1670926175.24999,7.217518,75.4939852455544
1670926175.251,7.264085,75.503316309788
1670926175.25201,7.255671,75.5126473740216
1670926175.25301,7.254252,75.5219762291965
1670926175.25402,7.270913,75.5313072934301
1670926175.25503,7.283005,75.5406471938988
1670926175.25603,7.288077,75.5499760490737
1670926175.25704,7.293246,75.5593071133073
1670926175.25805,7.279952,75.5686381775409
1670926175.25906,7.247065,75.5779670327158
1670926175.26006,7.23038,75.5872980969494
1670926175.26107,7.242617,75.596629161183
1670926175.26208,7.2399,75.6059580163579
1670926175.26308,7.212182,75.6152890805915
1670926175.27517,7.281418,75.7024879947031
1670926175.27618,7.275552,75.7159075587337
1670926175.27718,7.249012,75.7293271227644
1670926175.27819,7.235886,75.7427435098149
1670926175.2792,7.230837,75.7561757817661
1670926175.2802,7.219706,75.7695953457967
1670926175.28121,7.234083,75.7830117328473
1670926175.28222,7.250935,75.7964312968779
1670926175.28323,7.236871,75.8098508609086
1670926175.28423,7.235669,75.8232672479591
1670926175.28524,7.253147,75.8366868119898
1670926175.28625,7.266826,75.8501063760204
1670926175.28725,7.250262,75.863522763071
1670926175.28826,7.222543,75.8769423271016
1670926175.28927,7.182852,75.8903618911323
1670926175.29027,7.160879,75.9037782781828
1670926175.29128,7.205667,75.9171978422135
1670926175.29229,7.241992,75.9306301141646
1670926175.2933,7.270264,75.9440496781953
1670926175.2943,7.286251,75.9574660652458
1670926175.29531,7.273172,75.9708856292765
1670926175.29632,7.274134,75.9843051933072
1670926175.29732,7.25995,75.9977215803577
1670926175.29833,7.252425,76.0111411443884
1670926175.29934,7.252233,76.024560708419
1670926175.30035,7.259277,76.0379770954696
1670926175.30135,7.265455,76.0513966595002
1670926175.30236,7.223096,76.0648162235309
1670926175.30337,7.2349,76.0782326105814
1670926175.30437,7.257786,76.0916648825326
1670926175.30538,7.244059,76.1050844465632
1670926175.30639,7.244324,76.1185008336138
1670926175.3074,7.253507,76.1319203976444
1670926175.3084,7.260719,76.1453399616751
1670926175.30941,7.251416,76.1587563487256
1670926175.31042,7.230693,76.1721759127563
1670926175.31142,7.215499,76.1855954767869
1670926175.31243,7.206484,76.1990118638375
1670926175.31344,7.205402,76.2124314278681
1670926175.31444,7.216437,76.2258509918988
1670926175.31545,7.282524,76.2392673789493
1670926175.31646,7.318465,76.249008
1670926175.31747,7.259349,76.2695602753934
1670926175.31847,7.235332,76.3161144549356
1670926175.31948,7.246992,76.3194614410012
1670926175.32049,7.247065,76.3520425882213
1670926175.32149,7.264566,76.3338241962327
1670926175.3225,7.262378,76.3271505070322
1670926175.32351,7.268917,76.3571582107773
1670926175.32452,7.271465,76.3997633536004
1670926175.32552,7.277476,76.4179774325227
1670926175.32653,7.252425,76.4110806703218
1670926175.32754,7.228794,76.4140781287554
1670926175.32854,7.247065,76.484184
1670926175.32955,7.264686,76.484184
1670926175.33056,7.280144,76.4851955110894
1670926175.33157,7.269422,76.4879042056555
1670926175.33257,7.251224,76.4906135416364
1670926175.33358,7.236799,76.4933228776172
1670926175.33459,7.235837,76.4960315721833
1670926175.33559,7.244973,76.4987409081642
1670926175.3366,7.240429,76.501450244145
1670926175.33761,7.226294,76.5041589387111
1670926175.33861,7.217663,76.506868274692
1670926175.33962,7.227159,76.5095776106728
1670926175.34063,7.231871,76.5122863052389
1670926175.34164,7.205498,76.5149956412198
1670926175.34264,7.205474,76.5177075428597
1670926175.34365,7.22062,76.520363
1670926175.34466,7.22675,76.520363
1670926175.34566,7.232664,76.5222134097735
1670926175.34667,7.255623,76.573904152599
1670926175.34768,7.292189,76.5582908526466
1670926175.34869,7.322432,76.5917389191895
1670926175.34969,7.299881,76.574646
1670926175.3507,7.240405,76.5733995238436
1670926175.35171,7.220572,76.5593087362899
1670926175.35271,7.229971,76.5949928457439
1670926175.35372,7.23752,76.6223134261923
1670926175.35473,7.240309,76.6496663540009
1670926175.35574,7.232207,76.6769934039213
1670926175.35674,7.232712,76.7043139843696
1670926175.35775,7.225981,76.7316410342901
1670926175.35876,7.236102,76.7589680842105
1670926175.35976,7.251584,76.7862886646588
1670926175.36077,7.260864,76.8136157145792
1670926175.36178,7.277428,76.8409427644996
1670926175.36278,7.279831,76.868263344948
1670926175.36379,7.258796,76.8955903948684
1670926175.3648,7.243146,76.9229174447888
1670926175.36581,7.238122,76.9502380252372
1670926175.36681,7.220908,76.9775650751576
1670926175.36782,7.210474,77.0049180029662
1670926175.36883,7.221942,77.0322450528866
1670926175.36983,7.234275,77.059565633335
1670926175.37084,7.247882,77.0868926832554
1670926175.37185,7.236198,77.1142197331758
1670926175.37286,7.237256,77.1415403136242
1670926175.37386,7.269206,77.1688673635446
1670926175.37487,7.310171,77.196194413465
1670926175.37588,7.297502,77.2235149939133
1670926175.37688,7.239468,77.2508420438338
1670926175.37789,7.195762,77.2781690937542
1670926175.3789,7.180977,77.3054896742025
1670926175.37991,7.196123,77.3328426020111
1670926175.38091,7.254421,77.3601696519315
1670926175.38192,7.249588,77.3874902323799
1670926175.38293,7.24543,77.4148172823003
1670926175.38393,7.238794,77.4421443322207
1670926175.38494,7.264854,77.4694649126691
1670926175.38595,7.282043,77.4967919625895
1670926175.38695,7.268773,77.515327
1670926175.38796,7.247497,77.5273004029566
1670926175.38897,7.225981,77.5637352781883
1670926175.38998,7.219033,77.6064083657606
1670926175.39098,7.241439,77.6674229742489
1670926175.39199,7.282548,77.714325
1670926175.393,7.290698,77.7276009849786
1670926175.394,7.279519,77.7640384020029
1670926175.39501,7.260383,77.8073592207916
1670926175.39602,7.233265,77.8443565792942
1670926175.39703,7.225837,77.8531952715168
1670926175.39803,7.252498,77.8620318712461
1670926175.39904,7.279591,77.8708705634687
1670926175.40005,7.275312,77.8797092556914
1670926175.40105,7.236366,77.8885458554207
1670926175.40206,7.236198,77.8973845476433
1670926175.40307,7.241799,77.906223239866
1670926175.40407,7.238073,77.9150598395952
1670926175.40508,7.206772,77.9239069017916
1670926175.40609,7.190401,77.9327455940143
1670926175.4071,7.210018,77.9415821937435
1670926175.4081,7.25394,77.9504208859662
1670926175.40911,7.304641,77.9592595781889
1670926175.41012,7.320532,77.9680961779181
1670926175.41112,7.262643,77.9769348701408
1670926175.41213,7.215692,77.9857735623635
1670926175.41314,7.185713,77.9946101620927
1670926175.41415,7.136502,78.0034488543154
1670926175.41515,7.195593,78.012287546538
1670926175.41616,7.28952,78.0211241462673
1670926175.41717,7.302045,78.02996283849
1670926175.41817,7.277716,78.0388099006863
1670926175.41918,7.26007,78.047648592909
1670926175.42019,7.241319,78.0564851926382
1670926175.4212,7.256176,78.0653238848609
1670926175.4222,7.272259,78.0741625770836
1670926175.42321,7.256825,78.0829991768128
1670926175.42422,7.254252,78.0918378690355
1670926175.42522,7.253195,78.1006765612582
1670926175.42623,7.239564,78.1095131609874
1670926175.42724,7.196339,78.1183518532101
1670926175.42824,7.163163,78.1271905454327
1670926175.42925,7.163139,78.136027145162
1670926175.43026,7.186242,78.1448742073584
1670926175.43127,7.247185,78.153712899581
1670926175.43227,7.280072,78.1625494993103
1670926175.43328,7.275168,78.1713881915329
1670926175.43429,7.227111,78.1802268837556
1670926175.43529,7.165711,78.1890634834849
1670926175.4363,7.160158,78.1979021757075
1670926175.43731,7.202253,78.2067408679302
1670926175.43832,7.257618,78.2155774676594
1670926175.43932,7.304112,78.2244161598821
1670926175.44033,7.328297,78.2332548521048
1670926175.44134,7.340414,78.242091451834
1670926175.44234,7.295074,78.2509301440567
1670926175.44335,7.26257,78.2597772062531
1670926175.44436,7.252473,78.2686158984757
1670926175.44537,7.235477,78.277452498205
1670926175.44637,7.235116,78.2862911904277
1670926175.44738,7.244684,78.2951298826503
1670926175.44839,7.255983,78.3039664823796
1670926175.44939,7.264951,78.3128051746022
1670926175.4504,7.261393,78.3216438668249
1670926175.45141,7.260695,78.3316440467334
1670926175.45241,7.26846,78.3403062605483
1670926175.45342,7.268773,78.3032632095851
1670926175.45443,7.2844,78.3602777670644
1670926175.45544,7.275312,78.3349856436398
1670926175.45644,7.230236,78.3539020877235
1670926175.45745,7.195473,78.2962415665236
1670926175.45846,7.192011,78.3239583376252
1670926175.45946,7.231822,78.3737686264601
1670926175.46047,7.308753,78.3337926284905
1670926175.46148,7.313777,78.3573053137728
1670926175.46249,7.283221,78.3808179990552
1670926175.46349,7.265888,78.4043251178875
1670926175.4645,7.2612,78.4278378031699
1670926175.46551,7.266729,78.4513504884522
1670926175.46651,7.310604,78.4748576072845
1670926175.46752,7.347506,78.4983702925669
1670926175.46853,7.330557,78.5219052436497
1670926175.46954,7.300218,78.5454179289321
1670926175.47054,7.26209,78.5689250477643
1670926175.47155,7.234948,78.5924377330467
1670926175.47256,7.228313,78.6159504183291
1670926175.47356,7.229058,78.6394575371614
1670926175.47457,7.234876,78.6629702224437
1670926175.47558,7.230957,78.6864829077261
1670926175.47658,7.207878,78.7099900265584
1670926175.47759,7.206195,78.7335027118408
1670926175.4786,7.234155,78.7570153971231
1670926175.47961,7.264951,78.7805225159554
1670926175.48061,7.305916,78.8040574670382
1670926175.48162,7.291924,78.8275701523206
1670926175.48263,7.248603,78.8510772711529
1670926175.48363,7.233409,78.8745899564353
1670926175.48464,7.223625,78.8981026417176
1670926175.48565,7.246488,78.9216097605499
1670926175.48666,7.267426,78.9451224458323
1670926175.48766,7.236775,78.9686351311147
1670926175.48867,7.177347,78.9921422499469
1670926175.48968,7.14821,79.0156549352293
1670926175.49068,7.155013,79.0391676205117
1670926175.49169,7.125828,79.0626747393439
1670926175.4927,7.122077,79.0861874246263
1670926175.49371,7.181097,79.1097223757091
1670926175.49471,7.232183,79.1332350609915
1670926175.49572,7.302358,79.1567421798238
1670926175.49673,7.32046,79.1802548651062
1670926175.49773,7.297574,79.2037675503885
1670926175.49874,7.31945,79.2272746692208
1670926175.49975,7.308151,79.2507873545032
1670926175.50075,7.279711,79.2743000397856
1670926175.50176,7.245334,79.2978071586178
1670926175.50277,7.26483,79.3213198439002
1670926175.50378,7.287356,79.3448269627325
1670926175.50478,7.277764,79.3683396480148
1670926175.50579,7.284087,79.3918745990977
1670926175.5068,7.265528,79.4153872843801
1670926175.5078,7.265311,79.4388944032123
1670926175.50881,7.265552,79.4624070884947
1670926175.50982,7.265311,79.4859197737771
1670926175.51083,7.248627,79.5094268926093
1670926175.51183,7.257234,79.5329395778917
1670926175.51284,7.249012,79.5564522631741
1670926175.51385,7.273172,79.5799593820064
1670926175.51485,7.305675,79.6034720672887
1670926175.51586,7.28839,79.6445006771579
1670926175.51687,7.29101,79.6576957017167
1670926175.51787,7.305531,79.6604621887962
1670926175.51888,7.24954,79.6255018025751
1670926175.51989,7.212013,79.7039798088531
1670926175.5209,7.185617,79.6542866744888
1670926175.5219,7.171649,79.7241282367539
1670926175.52291,7.166889,79.7349743474179
1670926175.52392,7.154653,79.6883296016097
1670926175.52492,7.161624,79.7350407212959
1670926175.52593,7.238242,79.7758331455847
1670926175.52694,7.292236,79.7339878443014
1670926175.52795,7.296948,79.7288709859356
1670926175.52895,7.311325,79.7270650040534
1670926175.52996,7.285842,79.6974292944683
1670926175.53097,7.234707,79.6930886934446
1670926175.53197,7.221101,79.7021087908113
1670926175.53298,7.231198,79.6966441021505
1670926175.53399,7.229803,79.6911781194597
1670926175.535,7.239973,79.6857121367689
1670926175.536,7.251319,79.6802474481082
1670926175.53701,7.254637,79.6747814654174
1670926175.53802,7.254349,79.6693154827266
1670926175.53902,7.259998,79.6638507940658
1670926175.54003,7.276706,79.658384811375
1670926175.54104,7.281755,79.6529188286842
1670926175.54204,7.251392,79.6474541400234
1670926175.54305,7.223024,79.6419881573326
1670926175.54406,7.189608,79.6365169985218
1670926175.54507,7.137704,79.631051015831
1670926175.54607,7.11876,79.6255863271702
1670926175.54708,7.151792,79.6201203444794
1670926175.54809,7.238722,79.6146556558186
1670926175.54909,7.32998,79.6091896731278
1670926175.5501,7.326591,79.603723690437
1670926175.55111,7.300723,79.5982590017762
1670926175.55212,7.292236,79.586061804721
1670926175.55312,7.288198,79.5873465300429
1670926175.55413,7.293679,79.5759346865316
1670926175.55514,7.304978,79.5795091309013
1670926175.55614,7.306108,79.5753866373391
1670926175.55715,7.276154,79.5903323523242
1670926175.55816,7.242449,79.5825770407725
1670926175.55917,7.245069,79.559509
1670926175.56017,7.27435,79.5701646352801
1670926175.56118,7.27423,79.5786762815249
1670926175.56219,7.247137,79.5804971847507
1670926175.56319,7.230044,79.5823180879766
1670926175.5642,7.220139,79.5841385601173
1670926175.56521,7.241511,79.5859594633431
1670926175.56621,7.284087,79.5877803665689
1670926175.56722,7.275023,79.5896008387097
1670926175.56823,7.260551,79.5914217419355
1670926175.56924,7.246439,79.5932443695015
1670926175.57024,7.260142,79.5950648416422
1670926175.57125,7.311853,79.59568
1670926175.57226,7.278966,79.6200709894988
1670926175.57326,7.234155,79.6195482203147
1670926175.57427,7.201099,79.5764405015495
1670926175.57528,7.17314,79.5720822832618
1670926175.57629,7.176409,79.5522029637578
1670926175.57729,7.226389,79.5798870417163
1670926175.5783,7.297117,79.5568285979971
1670926175.57931,7.354213,79.5544972169766
1670926175.58031,7.349044,79.568420189537
1670926175.58132,7.302935,79.5807247321114
1670926175.58233,7.222976,79.5930176336804
1670926175.58334,7.184511,79.6053076249981
1670926175.58434,7.181506,79.6176005265672
1670926175.58535,7.238866,79.6298934281362
1670926175.58636,7.254589,79.6421834194539
1670926175.58736,7.243122,79.654476321023
1670926175.58837,7.257041,79.666769222592
1670926175.58938,7.233241,79.6790592139097
1670926175.59038,7.187877,79.6913521154788
1670926175.59139,7.156624,79.7036450170478
1670926175.5924,7.175255,79.7159350083656
1670926175.59341,7.225307,79.7282279099346
1670926175.59441,7.248459,79.7405324525089
1670926175.59542,7.223481,79.7528224438266
1670926175.59643,7.239251,79.7651153453957
1670926175.59743,7.260479,79.7774082469647
1670926175.59844,7.298896,79.7896982382825
1670926175.59945,7.323754,79.8019911398515
1670926175.60046,7.274134,79.8142840414205
1670926175.60146,7.249637,79.8265740327383
1670926175.60247,7.220211,79.8388669343073
1670926175.60348,7.18141,79.8511598358764
1670926175.60448,7.208672,79.8634498271941
1670926175.60549,7.263052,79.8757427287631
1670926175.6065,7.30279,79.8880472713374
1670926175.60751,7.307959,79.9003401729065
1670926175.60851,7.312503,79.9126301642242
1670926175.60952,7.297093,79.9249230657933
1670926175.61053,7.276514,79.9372159673623
1670926175.61153,7.25656,79.94950595868
1670926175.61254,7.235525,79.9617988602491
1670926175.61355,7.21473,79.9740917618181
1670926175.61455,7.217879,79.9863817531358
1670926175.61556,7.252473,79.9986746547049
1670926175.61657,7.239131,80.0109675562739
1670926175.61758,7.206797,80.0232575475916
1670926175.61858,7.22062,80.0355504491607
1670926175.61959,7.25293,80.047854991735
1670926175.6206,7.274038,80.0601449830527
1670926175.6216,7.285265,80.0724378846218
1670926175.62261,7.290241,80.0847307861908
1670926175.62362,7.278437,80.0970207775085
1670926175.62463,7.244853,80.1093136790776
1670926175.62563,7.224971,80.1216065806466
1670926175.62664,7.250021,80.1338965719643
1670926175.62765,7.271634,80.1152713257034
1670926175.62865,7.278365,80.1138966233611
1670926175.62966,7.299425,80.1084908245112
1670926175.63067,7.268244,80.1380273624225
1670926175.63168,7.256897,80.1202226967096
1670926175.63268,7.300098,80.1144226920143
1670926175.63369,7.33462,80.1203
1670926175.6347,7.309955,80.0704402646638
1670926175.6357,7.225067,80.0227606972587
1670926175.63671,7.190593,80.0130947419572
1670926175.63772,7.23014,80.015000043866
1670926175.63872,7.287212,80.0169053457749
1670926175.63973,7.319042,80.0188101966179
1670926175.64074,7.293943,80.0207154985267
1670926175.64175,7.256632,80.0226208004356
1670926175.64275,7.220572,80.0245256512786
1670926175.64376,7.203887,80.0264309531874
1670926175.64477,7.219586,80.0283380593594
1670926175.64577,7.268052,80.0302429102024
1670926175.64678,7.261681,80.0321482121113
1670926175.64779,7.217254,80.0340535140201
1670926175.6488,7.196651,80.0359583648631
1670926175.6498,7.179462,80.037863666772
1670926175.65081,7.177611,80.0397689686808
1670926175.65182,7.241848,80.0416738195238
1670926175.65282,7.271465,80.0435791214326
1670926175.65383,7.266946,80.0454844233415
1670926175.65484,7.271321,80.0473892741845
1670926175.65584,7.257089,80.0492945760933
1670926175.65685,7.233049,80.0512016822653
1670926175.65786,7.210114,80.0531069841742
1670926175.65887,7.227471,80.0550118350172
1670926175.65987,7.255671,80.056917136926
1670926175.66088,7.288198,80.0588224388348
1670926175.66189,7.3063,80.0607272896779
1670926175.66289,7.291756,80.0626325915867
1670926175.6639,7.254974,80.0645378934955
1670926175.66491,7.244804,80.0664427443386
1670926175.66592,7.24353,80.0683480462474
1670926175.66692,7.229226,80.0702533481562
1670926175.66793,7.250502,80.0721581989993
1670926175.66894,7.257065,80.0740635009081
1670926175.66994,7.253075,80.0759706070801
1670926175.67095,7.262234,80.0778754579231
1670926175.67196,7.253916,80.0797807598319
1670926175.67297,7.242088,80.0816860617408
1670926175.67397,7.225861,80.0835909125838
1670926175.67498,7.204536,80.0854962144926
1670926175.67599,7.225284,80.0874015164014
1670926175.67699,7.245694,80.0893063672445
1670926175.678,7.269975,80.0912116691533
1670926175.67901,7.306949,80.0931169710621
1670926175.68001,7.278702,80.0950218219052
1670926175.68102,7.25305,80.096927123814
1670926175.68203,7.23026,80.098834229986
1670926175.68304,7.22324,80.1007395318948
1670926175.68404,7.23002,80.1026443827379
1670926175.68505,7.245406,80.1045496846467
1670926175.68606,7.268941,80.1064549865555
1670926175.68706,7.283846,80.1083598373985
1670926175.68807,7.252618,80.1102651393074
1670926175.68908,7.213359,80.1121704412162
1670926175.69009,7.197349,80.1140752920592
1670926175.69109,7.198526,80.1159805939681
1670926175.6921,7.21384,80.1178858958769
1670926175.69311,7.27738,80.1197907467199
1670926175.69411,7.3132,80.1469731788947
1670926175.69512,7.283221,80.1294958556086
1670926175.69613,7.281274,80.0794372570339
1670926175.69714,7.266778,80.0935263151371
1670926175.69814,7.233842,80.1075489516595
1670926175.69915,7.19819,80.1062997868383
1670926175.70016,7.177587,80.1445904917759
1670926175.70116,7.193526,80.1707336840725
1670926175.70217,7.239636,80.174568
1670926175.70318,7.260431,80.1813674873021
1670926175.70418,7.290193,80.1899052501927
1670926175.70519,7.315989,80.1984409918327
1670926175.7062,7.359983,80.2069787547233
1670926175.70721,7.363084,80.2155246026167
1670926175.70821,7.28476,80.2240623655073
1670926175.70922,7.247449,80.2325981071472
1670926175.71023,7.201892,80.2411358700379
1670926175.71123,7.1898,80.2496736329285
1670926175.71224,7.221894,80.2582093745685
1670926175.71325,7.209561,80.2667471374591
1670926175.71426,7.199488,80.2752849003497
1670926175.71526,7.199897,80.2838206419897
1670926175.71627,7.218048,80.2923584048803
1670926175.71728,7.254781,80.3008961677709
1670926175.71828,7.247834,80.3094319094109
1670926175.71929,7.265047,80.3179696723015
1670926175.7203,7.327624,80.3265155201949
1670926175.72131,7.35229,80.3350512618348
1670926175.72231,7.324619,80.3435890247254
1670926175.72332,7.269182,80.3521267876161
1670926175.72433,7.251704,80.3776112680019
1670926175.72533,7.265696,80.391655
1670926175.72634,7.261272,80.3690021497377
1670926175.72735,7.258243,80.3783735554231
1670926175.72835,7.237232,80.4263793299952
1670926175.72936,7.221725,80.4342145150215
1670926175.73037,7.214513,80.4041775048868
1670926175.73138,7.206075,80.4036108197425
1670926175.73238,7.235429,80.409744
1670926175.73339,7.253435,80.4066862215798
1670926175.7344,7.247209,80.4021329781848
1670926175.7354,7.226822,80.3975786565885
1670926175.73641,7.228914,80.3930243349923
1670926175.73742,7.23175,80.3884710915973
1670926175.73843,7.265047,80.3839167700011
1670926175.73943,7.335101,80.3793624484048
1670926175.74044,7.350631,80.3748092050098
1670926175.74145,7.351424,80.3702548834136
1670926175.74245,7.323658,80.3657005618174
1670926175.74346,7.266129,80.3611473184223
1670926175.74447,7.198671,80.3565929968261
1670926175.74548,7.195185,80.3520343624253
1670926175.74648,7.220644,80.3474811190302
1670926175.74749,7.239708,80.342926797434
1670926175.7485,7.222062,80.3383724758378
1670926175.7495,7.17677,80.3659316616595
1670926175.75051,7.157273,80.3879638953516
1670926175.75152,7.157225,80.3480749752027
1670926175.75252,7.185593,80.3666907823081
1670926175.75353,7.180015,80.3587878283671
1670926175.75454,7.156167,80.3703827811159
1670926175.75555,7.187708,80.3585341330472
1670926175.75655,7.215932,80.3706336519666
1670926175.75756,7.245021,80.3582623948498
1670926175.75857,7.309858,80.3681037907568
1670926175.75957,7.320484,80.3830079719657
1670926175.76058,7.298054,80.3979156824623
1670926175.76159,7.302838,80.4128233929588
1670926175.7626,7.325653,80.4277275741678
1670926175.7636,7.297429,80.4426352846643
1670926175.76461,7.256969,80.4575429951608
1670926175.76562,7.24329,80.4724471763698
1670926175.76662,7.214874,80.4873548868663
1670926175.76763,7.251776,80.5022625973628
1670926175.76864,7.309714,80.5171667785718
1670926175.76964,7.263893,80.5320744890683
1670926175.77065,7.261176,80.5469963167149
1670926175.77166,7.275528,80.5619004979239
1670926175.77267,7.256752,80.5768082084205
1670926175.77367,7.254373,80.591715918917
1670926175.77468,7.257402,80.606620100126
1670926175.77569,7.230428,80.6215278106225
1670926175.77669,7.208095,80.636435521119
1670926175.7777,7.22163,80.651339702328
1670926175.77871,7.24329,80.6662474128245
1670926175.77972,7.272716,80.681155123321
1670926175.78072,7.275937,80.69605930453
1670926175.78173,7.245742,80.7109670150265
1670926175.78274,7.239396,80.7258888426731
1670926175.78374,7.249348,80.7407965531696
1670926175.78475,7.256897,80.7557007343787
1670926175.78576,7.266609,80.7706084448752
1670926175.78677,7.268725,80.7855161553717
1670926175.78777,7.249348,80.8004203365807
1670926175.78878,7.229996,80.8153280470772
1670926175.78979,7.225067,80.8302357575737
1670926175.79079,7.221725,80.8451399387827
1670926175.7918,7.231077,80.8600476492792
1670926175.79281,7.237568,80.8749553597757
1670926175.79381,7.227303,80.8898595409847
1670926175.79482,7.212254,80.9047813686313
1670926175.79583,7.19718,80.9196890791279
1670926175.79684,7.212782,80.9345932603368
1670926175.79784,7.225692,80.9495009708334
1670926175.79885,7.217999,80.9644086813299
1670926175.79986,7.234804,80.9793128625389
1670926175.80086,7.231294,80.9942205730354
1670926175.80187,7.183357,81.0091282835319
1670926175.80288,7.179462,81.0240324647409
1670926175.80389,7.206051,81.0389401752374
1670926175.80489,7.251392,81.0538478857339
1670926175.8059,7.330461,81.0687520669429
1670926175.80691,7.334692,81.0836597774394
1670926175.80791,7.284952,81.098581605086
1670926175.80892,7.260359,81.1134893155826
1670926175.80993,7.264518,81.1283934967916
1670926175.81094,7.278677,81.1433012072881
1670926175.81194,7.290722,81.1582089177846
1670926175.81295,7.281034,81.1731130989936
1670926175.81396,7.265455,81.1881093764902
1670926175.81496,7.257402,81.205711
1670926175.81597,7.272187,81.205711
1670926175.81698,7.286034,81.2065779742489
1670926175.81798,7.26899,81.2277863283262
1670926175.81899,7.256224,81.2939151435384
1670926175.82,7.18516,81.2561757122765
1670926175.82101,7.171842,81.2098904382451
1670926175.82201,7.218071,81.2614972832618
1670926175.82302,7.310339,81.2765962569993
1670926175.82403,7.32522,81.2603112663317
1670926175.82503,7.321566,81.2440301310122
1670926175.82604,7.303848,81.2277451403446
1670926175.82705,7.265696,81.211460149677
1670926175.82806,7.234852,81.1951790143575
1670926175.82906,7.229299,81.1788940236899
1670926175.83007,7.229515,81.1626090330223
1670926175.83108,7.213336,81.1463278977028
1670926175.83208,7.191411,81.1300429070352
1670926175.83309,7.178332,81.1137424949749
1670926175.8341,7.179631,81.0974575043073
1670926175.83511,7.187949,81.0811763689878
1670926175.83611,7.245334,81.0648913783202
1670926175.83712,7.302069,81.0486063876526
1670926175.83813,7.292333,81.0323252523331
1670926175.83913,7.28149,81.0160402616655
1670926175.84014,7.280745,80.9997552709979
1670926175.84115,7.266152,80.9834741356784
1670926175.84215,7.246078,80.9671891450108
1670926175.84316,7.23853,80.9509041543432
1670926175.84417,7.224827,80.9346230190237
1670926175.84518,7.224707,80.9183226069634
1670926175.84618,7.23163,80.9020376162958
1670926175.84719,7.229635,80.8857564809763
1670926175.8482,7.217783,80.8694714903087
1670926175.8492,7.247329,80.8531864996411
1670926175.85021,7.299521,80.8369053643216
1670926175.85122,7.345654,80.820620373654
1670926175.85223,7.337553,80.8043353829864
1670926175.85323,7.303463,80.7880542476669
1670926175.85424,7.26471,80.7717692569993
1670926175.85525,7.235501,80.7554842663317
1670926175.85625,7.211484,80.7392031310122
1670926175.85726,7.263196,80.7229181403446
1670926175.85827,7.304257,80.7066177282843
1670926175.85928,7.282885,80.6903327376167
1670926175.86028,7.237568,80.6740516022972
1670926175.86129,7.196675,80.6577666116296
1670926175.8623,7.216821,80.641481620962
1670926175.8633,7.232688,80.6252004856425
1670926175.86431,7.223938,80.6089154949749
1670926175.86532,7.245213,80.5926305043073
1670926175.86632,7.240117,80.590645
1670926175.86733,7.232929,80.590645
1670926175.86834,7.217975,80.5094137856462
1670926175.86935,7.17915,80.5165744967819
1670926175.87035,7.137247,80.4522141654745
1670926175.87136,7.12138,80.4792253285646
1670926175.87237,7.158908,80.4653304789035
1670926175.87337,7.225909,80.4302229763949
1670926175.87438,7.355031,80.427834
1670926175.87539,7.404001,80.4135441934356
1670926175.8764,7.33938,80.3983630709688
1670926175.8774,7.302021,80.383181948502
1670926175.87841,7.281923,80.3680044200509
1670926175.87942,7.266129,80.3528232975841
1670926175.88042,7.263316,80.3376421751172
1670926175.88143,7.267379,80.319479148784
1670926175.88244,7.270744,80.3553638870083
1670926175.88345,7.267859,80.319298
1670926175.88445,7.25846,80.3197378278904
1670926175.88546,7.252378,80.3551352677635
1670926175.88647,7.246896,80.3364467255603
1670926175.88747,7.249468,80.3006084837864
1670926175.88848,7.251031,80.283119
1670926175.88949,7.241439,80.2825671447699
1670926175.89049,7.228192,80.2707344722224
1670926175.8915,7.212759,80.2589046009704
1670926175.89251,7.209128,80.2470719284228
1670926175.89352,7.221125,80.2352392558753
1670926175.89452,7.236847,80.2234093846233
1670926175.89553,7.230981,80.2115655068934
1670926175.89654,7.216846,80.1997328343459
1670926175.89754,7.23264,80.1879029630939
1670926175.89855,7.244516,80.1760702905464
1670926175.89956,7.261681,80.1642376179988
1670926175.90057,7.278005,80.1524077467469
1670926175.90157,7.288607,80.1405750741993
1670926175.90258,7.261248,80.1287424016517
1670926175.90359,7.212687,80.1169125303998
1670926175.90459,7.216124,80.1050798578522
1670926175.9056,7.239131,80.0932471853047
1670926175.90661,7.280841,80.0814173140527
1670926175.90761,7.335798,80.0695846415051
1670926175.90862,7.30582,80.0577407637753
1670926175.90963,7.262811,80.0459080912277
1670926175.91064,7.27399,80.0340782199757
1670926175.91164,7.292429,80.0222455474282
1670926175.91265,7.28952,80.0104128748806
1670926175.91366,7.263075,79.9985830036287
1670926175.91466,7.259301,79.9867503310811
1670926175.91567,7.254661,79.9749176585336
1670926175.91668,7.237208,79.9630877872816
1670926175.91769,7.237352,79.951255114734
1670926175.91869,7.229755,79.9394224421865
1670926175.9197,7.217278,79.9275925709345
1670926175.92071,7.233746,79.9157486932046
1670926175.92171,7.263676,79.9039160206571
1670926175.92272,7.261849,79.8920861494051
1670926175.92373,7.233842,79.8802534768576
1670926175.92474,7.192324,79.86842080431
1670926175.92574,7.197132,79.856590933058
1670926175.92675,7.223288,79.8447582605105
1670926175.92776,7.286419,79.8329255879629
1670926175.92876,7.260167,79.821095716711
1670926175.92977,7.230597,79.8092630441634
1670926175.93078,7.217206,79.7974303716159
1670926175.93178,7.185809,79.7856005003639
1670926175.93279,7.169942,79.7737678278163
1670926175.9338,7.208023,79.7619239500865
1670926175.93481,7.276514,79.7500912775389
1670926175.93581,7.333875,79.7304854515975
1670926175.93682,7.309906,79.6792683025751
1670926175.93783,7.30933,79.649971
1670926175.93883,7.305916,79.6315291759657
1670926175.93984,7.263917,79.5671416502146
1670926175.94085,7.236511,79.6114710586552
1670926175.94186,7.219129,79.6639894359952
1670926175.94286,7.214994,79.6248162678909
1670926175.94387,7.232832,79.598181236835
1670926175.94488,7.252522,79.5752504888042
1670926175.94588,7.256536,79.559509
1670926175.94689,7.251464,79.5542988159275
1670926175.9479,7.245886,79.5206006781116
1670926175.94891,7.248507,79.5281148951132
1670926175.94991,7.253652,79.649971
1670926175.95092,7.265575,79.6375174887828
1670926175.95193,7.246896,79.5743463326983
1670926175.95293,7.206292,79.5696004592275
1670926175.95394,7.193598,79.6178698504816
1670926175.95495,7.192636,79.6392762391519
1670926175.95595,7.222567,79.6606826278223
1670926175.95696,7.269062,79.6820839486923
1670926175.95797,7.283077,79.7034903373626
1670926175.95898,7.291203,79.7249169972344
1670926175.95998,7.274374,79.7463233859047
1670926175.96099,7.25846,79.7677247067747
1670926175.962,7.237112,79.789131095445
1670926175.963,7.236703,79.8105374841153
1670926175.96401,7.230573,79.8319388049853
1670926175.96502,7.249493,79.8533451936557
1670926175.96603,7.270456,79.874751582326
1670926175.96703,7.256368,79.896152903196
1670926175.96804,7.228938,79.9175592918663
1670926175.96905,7.206628,79.9389656805367
1670926175.97005,7.210811,79.9603670014067
1670926175.97106,7.216749,79.9817936612784
1670926175.97207,7.233986,80.0032000499488
1670926175.97308,7.246896,80.0246013708187
1670926175.97408,7.252305,80.0460077594891
1670926175.97509,7.254613,80.0674141481594
1670926175.9761,7.274086,80.0888154690294
1670926175.9771,7.253098,80.1102218576997
1670926175.97811,7.270095,80.1316282463701
1670926175.97912,7.27524,80.1530295672401
1670926175.98012,7.247521,80.1744359559104
1670926175.98113,7.207301,80.1958423445807
1670926175.98214,7.214922,80.2172436654507
1670926175.98315,7.246896,80.2386500541211
1670926175.98415,7.243819,80.2600767139928
1670926175.98516,7.253579,80.2814831026632
1670926175.98617,7.213336,80.3028844235331
1670926175.98717,7.202301,80.3242908122035
1670926175.98818,7.339019,80.3456972008738
1670926175.98919,7.441697,80.3670985217438
1670926175.9902,7.333875,80.3885049104141
1670926175.9912,7.249973,80.4099112990845
1670926175.99221,7.242857,80.4313126199545
1670926175.99322,7.229827,80.4527190086248
1670926175.99422,7.182275,80.4984692012399
1670926175.99523,7.168572,80.5276483277712
1670926175.99624,7.196483,80.553814468288
1670926175.99725,7.238073,80.5816264031026
1670926175.99825,7.238097,80.5908388568707
1670926175.99926,7.254901,80.608734
1670926176.00027,7.287477,80.608734
1670926176.00127,7.288318,80.646825703192
1670926176.00228,7.258171,80.6714492827175
1670926176.00329,7.221125,80.6665394675157
1670926176.00429,7.182395,80.6731349312325
1670926176.0053,7.16136,80.6797319567451
1670926176.00631,7.190978,80.6863289822577
1670926176.00732,7.236006,80.6929244459745
1670926176.00832,7.30493,80.7010614969003
1670926176.00933,7.339861,80.735359
1670926176.01034,7.313849,80.7349632537758
1670926176.01134,7.277331,80.7290157936162
1670926176.01235,7.274254,80.7230669251071
1670926176.01336,7.255286,80.7171180565979
1670926176.01437,7.262234,80.7111705964383
1670926176.01537,7.256873,80.7052217279292
1670926176.01638,7.230885,80.69927285942
1670926176.01739,7.216774,80.6933253992604
1670926176.01839,7.203695,80.6873765307513
1670926176.0194,7.197349,80.6814290705917
1670926176.02041,7.2186,80.6754802020825
1670926176.02142,7.272235,80.6695257001752
1670926176.02242,7.30654,80.663576831666
1670926176.02343,7.328321,80.6576293715064
1670926176.02444,7.315099,80.6516805029973
1670926176.02544,7.319475,80.6457316344881
1670926176.02645,7.308392,80.6397841743285
1670926176.02746,7.280841,80.6338353058194
1670926176.02846,7.245814,80.6278864373102
1670926176.02947,7.242593,80.6219389771507
1670926176.03048,7.227351,80.6159901086415
1670926176.03149,7.194175,80.6100412401324
1670926176.03249,7.184679,80.6040937799728
1670926176.0335,7.209441,80.5981449114636
1670926176.03451,7.217807,80.5921904095563
1670926176.03551,7.220668,80.5862415410471
1670926176.03652,7.219322,80.5802940808875
1670926176.03753,7.222134,80.5743452123784
1670926176.03854,7.236054,80.5683963438692
1670926176.03954,7.207109,80.5624488837096
1670926176.04055,7.219658,80.5565000152005
1670926176.04156,7.246704,80.5505525550409
1670926176.04256,7.28464,80.5446036865317
1670926176.04357,7.313416,80.5386548180226
1670926176.04458,7.262811,80.532707357863
1670926176.04558,7.22425,80.5267584893538
1670926176.04659,7.233842,80.5208039874465
1670926176.0476,7.273052,80.5148551189373
1670926176.04861,7.261489,80.5089076587777
1670926176.04961,7.216124,80.5029587902686
1670926176.05062,7.223889,80.4970099217594
1670926176.05163,7.274735,80.4910624615998
1670926176.05263,7.298776,80.4851135930907
1670926176.05364,7.277548,80.4791647245816
1670926176.05465,7.260623,80.473217264422
1670926176.05566,7.236583,80.4672683959128
1670926176.05666,7.22764,80.4613195274037
1670926176.05767,7.237208,80.4553720672441
1670926176.05868,7.251848,80.4494231987349
1670926176.05968,7.252594,80.445915
1670926176.06069,7.246824,80.4611588559847
1670926176.0617,7.250887,80.482117
1670926176.06271,7.227976,80.4506317258641
1670926176.06371,7.225933,80.4017518881736
1670926176.06472,7.221125,80.383533496185
1670926176.06573,7.212398,80.373566
1670926176.06673,7.239323,80.3484505522175
1670926176.06774,7.265095,80.3022954227468
1670926176.06875,7.246127,80.2890544308634
1670926176.06975,7.222639,80.3015808299318
1670926176.07076,7.228625,80.3141101952326
1670926176.07177,7.229443,80.3266514254626
1670926176.07278,7.229467,80.3391807907633
1670926176.07378,7.212422,80.3517071898318
1670926176.07479,7.203792,80.3642365551325
1670926176.0758,7.232231,80.3767659204333
1670926176.0768,7.288246,80.3892923195017
1670926176.07781,7.311541,80.4018216848025
1670926176.07882,7.299978,80.4143510501033
1670926176.07983,7.30731,80.4268774491717
1670926176.08083,7.288198,80.4394068144725
1670926176.08184,7.26233,80.4519361797732
1670926176.08285,7.25007,80.4644625788417
1670926176.08385,7.246776,80.4769919441424
1670926176.08486,7.251151,80.4895331743724
1670926176.08587,7.234251,80.5020595734409
1670926176.08688,7.216437,80.5145889387416
1670926176.08788,7.228048,80.5271183040424
1670926176.08889,7.206027,80.5396447031108
1670926176.0899,7.173933,80.5521740684116
1670926176.0909,7.178597,80.5647034337123
1670926176.09191,7.216172,80.5772298327808
1670926176.09292,7.231702,80.5897591980815
1670926176.09392,7.223889,80.6022885633823
1670926176.09493,7.222615,80.6148149624507
1670926176.09594,7.196723,80.6273443277515
1670926176.09695,7.198599,80.6398855579815
1670926176.09795,7.222687,80.6524149232823
1670926176.09896,7.256128,80.6649413223507
1670926176.09997,7.310532,80.6774706876515
1670926176.10097,7.313272,80.6900000529522
1670926176.10198,7.283246,80.7025264520207
1670926176.10299,7.267571,80.7150558173214
1670926176.104,7.252281,80.7275851826222
1670926176.105,7.250647,80.7401115816906
1670926176.10601,7.260888,80.7526409469914
1670926176.10702,7.262426,80.7651703122922
1670926176.10802,7.246728,80.7776967113606
1670926176.10903,7.267259,80.7902260766614
1670926176.11004,7.29666,80.8027673068914
1670926176.11105,7.312984,80.8152937059598
1670926176.11205,7.292284,80.8278230712606
1670926176.11306,7.282548,80.8403524365613
1670926176.11407,7.334885,80.8528788356298
1670926176.11507,7.330726,80.8719114263233
1670926176.11608,7.257474,80.9134299599523
1670926176.11709,7.216004,80.9316222281831
1670926176.11809,7.190978,80.8640829160706
1670926176.1191,7.185905,80.8422152670482
1670926176.12011,7.229346,80.8912658028605
1670926176.12112,7.252353,80.916267
1670926176.12212,7.228337,80.9104055429185
1670926176.12313,7.222471,80.9101571730632
1670926176.12414,7.214874,80.934357
1670926176.12514,7.217374,80.934357
1670926176.12615,7.267186,80.934357
1670926176.12716,7.299713,80.934357
1670926176.12817,7.260888,80.934357
1670926176.12917,7.21247,80.934357
1670926176.13018,7.260888,80.934357
1670926176.13119,7.252473,80.934357
1670926176.13219,7.245021,80.934357
1670926176.1332,7.219971,80.934357
1670926176.13421,7.225692,80.934357
1670926176.13522,7.255719,80.934357
1670926176.13622,7.251151,80.934357
1670926176.13723,7.232953,80.934357
1670926176.13824,7.211388,80.9418858185936
1670926176.13924,7.188237,80.9588765670005
1670926176.14025,7.180039,80.9042206058655
1670926176.14126,7.175015,80.8868634410012
1670926176.14226,7.202277,80.9748008583691
1670926176.14327,7.224466,80.9930200145446
1670926176.14428,7.208359,80.9840968598331
1670926176.14529,7.180232,80.9142611546852
1670926176.14629,7.180616,80.906394218186
1670926176.1473,7.212807,80.8985198319362
1670926176.14831,7.278461,80.890652895437
1670926176.14931,7.329187,80.8827878213754
1670926176.15032,7.310243,80.8749208848761
1670926176.15133,7.269831,80.8670539483769
1670926176.15234,7.262835,80.8591888743152
1670926176.15334,7.259229,80.851321937816
1670926176.15435,7.246896,80.8434550013167
1670926176.15536,7.236078,80.8355899272551
1670926176.15636,7.25894,80.8277229907558
1670926176.15737,7.286299,80.8198560542566
1670926176.15838,7.285337,80.811990980195
1670926176.15938,7.264446,80.8041240436957
1670926176.16039,7.248675,80.796249657446
1670926176.1614,7.237809,80.7883845833844
1670926176.16241,7.249444,80.7805176468851
1670926176.16341,7.269542,80.7726507103859
1670926176.16442,7.300194,80.7647856363242
1670926176.16543,7.337553,80.756918699825
1670926176.16643,7.32034,80.7490517633257
1670926176.16744,7.27399,80.7411866892641
1670926176.16845,7.23704,80.7333197527649
1670926176.16946,7.182371,80.7254528162656
1670926176.17046,7.206195,80.717587742204
1670926176.17147,7.263027,80.7097208057047
1670926176.17248,7.260503,80.701846419455
1670926176.17348,7.238914,80.6939794829558
1670926176.17449,7.217302,80.6861144088941
1670926176.1755,7.193839,80.6782474723949
1670926176.17651,7.192516,80.6703805358956
1670926176.17751,7.191579,80.662515461834
1670926176.17852,7.233241,80.6546485253347
1670926176.17953,7.281947,80.6467815888355
1670926176.18053,7.284039,80.6389165147739
1670926176.18154,7.24918,80.6310495782746
1670926176.18255,7.217278,80.6231826417754
1670926176.18355,7.221702,80.6153175677137
1670926176.18456,7.20182,80.6074506312145
1670926176.18557,7.16826,80.5995762449648
1670926176.18658,7.178837,80.5917111709031
1670926176.18758,7.225091,80.5838442344039
1670926176.18859,7.233914,80.5759772979046
1670926176.1896,7.24442,80.5519780300429
1670926176.1906,7.257426,80.5259665399285
1670926176.19161,7.264133,80.518295
1670926176.19262,7.25644,80.5503030386266
1670926176.19363,7.245526,80.5453979238381
1670926176.19463,7.244324,80.5320401454273
1670926176.19564,7.24817,80.5586548062388
1670926176.19665,7.256272,80.5263450545891
1670926176.19765,7.22663,80.5250609618594
1670926176.19866,7.176794,80.5212312564197
1670926176.19967,7.158283,80.5259016183256
1670926176.20068,7.19456,80.5305730861661
1670926176.20168,7.271129,80.5352445540067
1670926176.20269,7.269157,80.5399149159126
1670926176.2037,7.255551,80.5445863837532
1670926176.2047,7.261873,80.5492578515937
1670926176.20571,7.235597,80.5539282134996
1670926176.20672,7.198406,80.5585996813402
1670926176.20772,7.20158,80.5632711491807
1670926176.20873,7.241751,80.5679415110867
1670926176.20974,7.212518,80.5726129789272
1670926176.21075,7.195257,80.5772888705062
1670926176.21175,7.234948,80.5819592324122
1670926176.21276,7.256945,80.5866307002527
1670926176.21377,7.223409,80.5913021680933
1670926176.21477,7.177563,80.5959725299992
1670926176.21578,7.120347,80.6006439978397
1670926176.21679,7.128977,80.6053154656803
1670926176.2178,7.137944,80.6099858275862
1670926176.2188,7.147416,80.6146572954268
1670926176.21981,7.216966,80.6193287632673
1670926176.22082,7.316517,80.6239991251732
1670926176.22182,7.376595,80.6286705930138
1670926176.22283,7.359093,80.6333464845928
1670926176.22384,7.317503,80.6380179524334
1670926176.22485,7.293871,80.6426883143393
1670926176.22585,7.25418,80.6473597821798
1670926176.22686,7.236318,80.6520312500204
1670926176.22787,7.217759,80.6567016119263
1670926176.22887,7.166937,80.6613730797669
1670926176.22988,7.160999,80.6660445476074
1670926176.23089,7.234395,80.6707149095133
1670926176.23189,7.313969,80.6753863773539
1670926176.2329,7.393976,80.6800578451944
1670926176.23391,7.433523,80.6847282071004
1670926176.23492,7.389288,80.6893996749409
1670926176.23592,7.324186,80.6940755665199
1670926176.23693,7.226702,80.6987459284259
1670926176.23794,7.162322,80.7034173962664
1670926176.23894,7.153162,80.708088864107
1670926176.23995,7.182876,80.7127592260129
