__time,/gdx/grip_force_stream/grip_force,/gdx/grip_force_stream/header/seq,/gdx/grip_force_stream/header/stamp,/shimmer0/emg_stream/emg_ch1,/shimmer0/emg_stream/emg_ch2,/shimmer0/emg_stream/header/seq,/shimmer0/emg_stream/header/stamp
1718094095.004979,,,,-1.568971992,-1.568752289,88750.000000000,1718094095.004979134
1718094095.005986,,,,-1.567433357,-1.568247437,88751.000000000,1718094095.005986214
1718094095.006993,,,,-1.568491220,-1.569858193,88752.000000000,1718094095.006993294
1718094095.008000,,,,-1.585535884,-1.588705897,88753.000000000,1718094095.008000374
1718094095.009007,,,,-1.602869153,-1.602865815,88754.000000000,1718094095.009007454
1718094095.010015,,,,-1.616860747,-1.616088152,88755.000000000,1718094095.010014534
1718094095.011022,,,,-1.627150059,-1.626593828,88756.000000000,1718094095.011021614
1718094095.012029,,,,-1.634073734,-1.632411599,88757.000000000,1718094095.012028694
1718094095.013036,,,,-1.641934991,-1.641523004,88758.000000000,1718094095.013035774
1718094095.013625,4.494404316,17912.000000000,1718094095.013624668,,,,
1718094095.014043,,,,-1.646021962,-1.647485137,88759.000000000,1718094095.014042854
1718094095.015050,,,,-1.641574383,-1.642076015,88760.000000000,1718094095.015049934
1718094095.016057,,,,-1.628328085,-1.629863381,88761.000000000,1718094095.016057014
1718094095.017064,,,,-1.614721179,-1.612482071,88762.000000000,1718094095.017064095
1718094095.018071,,,,-1.599455357,-1.598971248,88763.000000000,1718094095.018071175
1718094095.018625,4.635540962,17913.000000000,1718094095.018624544,,,,
1718094095.019078,,,,-1.578708410,-1.579883099,88764.000000000,1718094095.019078255
1718094095.020085,,,,-1.569404721,-1.569233060,88765.000000000,1718094095.020085335
1718094095.021092,,,,-1.556230545,-1.555025101,88766.000000000,1718094095.021092415
1718094095.022099,,,,-1.567144871,-1.564641356,88767.000000000,1718094095.022099495
1718094095.023107,,,,-1.581040382,-1.583945870,88768.000000000,1718094095.023106575
1718094095.023625,4.723750114,17914.000000000,1718094095.023624659,,,,
1718094095.024114,,,,-1.592700005,-1.593514085,88769.000000000,1718094095.024113655
1718094095.025121,,,,-1.603878856,-1.604188085,88770.000000000,1718094095.025120735
1718094095.026128,,,,-1.620827436,-1.620247126,88771.000000000,1718094095.026127815
1718094095.027135,,,,-1.631501436,-1.629647017,88772.000000000,1718094095.027134895
1718094095.028142,,,,-1.636189342,-1.636955380,88773.000000000,1718094095.028141975
1718094095.028625,4.794308186,17915.000000000,1718094095.028624535,,,,
1718094095.029149,,,,-1.647993207,-1.649384260,88774.000000000,1718094095.029149055
1718094095.030156,,,,-1.655349612,-1.657726407,88775.000000000,1718094095.030156136
1718094095.031163,,,,-1.657753706,-1.659361124,88776.000000000,1718094095.031163216
1718094095.032170,,,,-1.650132895,-1.650874853,88777.000000000,1718094095.032170296
1718094095.033177,,,,-1.641766787,-1.642196178,88778.000000000,1718094095.033177376
1718094095.033625,4.776669025,17916.000000000,1718094095.033624649,,,,
1718094095.034184,,,,-1.630323410,-1.633830070,88779.000000000,1718094095.034184456
1718094095.035192,,,,-1.614096045,-1.618996978,88780.000000000,1718094095.035191536
1718094095.036199,,,,-1.600344896,-1.601110816,88781.000000000,1718094095.036198616
1718094095.037206,,,,-1.586040735,-1.583537221,88782.000000000,1718094095.037205696
1718094095.038213,,,,-1.574381113,-1.573993087,88783.000000000,1718094095.038212776
1718094095.038625,4.847225189,17917.000000000,1718094095.038624525,,,,
1718094095.039220,,,,-1.561303020,-1.563367248,88784.000000000,1718094095.039219856
1718094095.040227,,,,-1.548032641,-1.548870802,88785.000000000,1718094095.040226936
1718094095.041234,,,,-1.548441410,-1.550769925,88786.000000000,1718094095.041234016
1718094095.042241,,,,-1.560629964,-1.561588168,88787.000000000,1718094095.042241096
1718094095.043248,,,,-1.569404721,-1.568006992,88788.000000000,1718094095.043248177
1718094095.043625,4.917787075,17918.000000000,1718094095.043624640,,,,
1718094095.044255,,,,-1.577554464,-1.577719450,88789.000000000,1718094095.044255257
1718094095.045262,,,,-1.593373179,-1.594643950,88790.000000000,1718094095.045262337
1718094095.046269,,,,-1.608206153,-1.609140396,88791.000000000,1718094095.046269417
1718094095.047276,,,,-1.625900030,-1.628613234,88792.000000000,1718094095.047276497
1718094095.048284,,,,-1.641141653,-1.642484665,88793.000000000,1718094095.048283577
1718094095.048625,4.935425282,17919.000000000,1718094095.048624516,,,,
1718094095.049291,,,,-1.650709867,-1.652413368,88794.000000000,1718094095.049290657
1718094095.050298,,,,-1.655349612,-1.654793382,88795.000000000,1718094095.050297737
1718094095.051305,,,,-1.651214719,-1.651067138,88796.000000000,1718094095.051304817
1718094095.052312,,,,-1.643497705,-1.643734813,88797.000000000,1718094095.052311897
1718094095.053319,,,,-1.634674788,-1.637123585,88798.000000000,1718094095.053318977
1718094095.053625,4.882510662,17920.000000000,1718094095.053624630,,,,
1718094095.054326,,,,-1.623351693,-1.626088977,88799.000000000,1718094095.054326057
1718094095.055333,,,,-1.604047179,-1.604212046,88800.000000000,1718094095.055333138
1718094095.056340,,,,-1.587194681,-1.588633776,88801.000000000,1718094095.056340218
1718094095.057347,,,,-1.571207762,-1.572718978,88802.000000000,1718094095.057347298
1718094095.058354,,,,-1.555100560,-1.555241466,88803.000000000,1718094095.058354378
1718094095.059361,,,,-1.549066424,-1.549135208,88804.000000000,1718094095.059361458
1718094095.060369,,,,-1.540964723,-1.540672898,88805.000000000,1718094095.060368538
1718094095.061376,,,,-1.542214870,-1.543125033,88806.000000000,1718094095.061375618
1718094095.062383,,,,-1.552504182,-1.552524924,88807.000000000,1718094095.062382698
1718094095.063390,,,,-1.555917978,-1.557140708,88808.000000000,1718094095.063389778
1718094095.064397,,,,-1.572145343,-1.574209452,88809.000000000,1718094095.064396858
1718094095.065404,,,,-1.599166870,-1.601086855,88810.000000000,1718094095.065403938
1718094095.066411,,,,-1.618423343,-1.619886518,88811.000000000,1718094095.066411018
1718094095.067418,,,,-1.628953099,-1.631762505,88812.000000000,1718094095.067418098
1718094095.068425,,,,-1.638929963,-1.640994191,88813.000000000,1718094095.068425179
1718094095.069432,,,,-1.651743531,-1.653134584,88814.000000000,1718094095.069432259
1718094095.070439,,,,-1.660518408,-1.659289002,88815.000000000,1718094095.070439339
1718094095.071446,,,,-1.654748678,-1.653182745,88816.000000000,1718094095.071446419
1718094095.072453,,,,-1.645252585,-1.644431949,88817.000000000,1718094095.072453499
1718094095.073461,,,,-1.638401031,-1.639311314,88818.000000000,1718094095.073460579
1718094095.074468,,,,-1.628760815,-1.628541112,88819.000000000,1718094095.074467659
1718094095.075475,,,,-1.605754018,-1.605365992,88820.000000000,1718094095.075474739
1718094095.076482,,,,-1.590079546,-1.593586206,88821.000000000,1718094095.076481819
1718094095.077489,,,,-1.582050085,-1.584859490,88822.000000000,1718094095.077488899
1718094095.078496,,,,-1.569813371,-1.572622776,88823.000000000,1718094095.078495979
1718094095.079503,,,,-1.562288761,-1.563391209,88824.000000000,1718094095.079503059
1718094095.080510,,,,-1.555437207,-1.555626154,88825.000000000,1718094095.080510139
1718094095.081517,,,,-1.545868993,-1.545481086,88826.000000000,1718094095.081517220
1718094095.082524,,,,-1.543440938,-1.543052912,88827.000000000,1718094095.082524300
1718094095.083531,,,,-1.553610086,-1.553318262,88828.000000000,1718094095.083531380
1718094095.084538,,,,-1.574236870,-1.574738383,88829.000000000,1718094095.084538460
1718094095.085546,,,,-1.595656991,-1.595918059,88830.000000000,1718094095.085545540
1718094095.086553,,,,-1.615057707,-1.613972545,88831.000000000,1718094095.086552620
1718094095.087560,,,,-1.633448720,-1.631137490,88832.000000000,1718094095.087559700
1718094095.088567,,,,-1.643545747,-1.641402841,88833.000000000,1718094095.088566780
1718094095.089574,,,,-1.651431084,-1.650057435,88834.000000000,1718094095.089573860
1718094095.090581,,,,-1.656407475,-1.657149434,88835.000000000,1718094095.090580940
1718094095.091588,,,,-1.657417178,-1.657317638,88836.000000000,1718094095.091588020
1718094095.092595,,,,-1.650445342,-1.653350949,88837.000000000,1718094095.092595100
1718094095.093602,,,,-1.634194016,-1.638686299,88838.000000000,1718094095.093602180
1718094095.094609,,,,-1.623928666,-1.626521707,88839.000000000,1718094095.094609261
1718094095.095616,,,,-1.607917666,-1.608707666,88840.000000000,1718094095.095616341
1718094095.096623,,,,-1.590247869,-1.592384100,88841.000000000,1718094095.096623421
1718094095.097631,,,,-1.578900695,-1.581614017,88842.000000000,1718094095.097630501
1718094095.098638,,,,-1.567890167,-1.568656087,88843.000000000,1718094095.098637581
1718094095.099645,,,,-1.559355736,-1.560073614,88844.000000000,1718094095.099644661
1718094095.100652,,,,-1.553754330,-1.555457830,88845.000000000,1718094095.100651741
1718094095.101659,,,,-1.550028086,-1.550649762,88846.000000000,1718094095.101658821
1718094095.102537,5.076533318,17931.000000000,1718094095.102536917,,,,
1718094095.102666,,,,-1.553874493,-1.552645087,88847.000000000,1718094095.102665901
1718094095.103673,,,,-1.569236398,-1.569136977,88848.000000000,1718094095.103672981
1718094095.104680,,,,-1.579814315,-1.578608871,88849.000000000,1718094095.104680061
1718094095.105687,,,,-1.592748046,-1.591759086,88850.000000000,1718094095.105687141
1718094095.106694,,,,-1.607917666,-1.610270262,88851.000000000,1718094095.106694221
1718094095.107537,5.129451752,17932.000000000,1718094095.107537031,,,,
1718094095.107701,,,,-1.622414112,-1.624045491,88852.000000000,1718094095.107701302
1718094095.108708,,,,-1.636646152,-1.634286761,88853.000000000,1718094095.108708382
1718094095.109715,,,,-1.648257732,-1.648590922,88854.000000000,1718094095.109715462
1718094095.110723,,,,-1.657272935,-1.657005191,88855.000000000,1718094095.110722542
1718094095.111730,,,,-1.654484153,-1.654625177,88856.000000000,1718094095.111729622
1718094095.112537,5.147088051,17933.000000000,1718094095.112536907,,,,
1718094095.112737,,,,-1.645108342,-1.644311786,88857.000000000,1718094095.112736702
1718094095.113744,,,,-1.639579058,-1.639311314,88858.000000000,1718094095.113743782
1718094095.114751,,,,-1.629385829,-1.630776882,88859.000000000,1718094095.114750862
1718094095.115758,,,,-1.612461329,-1.611784816,88860.000000000,1718094095.115757942
1718094095.116765,,,,-1.605898261,-1.603178382,88861.000000000,1718094095.116765022
1718094095.117537,5.129451752,17934.000000000,1718094095.117537022,,,,
1718094095.117772,,,,-1.587050438,-1.585628748,88862.000000000,1718094095.117772102
1718094095.118779,,,,-1.565918803,-1.564256668,88863.000000000,1718094095.118779182
1718094095.119786,,,,-1.562120438,-1.563944221,88864.000000000,1718094095.119786263
1718094095.120793,,,,-1.558514357,-1.560698748,88865.000000000,1718094095.120793343
1718094095.121800,,,,-1.555581450,-1.555770397,88866.000000000,1718094095.121800423
1718094095.122537,5.147088051,17935.000000000,1718094095.122536898,,,,
1718094095.122808,,,,-1.554307222,-1.555001140,88867.000000000,1718094095.122807503
1718094095.123815,,,,-1.561086655,-1.564689398,88868.000000000,1718094095.123814583
1718094095.124822,,,,-1.580511451,-1.583705544,88869.000000000,1718094095.124821663
1718094095.125829,,,,-1.597700477,-1.599115491,88870.000000000,1718094095.125828743
1718094095.126836,,,,-1.614576936,-1.614357233,88871.000000000,1718094095.126835823
1718094095.127537,5.182360649,17936.000000000,1718094095.127537012,,,,
1718094095.127843,,,,-1.630684018,-1.630608559,88872.000000000,1718094095.127842903
1718094095.128850,,,,-1.633568883,-1.637291908,88873.000000000,1718094095.128849983
1718094095.129857,,,,-1.640925288,-1.642412543,88874.000000000,1718094095.129857063
1718094095.130864,,,,-1.654844761,-1.654288530,88875.000000000,1718094095.130864143
1718094095.131871,,,,-1.656912327,-1.656428218,88876.000000000,1718094095.131871223
1718094095.132537,5.129451752,17937.000000000,1718094095.132536888,,,,
1718094095.132878,,,,-1.651358962,-1.652389407,88877.000000000,1718094095.132878304
1718094095.133885,,,,-1.642536044,-1.640825868,88878.000000000,1718094095.133885384
1718094095.134892,,,,-1.631357193,-1.632868409,88879.000000000,1718094095.134892464
1718094095.135900,,,,-1.612317085,-1.615198612,88880.000000000,1718094095.135899544
1718094095.136907,,,,-1.585776329,-1.585580707,88881.000000000,1718094095.136906624
1718094095.137537,5.164724350,17938.000000000,1718094095.137537003,,,,
1718094095.137914,,,,-1.571183681,-1.568848491,88882.000000000,1718094095.137913704
1718094095.138921,,,,-1.558658600,-1.558486938,88883.000000000,1718094095.138920784
1718094095.139928,,,,-1.546470046,-1.549904466,88884.000000000,1718094095.139927864
1718094095.140935,,,,-1.541157126,-1.544062614,88885.000000000,1718094095.140934944
1718094095.141942,,,,-1.542455316,-1.544278979,88886.000000000,1718094095.141942024
1718094095.142537,5.252903461,17939.000000000,1718094095.142536879,,,,
1718094095.142949,,,,-1.545556545,-1.548221707,88887.000000000,1718094095.142949104
1718094095.143956,,,,-1.550484776,-1.553967357,88888.000000000,1718094095.143956184
1718094095.144963,,,,-1.568250775,-1.570122600,88889.000000000,1718094095.144963264
1718094095.145970,,,,-1.590969086,-1.593081355,88890.000000000,1718094095.145970345
1718094095.146025,5.376356602,17941.000000000,1718094095.146024942,,,,
1718094095.146977,,,,-1.609528422,-1.610654950,88891.000000000,1718094095.146977425
1718094095.147537,5.323452473,17940.000000000,1718094095.147536993,,,,
1718094095.147985,,,,-1.621740937,-1.622963667,88892.000000000,1718094095.147984505
1718094095.148992,,,,-1.646887422,-1.648086071,88893.000000000,1718094095.148991585
1718094095.149999,,,,-1.661287665,-1.664097071,88894.000000000,1718094095.149998665
1718094095.151006,,,,-1.669749975,-1.669193745,88895.000000000,1718094095.151005745
1718094095.151025,5.552710056,17942.000000000,1718094095.151025057,,,,
1718094095.152013,,,,-1.666985273,-1.667198300,88896.000000000,1718094095.152012825
1718094095.153020,,,,-1.655037165,-1.655298233,88897.000000000,1718094095.153019905
1718094095.154027,,,,-1.641694665,-1.642725110,88898.000000000,1718094095.154026985
1718094095.155034,,,,-1.620466828,-1.623083949,88899.000000000,1718094095.155034065
1718094095.156041,,,,-1.598758221,-1.598899126,88900.000000000,1718094095.156041145
1718094095.157048,,,,-1.585439801,-1.582960248,88901.000000000,1718094095.157048225
1718094095.158055,,,,-1.569885492,-1.570266843,88902.000000000,1718094095.158055305
1718094095.159062,,,,-1.559812546,-1.560866952,88903.000000000,1718094095.159062386
1718094095.160069,,,,-1.560942411,-1.565001965,88904.000000000,1718094095.160069466
1718094095.161077,,,,-1.562577248,-1.565194249,88905.000000000,1718094095.161076546
1718094095.162084,,,,-1.535844088,-1.536225438,88906.000000000,1718094095.162083626
1718094095.163091,,,,-1.479444981,-1.477398276,88907.000000000,1718094095.163090706
1718094095.164098,,,,-1.437157750,-1.432730913,88908.000000000,1718094095.164097786
1718094095.165105,,,,-1.423574805,-1.421576142,88909.000000000,1718094095.165104866
1718094095.166112,,,,-1.408092737,-1.407512426,88910.000000000,1718094095.166111946
1718094095.167119,,,,-1.333855510,-1.334525347,88911.000000000,1718094095.167119026
1718094095.168126,,,,-1.231659174,-1.233627081,88912.000000000,1718094095.168126106
1718094095.169133,,,,-1.212931514,-1.213360906,88913.000000000,1718094095.169133186
1718094095.170140,,,,-1.248511553,-1.248291850,88914.000000000,1718094095.170140266
1718094095.171147,,,,-1.295438647,-1.293391943,88915.000000000,1718094095.171147346
1718094095.172154,,,,-1.289091945,-1.286420107,88916.000000000,1718094095.172154427
1718094095.173162,,,,-1.246780634,-1.246344566,88917.000000000,1718094095.173161507
1718094095.174169,,,,-1.235529661,-1.233074188,88918.000000000,1718094095.174168587
1718094095.175176,,,,-1.295655012,-1.294209242,88919.000000000,1718094095.175175667
1718094095.176183,,,,-1.394798279,-1.395804644,88920.000000000,1718094095.176182747
1718094095.177190,,,,-1.398043752,-1.400540590,88921.000000000,1718094095.177189827
1718094095.178197,,,,-1.357439280,-1.361258388,88922.000000000,1718094095.178196907
1718094095.179204,,,,-1.383475184,-1.382750630,88923.000000000,1718094095.179203987
1718094095.180211,,,,-1.398789048,-1.399506927,88924.000000000,1718094095.180211067
1718094095.181218,,,,-1.385735035,-1.387558699,88925.000000000,1718094095.181218147
1718094095.182225,,,,-1.342149496,-1.344045401,88926.000000000,1718094095.182225227
1718094095.183232,,,,-1.308997512,-1.309186578,88927.000000000,1718094095.183232307
1718094095.184239,,,,-1.274763823,-1.274904728,88928.000000000,1718094095.184239388
1718094095.185246,,,,-1.246732593,-1.245046377,88929.000000000,1718094095.185246468
1718094095.186254,,,,-1.255242944,-1.255239606,88930.000000000,1718094095.186253548
1718094095.187261,,,,-1.259449959,-1.262812376,88931.000000000,1718094095.187260628
1718094095.188268,,,,-1.285846472,-1.287910700,88932.000000000,1718094095.188267708
1718094095.189275,,,,-1.350130916,-1.349526644,88933.000000000,1718094095.189274788
1718094095.190282,,,,-1.436027765,-1.434894562,88934.000000000,1718094095.190281868
1718094095.191289,,,,-1.612677693,-1.611135721,88935.000000000,1718094095.191288948
1718094095.192296,,,,-1.702613354,-1.702489853,88936.000000000,1718094095.192296028
1718094095.193303,,,,-1.745117068,-1.745810866,88937.000000000,1718094095.193303108
1718094095.194310,,,,-1.743506312,-1.742661595,88938.000000000,1718094095.194310188
1718094095.195317,,,,-1.634578586,-1.632315516,88939.000000000,1718094095.195317268
1718094095.196025,24.425848007,17951.000000000,1718094095.196024895,,,,
1718094095.196324,,,,-1.318301201,-1.318490267,88940.000000000,1718094095.196324348
1718094095.197331,,,,-1.105758786,-1.105154514,88941.000000000,1718094095.197331429
1718094095.198339,,,,-0.865233183,-0.866095304,88942.000000000,1718094095.198338509
1718094095.199346,,,,-0.414448977,-0.414758146,88943.000000000,1718094095.199345589
1718094095.200353,,,,-0.341509968,-0.341771066,88944.000000000,1718094095.200352669
1718094095.201025,31.962989807,17952.000000000,1718094095.201025009,,,,
1718094095.201360,,,,-0.553499460,-0.554722190,88945.000000000,1718094095.201359749
1718094095.202367,,,,-0.674952269,-0.676078856,88946.000000000,1718094095.202366829
1718094095.203374,,,,-0.641584039,-0.642758667,88947.000000000,1718094095.203373909
1718094095.204381,,,,-0.850520372,-0.850444913,88948.000000000,1718094095.204380989
1718094095.205388,,,,-1.268272877,-1.269808173,88949.000000000,1718094095.205388069
1718094095.206025,41.346256256,17953.000000000,1718094095.206024885,,,,
1718094095.206395,,,,-1.570943356,-1.574041247,88950.000000000,1718094095.206395149
1718094095.207402,,,,-1.727086663,-1.729271054,88951.000000000,1718094095.207402229
1718094095.208409,,,,-1.779711366,-1.780068636,88952.000000000,1718094095.208409309
1718094095.209416,,,,-1.865968823,-1.863152742,88953.000000000,1718094095.209416389
1718094095.210423,,,,-1.973478198,-1.973354697,88954.000000000,1718094095.210423470
1718094095.211025,52.050224304,17954.000000000,1718094095.211025000,,,,
1718094095.211431,,,,-2.155993938,-2.157216787,88955.000000000,1718094095.211430550
1718094095.212438,,,,-2.336466312,-2.336967945,88956.000000000,1718094095.212437630
1718094095.213445,,,,-2.350049257,-2.350671053,88957.000000000,1718094095.213444710
1718094095.214452,,,,-2.250112772,-2.246383190,88958.000000000,1718094095.214451790
1718094095.215459,,,,-1.977685213,-1.974725008,88959.000000000,1718094095.215458870
1718094095.216025,63.865318298,17955.000000000,1718094095.216024876,,,,
1718094095.216466,,,,-1.856376648,-1.855459809,88960.000000000,1718094095.216465950
1718094095.217473,,,,-1.817190647,-1.818749905,88961.000000000,1718094095.217473030
1718094095.218480,,,,-1.706988811,-1.710303068,88962.000000000,1718094095.218480110
1718094095.219487,,,,-1.532045722,-1.532378912,88963.000000000,1718094095.219487190
1718094095.220494,,,,-1.212090135,-1.211629987,88964.000000000,1718094095.220494270
1718094095.221025,76.482437134,17956.000000000,1718094095.221024990,,,,
1718094095.221501,,,,-0.854126453,-0.854387581,88965.000000000,1718094095.221501350
1718094095.222508,,,,-0.513544083,-0.515872657,88966.000000000,1718094095.222508430
1718094095.223516,,,,-0.522439063,-0.522267461,88967.000000000,1718094095.223515511
1718094095.224523,,,,-0.651296377,-0.650139093,88968.000000000,1718094095.224522591
1718094095.225530,,,,-0.831336021,-0.833015501,88969.000000000,1718094095.225529671
1718094095.226025,89.395698547,17957.000000000,1718094095.226024866,,,,
1718094095.226537,,,,-1.139655948,-1.140662313,88970.000000000,1718094095.226536751
1718094095.227544,,,,-1.336620092,-1.337025523,88971.000000000,1718094095.227543831
1718094095.228551,,,,-1.523126721,-1.522089601,88972.000000000,1718094095.228550911
1718094095.229558,,,,-1.628760815,-1.628252625,88973.000000000,1718094095.229557991
1718094095.230565,,,,-1.726389527,-1.726265907,88974.000000000,1718094095.230565071
1718094095.231025,102.515830994,17958.000000000,1718094095.231024981,,,,
1718094095.231572,,,,-1.750165582,-1.752494216,88975.000000000,1718094095.231572151
1718094095.232579,,,,-1.934508443,-1.936091781,88976.000000000,1718094095.232579231
1718094095.233586,,,,-2.102407694,-2.101851225,88977.000000000,1718094095.233586311
1718094095.234593,,,,-2.047066212,-2.046990871,88978.000000000,1718094095.234593391
1718094095.235600,,,,-1.958933592,-1.958858132,88979.000000000,1718094095.235600471
1718094095.236025,115.572288513,17959.000000000,1718094095.236024857,,,,
1718094095.236608,,,,-2.000499725,-2.002034903,88980.000000000,1718094095.236607552
1718094095.237615,,,,-2.093464613,-2.095648766,88981.000000000,1718094095.237614632
1718094095.238622,,,,-2.062836885,-2.061342955,88982.000000000,1718094095.238621712
1718094095.239629,,,,-2.030983210,-2.027421713,88983.000000000,1718094095.239628792
1718094095.240636,,,,-2.058629751,-2.058794737,88984.000000000,1718094095.240635872
1718094095.241025,128.451309204,17960.000000000,1718094095.241024971,,,,
1718094095.241643,,,,-2.002903700,-2.003020763,88985.000000000,1718094095.241642952
1718094095.242650,,,,-1.867627621,-1.867047310,88986.000000000,1718094095.242650032
1718094095.243657,,,,-1.672394395,-1.671477556,88987.000000000,1718094095.243657112
1718094095.244664,,,,-1.571712613,-1.570098519,88988.000000000,1718094095.244664192
1718094095.245671,,,,-1.592483640,-1.593946815,88989.000000000,1718094095.245671272
1718094095.246678,,,,-1.689222813,-1.690878272,88990.000000000,1718094095.246678352
1718094095.247685,,,,-1.764758229,-1.766004920,88991.000000000,1718094095.247685432
1718094095.248693,,,,-1.780240297,-1.779876351,88992.000000000,1718094095.248692513
1718094095.249700,,,,-1.758435488,-1.761317015,88993.000000000,1718094095.249699593
1718094095.250707,,,,-1.783702135,-1.786030769,88994.000000000,1718094095.250706673
1718094095.251714,,,,-1.757113338,-1.757398486,88995.000000000,1718094095.251713753
1718094095.252721,,,,-1.732327461,-1.732396245,88996.000000000,1718094095.252720833
1718094095.253728,,,,-1.708479285,-1.706937313,88997.000000000,1718094095.253727913
1718094095.254735,,,,-1.625274897,-1.623877287,88998.000000000,1718094095.254734993
1718094095.255742,,,,-1.458145142,-1.459439993,88999.000000000,1718094095.255742073
1718094095.256749,,,,-1.205815554,-1.208480716,89000.000000000,1718094095.256749153
1718094095.257756,,,,-1.119582176,-1.118136406,89001.000000000,1718094095.257756233
1718094095.258763,,,,-1.118500352,-1.118304610,89002.000000000,1718094095.258763313
1718094095.259770,,,,-0.937643290,-0.936654329,89003.000000000,1718094095.259770393
1718094095.260777,,,,-0.721374571,-0.719976902,89004.000000000,1718094095.260777473
1718094095.261785,,,,-0.781860590,-0.781256258,89005.000000000,1718094095.261784554
1718094095.262792,,,,-0.930647492,-0.932254910,89006.000000000,1718094095.262791634
1718094095.263799,,,,-1.196055055,-1.197494149,89007.000000000,1718094095.263798714
1718094095.264806,,,,-1.515794277,-1.517786384,89008.000000000,1718094095.264805794
1718094095.265813,,,,-1.752401352,-1.753551960,89009.000000000,1718094095.265812874
1718094095.266820,,,,-1.878037214,-1.878947377,89010.000000000,1718094095.266819954
1718094095.267827,,,,-1.828681946,-1.830625892,89011.000000000,1718094095.267827034
1718094095.268834,,,,-1.766392946,-1.769683123,89012.000000000,1718094095.268834114
1718094095.269841,,,,-1.835124850,-1.836035013,89013.000000000,1718094095.269841194
1718094095.270848,,,,-1.889552593,-1.889260769,89014.000000000,1718094095.270848274
1718094095.271855,,,,-1.848250985,-1.850627661,89015.000000000,1718094095.271855354
1718094095.272862,,,,-1.762931108,-1.764346123,89016.000000000,1718094095.272862434
1718094095.273870,,,,-1.716364622,-1.715183258,89017.000000000,1718094095.273869514
1718094095.274877,,,,-1.582074046,-1.582407355,89018.000000000,1718094095.274876595
1718094095.275884,,,,-1.322003484,-1.321687698,89019.000000000,1718094095.275883675
1718094095.276891,,,,-1.094531894,-1.091283083,89020.000000000,1718094095.276890755
1718094095.277898,,,,-1.062702179,-1.059573650,89021.000000000,1718094095.277897835
1718094095.278905,,,,-1.137203813,-1.133979082,89022.000000000,1718094095.278904915
1718094095.279912,,,,-1.285702229,-1.287117362,89023.000000000,1718094095.279911995
1718094095.280919,,,,-1.341187835,-1.342771173,89024.000000000,1718094095.280919075
1718094095.281926,,,,-1.311954498,-1.315533280,89025.000000000,1718094095.281926155
1718094095.282933,,,,-1.470646143,-1.470931292,89026.000000000,1718094095.282933235
1718094095.283940,,,,-1.621548653,-1.621737599,89027.000000000,1718094095.283940315
1718094095.284947,,,,-1.586834073,-1.591350436,89028.000000000,1718094095.284947395
1718094095.285954,,,,-1.618952274,-1.621569395,89029.000000000,1718094095.285954475
1718094095.286962,,,,-1.753290892,-1.754297256,89030.000000000,1718094095.286961555
1718094095.287969,,,,-1.785457134,-1.784948945,89031.000000000,1718094095.287968636
1718094095.288976,,,,-1.847890377,-1.848055363,89032.000000000,1718094095.288975716
1718094095.289983,,,,-1.900851727,-1.902747512,89033.000000000,1718094095.289982796
1718094095.290990,,,,-1.989248753,-1.988764644,89034.000000000,1718094095.290989876
1718094095.291997,,,,-1.915083647,-1.915777564,89035.000000000,1718094095.291996956
1718094095.293004,,,,-1.748578906,-1.749200583,89036.000000000,1718094095.293004036
1718094095.294011,,,,-1.756392121,-1.756749392,89037.000000000,1718094095.294011116
1718094095.295018,,,,-1.785288811,-1.786463499,89038.000000000,1718094095.295018196
1718094095.296025,,,,-1.562721491,-1.563439369,89039.000000000,1718094095.296025276
1718094095.297032,,,,-1.373834968,-1.375153780,89040.000000000,1718094095.297032356
1718094095.298039,,,,-1.441989899,-1.444727182,89041.000000000,1718094095.298039436
1718094095.299047,,,,-1.558514357,-1.562357545,89042.000000000,1718094095.299046516
1718094095.300054,,,,-1.734899879,-1.736675501,89043.000000000,1718094095.300053596
1718094095.300860,231.708358765,17971.000000000,1718094095.300860167,,,,
1718094095.301061,,,,-1.872315526,-1.872576714,89044.000000000,1718094095.301060677
1718094095.302068,,,,-1.820315838,-1.819615364,89045.000000000,1718094095.302067757
1718094095.303075,,,,-1.631717801,-1.630247951,89046.000000000,1718094095.303074837
1718094095.304082,,,,-1.538055897,-1.536658168,89047.000000000,1718094095.304081917
1718094095.305089,,,,-1.557360411,-1.559352398,89048.000000000,1718094095.305088997
1718094095.305860,238.168411255,17972.000000000,1718094095.305860281,,,,
1718094095.306096,,,,-1.502980709,-1.499683857,89049.000000000,1718094095.306096077
1718094095.307103,,,,-1.336620092,-1.333707929,89050.000000000,1718094095.307103157
1718094095.308110,,,,-1.103811502,-1.102654219,89051.000000000,1718094095.308110237
1718094095.309117,,,,-0.952139735,-0.955117464,89052.000000000,1718094095.309117317
1718094095.310124,,,,-0.947812438,-0.950357437,89053.000000000,1718094095.310124397
1718094095.310860,244.333618164,17973.000000000,1718094095.310860157,,,,
1718094095.311131,,,,-1.158335447,-1.160039067,89054.000000000,1718094095.311131477
1718094095.312139,,,,-1.175572515,-1.176795244,89055.000000000,1718094095.312138557
1718094095.313146,,,,-1.230168581,-1.230790377,89056.000000000,1718094095.313145638
1718094095.314153,,,,-1.424175858,-1.426432252,89057.000000000,1718094095.314152718
1718094095.315160,,,,-1.515313506,-1.515238047,89058.000000000,1718094095.315159798
1718094095.315860,250.221649170,17974.000000000,1718094095.315860271,,,,
1718094095.316167,,,,-1.548753858,-1.548966885,89059.000000000,1718094095.316166878
1718094095.317174,,,,-1.650926232,-1.652798057,89060.000000000,1718094095.317173958
1718094095.318181,,,,-1.728553176,-1.732420325,89061.000000000,1718094095.318181038
1718094095.319188,,,,-1.787933230,-1.790646553,89062.000000000,1718094095.319188118
1718094095.320195,,,,-1.989729524,-1.990976334,89063.000000000,1718094095.320195198
1718094095.320860,255.898147583,17975.000000000,1718094095.320860147,,,,
1718094095.321202,,,,-2.114572048,-2.113198519,89064.000000000,1718094095.321202278
1718094095.322209,,,,-2.070265293,-2.070045710,89065.000000000,1718094095.322209358
1718094095.323216,,,,-1.973478198,-1.974436522,89066.000000000,1718094095.323216438
1718094095.324224,,,,-1.951360822,-1.949001551,89067.000000000,1718094095.324223518
1718094095.325231,,,,-1.885706186,-1.882601619,89068.000000000,1718094095.325230598
1718094095.325860,261.284027100,17976.000000000,1718094095.325860262,,,,
1718094095.326238,,,,-1.826398134,-1.824014783,89069.000000000,1718094095.326237679
1718094095.327245,,,,-1.736847162,-1.736771703,89070.000000000,1718094095.327244759
1718094095.328252,,,,-1.391745090,-1.390611887,89071.000000000,1718094095.328251839
1718094095.329259,,,,-1.014669180,-1.014810085,89072.000000000,1718094095.329258919
1718094095.330266,,,,-0.919877350,-0.922686756,89073.000000000,1718094095.330265999
1718094095.330860,266.396270752,17977.000000000,1718094095.330860138,,,,
1718094095.331273,,,,-1.031786084,-1.035773516,89074.000000000,1718094095.331273079
1718094095.332280,,,,-1.182400107,-1.183743000,89075.000000000,1718094095.332280159
1718094095.333287,,,,-1.396120548,-1.397751927,89076.000000000,1718094095.333287239
1718094095.334294,,,,-1.764037013,-1.765067339,89077.000000000,1718094095.334294319
1718094095.335301,,,,-1.987758279,-1.989461780,89078.000000000,1718094095.335301399
1718094095.335860,271.267730713,17978.000000000,1718094095.335860252,,,,
1718094095.336308,,,,-2.032762051,-2.036220551,89079.000000000,1718094095.336308479
1718094095.337316,,,,-2.064375401,-2.065021276,89080.000000000,1718094095.337315559
1718094095.338323,,,,-1.911838174,-1.911113620,89081.000000000,1718094095.338322639
1718094095.339330,,,,-1.618086815,-1.617963314,89082.000000000,1718094095.339329720
1718094095.340337,,,,-1.469299912,-1.469777346,89083.000000000,1718094095.340336800
1718094095.340860,275.818878174,17979.000000000,1718094095.340860128,,,,
1718094095.341344,,,,-1.484517574,-1.482759237,89084.000000000,1718094095.341343880
1718094095.342351,,,,-1.485984087,-1.484201670,89085.000000000,1718094095.342350960
1718094095.343358,,,,-1.402058482,-1.401742697,89086.000000000,1718094095.343358040
1718094095.344365,,,,-1.359747171,-1.359070659,89087.000000000,1718094095.344365120
1718094095.345372,,,,-1.387538075,-1.388568401,89088.000000000,1718094095.345372200
1718094095.345860,280.178253174,17980.000000000,1718094095.345860243,,,,
1718094095.346379,,,,-1.479709506,-1.479802251,89089.000000000,1718094095.346379280
1718094095.347386,,,,-1.613663316,-1.615679383,89090.000000000,1718094095.347386360
1718094095.348393,,,,-1.664364815,-1.665659785,89091.000000000,1718094095.348393440
1718094095.349401,,,,-1.460933805,-1.461050630,89092.000000000,1718094095.349400520
1718094095.350408,,,,-1.411506414,-1.414291859,89093.000000000,1718094095.350407600
1718094095.351415,,,,-1.570294261,-1.569593668,89094.000000000,1718094095.351414680
1718094095.352422,,,,-1.723648906,-1.721602082,89095.000000000,1718094095.352421761
1718094095.353429,,,,-1.774542689,-1.775549054,89096.000000000,1718094095.353428841
1718094095.354436,,,,-1.893230796,-1.894141078,89097.000000000,1718094095.354435921
1718094095.355443,,,,-1.935301781,-1.935827374,89098.000000000,1718094095.355443001
1718094095.356450,,,,-1.849741459,-1.851709485,89099.000000000,1718094095.356450081
1718094095.357457,,,,-1.811300635,-1.810816526,89100.000000000,1718094095.357457161
1718094095.358464,,,,-1.790553689,-1.790141702,89101.000000000,1718094095.358464241
1718094095.359471,,,,-1.592700005,-1.590340734,89102.000000000,1718094095.359471321
1718094095.360478,,,,-1.349529982,-1.348853469,89103.000000000,1718094095.360478401
1718094095.361485,,,,-1.425137401,-1.422898293,89104.000000000,1718094095.361485481
1718094095.362493,,,,-1.527622223,-1.526176453,89105.000000000,1718094095.362492561
1718094095.363500,,,,-1.570150018,-1.573199749,89106.000000000,1718094095.363499641
1718094095.364507,,,,-1.592483640,-1.594547749,89107.000000000,1718094095.364506721
1718094095.365514,,,,-1.463361859,-1.463021994,89108.000000000,1718094095.365513802
1718094095.366521,,,,-1.563707113,-1.563198924,89109.000000000,1718094095.366520882
1718094095.367528,,,,-1.842312932,-1.844545364,89110.000000000,1718094095.367527962
1718094095.368535,,,,-2.127938747,-2.127767086,89111.000000000,1718094095.368535042
1718094095.369542,,,,-2.133852720,-2.133512735,89112.000000000,1718094095.369542122
1718094095.370549,,,,-1.904289484,-1.901713848,89113.000000000,1718094095.370549202
1718094095.371556,,,,-1.273946404,-1.275409579,89114.000000000,1718094095.371556282
1718094095.372563,,,,-1.222619891,-1.224972486,89115.000000000,1718094095.372563362
1718094095.373570,,,,-1.522261262,-1.525262952,89116.000000000,1718094095.373570442
1718094095.374578,,,,-1.712974906,-1.714149475,89117.000000000,1718094095.374577522
1718094095.375585,,,,-1.533391953,-1.533484817,89118.000000000,1718094095.375584602
1718094095.376592,,,,-1.245025635,-1.244156837,89119.000000000,1718094095.376591682
1718094095.377599,,,,-1.118620515,-1.119073987,89120.000000000,1718094095.377598763
1718094095.378606,,,,-1.226442337,-1.224804282,89121.000000000,1718094095.378605843
1718094095.379613,,,,-1.485599399,-1.485283494,89122.000000000,1718094095.379612923
1718094095.380620,,,,-1.606643558,-1.605534315,89123.000000000,1718094095.380620003
1718094095.381627,,,,-1.497835994,-1.493024588,89124.000000000,1718094095.381627083
1718094095.382634,,,,-1.306882024,-1.303705335,89125.000000000,1718094095.382634163
1718094095.383641,,,,-1.301280499,-1.299594402,89126.000000000,1718094095.383641243
1718094095.384648,,,,-1.416002035,-1.415734291,89127.000000000,1718094095.384648323
1718094095.385655,,,,-1.517597318,-1.517978668,89128.000000000,1718094095.385655403
1718094095.386662,,,,-1.443191886,-1.444414616,89129.000000000,1718094095.386662483
1718094095.387670,,,,-1.365949631,-1.366210699,89130.000000000,1718094095.387669563
1718094095.388677,,,,-1.506706953,-1.508723021,89131.000000000,1718094095.388676643
1718094095.389684,,,,-1.664557219,-1.666813731,89132.000000000,1718094095.389683723
1718094095.390691,,,,-1.737784743,-1.738310218,89133.000000000,1718094095.390690804
1718094095.391698,,,,-1.688862205,-1.688834786,89134.000000000,1718094095.391697884
1718094095.392705,,,,-1.703647137,-1.704316974,89135.000000000,1718094095.392704964
1718094095.393712,,,,-1.807478189,-1.808604836,89136.000000000,1718094095.393712044
1718094095.394719,,,,-1.814137459,-1.812715769,89137.000000000,1718094095.394719124
1718094095.395726,,,,-2.040118456,-2.041076899,89138.000000000,1718094095.395726204
1718094095.396733,,,,-2.036151886,-2.035234928,89139.000000000,1718094095.396733284
1718094095.397740,,,,-1.801996946,-1.801416636,89140.000000000,1718094095.397740364
1718094095.398747,,,,-1.461246371,-1.461843967,89141.000000000,1718094095.398747444
1718094095.399755,,,,-1.009885192,-1.007766247,89142.000000000,1718094095.399754524
1718094095.400762,,,,-0.778134286,-0.777818441,89143.000000000,1718094095.400761604
1718094095.401769,,,,-0.975338876,-0.974037349,89144.000000000,1718094095.401768684
1718094095.402776,,,,-1.133886218,-1.133786798,89145.000000000,1718094095.402775764
1718094095.403783,,,,-1.172880054,-1.173645973,89146.000000000,1718094095.403782845
1718094095.404790,,,,-1.239616513,-1.239180446,89147.000000000,1718094095.404789925
1718094095.405797,,,,-1.460068345,-1.459992886,89148.000000000,1718094095.405797005
1718094095.406252,309.362365723,17991.000000000,1718094095.406251907,,,,
1718094095.406804,,,,-1.935421944,-1.937293768,89149.000000000,1718094095.406804085
1718094095.407811,,,,-2.425055742,-2.424018621,89150.000000000,1718094095.407811165
1718094095.408818,,,,-2.476117849,-2.473133564,89151.000000000,1718094095.408818245
1718094095.409825,,,,-2.235856771,-2.236165762,89152.000000000,1718094095.409825325
1718094095.410832,,,,-1.955471754,-1.956574321,89153.000000000,1718094095.410832405
1718094095.411252,311.325653076,17992.000000000,1718094095.411252022,,,,
1718094095.411839,,,,-1.783461690,-1.783434391,89154.000000000,1718094095.411839485
1718094095.412847,,,,-1.630299449,-1.627964139,89155.000000000,1718094095.412846565
1718094095.413854,,,,-1.428334832,-1.426143765,89156.000000000,1718094095.413853645
1718094095.414861,,,,-1.327076077,-1.326111078,89157.000000000,1718094095.414860725
1718094095.415868,,,,-1.448048115,-1.450304508,89158.000000000,1718094095.415867805
1718094095.416252,313.305877686,17993.000000000,1718094095.416251898,,,,
1718094095.416875,,,,-1.512428641,-1.515790939,89159.000000000,1718094095.416874886
1718094095.417882,,,,-1.361213684,-1.359575510,89160.000000000,1718094095.417881966
1718094095.418889,,,,-1.252766728,-1.250840187,89161.000000000,1718094095.418889046
1718094095.419896,,,,-1.455933332,-1.455761790,89162.000000000,1718094095.419896126
1718094095.420903,,,,-1.783533812,-1.784588337,89163.000000000,1718094095.420903206
1718094095.421252,315.303131104,17994.000000000,1718094095.421252012,,,,
1718094095.421910,,,,-1.952514768,-1.952006578,89164.000000000,1718094095.421910286
1718094095.422917,,,,-1.981435537,-1.982369900,89165.000000000,1718094095.422917366
1718094095.423924,,,,-1.942441821,-1.944794416,89166.000000000,1718094095.423924446
1718094095.424932,,,,-1.875080228,-1.875461578,89167.000000000,1718094095.424931526
1718094095.425939,,,,-1.834499836,-1.835482121,89168.000000000,1718094095.425938606
1718094095.426252,317.381988525,17995.000000000,1718094095.426251888,,,,
1718094095.426946,,,,-1.773244500,-1.772928596,89169.000000000,1718094095.426945686
1718094095.427953,,,,-1.534137249,-1.532186627,89170.000000000,1718094095.427952766
1718094095.428960,,,,-1.236371040,-1.236151338,89171.000000000,1718094095.428959846
1718094095.429967,,,,-1.131193757,-1.132728934,89172.000000000,1718094095.429966927
1718094095.430974,,,,-1.098306298,-1.101596475,89173.000000000,1718094095.430974007
1718094095.431252,319.429626465,17996.000000000,1718094095.431252003,,,,
1718094095.431981,,,,-0.971131802,-0.972618937,89174.000000000,1718094095.431981087
1718094095.432988,,,,-0.942331195,-0.942375958,89175.000000000,1718094095.432988167
1718094095.433995,,,,-1.043277502,-1.042048097,89176.000000000,1718094095.433995247
1718094095.435002,,,,-1.310944796,-1.309547186,89177.000000000,1718094095.435002327
1718094095.436009,,,,-1.650180936,-1.651043057,89178.000000000,1718094095.436009407
1718094095.436252,321.591369629,17997.000000000,1718094095.436251879,,,,
1718094095.437016,,,,-1.750069380,-1.752373934,89179.000000000,1718094095.437016487
1718094095.438024,,,,-1.445571899,-1.444847345,89180.000000000,1718094095.438023567
1718094095.439031,,,,-1.588997722,-1.589306951,89181.000000000,1718094095.439030647
1718094095.440038,,,,-1.960640550,-1.959843874,89182.000000000,1718094095.440037727
1718094095.441045,,,,-2.276677608,-2.277755976,89183.000000000,1718094095.441044807
1718094095.441252,323.673675537,17998.000000000,1718094095.441251993,,,,
1718094095.442052,,,,-2.444240093,-2.444741488,89184.000000000,1718094095.442051888
1718094095.443059,,,,-2.293674231,-2.292733192,89185.000000000,1718094095.443058968
1718094095.444066,,,,-2.086685181,-2.088268518,89186.000000000,1718094095.444066048
1718094095.445073,,,,-1.795361757,-1.796223879,89187.000000000,1718094095.445073128
1718094095.446080,,,,-1.574429154,-1.573343992,89188.000000000,1718094095.446080208
1718094095.446252,325.805694580,17999.000000000,1718094095.446251869,,,,
1718094095.447087,,,,-1.656768084,-1.658303380,89189.000000000,1718094095.447087288
1718094095.448094,,,,-1.669773936,-1.673352718,89190.000000000,1718094095.448094368
1718094095.449101,,,,-1.554427505,-1.558246613,89191.000000000,1718094095.449101448
1718094095.450109,,,,-1.574645519,-1.579955220,89192.000000000,1718094095.450108528
1718094095.451116,,,,-1.692324042,-1.694724798,89193.000000000,1718094095.451115608
1718094095.451252,327.955291748,18000.000000000,1718094095.451251984,,,,
1718094095.452123,,,,-1.693165421,-1.692993879,89194.000000000,1718094095.452122688
1718094095.453130,,,,-1.683933854,-1.686046124,89195.000000000,1718094095.453129768
1718094095.454137,,,,-1.610754490,-1.614477396,89196.000000000,1718094095.454136848
1718094095.455144,,,,-1.470213413,-1.473599792,89197.000000000,1718094095.455143929
1718094095.456151,,,,-1.435138345,-1.435086846,89198.000000000,1718094095.456151009
1718094095.457158,,,,-1.441148400,-1.441337466,89199.000000000,1718094095.457158089
1718094095.458165,,,,-1.448168278,-1.448237062,89200.000000000,1718094095.458165169
1718094095.459172,,,,-1.467472792,-1.468431115,89201.000000000,1718094095.459172249
1718094095.460179,,,,-1.526973128,-1.526320696,89202.000000000,1718094095.460179329
1718094095.461186,,,,-1.562625289,-1.563511491,89203.000000000,1718094095.461186409
1718094095.462193,,,,-1.463145494,-1.461795926,89204.000000000,1718094095.462193489
1718094095.463201,,,,-1.497138858,-1.495308399,89205.000000000,1718094095.463200569
1718094095.464208,,,,-1.469876885,-1.470546722,89206.000000000,1718094095.464207649
1718094095.465215,,,,-1.442326427,-1.443332791,89207.000000000,1718094095.465214729
1718094095.466222,,,,-1.549787641,-1.551875830,89208.000000000,1718094095.466221809
1718094095.467229,,,,-1.711724758,-1.713356137,89209.000000000,1718094095.467228889
1718094095.468236,,,,-1.904770255,-1.904021740,89210.000000000,1718094095.468235970
1718094095.470250,,,,-1.918160915,-1.917003632,89212.000000000,1718094095.470250130
1718094095.471257,,,,-1.397923589,-1.398833752,89213.000000000,1718094095.471257210
1718094095.472264,,,,-0.732962132,-0.731299996,89214.000000000,1718094095.472264290
1718094095.473271,,,,-0.339947313,-0.338501543,89215.000000000,1718094095.473271370
1718094095.474278,,,,-0.176038906,-0.176011533,89216.000000000,1718094095.474278450
1718094095.475286,,,,-0.110624582,-0.112424292,89217.000000000,1718094095.475285530
1718094095.476293,,,,-0.471569300,-0.473224759,89218.000000000,1718094095.476292610
1718094095.477300,,,,-1.254786134,-1.257980227,89219.000000000,1718094095.477299690
1718094095.478307,,,,-1.919170618,-1.920585632,89220.000000000,1718094095.478306770
1718094095.479314,,,,-2.464650393,-2.468229294,89221.000000000,1718094095.479313850
1718094095.480321,,,,-2.824393272,-2.827082396,89222.000000000,1718094095.480320930
1718094095.481328,,,,-2.873796463,-2.875596285,89223.000000000,1718094095.481328011
1718094095.482335,,,,-2.517299414,-2.518786430,89224.000000000,1718094095.482335091
1718094095.487370,,,,-1.901380539,-1.901136875,89229.000000000,1718094095.487370491
1718094095.488378,,,,-1.879287362,-1.880798578,89230.000000000,1718094095.488377571
1718094095.489385,,,,-1.827071309,-1.827933431,89231.000000000,1718094095.489384651
1718094095.490392,,,,-1.786082149,-1.786920190,89232.000000000,1718094095.490391731
1718094095.491399,,,,-1.748194218,-1.745859027,89233.000000000,1718094095.491398811
1718094095.492406,,,,-1.708623528,-1.706745028,89234.000000000,1718094095.492405891
1718094095.493413,,,,-1.727278948,-1.727564096,89235.000000000,1718094095.493412971
1718094095.494420,,,,-1.762666702,-1.763528824,89236.000000000,1718094095.494420052
1718094095.495427,,,,-1.773557067,-1.775068283,89237.000000000,1718094095.495427132
1718094095.496434,,,,-1.802838445,-1.802209973,89238.000000000,1718094095.496434212
1718094095.497441,,,,-1.768292189,-1.768312812,89239.000000000,1718094095.497441292
1718094095.498448,,,,-1.646382570,-1.644191504,89240.000000000,1718094095.498448372
1718094095.499455,,,,-1.542094707,-1.540865302,89241.000000000,1718094095.499455452
1718094095.500428,346.087951660,18011.000000000,1718094095.500427723,,,,
1718094095.500463,,,,-1.534545898,-1.534638762,89242.000000000,1718094095.500462532
1718094095.501470,,,,-1.517813683,-1.519421101,89243.000000000,1718094095.501469612
1718094095.502477,,,,-1.468770981,-1.465810657,89244.000000000,1718094095.502476692
1718094095.503484,,,,-1.336091280,-1.332770348,89245.000000000,1718094095.503483772
1718094095.504491,,,,-1.329840660,-1.329957604,89246.000000000,1718094095.504490852
1718094095.505428,346.771606445,18012.000000000,1718094095.505427837,,,,
1718094095.505498,,,,-1.435018063,-1.433692575,89247.000000000,1718094095.505497932
1718094095.506505,,,,-1.600417018,-1.600365639,89248.000000000,1718094095.506505013
1718094095.507512,,,,-1.717782974,-1.713837028,89249.000000000,1718094095.507512093
1718094095.508519,,,,-1.770407677,-1.767062783,89250.000000000,1718094095.508519173
1718094095.509526,,,,-1.790938377,-1.790935040,89251.000000000,1718094095.509526253
1718094095.510428,347.374084473,18013.000000000,1718094095.510427713,,,,
1718094095.510533,,,,-1.777523756,-1.778265595,89252.000000000,1718094095.510533333
1718094095.511540,,,,-1.702060461,-1.702778339,89253.000000000,1718094095.511540413
1718094095.512547,,,,-1.534089208,-1.536129236,89254.000000000,1718094095.512547493
1718094095.513555,,,,-1.217931986,-1.217351675,89255.000000000,1718094095.513554573
1718094095.514562,,,,-1.006158829,-1.005506396,89256.000000000,1718094095.514561653
1718094095.515428,347.830078125,18014.000000000,1718094095.515427828,,,,
1718094095.515569,,,,-1.051547408,-1.052289367,89257.000000000,1718094095.515568733
1718094095.516576,,,,-1.213917255,-1.214707255,89258.000000000,1718094095.516575813
1718094095.517583,,,,-1.096647501,-1.097076893,89259.000000000,1718094095.517582893
1718094095.518590,,,,-0.602590263,-0.602514803,89260.000000000,1718094095.518589973
1718094095.519597,,,,-0.489719898,-0.488562614,89261.000000000,1718094095.519597054
1718094095.520428,348.009277344,18015.000000000,1718094095.520427704,,,,
1718094095.520604,,,,-0.747939348,-0.749306381,89262.000000000,1718094095.520604134
1718094095.521611,,,,-1.126626015,-1.125781298,89263.000000000,1718094095.521611214
1718094095.522618,,,,-1.593301058,-1.592768788,89264.000000000,1718094095.522618294
1718094095.523625,,,,-1.950663686,-1.948953509,89265.000000000,1718094095.523625374
1718094095.524632,,,,-2.104210615,-2.103894711,89266.000000000,1718094095.524632454
1718094095.525428,348.123260498,18016.000000000,1718094095.525427818,,,,
1718094095.525640,,,,-2.210566044,-2.211428165,89267.000000000,1718094095.525639534
1718094095.526647,,,,-2.279297829,-2.281001568,89268.000000000,1718094095.526646614
1718094095.527654,,,,-2.211503506,-2.215322733,89269.000000000,1718094095.527653694
1718094095.528661,,,,-2.168543100,-2.168587923,89270.000000000,1718094095.528660774
1718094095.529668,,,,-2.072741508,-2.071295738,89271.000000000,1718094095.529667854
1718094095.530428,348.123260498,18017.000000000,1718094095.530427694,,,,
1718094095.530675,,,,-1.885153174,-1.882986188,89272.000000000,1718094095.530674934
1718094095.531682,,,,-1.754637122,-1.752614379,89273.000000000,1718094095.531682014
1718094095.532689,,,,-1.681193233,-1.681815028,89274.000000000,1718094095.532689095
1718094095.533696,,,,-1.659364462,-1.661164165,89275.000000000,1718094095.533696175
1718094095.534703,,,,-1.725884676,-1.728237271,89276.000000000,1718094095.534703255
1718094095.535428,348.269897461,18018.000000000,1718094095.535427809,,,,
1718094095.535710,,,,-1.759541392,-1.761605501,89277.000000000,1718094095.535710335
1718094095.536717,,,,-1.798126459,-1.800551176,89278.000000000,1718094095.536717415
1718094095.537724,,,,-1.834427714,-1.835121512,89279.000000000,1718094095.537724495
1718094095.538732,,,,-1.866641998,-1.867191553,89280.000000000,1718094095.538731575
1718094095.539739,,,,-1.824715257,-1.826058269,89281.000000000,1718094095.539738655
1718094095.540428,348.481689453,18019.000000000,1718094095.540427685,,,,
1718094095.540746,,,,-1.736919284,-1.738358378,89282.000000000,1718094095.540745735
1718094095.541753,,,,-1.543465018,-1.544904113,89283.000000000,1718094095.541752815
1718094095.542760,,,,-1.154032230,-1.152249932,89284.000000000,1718094095.542759895
1718094095.543767,,,,-1.054816961,-1.055414557,89285.000000000,1718094095.543766975
1718094095.544774,,,,-1.164153337,-1.164702892,89286.000000000,1718094095.544774055
1718094095.545428,348.807525635,18020.000000000,1718094095.545427799,,,,
1718094095.545781,,,,-1.312507510,-1.314451456,89287.000000000,1718094095.545781136
1718094095.546788,,,,-1.589214087,-1.593465924,89288.000000000,1718094095.546788216
1718094095.547795,,,,-1.843490958,-1.845026255,89289.000000000,1718094095.547795296
1718094095.548802,,,,-1.936984658,-1.935659051,89290.000000000,1718094095.548802376
1718094095.549809,,,,-1.829499364,-1.830962539,89291.000000000,1718094095.549809456
1718094095.550817,,,,-1.691097975,-1.694556475,89292.000000000,1718094095.550816536
1718094095.551824,,,,-1.611379504,-1.614020586,89293.000000000,1718094095.551823616
1718094095.552831,,,,-1.479925871,-1.481557250,89294.000000000,1718094095.552830696
1718094095.553838,,,,-1.398067832,-1.397992373,89295.000000000,1718094095.553837776
1718094095.554663,349.329040527,18021.000000000,1718094095.554662943,,,,
1718094095.554845,,,,-1.186799526,-1.190378189,89296.000000000,1718094095.554844856
1718094095.555852,,,,-0.998081207,-1.001635909,89297.000000000,1718094095.555851936
1718094095.556859,,,,-1.132083178,-1.134171367,89298.000000000,1718094095.556859016
1718094095.557866,,,,-1.253656268,-1.253676891,89299.000000000,1718094095.557866096
1718094095.558873,,,,-1.258824944,-1.260215998,89300.000000000,1718094095.558873177
1718094095.559880,,,,-1.295150161,-1.296012282,89301.000000000,1718094095.559880257
1718094095.560887,,,,-1.464275479,-1.461291075,89302.000000000,1718094095.560887337
1718094095.561894,,,,-1.635732532,-1.634455085,89303.000000000,1718094095.561894417
1718094095.562901,,,,-1.747953892,-1.751388311,89304.000000000,1718094095.562901497
1718094095.563909,,,,-1.933594942,-1.938135266,89305.000000000,1718094095.563908577
1718094095.564663,350.714782715,18023.000000000,1718094095.564662933,,,,
1718094095.564916,,,,-1.988070726,-1.991216779,89306.000000000,1718094095.564915657
1718094095.565923,,,,-2.083992481,-2.085648060,89307.000000000,1718094095.565922737
1718094095.566930,,,,-2.129477262,-2.128368139,89308.000000000,1718094095.566929817
1718094095.567937,,,,-2.068991184,-2.068987846,89309.000000000,1718094095.567936897
1718094095.568944,,,,-2.041320562,-2.041581631,89310.000000000,1718094095.568943977
1718094095.569663,351.530334473,18024.000000000,1718094095.569663048,,,,
1718094095.569951,,,,-2.067933559,-2.069084167,89311.000000000,1718094095.569951057
1718094095.570958,,,,-2.050696373,-2.052207708,89312.000000000,1718094095.570958138
1718094095.571965,,,,-1.921935201,-1.923013687,89313.000000000,1718094095.571965218
1718094095.572972,,,,-1.770720243,-1.771366000,89314.000000000,1718094095.572972298
1718094095.573979,,,,-1.711820960,-1.710182786,89315.000000000,1718094095.573979378
1718094095.574663,352.280944824,18025.000000000,1718094095.574662924,,,,
1718094095.574986,,,,-1.647055626,-1.646403313,89316.000000000,1718094095.574986458
1718094095.575994,,,,-1.642608166,-1.644552112,89317.000000000,1718094095.575993538
1718094095.577001,,,,-1.708238840,-1.713139772,89318.000000000,1718094095.577000618
1718094095.578008,,,,-1.742929339,-1.743118405,89319.000000000,1718094095.578007698
1718094095.579015,,,,-1.691122055,-1.690517664,89320.000000000,1718094095.579014778
1718094095.579663,352.819549561,18026.000000000,1718094095.579663038,,,,
1718094095.580022,,,,-1.607797503,-1.609621167,89321.000000000,1718094095.580021858
1718094095.581029,,,,-1.464876413,-1.468623400,89322.000000000,1718094095.581028938
1718094095.582036,,,,-1.542238951,-1.542451978,89323.000000000,1718094095.582036018
1718094095.583043,,,,-1.647873044,-1.649865150,89324.000000000,1718094095.583043098
1718094095.584050,,,,-1.714441299,-1.716409326,89325.000000000,1718094095.584050179
1718094095.584663,353.064422607,18027.000000000,1718094095.584662914,,,,
1718094095.585057,,,,-1.781634688,-1.781751513,89326.000000000,1718094095.585057259
1718094095.586064,,,,-1.708455205,-1.708163381,89327.000000000,1718094095.586064339
1718094095.587071,,,,-1.424296021,-1.425422549,89328.000000000,1718094095.587071419
1718094095.588078,,,,-1.150834799,-1.150470853,89329.000000000,1718094095.588078499
1718094095.589086,,,,-0.921560168,-0.920931816,89330.000000000,1718094095.589085579
1718094095.589663,353.227691650,18028.000000000,1718094095.589663029,,,,
1718094095.590093,,,,-1.042652369,-1.042865396,89331.000000000,1718094095.590092659
1718094095.591100,,,,-1.379965305,-1.380586982,89332.000000000,1718094095.591099739
1718094095.592107,,,,-1.496658087,-1.495765209,89333.000000000,1718094095.592106819
1718094095.593114,,,,-1.466631413,-1.467709899,89334.000000000,1718094095.593113899
1718094095.594121,,,,-1.449490547,-1.450881481,89335.000000000,1718094095.594120979
1718094095.594663,353.178680420,18029.000000000,1718094095.594662905,,,,
1718094095.595128,,,,-1.497307181,-1.498097181,89336.000000000,1718094095.595128059
1718094095.596135,,,,-1.825316310,-1.827717066,89337.000000000,1718094095.596135139
1718094095.597142,,,,-2.208402395,-2.210995436,89338.000000000,1718094095.597142220
1718094095.598149,,,,-2.212825775,-2.215659380,89339.000000000,1718094095.598149300
1718094095.599156,,,,-1.937489510,-1.937029362,89340.000000000,1718094095.599156380
1718094095.599663,352.999145508,18030.000000000,1718094095.599663019,,,,
1718094095.600163,,,,-1.800939202,-1.801007986,89341.000000000,1718094095.600163460
1718094095.601171,,,,-1.755141973,-1.757879257,89342.000000000,1718094095.601170540
1718094095.602178,,,,-1.631645679,-1.633854032,89343.000000000,1718094095.602177620
1718094095.603185,,,,-1.458698034,-1.458189845,89344.000000000,1718094095.603184700
1718094095.604192,,,,-1.414800048,-1.412921548,89345.000000000,1718094095.604191780
1718094095.604663,352.705261230,18031.000000000,1718094095.604662895,,,,
1718094095.605199,,,,-1.528896451,-1.528267980,89346.000000000,1718094095.605198860
1718094095.606206,,,,-1.723672867,-1.722996473,89347.000000000,1718094095.606205940
1718094095.607213,,,,-1.681602001,-1.680564880,89348.000000000,1718094095.607213020
1718094095.608220,,,,-1.400159359,-1.396309495,89349.000000000,1718094095.608220100
1718094095.609227,,,,-1.318301201,-1.316038132,89350.000000000,1718094095.609227180
1718094095.609663,352.460479736,18032.000000000,1718094095.609663010,,,,
1718094095.610234,,,,-1.326547146,-1.328154564,89351.000000000,1718094095.610234261
1718094095.611241,,,,-1.224543095,-1.226823688,89352.000000000,1718094095.611241341
1718094095.612248,,,,-1.188410163,-1.187084675,89353.000000000,1718094095.612248421
1718094095.613256,,,,-1.315752983,-1.315845847,89354.000000000,1718094095.613255501
1718094095.614263,,,,-1.549499154,-1.551851749,89355.000000000,1718094095.614262581
1718094095.614663,352.183013916,18033.000000000,1718094095.614662886,,,,
1718094095.615270,,,,-1.658643246,-1.657293677,89356.000000000,1718094095.615269661
1718094095.616277,,,,-1.582747221,-1.580724478,89357.000000000,1718094095.616276741
1718094095.617284,,,,-1.471175075,-1.470017791,89358.000000000,1718094095.617283821
1718094095.618291,,,,-1.468025804,-1.469777346,89359.000000000,1718094095.618290901
1718094095.619298,,,,-1.627967477,-1.629670978,89360.000000000,1718094095.619297981
1718094095.619663,352.036132813,18034.000000000,1718094095.619663000,,,,
1718094095.620305,,,,-1.767811298,-1.769442797,89361.000000000,1718094095.620305061
1718094095.621312,,,,-1.841711998,-1.841900945,89362.000000000,1718094095.621312141
1718094095.622319,,,,-1.942273498,-1.942462564,89363.000000000,1718094095.622319221
1718094095.623326,,,,-1.873926282,-1.874499917,89364.000000000,1718094095.623326302
1718094095.624333,,,,-1.656311274,-1.659216881,89365.000000000,1718094095.624333382
1718094095.624663,352.003509521,18035.000000000,1718094095.624662876,,,,
1718094095.625340,,,,-1.679005623,-1.680901408,89366.000000000,1718094095.625340462
1718094095.626348,,,,-1.893351078,-1.892818809,89367.000000000,1718094095.626347542
1718094095.627355,,,,-1.947682619,-1.948424578,89368.000000000,1718094095.627354622
1718094095.628362,,,,-1.843875647,-1.844256878,89369.000000000,1718094095.628361702
1718094095.629369,,,,-1.549499154,-1.548750520,89370.000000000,1718094095.629368782
1718094095.629663,352.150390625,18036.000000000,1718094095.629662991,,,,
1718094095.630376,,,,-1.553874493,-1.555674195,89371.000000000,1718094095.630375862
1718094095.631383,,,,-1.628784895,-1.630440354,89372.000000000,1718094095.631382942
1718094095.632390,,,,-1.481392264,-1.480691791,89373.000000000,1718094095.632390022
1718094095.633397,,,,-1.303251863,-1.306590199,89374.000000000,1718094095.633397102
1718094095.634404,,,,-1.287312984,-1.289689660,89375.000000000,1718094095.634404182
1718094095.634663,352.378845215,18037.000000000,1718094095.634662867,,,,
1718094095.635411,,,,-1.572121263,-1.572478533,89376.000000000,1718094095.635411263
1718094095.636418,,,,-1.932681322,-1.933615565,89377.000000000,1718094095.636418343
1718094095.637425,,,,-2.065649509,-2.069108009,89378.000000000,1718094095.637425423
1718094095.638433,,,,-2.047018290,-2.049394846,89379.000000000,1718094095.638432503
1718094095.639440,,,,-1.808848500,-1.808508635,89380.000000000,1718094095.639439583
1718094095.639663,352.656341553,18038.000000000,1718094095.639662981,,,,
1718094095.640447,,,,-1.446317196,-1.447347522,89381.000000000,1718094095.640446663
1718094095.641454,,,,-1.288899660,-1.290963769,89382.000000000,1718094095.641453743
1718094095.642461,,,,-1.257262349,-1.256730080,89383.000000000,1718094095.642460823
1718094095.643468,,,,-1.251612782,-1.250527620,89384.000000000,1718094095.643467903
1718094095.644475,,,,-1.287986159,-1.289833903,89385.000000000,1718094095.644474983
1718094095.644663,353.064422607,18039.000000000,1718094095.644662857,,,,
1718094095.645482,,,,-1.495335817,-1.497472048,89386.000000000,1718094095.645482063
1718094095.646489,,,,-1.857194066,-1.859690905,89387.000000000,1718094095.646489143
1718094095.647496,,,,-2.123611450,-2.122958899,89388.000000000,1718094095.647496223
1718094095.648503,,,,-2.118202209,-2.116828680,89389.000000000,1718094095.648503304
1718094095.648533,354.125823975,18041.000000000,1718094095.648532867,,,,
1718094095.649510,,,,-1.968044996,-1.966935754,89390.000000000,1718094095.649510384
1718094095.649663,353.554229736,18040.000000000,1718094095.649662971,,,,
1718094095.650517,,,,-1.861208797,-1.863321066,89391.000000000,1718094095.650517464
1718094095.651525,,,,-1.636646152,-1.636234164,89392.000000000,1718094095.651524544
1718094095.652532,,,,-1.434753656,-1.433331966,89393.000000000,1718094095.652531624
1718094095.653533,354.648590088,18042.000000000,1718094095.653532982,,,,
1718094095.653539,,,,-1.228485823,-1.229516149,89394.000000000,1718094095.653538704
1718094095.654546,,,,-1.108475447,-1.109938502,89395.000000000,1718094095.654545784
1718094095.655553,,,,-1.129943609,-1.132392406,89396.000000000,1718094095.655552864
1718094095.656560,,,,-1.240241647,-1.238988161,89397.000000000,1718094095.656559944
1718094095.657567,,,,-1.472040534,-1.471364021,89398.000000000,1718094095.657567024
1718094095.658533,355.171447754,18043.000000000,1718094095.658532858,,,,
1718094095.658574,,,,-1.725235581,-1.725881338,89399.000000000,1718094095.658574104
1718094095.659581,,,,-1.927632809,-1.928446889,89400.000000000,1718094095.659581184
1718094095.660588,,,,-2.079352617,-2.078652143,89401.000000000,1718094095.660588264
1718094095.661595,,,,-2.065240860,-2.064828873,89402.000000000,1718094095.661595345
1718094095.662602,,,,-1.971675158,-1.970589995,89403.000000000,1718094095.662602425
1718094095.663533,355.596405029,18044.000000000,1718094095.663532972,,,,
1718094095.663610,,,,-1.937513471,-1.939144969,89404.000000000,1718094095.663609505
1718094095.664617,,,,-1.941215754,-1.943015456,89405.000000000,1718094095.664616585
1718094095.665624,,,,-1.929724336,-1.930057645,89406.000000000,1718094095.665623665
1718094095.666631,,,,-1.860631824,-1.861157417,89407.000000000,1718094095.666630745
1718094095.667638,,,,-1.822479486,-1.823582053,89408.000000000,1718094095.667637825
1718094095.668533,355.808837891,18045.000000000,1718094095.668532848,,,,
1718094095.668645,,,,-1.743458271,-1.744152069,89409.000000000,1718094095.668644905
1718094095.669652,,,,-1.603277802,-1.602673531,89410.000000000,1718094095.669651985
1718094095.670659,,,,-1.623375773,-1.625680327,89411.000000000,1718094095.670659065
1718094095.671666,,,,-1.736222029,-1.737925649,89412.000000000,1718094095.671666145
1718094095.672673,,,,-1.730620623,-1.729271054,89413.000000000,1718094095.672673225
1718094095.673533,355.890625000,18046.000000000,1718094095.673532963,,,,
1718094095.673680,,,,-1.526708722,-1.525960088,89414.000000000,1718094095.673680305
1718094095.674687,,,,-1.353592753,-1.352675915,89415.000000000,1718094095.674687386
1718094095.675694,,,,-1.410088062,-1.410204887,89416.000000000,1718094095.675694466
1718094095.676702,,,,-1.608326316,-1.609284639,89417.000000000,1718094095.676701546
1718094095.677709,,,,-1.839548349,-1.842165351,89418.000000000,1718094095.677708626
1718094095.678533,355.906982422,18047.000000000,1718094095.678532839,,,,
1718094095.678716,,,,-1.930950403,-1.934024334,89419.000000000,1718094095.678715706
1718094095.679723,,,,-1.823537350,-1.826539040,89420.000000000,1718094095.679722786
1718094095.680730,,,,-1.686241746,-1.686118245,89421.000000000,1718094095.680729866
1718094095.681737,,,,-1.567962289,-1.566636682,89422.000000000,1718094095.681736946
1718094095.682744,,,,-1.440162778,-1.439318061,89423.000000000,1718094095.682744026
1718094095.683533,355.988677979,18048.000000000,1718094095.683532953,,,,
1718094095.683751,,,,-1.232933283,-1.231679797,89424.000000000,1718094095.683751106
1718094095.684758,,,,-1.024646044,-1.025003314,89425.000000000,1718094095.684758186
1718094095.685765,,,,-1.033420801,-1.033393502,89426.000000000,1718094095.685765266
1718094095.686772,,,,-1.139968514,-1.139460325,89427.000000000,1718094095.686772346
1718094095.687779,,,,-1.303468227,-1.302815795,89428.000000000,1718094095.687779427
1718094095.688533,356.119476318,18049.000000000,1718094095.688532829,,,,
1718094095.688787,,,,-1.525915384,-1.529325843,89429.000000000,1718094095.688786507
1718094095.689794,,,,-1.667418003,-1.669193745,89430.000000000,1718094095.689793587
1718094095.690801,,,,-1.692949057,-1.692152381,89431.000000000,1718094095.690800667
1718094095.691808,,,,-1.783581972,-1.785381675,89432.000000000,1718094095.691807747
1718094095.692815,,,,-1.927897334,-1.929144025,89433.000000000,1718094095.692814827
1718094095.693822,,,,-1.646382570,-1.646523476,89434.000000000,1718094095.693821907
1718094095.694829,,,,-1.240554094,-1.240646958,89435.000000000,1718094095.694828987
1718094095.695836,,,,-1.208315730,-1.208624959,89436.000000000,1718094095.695836067
1718094095.696843,,,,-1.397659063,-1.400708914,89437.000000000,1718094095.696843147
1718094095.697850,,,,-1.642488003,-1.643806934,89438.000000000,1718094095.697850227
1718094095.698533,356.904388428,18051.000000000,1718094095.698532820,,,,
1718094095.698857,,,,-1.770143270,-1.773289204,89439.000000000,1718094095.698857307
1718094095.699864,,,,-1.795986891,-1.797786593,89440.000000000,1718094095.699864388
1718094095.700871,,,,-1.678668976,-1.678305030,89441.000000000,1718094095.700871468
1718094095.701879,,,,-1.468963385,-1.470258236,89442.000000000,1718094095.701878548
1718094095.702886,,,,-1.474925399,-1.473575830,89443.000000000,1718094095.702885628
1718094095.703533,357.640502930,18052.000000000,1718094095.703532934,,,,
1718094095.703893,,,,-1.639603138,-1.638782382,89444.000000000,1718094095.703892708
1718094095.704900,,,,-1.607749343,-1.609549046,89445.000000000,1718094095.704899788
1718094095.705907,,,,-1.584237695,-1.585604668,89446.000000000,1718094095.705906868
1718094095.706914,,,,-1.663884044,-1.663159490,89447.000000000,1718094095.706913948
1718094095.707921,,,,-1.854212999,-1.853656769,89448.000000000,1718094095.707921028
1718094095.708533,358.442382813,18053.000000000,1718094095.708532810,,,,
1718094095.708928,,,,-2.176548719,-2.177050114,89449.000000000,1718094095.708928108
1718094095.709935,,,,-2.351900339,-2.350382566,89450.000000000,1718094095.709935188
1718094095.710942,,,,-2.010428429,-2.008141279,89451.000000000,1718094095.710942268
1718094095.711949,,,,-1.688766003,-1.686526895,89452.000000000,1718094095.711949348
1718094095.712956,,,,-1.735332608,-1.738021731,89453.000000000,1718094095.712956429
1718094095.713533,359.391876221,18054.000000000,1718094095.713532925,,,,
1718094095.713964,,,,-1.739082932,-1.742589474,89454.000000000,1718094095.713963509
1718094095.714971,,,,-1.545772910,-1.548077464,89455.000000000,1718094095.714970589
1718094095.715978,,,,-1.384725332,-1.388328075,89456.000000000,1718094095.715977669
1718094095.716985,,,,-1.500552654,-1.504275560,89457.000000000,1718094095.716984749
1718094095.717992,,,,-1.689102650,-1.689580083,89458.000000000,1718094095.717991829
1718094095.718533,360.407379150,18055.000000000,1718094095.718532801,,,,
1718094095.718999,,,,-1.617293477,-1.613299370,89459.000000000,1718094095.718998909
1718094095.720006,,,,-1.458337426,-1.456290603,89460.000000000,1718094095.720005989
1718094095.721013,,,,-1.432469845,-1.432418346,89461.000000000,1718094095.721013069
1718094095.722020,,,,-1.397394657,-1.397511482,89462.000000000,1718094095.722020149
1718094095.723027,,,,-1.322532415,-1.323130131,89463.000000000,1718094095.723027229
1718094095.723533,361.357879639,18056.000000000,1718094095.723532915,,,,
1718094095.724034,,,,-1.460549116,-1.462901831,89464.000000000,1718094095.724034309
1718094095.725041,,,,-1.664412975,-1.666909814,89465.000000000,1718094095.725041389
1718094095.726048,,,,-1.917271376,-1.920417309,89466.000000000,1718094095.726048470
1718094095.727056,,,,-1.826518297,-1.829207540,89467.000000000,1718094095.727055550
1718094095.728063,,,,-1.238727093,-1.239709377,89468.000000000,1718094095.728062630
1718094095.728533,362.292449951,18057.000000000,1718094095.728532791,,,,
1718094095.729070,,,,-0.856602609,-0.858594656,89469.000000000,1718094095.729069710
1718094095.730077,,,,-0.815589488,-0.816499650,89470.000000000,1718094095.730076790
1718094095.731084,,,,-1.026136518,-1.025580287,89471.000000000,1718094095.731083870
1718094095.732091,,,,-1.646863341,-1.648278475,89472.000000000,1718094095.732090950
1718094095.733098,,,,-2.237635612,-2.238161325,89473.000000000,1718094095.733098030
1718094095.733533,363.014160156,18058.000000000,1718094095.733532906,,,,
1718094095.734105,,,,-2.356251717,-2.356993675,89474.000000000,1718094095.734105110
1718094095.735112,,,,-2.319205284,-2.320740461,89475.000000000,1718094095.735112190
1718094095.736119,,,,-2.231938124,-2.232030869,89476.000000000,1718094095.736119270
1718094095.737126,,,,-1.997013807,-1.997948170,89477.000000000,1718094095.737126350
1718094095.738133,,,,-1.707060933,-1.707947016,89478.000000000,1718094095.738133430
1718094095.738533,363.785339355,18059.000000000,1718094095.738532782,,,,
1718094095.739141,,,,-1.524689317,-1.525575519,89479.000000000,1718094095.739140511
1718094095.740148,,,,-1.471896291,-1.472902656,89480.000000000,1718094095.740147591
1718094095.741155,,,,-1.514664412,-1.516271830,89481.000000000,1718094095.741154671
1718094095.742162,,,,-1.614336491,-1.617410302,89482.000000000,1718094095.742161751
1718094095.743169,,,,-1.661648273,-1.662053704,89483.000000000,1718094095.743168831
1718094095.743533,364.359863281,18060.000000000,1718094095.743532896,,,,
1718094095.744176,,,,-1.753435135,-1.753455758,89484.000000000,1718094095.744175911
1718094095.745183,,,,-1.767210364,-1.768024325,89485.000000000,1718094095.745182991
1718094095.746190,,,,-1.808463931,-1.807402730,89486.000000000,1718094095.746190071
1718094095.747197,,,,-1.783702135,-1.784179568,89487.000000000,1718094095.747197151
1718094095.748204,,,,-1.721773744,-1.723525286,89488.000000000,1718094095.748204231
1718094095.749211,,,,-1.673235893,-1.673088312,89489.000000000,1718094095.749211311
1718094095.750218,,,,-1.688814163,-1.689676285,89490.000000000,1718094095.750218391
1718094095.751225,,,,-1.690112352,-1.692825556,89491.000000000,1718094095.751225471
1718094095.752233,,,,-1.677683353,-1.679699421,89492.000000000,1718094095.752232552
1718094095.753240,,,,-1.677827597,-1.677535772,89493.000000000,1718094095.753239632
1718094095.753574,364.704650879,18061.000000000,1718094095.753574371,,,,
1718094095.754247,,,,-1.810266972,-1.811465621,89494.000000000,1718094095.754246712
1718094095.755254,,,,-1.883614659,-1.881375551,89495.000000000,1718094095.755253792
1718094095.756261,,,,-1.826374054,-1.827909350,89496.000000000,1718094095.756260872
1718094095.757268,,,,-1.766657352,-1.769226432,89497.000000000,1718094095.757267952
1718094095.758275,,,,-1.740092635,-1.742853880,89498.000000000,1718094095.758275032
1718094095.758574,364.852386475,18062.000000000,1718094095.758574486,,,,
1718094095.759282,,,,-1.746222973,-1.747878432,89499.000000000,1718094095.759282112
1718094095.760289,,,,-1.685448408,-1.686623096,89500.000000000,1718094095.760289192
1718094095.761296,,,,-1.544017911,-1.544831991,89501.000000000,1718094095.761296272
1718094095.762303,,,,-1.473242521,-1.476124048,89502.000000000,1718094095.762303352
1718094095.763310,,,,-1.534906507,-1.535648465,89503.000000000,1718094095.763310432
1718094095.763574,364.934539795,18063.000000000,1718094095.763574362,,,,
1718094095.764318,,,,-1.573587775,-1.573320031,89504.000000000,1718094095.764317513
1718094095.765325,,,,-1.277360201,-1.276659727,89505.000000000,1718094095.765324593
1718094095.766332,,,,-0.776114881,-0.773851752,89506.000000000,1718094095.766331673
1718094095.767339,,,,-0.654325485,-0.652326822,89507.000000000,1718094095.767338753
1718094095.768346,,,,-0.906534851,-0.908334553,89508.000000000,1718094095.768345833
1718094095.768574,364.901702881,18064.000000000,1718094095.768574476,,,,
1718094095.769353,,,,-1.113716245,-1.113929272,89509.000000000,1718094095.769352913
1718094095.770360,,,,-1.288394809,-1.286107659,89510.000000000,1718094095.770359993
1718094095.771367,,,,-1.489662290,-1.487351060,89511.000000000,1718094095.771367073
1718094095.772374,,,,-1.483652115,-1.482999682,89512.000000000,1718094095.772374153
1718094095.773381,,,,-1.572433829,-1.573632479,89513.000000000,1718094095.773381233
1718094095.773574,364.885253906,18065.000000000,1718094095.773574352,,,,
1718094095.774388,,,,-1.714657664,-1.716962218,89514.000000000,1718094095.774388313
1718094095.775395,,,,-1.770311594,-1.773625851,89515.000000000,1718094095.775395393
1718094095.776402,,,,-1.852121472,-1.856108904,89516.000000000,1718094095.776402473
1718094095.777410,,,,-2.047547102,-2.051053762,89517.000000000,1718094095.777409554
1718094095.778417,,,,-2.170105696,-2.172242165,89518.000000000,1718094095.778416634
1718094095.778574,364.819549561,18066.000000000,1718094095.778574467,,,,
1718094095.779424,,,,-2.117024183,-2.116467953,89519.000000000,1718094095.779423714
1718094095.780431,,,,-1.950423241,-1.949746847,89520.000000000,1718094095.780430794
1718094095.781438,,,,-1.764565825,-1.763432622,89521.000000000,1718094095.781437874
1718094095.782445,,,,-1.697949529,-1.696648002,89522.000000000,1718094095.782444954
1718094095.783452,,,,-1.642848611,-1.640825868,89523.000000000,1718094095.783452034
1718094095.783574,364.786712646,18067.000000000,1718094095.783574343,,,,
1718094095.784459,,,,-1.542286992,-1.540624857,89524.000000000,1718094095.784459114
1718094095.785466,,,,-1.506658912,-1.504780412,89525.000000000,1718094095.785466194
1718094095.786473,,,,-1.543633223,-1.543461680,89526.000000000,1718094095.786473274
1718094095.787480,,,,-1.558081627,-1.558054209,89527.000000000,1718094095.787480354
1718094095.788487,,,,-1.415497184,-1.414820671,89528.000000000,1718094095.788487434
1718094095.789495,,,,-1.477666020,-1.478431940,89529.000000000,1718094095.789494514
1718094095.790502,,,,-1.726942420,-1.729102731,89530.000000000,1718094095.790501595
1718094095.791509,,,,-1.964559078,-1.964219213,89531.000000000,1718094095.791508675
1718094095.792516,,,,-2.031055212,-2.032181740,89532.000000000,1718094095.792515755
1718094095.793523,,,,-1.991676807,-1.994991183,89533.000000000,1718094095.793522835
1718094095.794530,,,,-2.037954807,-2.039033413,89534.000000000,1718094095.794529915
1718094095.796544,,,,-1.849765539,-1.851036310,89536.000000000,1718094095.796544075
1718094095.797551,,,,-1.596450329,-1.594908357,89537.000000000,1718094095.797551155
1718094095.798558,,,,-1.474709034,-1.473720074,89538.000000000,1718094095.798558235
1718094095.799565,,,,-1.267455459,-1.264807701,89539.000000000,1718094095.799565315
1718094095.800572,,,,-1.078088164,-1.077363610,89540.000000000,1718094095.800572395
1718094095.801579,,,,-0.937595248,-0.938457370,89541.000000000,1718094095.801579475
1718094095.802587,,,,-0.876700521,-0.877057791,89542.000000000,1718094095.802586555
1718094095.803574,365.394378662,18071.000000000,1718094095.803574324,,,,
1718094095.803594,,,,-0.940095425,-0.942832708,89543.000000000,1718094095.803593636
1718094095.804601,,,,-1.132636189,-1.135421515,89544.000000000,1718094095.804600716
1718094095.805608,,,,-1.296592593,-1.297021985,89545.000000000,1718094095.805607796
1718094095.806615,,,,-1.568250775,-1.564953923,89546.000000000,1718094095.806614876
1718094095.807622,,,,-1.892750025,-1.890510917,89547.000000000,1718094095.807621956
1718094095.808574,365.870788574,18072.000000000,1718094095.808574438,,,,
1718094095.808629,,,,-2.035670996,-2.035932064,89548.000000000,1718094095.808629036
1718094095.809636,,,,-2.130511045,-2.130363464,89549.000000000,1718094095.809636116
1718094095.810643,,,,-2.261099339,-2.261528730,89550.000000000,1718094095.810643196
1718094095.811650,,,,-2.264128447,-2.266048193,89551.000000000,1718094095.811650276
1718094095.812657,,,,-2.202560425,-2.204456329,89552.000000000,1718094095.812657356
1718094095.813574,366.445922852,18073.000000000,1718094095.813574314,,,,
1718094095.813664,,,,-2.099210262,-2.100721359,89553.000000000,1718094095.813664436
1718094095.814672,,,,-1.917656064,-1.917027593,89554.000000000,1718094095.814671516
1718094095.815679,,,,-1.839836836,-1.838679552,89555.000000000,1718094095.815678596
1718094095.816686,,,,-1.818512797,-1.817980647,89556.000000000,1718094095.816685677
1718094095.817693,,,,-1.765960217,-1.765115499,89557.000000000,1718094095.817692757
1718094095.818574,367.004852295,18074.000000000,1718094095.818574429,,,,
1718094095.818700,,,,-1.746583581,-1.746964812,89558.000000000,1718094095.818699837
1718094095.819707,,,,-1.706820488,-1.707346082,89559.000000000,1718094095.819706917
1718094095.820714,,,,-1.633472800,-1.636065841,89560.000000000,1718094095.820713997
1718094095.821721,,,,-1.515529871,-1.516031384,89561.000000000,1718094095.821721077
1718094095.822728,,,,-1.301977754,-1.302214742,89562.000000000,1718094095.822728157
1718094095.823574,367.613220215,18075.000000000,1718094095.823574305,,,,
1718094095.823735,,,,-1.221802473,-1.221414566,89563.000000000,1718094095.823735237
1718094095.824742,,,,-1.254449606,-1.255552053,89564.000000000,1718094095.824742317
1718094095.825749,,,,-1.292265296,-1.293704391,89565.000000000,1718094095.825749397
1718094095.826756,,,,-1.485791683,-1.488336682,89566.000000000,1718094095.826756477
1718094095.827764,,,,-1.693093300,-1.694556475,89567.000000000,1718094095.827763557
1718094095.828574,368.123107910,18076.000000000,1718094095.828574419,,,,
1718094095.828771,,,,-1.716917515,-1.716409326,89568.000000000,1718094095.828770638
1718094095.829778,,,,-1.697228312,-1.697489381,89569.000000000,1718094095.829777718
1718094095.830785,,,,-1.701435447,-1.698979974,89570.000000000,1718094095.830784798
1718094095.831792,,,,-1.562721491,-1.560818911,89571.000000000,1718094095.831791878
1718094095.832799,,,,-1.375686049,-1.374432564,89572.000000000,1718094095.832798958
1718094095.833574,368.649627686,18077.000000000,1718094095.833574295,,,,
1718094095.833806,,,,-1.145185351,-1.146912932,89573.000000000,1718094095.833806038
1718094095.834813,,,,-1.180092216,-1.180305243,89574.000000000,1718094095.834813118
1718094095.835820,,,,-1.405929089,-1.405468941,89575.000000000,1718094095.835820198
1718094095.836827,,,,-1.605705976,-1.603130221,89576.000000000,1718094095.836827278
1718094095.837834,,,,-1.799256325,-1.799781919,89577.000000000,1718094095.837834358
1718094095.838574,369.143310547,18078.000000000,1718094095.838574409,,,,
1718094095.838841,,,,-1.897894740,-1.898275971,89578.000000000,1718094095.838841438
1718094095.839849,,,,-2.057764292,-2.058506250,89579.000000000,1718094095.839848518
1718094095.840856,,,,-1.989417076,-1.988956928,89580.000000000,1718094095.840855598
1718094095.841863,,,,-1.754324555,-1.753047109,89581.000000000,1718094095.841862679
1718094095.842870,,,,-1.489518046,-1.486942291,89582.000000000,1718094095.842869759
1718094095.843574,369.571350098,18079.000000000,1718094095.843574286,,,,
1718094095.843877,,,,-1.290101647,-1.289761782,89583.000000000,1718094095.843876839
1718094095.844884,,,,-1.124702811,-1.126814961,89584.000000000,1718094095.844883919
1718094095.845891,,,,-1.037411571,-1.036879301,89585.000000000,1718094095.845890999
1718094095.846898,,,,-1.192809582,-1.195210338,89586.000000000,1718094095.846898079
1718094095.847905,,,,-1.488508344,-1.488264561,89587.000000000,1718094095.847905159
1718094095.848574,369.933563232,18080.000000000,1718094095.848574400,,,,
1718094095.848912,,,,-1.842625499,-1.841804743,89588.000000000,1718094095.848912239
1718094095.849919,,,,-2.099787235,-2.099735737,89589.000000000,1718094095.849919319
1718094095.850926,,,,-2.275403261,-2.276866436,89590.000000000,1718094095.850926399
1718094095.851933,,,,-2.286750555,-2.289295435,89591.000000000,1718094095.851933479
1718094095.852941,,,,-2.124020100,-2.126132250,89592.000000000,1718094095.852940559
1718094095.853948,,,,-2.029059887,-2.033648252,89593.000000000,1718094095.853947639
1718094095.854955,,,,-1.930060983,-1.933495402,89594.000000000,1718094095.854954720
1718094095.855962,,,,-1.889841080,-1.891688943,89595.000000000,1718094095.855961800
1718094095.856969,,,,-1.842000484,-1.839713216,89596.000000000,1718094095.856968880
1718094095.857976,,,,-1.772980094,-1.774178743,89597.000000000,1718094095.857975960
1718094095.858178,370.098236084,18081.000000000,1718094095.858178139,,,,
1718094095.858983,,,,-1.719105244,-1.721818447,89598.000000000,1718094095.858983040
1718094095.859990,,,,-1.626525044,-1.627363086,89599.000000000,1718094095.859990120
1718094095.860997,,,,-1.471175075,-1.468671560,89600.000000000,1718094095.860997200
1718094095.862004,,,,-1.436652899,-1.437538981,89601.000000000,1718094095.862004280
1718094095.863011,,,,-1.551734924,-1.552765369,89602.000000000,1718094095.863011360
1718094095.863178,370.262908936,18082.000000000,1718094095.863178253,,,,
1718094095.864018,,,,-1.571472168,-1.571877599,89603.000000000,1718094095.864018440
1718094095.865026,,,,-1.369555712,-1.372509360,89604.000000000,1718094095.865025520
1718094095.866033,,,,-1.205599189,-1.207158446,89605.000000000,1718094095.866032600
1718094095.867040,,,,-1.359939456,-1.360200644,89606.000000000,1718094095.867039680
1718094095.868047,,,,-1.814930797,-1.816562176,89607.000000000,1718094095.868046761
1718094095.869054,,,,-2.067524672,-2.070117712,89608.000000000,1718094095.869053841
1718094095.870061,,,,-1.989176631,-1.988932967,89609.000000000,1718094095.870060921
1718094095.871068,,,,-1.879575849,-1.879067659,89610.000000000,1718094095.871068001
1718094095.872075,,,,-1.893807769,-1.893347740,89611.000000000,1718094095.872075081
1718094095.873082,,,,-1.899216890,-1.899165511,89612.000000000,1718094095.873082161
1718094095.874089,,,,-1.806516647,-1.809326053,89613.000000000,1718094095.874089241
1718094095.875096,,,,-1.670158625,-1.672583461,89614.000000000,1718094095.875096321
1718094095.876103,,,,-1.627703071,-1.629598856,89615.000000000,1718094095.876103401
1718094095.877110,,,,-1.547623992,-1.549471736,89616.000000000,1718094095.877110481
1718094095.878118,,,,-1.316137552,-1.317624807,89617.000000000,1718094095.878117561
1718094095.879125,,,,-1.281254768,-1.283559322,89618.000000000,1718094095.879124641
1718094095.880132,,,,-1.405328035,-1.405108333,89619.000000000,1718094095.880131721
1718094095.881139,,,,-1.482906818,-1.485812426,89620.000000000,1718094095.881138802
1718094095.882146,,,,-1.189179540,-1.189632893,89621.000000000,1718094095.882145882
1718094095.883153,,,,-0.297900409,-0.297584563,89622.000000000,1718094095.883152962
1718094095.884160,,,,-0.003932655,-0.005948727,89623.000000000,1718094095.884160042
1718094095.885167,,,,-0.337663472,-0.338549644,89624.000000000,1718094095.885167122
1718094095.886174,,,,-0.696107984,-0.699999213,89625.000000000,1718094095.886174202
1718094095.887181,,,,-1.012673855,-1.014545679,89626.000000000,1718094095.887181282
1718094095.888188,,,,-1.535771966,-1.537066817,89627.000000000,1718094095.888188362
1718094095.889195,,,,-2.239823341,-2.240300894,89628.000000000,1718094095.889195442
1718094095.890203,,,,-2.796602249,-2.798257828,89629.000000000,1718094095.890202522
1718094095.891210,,,,-3.032223701,-3.034432173,89630.000000000,1718094095.891209602
1718094095.892217,,,,-2.624015331,-2.623771429,89631.000000000,1718094095.892216682
1718094095.893224,,,,-2.124548912,-2.124281168,89632.000000000,1718094095.893223763
1718094095.894231,,,,-2.004418373,-2.005160332,89633.000000000,1718094095.894230843
1718094095.895238,,,,-2.028555155,-2.031100035,89634.000000000,1718094095.895237923
1718094095.896245,,,,-2.063702345,-2.065910816,89635.000000000,1718094095.896245003
1718094095.897252,,,,-2.028434753,-2.026916981,89636.000000000,1718094095.897252083
1718094095.898259,,,,-1.944196820,-1.942847133,89637.000000000,1718094095.898259163
1718094095.899266,,,,-1.567241073,-1.568199396,89638.000000000,1718094095.899266243
1718094095.900273,,,,-1.426339507,-1.427273750,89639.000000000,1718094095.900273323
1718094095.901280,,,,-1.505504966,-1.506246924,89640.000000000,1718094095.901280403
1718094095.902287,,,,-1.618447423,-1.617482424,89641.000000000,1718094095.902287483
1718094095.903295,,,,-1.624914289,-1.625055194,89642.000000000,1718094095.903294563
1718094095.904302,,,,-1.597844720,-1.595365167,89643.000000000,1718094095.904301643
1718094095.905309,,,,-1.562168479,-1.560241938,89644.000000000,1718094095.905308723
1718094095.906316,,,,-1.533680439,-1.533172250,89645.000000000,1718094095.906315804
1718094095.907323,,,,-1.654676557,-1.657582164,89646.000000000,1718094095.907322884
1718094095.908178,372.966033936,18091.000000000,1718094095.908178091,,,,
1718094095.908330,,,,-1.841904283,-1.843102932,89647.000000000,1718094095.908329964
1718094095.909337,,,,-1.895682931,-1.897458673,89648.000000000,1718094095.909337044
1718094095.910344,,,,-1.937176943,-1.939890146,89649.000000000,1718094095.910344124
1718094095.911351,,,,-1.891475916,-1.891712904,89650.000000000,1718094095.911351204
1718094095.912358,,,,-1.792140365,-1.791367769,89651.000000000,1718094095.912358284
1718094095.913178,373.526947021,18092.000000000,1718094095.913178205,,,,
1718094095.913365,,,,-1.790794134,-1.789805055,89652.000000000,1718094095.913365364
1718094095.914372,,,,-1.779158473,-1.778001189,89653.000000000,1718094095.914372444
1718094095.915380,,,,-1.682371259,-1.684795976,89654.000000000,1718094095.915379524
1718094095.916387,,,,-1.509399533,-1.511896372,89655.000000000,1718094095.916386604
1718094095.917394,,,,-1.421843886,-1.424172521,89656.000000000,1718094095.917393684
1718094095.918178,373.873504639,18093.000000000,1718094095.918178082,,,,
1718094095.918401,,,,-1.261781931,-1.261393905,89657.000000000,1718094095.918400764
1718094095.919408,,,,-1.094171286,-1.092941880,89658.000000000,1718094095.919407845
1718094095.920415,,,,-1.035199881,-1.033922315,89659.000000000,1718094095.920414925
1718094095.921422,,,,-1.004475951,-1.002212882,89660.000000000,1718094095.921422005
1718094095.922429,,,,-0.860761642,-0.859027386,89661.000000000,1718094095.922429085
1718094095.923178,374.352172852,18094.000000000,1718094095.923178196,,,,
1718094095.923436,,,,-0.839004934,-0.841165245,89662.000000000,1718094095.923436165
1718094095.924443,,,,-0.824580610,-0.824024379,89663.000000000,1718094095.924443245
1718094095.925450,,,,-0.825975001,-0.825827420,89664.000000000,1718094095.925450325
1718094095.926457,,,,-1.001374722,-1.003318787,89665.000000000,1718094095.926457405
1718094095.927464,,,,-1.348856807,-1.349935293,89666.000000000,1718094095.927464485
1718094095.928178,374.632873535,18095.000000000,1718094095.928178072,,,,
1718094095.928472,,,,-1.857146025,-1.857527256,89667.000000000,1718094095.928471565
1718094095.929479,,,,-2.449625254,-2.452651024,89668.000000000,1718094095.929478645
1718094095.930486,,,,-2.823311329,-2.825712204,89669.000000000,1718094095.930485725
1718094095.931493,,,,-2.762296438,-2.766500235,89670.000000000,1718094095.931492805
1718094095.932500,,,,-2.394115448,-2.397189379,89671.000000000,1718094095.932499886
1718094095.933178,374.764953613,18096.000000000,1718094095.933178186,,,,
1718094095.933507,,,,-2.043772697,-2.045380116,89672.000000000,1718094095.933506966
1718094095.934514,,,,-1.996268630,-1.996024847,89673.000000000,1718094095.934514046
1718094095.935521,,,,-2.062957048,-2.064564466,89674.000000000,1718094095.935521126
1718094095.936528,,,,-2.004057646,-2.004174709,89675.000000000,1718094095.936528206
1718094095.937535,,,,-1.757281542,-1.756484866,89676.000000000,1718094095.937535286
1718094095.938178,374.830993652,18097.000000000,1718094095.938178062,,,,
1718094095.938542,,,,-1.534425735,-1.535432100,89677.000000000,1718094095.938542366
1718094095.939549,,,,-1.521924615,-1.521704912,89678.000000000,1718094095.939549446
1718094095.940557,,,,-1.681481719,-1.678497434,89679.000000000,1718094095.940556526
1718094095.941564,,,,-1.874118567,-1.874860525,89680.000000000,1718094095.941563606
1718094095.942571,,,,-1.910708308,-1.912988782,89681.000000000,1718094095.942570686
1718094095.943178,374.748474121,18098.000000000,1718094095.943178177,,,,
1718094095.943578,,,,-1.708839893,-1.708139420,89682.000000000,1718094095.943577766
1718094095.944585,,,,-1.615442395,-1.616400599,89683.000000000,1718094095.944584846
1718094095.945592,,,,-1.706003070,-1.708523989,89684.000000000,1718094095.945591927
1718094095.946599,,,,-1.761969447,-1.760595798,89685.000000000,1718094095.946599007
1718094095.947606,,,,-1.734972000,-1.736146569,89686.000000000,1718094095.947606087
1718094095.948178,374.649414063,18099.000000000,1718094095.948178053,,,,
1718094095.948613,,,,-1.736077785,-1.734920502,89687.000000000,1718094095.948613167
1718094095.949620,,,,-1.721821785,-1.722900271,89688.000000000,1718094095.949620247
1718094095.950627,,,,-1.679462314,-1.681165934,89689.000000000,1718094095.950627327
1718094095.951558,374.220123291,18101.000000000,1718094095.951558352,,,,
1718094095.951634,,,,-1.535074830,-1.535432100,89690.000000000,1718094095.951634407
1718094095.952641,,,,-1.269931674,-1.270841837,89691.000000000,1718094095.952641487
1718094095.953178,374.401733398,18100.000000000,1718094095.953178167,,,,
1718094095.953649,,,,-0.931873560,-0.933432877,89692.000000000,1718094095.953648567
1718094095.954656,,,,-0.733851612,-0.735074341,89693.000000000,1718094095.954655647
1718094095.955663,,,,-0.621510148,-0.619583607,89694.000000000,1718094095.955662727
1718094095.956558,374.055053711,18102.000000000,1718094095.956558466,,,,
1718094095.956670,,,,-0.840783954,-0.839963257,89695.000000000,1718094095.956669807
1718094095.957677,,,,-1.385302305,-1.386573076,89696.000000000,1718094095.957676888
1718094095.958684,,,,-1.541685939,-1.542956829,89697.000000000,1718094095.958683968
1718094095.959691,,,,-1.708719730,-1.708836555,89698.000000000,1718094095.959691048
1718094095.960698,,,,-2.126616478,-2.127694845,89699.000000000,1718094095.960698128
1718094095.961705,,,,-2.418588877,-2.420316458,89700.000000000,1718094095.961705208
1718094095.962712,,,,-2.454529524,-2.454574108,89701.000000000,1718094095.962712288
1718094095.963719,,,,-2.361781120,-2.364157677,89702.000000000,1718094095.963719368
1718094095.964726,,,,-2.072212696,-2.074036360,89703.000000000,1718094095.964726448
1718094095.965734,,,,-1.798655391,-1.797642350,89704.000000000,1718094095.965733528
1718094095.966741,,,,-1.635323882,-1.634455085,89705.000000000,1718094095.966740608
1718094095.967748,,,,-1.166292906,-1.165568352,89706.000000000,1718094095.967747688
1718094095.968755,,,,-0.803689420,-0.802339792,89707.000000000,1718094095.968754768
1718094095.969762,,,,-0.707382977,-0.706586301,89708.000000000,1718094095.969761848
1718094095.970769,,,,-0.811165988,-0.810705900,89709.000000000,1718094095.970768929
1718094095.971776,,,,-1.096911907,-1.100202084,89710.000000000,1718094095.971776009
1718094095.972783,,,,-1.268320918,-1.270361066,89711.000000000,1718094095.972783089
1718094095.973790,,,,-1.495432019,-1.497880816,89712.000000000,1718094095.973790169
1718094095.974797,,,,-1.966794848,-1.966262698,89713.000000000,1718094095.974797249
1718094095.975804,,,,-2.370339394,-2.369110107,89714.000000000,1718094095.975804329
1718094095.976811,,,,-2.339158773,-2.338650703,89715.000000000,1718094095.976811409
1718094095.977818,,,,-2.263286829,-2.264437437,89716.000000000,1718094095.977818489
1718094095.978826,,,,-2.262084961,-2.263427734,89717.000000000,1718094095.978825569
1718094095.979833,,,,-2.112432480,-2.112357140,89718.000000000,1718094095.979832649
1718094095.980840,,,,-1.961025119,-1.962127686,89719.000000000,1718094095.980839729
1718094095.981847,,,,-1.846327782,-1.847935081,89720.000000000,1718094095.981846809
1718094095.982854,,,,-1.795938730,-1.797041297,89721.000000000,1718094095.982853889
1718094095.983861,,,,-1.552143574,-1.551611423,89722.000000000,1718094095.983860970
1718094095.984868,,,,-1.143959284,-1.144316554,89723.000000000,1718094095.984868050
1718094095.985875,,,,-1.105470300,-1.105443001,89724.000000000,1718094095.985875130
1718094095.986882,,,,-1.272503972,-1.270096660,89725.000000000,1718094095.986882210
1718094095.987889,,,,-1.441244602,-1.439967155,89726.000000000,1718094095.987889290
1718094095.988896,,,,-1.716629028,-1.715615988,89727.000000000,1718094095.988896370
1718094095.989903,,,,-1.925324917,-1.927148700,89728.000000000,1718094095.989903450
1718094095.990911,,,,-2.071779966,-2.073459387,89729.000000000,1718094095.990910530
1718094095.991918,,,,-2.189795017,-2.191715002,89730.000000000,1718094095.991917610
1718094095.992925,,,,-2.114572048,-2.115722656,89731.000000000,1718094095.992924690
1718094095.993932,,,,-1.912006497,-1.911738753,89732.000000000,1718094095.993931770
1718094095.994939,,,,-1.792428851,-1.791728377,89733.000000000,1718094095.994938850
1718094095.995946,,,,-1.748915434,-1.750907540,89734.000000000,1718094095.995945930
1718094095.996953,,,,-1.605513573,-1.608419180,89735.000000000,1718094095.996953011
1718094095.997960,,,,-1.430113792,-1.432370305,89736.000000000,1718094095.997960091
1718094095.998967,,,,-1.458794236,-1.460377574,89737.000000000,1718094095.998967171
1718094095.999974,,,,-1.611956477,-1.615559220,89738.000000000,1718094095.999974251
1718094096.000981,,,,-1.717350245,-1.721217394,89739.000000000,1718094096.000981331
1718094096.001558,377.094818115,18111.000000000,1718094096.001558304,,,,
1718094096.001988,,,,-1.741150379,-1.742397189,89740.000000000,1718094096.001988411
1718094096.002995,,,,-1.719586015,-1.720496178,89741.000000000,1718094096.002995491
1718094096.004003,,,,-1.630660057,-1.630536437,89742.000000000,1718094096.004002571
1718094096.005010,,,,-1.513582587,-1.514709115,89743.000000000,1718094096.005009651
1718094096.006017,,,,-1.419680238,-1.420806766,89744.000000000,1718094096.006016731
1718094096.006558,377.160980225,18112.000000000,1718094096.006558418,,,,
1718094096.007024,,,,-1.295005918,-1.296853781,89745.000000000,1718094096.007023811
1718094096.008031,,,,-1.193098068,-1.192926526,89746.000000000,1718094096.008030891
1718094096.009038,,,,-1.292217255,-1.294257402,89747.000000000,1718094096.009037971
1718094096.010045,,,,-1.451533914,-1.454631805,89748.000000000,1718094096.010045052
1718094096.011052,,,,-1.704248190,-1.705206394,89749.000000000,1718094096.011052132
1718094096.011558,377.210601807,18113.000000000,1718094096.011558294,,,,
1718094096.012059,,,,-1.923041105,-1.923566699,89750.000000000,1718094096.012059212
1718094096.013066,,,,-1.975617766,-1.978571415,89751.000000000,1718094096.013066292
1718094096.014073,,,,-1.920276403,-1.921018362,89752.000000000,1718094096.014073372
1718094096.015080,,,,-1.809665918,-1.811032891,89753.000000000,1718094096.015080452
1718094096.016088,,,,-1.486464858,-1.484490156,89754.000000000,1718094096.016087532
1718094096.016558,377.210601807,18114.000000000,1718094096.016558409,,,,
1718094096.017095,,,,-0.895981014,-0.893741965,89755.000000000,1718094096.017094612
1718094096.018102,,,,-0.347351819,-0.345521390,89756.000000000,1718094096.018101692
1718094096.019109,,,,-0.445581466,-0.445361763,89757.000000000,1718094096.019108772
1718094096.020116,,,,-1.074578285,-1.075993299,89758.000000000,1718094096.020115852
1718094096.021123,,,,-1.558033586,-1.559256315,89759.000000000,1718094096.021122932
1718094096.021558,377.243682861,18115.000000000,1718094096.021558285,,,,
1718094096.022130,,,,-1.623063207,-1.622050166,89760.000000000,1718094096.022130013
1718094096.023137,,,,-1.714297056,-1.714389920,89761.000000000,1718094096.023137093
1718094096.024144,,,,-1.975786090,-1.976503968,89762.000000000,1718094096.024144173
1718094096.025151,,,,-2.235664368,-2.237800598,89763.000000000,1718094096.025151253
1718094096.026158,,,,-2.392432690,-2.396708488,89764.000000000,1718094096.026158333
1718094096.026558,377.094818115,18116.000000000,1718094096.026558399,,,,
1718094096.027165,,,,-2.396880150,-2.401997566,89765.000000000,1718094096.027165413
1718094096.028172,,,,-2.174048424,-2.179478168,89766.000000000,1718094096.028172493
1718094096.029180,,,,-2.063606262,-2.065021276,89767.000000000,1718094096.029179573
1718094096.030187,,,,-2.008240700,-2.012564659,89768.000000000,1718094096.030186653
1718094096.031194,,,,-1.869647026,-1.872576714,89769.000000000,1718094096.031193733
1718094096.031558,376.979064941,18117.000000000,1718094096.031558275,,,,
1718094096.032201,,,,-1.645541072,-1.646571517,89770.000000000,1718094096.032200813
1718094096.033208,,,,-1.541397452,-1.539735317,89771.000000000,1718094096.033207893
1718094096.034215,,,,-1.408837914,-1.409676075,89772.000000000,1718094096.034214973
1718094096.035222,,,,-1.340995550,-1.341833591,89773.000000000,1718094096.035222054
1718094096.036229,,,,-1.536637425,-1.537331343,89774.000000000,1718094096.036229134
1718094096.036558,376.979064941,18118.000000000,1718094096.036558390,,,,
1718094096.037236,,,,-1.747449040,-1.748166919,89775.000000000,1718094096.037236214
1718094096.038243,,,,-1.753771663,-1.753143311,89776.000000000,1718094096.038243294
1718094096.039250,,,,-1.748867393,-1.747662067,89777.000000000,1718094096.039250374
1718094096.040257,,,,-1.721124649,-1.720712543,89778.000000000,1718094096.040257454
1718094096.041265,,,,-1.700137258,-1.700999379,89779.000000000,1718094096.041264534
1718094096.041558,376.962554932,18119.000000000,1718094096.041558266,,,,
1718094096.042272,,,,-1.757738352,-1.757951379,89780.000000000,1718094096.042271614
1718094096.043279,,,,-1.721028447,-1.723861933,89781.000000000,1718094096.043278694
1718094096.044286,,,,-1.580799937,-1.581109166,89782.000000000,1718094096.044285774
1718094096.045293,,,,-1.684366584,-1.687200069,89783.000000000,1718094096.045292854
1718094096.046300,,,,-1.893351078,-1.893900633,89784.000000000,1718094096.046299934
1718094096.046558,376.896423340,18120.000000000,1718094096.046558380,,,,
1718094096.047307,,,,-1.968309402,-1.970397711,89785.000000000,1718094096.047307014
1718094096.048314,,,,-1.916069388,-1.917748809,89786.000000000,1718094096.048314095
1718094096.049321,,,,-1.542743802,-1.544423223,89787.000000000,1718094096.049321175
1718094096.050328,,,,-1.102393150,-1.102558136,89788.000000000,1718094096.050328255
1718094096.051335,,,,-1.139728069,-1.139316082,89789.000000000,1718094096.051335335
1718094096.052342,,,,-1.347943306,-1.349743009,89790.000000000,1718094096.052342415
1718094096.053349,,,,-1.540964723,-1.542139411,89791.000000000,1718094096.053349495
1718094096.054357,,,,-1.655950665,-1.657173395,89792.000000000,1718094096.054356575
1718094096.055364,,,,-1.522237182,-1.522882938,89793.000000000,1718094096.055363655
1718094096.056371,,,,-1.503389359,-1.504059196,89794.000000000,1718094096.056370735
1718094096.057378,,,,-1.621548653,-1.623035789,89795.000000000,1718094096.057377815
1718094096.058385,,,,-1.330898523,-1.327313185,89796.000000000,1718094096.058384895
1718094096.059392,,,,-0.978271842,-0.976898193,89797.000000000,1718094096.059391975
1718094096.060399,,,,-1.055466056,-1.055679083,89798.000000000,1718094096.060399055
1718094096.061406,,,,-1.201031446,-1.202037811,89799.000000000,1718094096.061406136
1718094096.062413,,,,-1.222379446,-1.222087622,89800.000000000,1718094096.062413216
1718094096.063420,,,,-1.391360521,-1.393184185,89801.000000000,1718094096.063420296
1718094096.064427,,,,-1.664605260,-1.667751312,89802.000000000,1718094096.064427376
1718094096.065434,,,,-1.915588498,-1.914575458,89803.000000000,1718094096.065434456
1718094096.066442,,,,-2.139502048,-2.140508652,89804.000000000,1718094096.066441536
1718094096.067449,,,,-2.229173422,-2.230516434,89805.000000000,1718094096.067448616
1718094096.068456,,,,-2.246362448,-2.246455193,89806.000000000,1718094096.068455696
1718094096.069463,,,,-2.276172638,-2.280063868,89807.000000000,1718094096.069462776
1718094096.070470,,,,-2.220855474,-2.225371599,89808.000000000,1718094096.070469856
1718094096.071477,,,,-2.084280968,-2.086152792,89809.000000000,1718094096.071476936
1718094096.072484,,,,-1.947201848,-1.949794888,89810.000000000,1718094096.072484016
1718094096.073491,,,,-1.722302556,-1.724823475,89811.000000000,1718094096.073491096
1718094096.074498,,,,-1.576376438,-1.576204896,89812.000000000,1718094096.074498177
1718094096.075505,,,,-1.593974113,-1.594956517,89813.000000000,1718094096.075505257
1718094096.076512,,,,-1.677635312,-1.678208947,89814.000000000,1718094096.076512337
1718094096.077519,,,,-1.690665245,-1.691190839,89815.000000000,1718094096.077519417
1718094096.078526,,,,-1.640107989,-1.640585423,89816.000000000,1718094096.078526497
1718094096.079534,,,,-1.631116748,-1.632531881,89817.000000000,1718094096.079533577
1718094096.080541,,,,-1.627703071,-1.628949761,89818.000000000,1718094096.080540657
1718094096.081548,,,,-1.711051583,-1.713284016,89819.000000000,1718094096.081547737
1718094096.082555,,,,-1.791996121,-1.793266892,89820.000000000,1718094096.082554817
1718094096.083562,,,,-1.799472690,-1.800935864,89821.000000000,1718094096.083561897
1718094096.084569,,,,-1.775792837,-1.774467230,89822.000000000,1718094096.084568977
1718094096.085576,,,,-1.725163460,-1.723164678,89823.000000000,1718094096.085576057
1718094096.086583,,,,-1.751487851,-1.753143311,89824.000000000,1718094096.086583138
1718094096.087590,,,,-1.753651500,-1.755787730,89825.000000000,1718094096.087590218
1718094096.088597,,,,-1.656984448,-1.657510042,89826.000000000,1718094096.088597298
1718094096.089604,,,,-1.555917978,-1.557982087,89827.000000000,1718094096.089604378
1718094096.090611,,,,-1.390663266,-1.387991428,89828.000000000,1718094096.090611458
1718094096.091619,,,,-1.379821062,-1.377798319,89829.000000000,1718094096.091618538
1718094096.092626,,,,-1.318541646,-1.317384362,89830.000000000,1718094096.092625618
1718094096.093633,,,,-1.135448933,-1.135710001,89831.000000000,1718094096.093632698
1718094096.094640,,,,-1.255651593,-1.256441593,89832.000000000,1718094096.094639778
1718094096.095292,382.859313965,18131.000000000,1718094096.095291615,,,,
1718094096.095647,,,,-1.467472792,-1.465882778,89833.000000000,1718094096.095646858
1718094096.096654,,,,-1.665374517,-1.665275097,89834.000000000,1718094096.096653938
1718094096.097661,,,,-1.785288811,-1.786030769,89835.000000000,1718094096.097661018
1718094096.098668,,,,-1.730933189,-1.731194258,89836.000000000,1718094096.098668098
1718094096.099675,,,,-1.818344593,-1.819326878,89837.000000000,1718094096.099675179
1718094096.100292,383.407043457,18132.000000000,1718094096.100291729,,,,
1718094096.100682,,,,-1.759493351,-1.758552432,89838.000000000,1718094096.100682259
1718094096.101689,,,,-1.366262197,-1.365537643,89839.000000000,1718094096.101689339
1718094096.102696,,,,-1.032915950,-1.036326408,89840.000000000,1718094096.102696419
1718094096.103703,,,,-1.112081528,-1.113809109,89841.000000000,1718094096.103703499
1718094096.104711,,,,-1.345827699,-1.346930265,89842.000000000,1718094096.104710579
1718094096.105292,383.905090332,18133.000000000,1718094096.105291605,,,,
1718094096.105718,,,,-1.630347490,-1.633685827,89843.000000000,1718094096.105717659
1718094096.106725,,,,-1.816349149,-1.818894148,89844.000000000,1718094096.106724739
1718094096.107732,,,,-1.872291565,-1.872336268,89845.000000000,1718094096.107731819
1718094096.108739,,,,-1.965881348,-1.963546038,89846.000000000,1718094096.108738899
1718094096.109746,,,,-1.912030578,-1.911426187,89847.000000000,1718094096.109745979
1718094096.110292,384.303649902,18134.000000000,1718094096.110291719,,,,
1718094096.110753,,,,-1.749011636,-1.747565866,89848.000000000,1718094096.110753059
1718094096.111760,,,,-1.695088744,-1.694965124,89849.000000000,1718094096.111760139
1718094096.112767,,,,-1.735284448,-1.736795664,89850.000000000,1718094096.112767220
1718094096.113774,,,,-1.799641013,-1.801224351,89851.000000000,1718094096.113774300
1718094096.114781,,,,-1.833658338,-1.837237120,89852.000000000,1718094096.114781380
1718094096.115292,384.586059570,18135.000000000,1718094096.115291595,,,,
1718094096.115788,,,,-1.803247094,-1.802258134,89853.000000000,1718094096.115788460
1718094096.116796,,,,-1.845630527,-1.841828823,89854.000000000,1718094096.116795540
1718094096.117803,,,,-1.784976244,-1.785670161,89855.000000000,1718094096.117802620
1718094096.118810,,,,-1.639266491,-1.638349652,89856.000000000,1718094096.118809700
1718094096.119817,,,,-1.530122519,-1.528171897,89857.000000000,1718094096.119816780
1718094096.120292,384.768829346,18136.000000000,1718094096.120291710,,,,
1718094096.120824,,,,-1.485671520,-1.485283494,89858.000000000,1718094096.120823860
1718094096.121831,,,,-1.447471142,-1.447467804,89859.000000000,1718094096.121830940
1718094096.122838,,,,-1.299838066,-1.301613808,89860.000000000,1718094096.122838020
1718094096.123845,,,,-1.273946404,-1.274255633,89861.000000000,1718094096.123845100
1718094096.124852,,,,-1.344697833,-1.345872402,89862.000000000,1718094096.124852180
1718094096.125292,384.818634033,18137.000000000,1718094096.125291586,,,,
1718094096.125859,,,,-1.280028701,-1.281203389,89863.000000000,1718094096.125859261
1718094096.126866,,,,-1.211705446,-1.211197257,89864.000000000,1718094096.126866341
1718094096.127873,,,,-1.265147567,-1.265336633,89865.000000000,1718094096.127873421
1718094096.128881,,,,-1.688044786,-1.690109015,89866.000000000,1718094096.128880501
1718094096.129888,,,,-2.213811398,-2.215370893,89867.000000000,1718094096.129887581
1718094096.130292,384.785400391,18138.000000000,1718094096.130291700,,,,
1718094096.130895,,,,-2.430344582,-2.425821781,89868.000000000,1718094096.130894661
1718094096.131902,,,,-2.375700474,-2.375601053,89869.000000000,1718094096.131901741
1718094096.132909,,,,-2.114379883,-2.117477655,89870.000000000,1718094096.132908821
1718094096.133916,,,,-1.936383605,-1.938856483,89871.000000000,1718094096.133915901
1718094096.134923,,,,-1.943571687,-1.944457889,89872.000000000,1718094096.134922981
1718094096.135292,384.752166748,18139.000000000,1718094096.135291576,,,,
1718094096.135930,,,,-1.933017969,-1.930682659,89873.000000000,1718094096.135930061
1718094096.136937,,,,-1.852818727,-1.853656769,89874.000000000,1718094096.136937141
1718094096.137944,,,,-1.731438041,-1.733189583,89875.000000000,1718094096.137944221
1718094096.138951,,,,-1.437999129,-1.438813210,89876.000000000,1718094096.138951302
1718094096.139958,,,,-1.334167957,-1.335751414,89877.000000000,1718094096.139958382
1718094096.140292,384.619262695,18140.000000000,1718094096.140291691,,,,
1718094096.140965,,,,-1.383691549,-1.385106564,89878.000000000,1718094096.140965462
1718094096.141973,,,,-1.203483582,-1.202109933,89879.000000000,1718094096.141972542
1718094096.142980,,,,-1.252045512,-1.251152635,89880.000000000,1718094096.142979622
1718094096.143987,,,,-1.518823385,-1.519108534,89881.000000000,1718094096.143986702
1718094096.144994,,,,-1.498004317,-1.498025060,89882.000000000,1718094096.144993782
1718094096.146001,,,,-1.363473415,-1.363806725,89883.000000000,1718094096.146000862
1718094096.147008,,,,-1.209445715,-1.211004972,89884.000000000,1718094096.147007942
1718094096.148015,,,,-1.182424068,-1.183334351,89885.000000000,1718094096.148015022
1718094096.149022,,,,-1.486080170,-1.487423182,89886.000000000,1718094096.149022102
1718094096.149881,384.503021240,18141.000000000,1718094096.149881124,,,,
1718094096.150029,,,,-1.719465852,-1.720135570,89887.000000000,1718094096.150029182
1718094096.151036,,,,-1.823489189,-1.824567676,89888.000000000,1718094096.151036263
1718094096.152043,,,,-1.935998917,-1.937389970,89889.000000000,1718094096.152043343
1718094096.153050,,,,-2.061490536,-2.065910816,89890.000000000,1718094096.153050423
1718094096.154058,,,,-2.077765942,-2.080094576,89891.000000000,1718094096.154057503
1718094096.154881,384.453155518,18142.000000000,1718094096.154881239,,,,
1718094096.155065,,,,-1.936503768,-1.936812997,89892.000000000,1718094096.155064583
1718094096.156072,,,,-1.804905891,-1.804229379,89893.000000000,1718094096.156071663
1718094096.157079,,,,-1.736967325,-1.737949610,89894.000000000,1718094096.157078743
1718094096.158086,,,,-1.613591194,-1.615823627,89895.000000000,1718094096.158085823
1718094096.159093,,,,-1.523511291,-1.527955532,89896.000000000,1718094096.159092903
1718094096.159881,384.519592285,18143.000000000,1718094096.159881115,,,,
1718094096.160100,,,,-1.630587935,-1.635849476,89897.000000000,1718094096.160099983
1718094096.161107,,,,-1.761969447,-1.762278676,89898.000000000,1718094096.161107063
1718094096.162114,,,,-1.809497595,-1.807018161,89899.000000000,1718094096.162114143
1718094096.163121,,,,-1.781538486,-1.781583190,89900.000000000,1718094096.163121223
1718094096.164128,,,,-1.559163451,-1.561972857,89901.000000000,1718094096.164128304
1718094096.164881,384.602691650,18144.000000000,1718094096.164881229,,,,
1718094096.165135,,,,-1.325777888,-1.326255322,89902.000000000,1718094096.165135384
1718094096.166142,,,,-1.255915999,-1.256465673,89903.000000000,1718094096.166142464
1718094096.167150,,,,-1.217907906,-1.217183352,89904.000000000,1718094096.167149544
1718094096.168157,,,,-1.405279994,-1.408642292,89905.000000000,1718094096.168156624
1718094096.169164,,,,-1.816589594,-1.820985675,89906.000000000,1718094096.169163704
1718094096.169881,384.802032471,18145.000000000,1718094096.169881105,,,,
1718094096.170171,,,,-2.067957401,-2.069180250,89907.000000000,1718094096.170170784
1718094096.171178,,,,-2.095988750,-2.096225739,89908.000000000,1718094096.171177864
1718094096.172185,,,,-2.030286074,-2.030210495,89909.000000000,1718094096.172184944
1718094096.173192,,,,-1.932272673,-1.933831930,89910.000000000,1718094096.173192024
1718094096.174199,,,,-1.887893796,-1.890703201,89911.000000000,1718094096.174199104
1718094096.174881,385.084533691,18146.000000000,1718094096.174881220,,,,
1718094096.175206,,,,-1.847024918,-1.847911119,89912.000000000,1718094096.175206184
1718094096.176213,,,,-1.832961202,-1.834159851,89913.000000000,1718094096.176213264
1718094096.177220,,,,-1.740813851,-1.739488244,89914.000000000,1718094096.177220345
1718094096.178227,,,,-1.513606668,-1.513627291,89915.000000000,1718094096.178227425
1718094096.179235,,,,-1.198795676,-1.197975039,89916.000000000,1718094096.179234505
1718094096.179881,385.433563232,18147.000000000,1718094096.179881096,,,,
1718094096.180242,,,,-1.160643339,-1.158909082,89917.000000000,1718094096.180241585
1718094096.181249,,,,-1.368834496,-1.370850563,89918.000000000,1718094096.181248665
1718094096.182256,,,,-1.441725373,-1.444606900,89919.000000000,1718094096.182255745
1718094096.183263,,,,-1.542214870,-1.544134736,89920.000000000,1718094096.183262825
1718094096.184270,,,,-1.516491532,-1.517786384,89921.000000000,1718094096.184269905
1718094096.185277,,,,-1.510625601,-1.511800289,89922.000000000,1718094096.185276985
1718094096.186284,,,,-1.618976355,-1.619069099,89923.000000000,1718094096.186284065
1718094096.187291,,,,-1.700113177,-1.702225447,89924.000000000,1718094096.187291145
1718094096.188298,,,,-1.650156856,-1.650658488,89925.000000000,1718094096.188298225
1718094096.189305,,,,-1.746367216,-1.743382812,89926.000000000,1718094096.189305305
1718094096.190312,,,,-1.951216578,-1.954122186,89927.000000000,1718094096.190312386
1718094096.191319,,,,-2.057187319,-2.057328224,89928.000000000,1718094096.191319466
1718094096.192327,,,,-2.129429102,-2.129954815,89929.000000000,1718094096.192326546
1718094096.193334,,,,-1.907390714,-1.904790998,89930.000000000,1718094096.193333626
1718094096.194341,,,,-1.609768748,-1.608539343,89931.000000000,1718094096.194340706
1718094096.195348,,,,-1.446365237,-1.445736885,89932.000000000,1718094096.195347786
1718094096.196355,,,,-1.387946725,-1.389938712,89933.000000000,1718094096.196354866
1718094096.197362,,,,-1.418478251,-1.419051886,89934.000000000,1718094096.197361946
1718094096.198369,,,,-1.505408764,-1.505165100,89935.000000000,1718094096.198369026
1718094096.199376,,,,-1.495816588,-1.499395370,89936.000000000,1718094096.199376106
1718094096.199881,386.514343262,18151.000000000,1718094096.199881077,,,,
1718094096.200383,,,,-1.522886276,-1.527065992,89937.000000000,1718094096.200383186
1718094096.201390,,,,-1.664677382,-1.667222381,89938.000000000,1718094096.201390266
1718094096.202397,,,,-1.800266027,-1.803748608,89939.000000000,1718094096.202397346
1718094096.203404,,,,-1.743434191,-1.745330095,89940.000000000,1718094096.203404427
1718094096.204412,,,,-1.558466315,-1.557381153,89941.000000000,1718094096.204411507
1718094096.204881,386.664062500,18152.000000000,1718094096.204881191,,,,
1718094096.205419,,,,-1.420810103,-1.419580698,89942.000000000,1718094096.205418587
1718094096.206426,,,,-1.460356832,-1.462132454,89943.000000000,1718094096.206425667
1718094096.207433,,,,-1.592002869,-1.593802571,89944.000000000,1718094096.207432747
1718094096.208440,,,,-1.815219283,-1.816658378,89945.000000000,1718094096.208439827
1718094096.209447,,,,-1.962299347,-1.964267254,89946.000000000,1718094096.209446907
1718094096.209881,386.713928223,18153.000000000,1718094096.209881067,,,,
1718094096.210454,,,,-2.028891563,-2.028263330,89947.000000000,1718094096.210453987
1718094096.211461,,,,-1.930493712,-1.929360390,89948.000000000,1718094096.211461067
1718094096.212468,,,,-1.472569466,-1.473479629,89949.000000000,1718094096.212468147
1718094096.213475,,,,-1.239953160,-1.240598917,89950.000000000,1718094096.213475227
1718094096.214482,,,,-1.277480364,-1.276852012,89951.000000000,1718094096.214482307
1718094096.214881,386.763885498,18154.000000000,1718094096.214881182,,,,
1718094096.215489,,,,-1.414559603,-1.415565968,89952.000000000,1718094096.215489388
1718094096.216496,,,,-1.640781045,-1.643782854,89953.000000000,1718094096.216496468
1718094096.217504,,,,-1.798222661,-1.797906756,89954.000000000,1718094096.217503548
1718094096.218511,,,,-1.825797081,-1.825841904,89955.000000000,1718094096.218510628
1718094096.219518,,,,-1.971458793,-1.971022725,89956.000000000,1718094096.219517708
1718094096.219881,386.680664063,18155.000000000,1718094096.219881058,,,,
1718094096.220525,,,,-2.050816536,-2.052351952,89957.000000000,1718094096.220524788
1718094096.221532,,,,-1.879696012,-1.883178592,89958.000000000,1718094096.221531868
1718094096.222539,,,,-1.632847667,-1.634142518,89959.000000000,1718094096.222538948
1718094096.223546,,,,-1.629001260,-1.630584598,89960.000000000,1718094096.223546028
1718094096.224553,,,,-1.758483648,-1.759634256,89961.000000000,1718094096.224553108
1718094096.224881,386.547607422,18156.000000000,1718094096.224881172,,,,
1718094096.225560,,,,-1.866233349,-1.866374254,89962.000000000,1718094096.225560188
1718094096.226567,,,,-1.918569565,-1.921114564,89963.000000000,1718094096.226567268
1718094096.227574,,,,-1.900178552,-1.902314782,89964.000000000,1718094096.227574348
1718094096.228581,,,,-1.802333593,-1.804277539,89965.000000000,1718094096.228581429
1718094096.229589,,,,-1.614649057,-1.611977220,89966.000000000,1718094096.229588509
1718094096.229881,386.431213379,18157.000000000,1718094096.229881048,,,,
1718094096.230596,,,,-1.425954819,-1.425446630,89967.000000000,1718094096.230595589
1718094096.231603,,,,-1.394629955,-1.395780563,89968.000000000,1718094096.231602669
1718094096.232610,,,,-1.353664875,-1.355176091,89969.000000000,1718094096.232609749
1718094096.233617,,,,-1.501730561,-1.504636168,89970.000000000,1718094096.233616829
1718094096.234624,,,,-1.786082149,-1.788699269,89971.000000000,1718094096.234623909
1718094096.234881,386.331359863,18158.000000000,1718094096.234881163,,,,
1718094096.235631,,,,-1.748723149,-1.750907540,89972.000000000,1718094096.235630989
1718094096.236638,,,,-1.476896763,-1.477831006,89973.000000000,1718094096.236638069
1718094096.237645,,,,-1.368834496,-1.367124319,89974.000000000,1718094096.237645149
1718094096.238652,,,,-1.184251189,-1.181891918,89975.000000000,1718094096.238652229
1718094096.239659,,,,-1.241515756,-1.239444971,89976.000000000,1718094096.239659309
1718094096.239881,386.397888184,18159.000000000,1718094096.239881039,,,,
1718094096.240666,,,,-1.516227007,-1.514661074,89977.000000000,1718094096.240666389
1718094096.241673,,,,-1.768580675,-1.769779325,89978.000000000,1718094096.241673470
1718094096.242681,,,,-1.796275377,-1.798916459,89979.000000000,1718094096.242680550
1718094096.243688,,,,-1.827407837,-1.828654647,89980.000000000,1718094096.243687630
1718094096.244695,,,,-1.909025431,-1.910656929,89981.000000000,1718094096.244694710
1718094096.244881,386.414550781,18160.000000000,1718094096.244881153,,,,
1718094096.245702,,,,-1.930974483,-1.932341456,89982.000000000,1718094096.245701790
1718094096.246709,,,,-1.978502631,-1.979917765,89983.000000000,1718094096.246708870
1718094096.247716,,,,-1.922632456,-1.923927307,89984.000000000,1718094096.247715950
1718094096.248723,,,,-1.810459256,-1.812787890,89985.000000000,1718094096.248723030
1718094096.249730,,,,-1.245867133,-1.244469404,89986.000000000,1718094096.249730110
1718094096.250737,,,,-1.278033376,-1.277525187,89987.000000000,1718094096.250737190
1718094096.251744,,,,-1.393067360,-1.394674778,89988.000000000,1718094096.251744270
1718094096.252751,,,,-1.422781467,-1.423980117,89989.000000000,1718094096.252751350
1718094096.253758,,,,-1.332557321,-1.331712604,89990.000000000,1718094096.253758430
1718094096.254766,,,,-1.333807349,-1.332722306,89991.000000000,1718094096.254765511
1718094096.255773,,,,-1.449298143,-1.449559331,89992.000000000,1718094096.255772591
1718094096.255859,386.464477539,18161.000000000,1718094096.255859375,,,,
1718094096.256780,,,,-1.764012933,-1.766726136,89993.000000000,1718094096.256779671
1718094096.257787,,,,-1.908063889,-1.906594038,89994.000000000,1718094096.257786751
1718094096.258794,,,,-1.759805799,-1.758864880,89995.000000000,1718094096.258793831
1718094096.259801,,,,-1.741679311,-1.741892338,89996.000000000,1718094096.259800911
1718094096.260808,,,,-1.864790916,-1.868153214,89997.000000000,1718094096.260807991
1718094096.260859,386.447814941,18162.000000000,1718094096.260859489,,,,
1718094096.261815,,,,-1.872652173,-1.874187350,89998.000000000,1718094096.261815071
1718094096.262822,,,,-1.905347228,-1.905440092,89999.000000000,1718094096.262822151
1718094096.263829,,,,-2.011582375,-2.012660980,90000.000000000,1718094096.263829231
1718094096.264836,,,,-2.011173725,-2.014560223,90001.000000000,1718094096.264836311
1718094096.265843,,,,-1.907270551,-1.908493280,90002.000000000,1718094096.265843391
1718094096.265859,386.481079102,18163.000000000,1718094096.265859365,,,,
1718094096.266850,,,,-1.773701310,-1.769562960,90003.000000000,1718094096.266850471
1718094096.267858,,,,-1.553201437,-1.553438425,90004.000000000,1718094096.267857552
1718094096.268865,,,,-1.581617355,-1.583969951,90005.000000000,1718094096.268864632
1718094096.269872,,,,-1.729827285,-1.730713487,90006.000000000,1718094096.269871712
1718094096.270859,386.414550781,18164.000000000,1718094096.270859480,,,,
1718094096.270879,,,,-1.612942100,-1.613155127,90007.000000000,1718094096.270878792
1718094096.271886,,,,-1.425257683,-1.425951481,90008.000000000,1718094096.271885872
1718094096.272893,,,,-1.547575951,-1.547067761,90009.000000000,1718094096.272892952
1718094096.273900,,,,-1.790193081,-1.790886879,90010.000000000,1718094096.273900032
1718094096.274907,,,,-1.904626012,-1.905103564,90011.000000000,1718094096.274907112
1718094096.275859,386.264831543,18165.000000000,1718094096.275859356,,,,
1718094096.275914,,,,-1.809425473,-1.809470296,90012.000000000,1718094096.275914192
1718094096.276921,,,,-1.615971208,-1.615270734,90013.000000000,1718094096.276921272
1718094096.277928,,,,-1.487450480,-1.488360763,90014.000000000,1718094096.277928352
1718094096.278935,,,,-1.429536819,-1.432009697,90015.000000000,1718094096.278935432
1718094096.279943,,,,-1.385158062,-1.387775064,90016.000000000,1718094096.279942513
1718094096.280859,385.948944092,18166.000000000,1718094096.280859470,,,,
1718094096.280950,,,,-1.315440416,-1.316567063,90017.000000000,1718094096.280949593
1718094096.281957,,,,-1.316257834,-1.317937374,90018.000000000,1718094096.281956673
1718094096.282964,,,,-1.394726157,-1.396333575,90019.000000000,1718094096.282963753
1718094096.283971,,,,-1.483796358,-1.485523939,90020.000000000,1718094096.283970833
1718094096.284978,,,,-1.458794236,-1.459896684,90021.000000000,1718094096.284977913
1718094096.285859,385.616394043,18167.000000000,1718094096.285859346,,,,
1718094096.285985,,,,-1.486152291,-1.486245155,90022.000000000,1718094096.285984993
1718094096.286992,,,,-1.655565977,-1.657269597,90023.000000000,1718094096.286992073
1718094096.287999,,,,-1.595729113,-1.596687436,90024.000000000,1718094096.287999153
1718094096.289006,,,,-1.632487059,-1.634358883,90025.000000000,1718094096.289006233
1718094096.290013,,,,-1.653354287,-1.652100921,90026.000000000,1718094096.290013313
1718094096.291020,,,,-1.503581762,-1.503962994,90027.000000000,1718094096.291020393
1718094096.292027,,,,-1.523415208,-1.526993871,90028.000000000,1718094096.292027473
1718094096.293035,,,,-1.603662491,-1.606519938,90029.000000000,1718094096.293034554
1718094096.297063,,,,-1.937657714,-1.937125564,90033.000000000,1718094096.297062874
