__time,/gdx/grip_force_stream/grip_force,/gdx/grip_force_stream/header/seq,/gdx/grip_force_stream/header/stamp,/shimmer0/emg_stream/emg_ch1,/shimmer0/emg_stream/emg_ch2,/shimmer0/emg_stream/header/seq,/shimmer0/emg_stream/header/stamp
1718094023.253545,,,,-1.256805539,-1.258773565,40898.000000000,1718094023.253544807
1718094023.254552,,,,-1.280557632,-1.282910228,40899.000000000,1718094023.254551888
1718094023.255559,,,,-1.303997159,-1.304234266,40900.000000000,1718094023.255558968
1718094023.256566,,,,-1.320513010,-1.317744970,40901.000000000,1718094023.256566048
1718094023.257573,,,,-1.328446388,-1.328587294,40902.000000000,1718094023.257573128
1718094023.258580,,,,-1.337269187,-1.335895658,40903.000000000,1718094023.258580208
1718094023.259091,2.729413748,8263.000000000,1718094023.259091139,,,,
1718094023.259587,,,,-1.343255401,-1.342049956,40904.000000000,1718094023.259587288
1718094023.260594,,,,-1.340466619,-1.340703726,40905.000000000,1718094023.260594368
1718094023.261601,,,,-1.332893848,-1.332385659,40906.000000000,1718094023.261601448
1718094023.262609,,,,-1.322508335,-1.321351051,40907.000000000,1718094023.262608528
1718094023.263616,,,,-1.307771444,-1.308032632,40908.000000000,1718094023.263615608
1718094023.264623,,,,-1.288370728,-1.286924958,40909.000000000,1718094023.264622688
1718094023.265630,,,,-1.269715309,-1.267812729,40910.000000000,1718094023.265629768
1718094023.266637,,,,-1.252069592,-1.250263214,40911.000000000,1718094023.266636848
1718094023.267644,,,,-1.238414526,-1.238026500,40912.000000000,1718094023.267643929
1718094023.268651,,,,-1.230024338,-1.230405688,40913.000000000,1718094023.268651009
1718094023.269658,,,,-1.219759107,-1.222015500,40914.000000000,1718094023.269658089
1718094023.270665,,,,-1.218821526,-1.220356703,40915.000000000,1718094023.270665169
1718094023.271672,,,,-1.226322174,-1.227304459,40916.000000000,1718094023.271672249
1718094023.272679,,,,-1.239063621,-1.238891959,40917.000000000,1718094023.272679329
1718094023.273686,,,,-1.254137039,-1.251945972,40918.000000000,1718094023.273686409
1718094023.274693,,,,-1.273802161,-1.273221850,40919.000000000,1718094023.274693489
1718094023.275701,,,,-1.296808958,-1.296324849,40920.000000000,1718094023.275700569
1718094023.276708,,,,-1.309262037,-1.311807036,40921.000000000,1718094023.276707649
1718094023.277715,,,,-1.325801849,-1.329476833,40922.000000000,1718094023.277714729
1718094023.278722,,,,-1.336379766,-1.338083267,40923.000000000,1718094023.278721809
1718094023.279729,,,,-1.338495255,-1.339814186,40924.000000000,1718094023.279728889
1718094023.280736,,,,-1.339096308,-1.341737509,40925.000000000,1718094023.280735970
1718094023.281743,,,,-1.340033889,-1.340679646,40926.000000000,1718094023.281743050
1718094023.282750,,,,-1.325080633,-1.323490739,40927.000000000,1718094023.282750130
1718094023.283757,,,,-1.294789553,-1.292911053,40928.000000000,1718094023.283757210
1718094023.284764,,,,-1.264209986,-1.263605714,40929.000000000,1718094023.284764290
1718094023.285771,,,,-1.245578647,-1.246128201,40930.000000000,1718094023.285771370
1718094023.286778,,,,-1.233798742,-1.232665539,40931.000000000,1718094023.286778450
1718094023.287786,,,,-1.219350338,-1.217688203,40932.000000000,1718094023.287785530
1718094023.288793,,,,-1.204132676,-1.204465985,40933.000000000,1718094023.288792610
1718094023.289800,,,,-1.201007485,-1.199345350,40934.000000000,1718094023.289799690
1718094023.290807,,,,-1.213316202,-1.213697553,40935.000000000,1718094023.290806770
1718094023.291814,,,,-1.233702540,-1.235141635,40936.000000000,1718094023.291813850
1718094023.292821,,,,-1.248583674,-1.251489282,40937.000000000,1718094023.292820930
1718094023.293828,,,,-1.264017701,-1.264615417,40938.000000000,1718094023.293828011
1718094023.294835,,,,-1.287216783,-1.285722971,40939.000000000,1718094023.294835091
1718094023.295842,,,,-1.314454794,-1.314595699,40940.000000000,1718094023.295842171
1718094023.296849,,,,-1.333326578,-1.335318685,40941.000000000,1718094023.296849251
1718094023.297856,,,,-1.344265103,-1.345415711,40942.000000000,1718094023.297856331
1718094023.298863,,,,-1.346837401,-1.347651482,40943.000000000,1718094023.298863411
1718094023.299091,2.976600409,8271.000000000,1718094023.299091101,,,,
1718094023.299870,,,,-1.349722266,-1.349887252,40944.000000000,1718094023.299870491
1718094023.300878,,,,-1.346645117,-1.347795725,40945.000000000,1718094023.300877571
1718094023.301885,,,,-1.342341781,-1.341881752,40946.000000000,1718094023.301884651
1718094023.302892,,,,-1.325753808,-1.322529078,40947.000000000,1718094023.302891731
1718094023.303899,,,,-1.306425214,-1.306253672,40948.000000000,1718094023.303898811
1718094023.304091,3.064868689,8272.000000000,1718094023.304091215,,,,
1718094023.304906,,,,-1.291592240,-1.289401174,40949.000000000,1718094023.304905891
1718094023.305913,,,,-1.264979362,-1.262980580,40950.000000000,1718094023.305912971
1718094023.306920,,,,-1.246155620,-1.246080160,40951.000000000,1718094023.306920052
1718094023.307927,,,,-1.235337377,-1.233506918,40952.000000000,1718094023.307927132
1718094023.308934,,,,-1.218581080,-1.217832446,40953.000000000,1718094023.308934212
1718094023.309091,3.082530022,8273.000000000,1718094023.309091091,,,,
1718094023.309941,,,,-1.208700418,-1.210043311,40954.000000000,1718094023.309941292
1718094023.310948,,,,-1.206921458,-1.207182527,40955.000000000,1718094023.310948372
1718094023.311955,,,,-1.202954769,-1.203744769,40956.000000000,1718094023.311955452
1718094023.312963,,,,-1.223076701,-1.223121405,40957.000000000,1718094023.312962532
1718094023.313970,,,,-1.250987768,-1.251368999,40958.000000000,1718094023.313969612
1718094023.314091,3.100183249,8274.000000000,1718094023.314091206,,,,
1718094023.314977,,,,-1.282817364,-1.282669783,40959.000000000,1718094023.314976692
1718094023.315984,,,,-1.307050228,-1.308104753,40960.000000000,1718094023.315983772
1718094023.316991,,,,-1.317772388,-1.316374660,40961.000000000,1718094023.316990852
1718094023.317998,,,,-1.325104713,-1.325870752,40962.000000000,1718094023.317997932
1718094023.319005,,,,-1.339216590,-1.341160536,40963.000000000,1718094023.319005013
1718094023.319091,3.153141499,8275.000000000,1718094023.319091082,,,,
1718094023.320012,,,,-1.346837401,-1.348036051,40964.000000000,1718094023.320012093
1718094023.321019,,,,-1.353953362,-1.353469253,40965.000000000,1718094023.321019173
1718094023.322026,,,,-1.346669078,-1.344093442,40966.000000000,1718094023.322026253
1718094023.323033,,,,-1.334865212,-1.334284902,40967.000000000,1718094023.323033333
1718094023.324040,,,,-1.320128322,-1.319067240,40968.000000000,1718094023.324040413
1718094023.324091,3.188446522,8276.000000000,1718094023.324091196,,,,
1718094023.325047,,,,-1.298467755,-1.298488498,40969.000000000,1718094023.325047493
1718094023.326055,,,,-1.272744417,-1.273702741,40970.000000000,1718094023.326054573
1718094023.327062,,,,-1.251612782,-1.252018094,40971.000000000,1718094023.327061653
1718094023.328069,,,,-1.237981796,-1.238146782,40972.000000000,1718094023.328068733
1718094023.329076,,,,-1.226923108,-1.226991892,40973.000000000,1718094023.329075813
1718094023.329091,3.312017202,8277.000000000,1718094023.329091072,,,,
1718094023.330083,,,,-1.219158053,-1.219178796,40974.000000000,1718094023.330082893
1718094023.331090,,,,-1.226827025,-1.225237012,40975.000000000,1718094023.331089973
1718094023.332097,,,,-1.234808445,-1.232352972,40976.000000000,1718094023.332097054
1718094023.333104,,,,-1.244785309,-1.244854093,40977.000000000,1718094023.333104134
1718094023.334091,3.329668283,8278.000000000,1718094023.334091187,,,,
1718094023.334111,,,,-1.260171175,-1.257932067,40978.000000000,1718094023.334111214
1718094023.335118,,,,-1.273225188,-1.274327755,40979.000000000,1718094023.335118294
1718094023.336125,,,,-1.287649512,-1.290146470,40980.000000000,1718094023.336125374
1718094023.337132,,,,-1.302843213,-1.305051565,40981.000000000,1718094023.337132454
1718094023.338140,,,,-1.314214349,-1.312407970,40982.000000000,1718094023.338139534
1718094023.339091,3.364978552,8279.000000000,1718094023.339091063,,,,
1718094023.339147,,,,-1.324527740,-1.324428320,40983.000000000,1718094023.339146614
1718094023.340154,,,,-1.327845335,-1.329909563,40984.000000000,1718094023.340153694
1718094023.341161,,,,-1.321546674,-1.321879983,40985.000000000,1718094023.341160774
1718094023.342168,,,,-1.312050700,-1.311999321,40986.000000000,1718094023.342167854
1718094023.343175,,,,-1.307050228,-1.308850050,40987.000000000,1718094023.343174934
1718094023.344091,3.400279999,8280.000000000,1718094023.344091177,,,,
1718094023.344182,,,,-1.297434092,-1.297166228,40988.000000000,1718094023.344182014
1718094023.345189,,,,-1.279788256,-1.277933836,40989.000000000,1718094023.345189095
1718094023.346196,,,,-1.262382984,-1.260504484,40990.000000000,1718094023.346196175
1718094023.347203,,,,-1.249425054,-1.247498512,40991.000000000,1718094023.347203255
1718094023.348210,,,,-1.238150120,-1.238266945,40992.000000000,1718094023.348210335
1718094023.349217,,,,-1.227331877,-1.227376580,40993.000000000,1718094023.349217415
1718094023.350224,,,,-1.218701243,-1.220885634,40994.000000000,1718094023.350224495
1718094023.351232,,,,-1.224110365,-1.225405216,40995.000000000,1718094023.351231575
1718094023.352239,,,,-1.233558297,-1.234540701,40996.000000000,1718094023.352238655
1718094023.353246,,,,-1.243631363,-1.247041702,40997.000000000,1718094023.353245735
1718094023.354253,,,,-1.261806011,-1.263172984,40998.000000000,1718094023.354252815
1718094023.355130,3.506188869,8281.000000000,1718094023.355129719,,,,
1718094023.355260,,,,-1.282817364,-1.284665227,40999.000000000,1718094023.355259895
1718094023.356267,,,,-1.307338715,-1.304017901,41000.000000000,1718094023.356266975
1718094023.357274,,,,-1.325128794,-1.322504997,41001.000000000,1718094023.357274055
1718094023.358281,,,,-1.335370064,-1.334597468,41002.000000000,1718094023.358281136
1718094023.359288,,,,-1.340178132,-1.341761470,41003.000000000,1718094023.359288216
1718094023.360130,3.576786518,8282.000000000,1718094023.360129833,,,,
1718094023.360295,,,,-1.349770308,-1.345704198,41004.000000000,1718094023.360295296
1718094023.361302,,,,-1.349770308,-1.348132253,41005.000000000,1718094023.361302376
1718094023.362309,,,,-1.339456916,-1.339718103,41006.000000000,1718094023.362309456
1718094023.363317,,,,-1.327388525,-1.327962279,41007.000000000,1718094023.363316536
1718094023.364324,,,,-1.312892079,-1.313513875,41008.000000000,1718094023.364323616
1718094023.365331,,,,-1.290510416,-1.291276336,41009.000000000,1718094023.365330696
1718094023.366338,,,,-1.265171647,-1.265456796,41010.000000000,1718094023.366337776
1718094023.367345,,,,-1.251059890,-1.248700500,41011.000000000,1718094023.367344856
1718094023.368352,,,,-1.241996527,-1.240286350,41012.000000000,1718094023.368351936
1718094023.369359,,,,-1.229471445,-1.230069160,41013.000000000,1718094023.369359016
1718094023.370366,,,,-1.222018838,-1.222159743,41014.000000000,1718094023.370366096
1718094023.371373,,,,-1.225264311,-1.224732161,41015.000000000,1718094023.371373177
1718094023.372380,,,,-1.237981796,-1.238603473,41016.000000000,1718094023.372380257
1718094023.373387,,,,-1.245266080,-1.245527148,41017.000000000,1718094023.373387337
1718094023.374394,,,,-1.259978890,-1.258316755,41018.000000000,1718094023.374394417
1718094023.375401,,,,-1.281807661,-1.281708241,41019.000000000,1718094023.375401497
1718094023.376409,,,,-1.298588037,-1.300940633,41020.000000000,1718094023.376408577
1718094023.377416,,,,-1.314190269,-1.314595699,41021.000000000,1718094023.377415657
1718094023.378423,,,,-1.330249429,-1.328563213,41022.000000000,1718094023.378422737
1718094023.379430,,,,-1.344096780,-1.341977835,41023.000000000,1718094023.379429817
1718094023.380437,,,,-1.349890590,-1.347939968,41024.000000000,1718094023.380436897
1718094023.381444,,,,-1.342149496,-1.344165564,41025.000000000,1718094023.381443977
1718094023.382451,,,,-1.330033064,-1.331231713,41026.000000000,1718094023.382451057
1718094023.383458,,,,-1.321162105,-1.319043159,41027.000000000,1718094023.383458138
1718094023.384465,,,,-1.305078983,-1.302455187,41028.000000000,1718094023.384465218
1718094023.385472,,,,-1.280413389,-1.282910228,41029.000000000,1718094023.385472298
1718094023.386479,,,,-1.259930849,-1.262884498,41030.000000000,1718094023.386479378
1718094023.387486,,,,-1.239664674,-1.242185593,41031.000000000,1718094023.387486458
1718094023.388494,,,,-1.229231000,-1.229155540,41032.000000000,1718094023.388493538
1718094023.389501,,,,-1.225745201,-1.225188851,41033.000000000,1718094023.389500618
1718094023.390508,,,,-1.216176987,-1.214082122,41034.000000000,1718094023.390507698
1718094023.391515,,,,-1.215792418,-1.216029406,41035.000000000,1718094023.391514778
1718094023.392522,,,,-1.231538892,-1.231295228,41036.000000000,1718094023.392521858
1718094023.393529,,,,-1.249569297,-1.248099566,41037.000000000,1718094023.393528938
1718094023.394536,,,,-1.267984390,-1.264399052,41038.000000000,1718094023.394536018
1718094023.395543,,,,-1.283610702,-1.284977674,41039.000000000,1718094023.395543098
1718094023.396550,,,,-1.300270796,-1.301758051,41040.000000000,1718094023.396550179
1718094023.397557,,,,-1.313829660,-1.315052509,41041.000000000,1718094023.397557259
1718094023.398564,,,,-1.327556849,-1.326904416,41042.000000000,1718094023.398564339
1718094023.399571,,,,-1.339745402,-1.336063862,41043.000000000,1718094023.399571419
1718094023.400578,,,,-1.347726941,-1.346136928,41044.000000000,1718094023.400578499
1718094023.401586,,,,-1.345899820,-1.345463753,41045.000000000,1718094023.401585579
1718094023.402593,,,,-1.333687186,-1.335294604,41046.000000000,1718094023.402592659
1718094023.403600,,,,-1.320753336,-1.326784253,41047.000000000,1718094023.403599739
1718094023.404607,,,,-1.305127025,-1.309042335,41048.000000000,1718094023.404606819
1718094023.405130,4.035640240,8291.000000000,1718094023.405129671,,,,
1718094023.405614,,,,-1.286327362,-1.287598133,41049.000000000,1718094023.405613899
1718094023.406621,,,,-1.263320565,-1.264807701,41050.000000000,1718094023.406620979
1718094023.407628,,,,-1.239400148,-1.239997864,41051.000000000,1718094023.407628059
1718094023.408635,,,,-1.232452512,-1.232256770,41052.000000000,1718094023.408635139
1718094023.409642,,,,-1.225937486,-1.227665067,41053.000000000,1718094023.409642220
1718094023.410130,4.123873234,8292.000000000,1718094023.410129786,,,,
1718094023.410649,,,,-1.221994877,-1.222736716,41054.000000000,1718094023.410649300
1718094023.411656,,,,-1.224350810,-1.227352500,41055.000000000,1718094023.411656380
1718094023.412663,,,,-1.232692838,-1.235309958,41056.000000000,1718094023.412663460
1718094023.413671,,,,-1.231875539,-1.234372377,41057.000000000,1718094023.413670540
1718094023.414678,,,,-1.231562972,-1.232593417,41058.000000000,1718094023.414677620
1718094023.415130,4.176815033,8293.000000000,1718094023.415129662,,,,
1718094023.415685,,,,-1.246636391,-1.247161984,41059.000000000,1718094023.415684700
1718094023.416692,,,,-1.264186025,-1.260768890,41060.000000000,1718094023.416691780
1718094023.417699,,,,-1.277408242,-1.279135823,41061.000000000,1718094023.417698860
1718094023.418706,,,,-1.300126553,-1.300003052,41062.000000000,1718094023.418705940
1718094023.419713,,,,-1.320152402,-1.322456956,41063.000000000,1718094023.419713020
1718094023.420130,4.229746819,8294.000000000,1718094023.420129776,,,,
1718094023.420720,,,,-1.342149496,-1.344694495,41064.000000000,1718094023.420720100
1718094023.421727,,,,-1.360612631,-1.361330509,41065.000000000,1718094023.421727180
1718094023.422734,,,,-1.356886387,-1.358373523,41066.000000000,1718094023.422734261
1718094023.423741,,,,-1.341500401,-1.342338443,41067.000000000,1718094023.423741341
1718094023.424748,,,,-1.325922132,-1.325245619,41068.000000000,1718094023.424748421
1718094023.425130,4.300321102,8295.000000000,1718094023.425129652,,,,
1718094023.425756,,,,-1.306280971,-1.305195808,41069.000000000,1718094023.425755501
1718094023.426763,,,,-1.283634782,-1.283150673,41070.000000000,1718094023.426762581
1718094023.427770,,,,-1.240770459,-1.240238309,41071.000000000,1718094023.427769661
1718094023.428777,,,,-1.212643027,-1.212591648,41072.000000000,1718094023.428776741
1718094023.429784,,,,-1.193939567,-1.195522904,41073.000000000,1718094023.429783821
1718094023.430130,4.282677650,8296.000000000,1718094023.430129766,,,,
1718094023.430791,,,,-1.187376499,-1.188358784,41074.000000000,1718094023.430790901
1718094023.431798,,,,-1.158551812,-1.157995582,41075.000000000,1718094023.431797981
1718094023.432805,,,,-1.108908176,-1.110299110,41076.000000000,1718094023.432805061
1718094023.433812,,,,-1.084242582,-1.085152745,41077.000000000,1718094023.433812141
1718094023.434819,,,,-1.079674840,-1.077892542,41078.000000000,1718094023.434819221
1718094023.435130,4.406186104,8297.000000000,1718094023.435129642,,,,
1718094023.435826,,,,-1.070779800,-1.075560570,41079.000000000,1718094023.435826302
1718094023.436833,,,,-1.061019421,-1.062121868,41080.000000000,1718094023.436833382
1718094023.437840,,,,-1.045128584,-1.043514490,41081.000000000,1718094023.437840462
1718094023.438848,,,,-1.044142962,-1.046375394,41082.000000000,1718094023.438847542
1718094023.439855,,,,-1.096286893,-1.098158717,41083.000000000,1718094023.439854622
1718094023.440130,4.635540962,8298.000000000,1718094023.440129757,,,,
1718094023.440862,,,,-1.150834799,-1.151360393,41084.000000000,1718094023.440861702
1718094023.441869,,,,-1.177375555,-1.179584026,41085.000000000,1718094023.441868782
1718094023.442876,,,,-1.197521567,-1.199080825,41086.000000000,1718094023.442875862
1718094023.443883,,,,-1.243871689,-1.246080160,41087.000000000,1718094023.443882942
1718094023.444890,,,,-1.271277905,-1.273053646,41088.000000000,1718094023.444890022
1718094023.445130,4.935425282,8299.000000000,1718094023.445129633,,,,
1718094023.445897,,,,-1.269258499,-1.269423485,41089.000000000,1718094023.445897102
1718094023.446904,,,,-1.276687026,-1.273822904,41090.000000000,1718094023.446904182
1718094023.447911,,,,-1.267070889,-1.266754985,41091.000000000,1718094023.447911263
1718094023.448918,,,,-1.223966122,-1.225333095,41092.000000000,1718094023.448918343
1718094023.449925,,,,-1.175260067,-1.177540541,41093.000000000,1718094023.449925423
1718094023.450130,5.411633492,8300.000000000,1718094023.450129747,,,,
1718094023.450933,,,,-1.147060513,-1.145710826,41094.000000000,1718094023.450932503
1718094023.451940,,,,-1.068760395,-1.067338705,41095.000000000,1718094023.451939583
1718094023.452947,,,,-0.991253734,-0.988605917,41096.000000000,1718094023.452946663
1718094023.453954,,,,-0.956587255,-0.955045342,41097.000000000,1718094023.453953743
1718094023.454961,,,,-0.977262139,-0.976152897,41098.000000000,1718094023.454960823
1718094023.455968,,,,-0.993922234,-0.992620707,41099.000000000,1718094023.455967903
1718094023.456975,,,,-0.880522966,-0.880062878,41100.000000000,1718094023.456974983
1718094023.457982,,,,-0.769599915,-0.770630300,41101.000000000,1718094023.457982063
1718094023.458984,6.293211460,8301.000000000,1718094023.458984137,,,,
1718094023.458989,,,,-0.716590524,-0.716539085,41102.000000000,1718094023.458989143
1718094023.459996,,,,-0.696300268,-0.694686234,41103.000000000,1718094023.459996223
1718094023.461003,,,,-0.713128686,-0.709927917,41104.000000000,1718094023.461003304
1718094023.462010,,,,-0.707695484,-0.708172977,41105.000000000,1718094023.462010384
1718094023.463017,,,,-0.730870605,-0.731925070,41106.000000000,1718094023.463017464
1718094023.463984,7.650143623,8302.000000000,1718094023.463984251,,,,
1718094023.464025,,,,-0.862708926,-0.865133703,41107.000000000,1718094023.464024544
1718094023.465032,,,,-1.046739340,-1.049284220,41108.000000000,1718094023.465031624
1718094023.466039,,,,-1.202642202,-1.204369783,41109.000000000,1718094023.466038704
1718094023.467046,,,,-1.254714012,-1.252883554,41110.000000000,1718094023.467045784
1718094023.468053,,,,-1.246756554,-1.248460174,41111.000000000,1718094023.468052864
1718094023.468984,9.710337639,8303.000000000,1718094023.468984127,,,,
1718094023.469060,,,,-1.223894000,-1.224107027,41112.000000000,1718094023.469059944
1718094023.470067,,,,-1.297674417,-1.298488498,41113.000000000,1718094023.470067024
1718094023.471074,,,,-1.414463401,-1.412007928,41114.000000000,1718094023.471074104
1718094023.472081,,,,-1.398524523,-1.398401022,41115.000000000,1718094023.472081184
1718094023.473088,,,,-1.294260740,-1.295964241,41116.000000000,1718094023.473088264
1718094023.474095,,,,-1.019837976,-1.019858599,41117.000000000,1718094023.474095345
1718094023.475102,,,,-0.831912994,-0.831981778,41118.000000000,1718094023.475102425
1718094023.476110,,,,-0.798208177,-0.799190462,41119.000000000,1718094023.476109505
1718094023.477117,,,,-0.769551814,-0.773106515,41120.000000000,1718094023.477116585
1718094023.478124,,,,-0.769792259,-0.770245671,41121.000000000,1718094023.478123665
1718094023.479131,,,,-0.773999333,-0.774524868,41122.000000000,1718094023.479130745
1718094023.480138,,,,-0.844678521,-0.847079217,41123.000000000,1718094023.480137825
1718094023.481145,,,,-1.016400099,-1.016348720,41124.000000000,1718094023.481144905
1718094023.482152,,,,-1.183794379,-1.183718920,41125.000000000,1718094023.482151985
1718094023.483159,,,,-1.211441040,-1.213745594,41126.000000000,1718094023.483159065
1718094023.484166,,,,-1.237356782,-1.237569809,41127.000000000,1718094023.484166145
1718094023.485173,,,,-1.310367823,-1.307407618,41128.000000000,1718094023.485173225
1718094023.486180,,,,-1.265844822,-1.266754985,41129.000000000,1718094023.486180305
1718094023.487187,,,,-1.198194742,-1.197926879,41130.000000000,1718094023.487187386
1718094023.488194,,,,-1.126746178,-1.125997663,41131.000000000,1718094023.488194466
1718094023.489202,,,,-1.104268312,-1.104866028,41132.000000000,1718094023.489201546
1718094023.490209,,,,-1.082583785,-1.082965016,41133.000000000,1718094023.490208626
1718094023.491216,,,,-0.970098019,-0.969421566,41134.000000000,1718094023.491215706
1718094023.492223,,,,-1.125351906,-1.125997663,41135.000000000,1718094023.492222786
1718094023.493230,,,,-1.179082513,-1.180906177,41136.000000000,1718094023.493229866
1718094023.494237,,,,-1.170379758,-1.170280337,41137.000000000,1718094023.494236946
1718094023.495244,,,,-1.299621701,-1.297478795,41138.000000000,1718094023.495244026
1718094023.496251,,,,-1.346548915,-1.346401334,41139.000000000,1718094023.496251106
1718094023.497258,,,,-1.412852764,-1.413546562,41140.000000000,1718094023.497258186
1718094023.498265,,,,-1.329095483,-1.328395009,41141.000000000,1718094023.498265266
1718094023.499272,,,,-1.133237123,-1.134123325,41142.000000000,1718094023.499272346
1718094023.500279,,,,-1.028660774,-1.028224707,41143.000000000,1718094023.500279427
1718094023.501287,,,,-1.051908016,-1.052169085,41144.000000000,1718094023.501286507
1718094023.502294,,,,-0.926656783,-0.927014053,41145.000000000,1718094023.502293587
1718094023.503301,,,,-0.752194524,-0.756374300,41146.000000000,1718094023.503300667
1718094023.504308,,,,-0.853381217,-0.856791615,41147.000000000,1718094023.504307747
1718094023.505315,,,,-1.033180475,-1.036879301,41148.000000000,1718094023.505314827
1718094023.506322,,,,-1.128717542,-1.129411340,41149.000000000,1718094023.506321907
1718094023.507329,,,,-1.124342203,-1.124483109,41150.000000000,1718094023.507328987
1718094023.508336,,,,-1.215503931,-1.216510296,41151.000000000,1718094023.508336067
1718094023.508984,73.019569397,8311.000000000,1718094023.508984089,,,,
1718094023.509343,,,,-1.356645942,-1.357363820,41152.000000000,1718094023.509343147
1718094023.510350,,,,-1.328638673,-1.331808686,41153.000000000,1718094023.510350227
1718094023.511357,,,,-1.296568632,-1.300123215,41154.000000000,1718094023.511357307
1718094023.512364,,,,-1.375036955,-1.376764536,41155.000000000,1718094023.512364388
1718094023.513371,,,,-1.426219225,-1.427273750,41156.000000000,1718094023.513371468
1718094023.513984,85.903450012,8312.000000000,1718094023.513984203,,,,
1718094023.514379,,,,-1.366021752,-1.366763711,41157.000000000,1718094023.514378548
1718094023.515386,,,,-1.124270082,-1.124194622,41158.000000000,1718094023.515385628
1718094023.516393,,,,-0.910886168,-0.909897208,41159.000000000,1718094023.516392708
1718094023.517400,,,,-1.025415301,-1.027094841,41160.000000000,1718094023.517399788
1718094023.518407,,,,-1.188987136,-1.189993501,41161.000000000,1718094023.518406868
1718094023.518984,99.298233032,8313.000000000,1718094023.518984079,,,,
1718094023.519414,,,,-1.328614593,-1.328635335,41162.000000000,1718094023.519413948
1718094023.520421,,,,-1.590368032,-1.592311978,41163.000000000,1718094023.520421028
1718094023.521428,,,,-1.820916891,-1.820937634,41164.000000000,1718094023.521428108
1718094023.522435,,,,-1.821469784,-1.824591756,41165.000000000,1718094023.522435188
1718094023.523442,,,,-1.707373381,-1.706961393,41166.000000000,1718094023.523442268
1718094023.523984,112.675819397,8314.000000000,1718094023.523984194,,,,
1718094023.524449,,,,-1.619385004,-1.616424680,41167.000000000,1718094023.524449348
1718094023.525456,,,,-1.621500611,-1.621521235,41168.000000000,1718094023.525456429
1718094023.526464,,,,-1.591257572,-1.590076208,41169.000000000,1718094023.526463509
1718094023.527471,,,,-1.526107669,-1.523556113,41170.000000000,1718094023.527470589
1718094023.528478,,,,-1.483147264,-1.484345913,41171.000000000,1718094023.528477669
1718094023.528984,125.854820251,8315.000000000,1718094023.528984070,,,,
1718094023.529485,,,,-1.430234075,-1.431673169,41172.000000000,1718094023.529484749
1718094023.530492,,,,-1.352775455,-1.351161361,41173.000000000,1718094023.530491829
1718094023.531499,,,,-1.295462728,-1.296541214,41174.000000000,1718094023.531498909
1718094023.532506,,,,-1.303997159,-1.303392768,41175.000000000,1718094023.532505989
1718094023.533513,,,,-1.321426511,-1.320750117,41176.000000000,1718094023.533513069
1718094023.533984,138.675292969,8316.000000000,1718094023.533984184,,,,
1718094023.534520,,,,-1.354987144,-1.353926063,41177.000000000,1718094023.534520149
1718094023.535527,,,,-1.323782444,-1.322817564,41178.000000000,1718094023.535527229
1718094023.536534,,,,-1.380229712,-1.381284118,41179.000000000,1718094023.536534309
1718094023.537541,,,,-1.437470198,-1.439870954,41180.000000000,1718094023.537541389
1718094023.538548,,,,-1.467328548,-1.469272494,41181.000000000,1718094023.538548470
1718094023.538984,150.849227905,8317.000000000,1718094023.538984060,,,,
1718094023.539556,,,,-1.457423925,-1.457035899,41182.000000000,1718094023.539555550
1718094023.540563,,,,-1.321570754,-1.320750117,41183.000000000,1718094023.540562630
1718094023.541570,,,,-1.173865676,-1.172251582,41184.000000000,1718094023.541569710
1718094023.542577,,,,-0.955265045,-0.955502093,41185.000000000,1718094023.542576790
1718094023.543584,,,,-0.784601212,-0.785126746,41186.000000000,1718094023.543583870
1718094023.543984,162.520416260,8318.000000000,1718094023.543984175,,,,
1718094023.544591,,,,-0.790827692,-0.790319502,41187.000000000,1718094023.544590950
1718094023.545598,,,,-0.876964986,-0.880447507,41188.000000000,1718094023.545598030
1718094023.546605,,,,-0.994234741,-0.994183302,41189.000000000,1718094023.546605110
1718094023.547612,,,,-1.117875218,-1.116862178,41190.000000000,1718094023.547612190
1718094023.548619,,,,-1.296616673,-1.294786215,41191.000000000,1718094023.548619270
1718094023.548984,173.535400391,8319.000000000,1718094023.548984051,,,,
1718094023.549626,,,,-1.406385779,-1.407800913,41192.000000000,1718094023.549626350
1718094023.550633,,,,-1.354241848,-1.353589416,41193.000000000,1718094023.550633430
1718094023.551641,,,,-1.136650920,-1.137392879,41194.000000000,1718094023.551640511
1718094023.552648,,,,-0.815757751,-0.817365110,41195.000000000,1718094023.552647591
1718094023.553310,193.606460571,8321.000000000,1718094023.553309917,,,,
1718094023.553655,,,,-0.637112498,-0.638046741,41196.000000000,1718094023.553654671
1718094023.553984,183.872451782,8320.000000000,1718094023.553984165,,,,
1718094023.554662,,,,-0.560423136,-0.563400865,41197.000000000,1718094023.554661751
1718094023.555669,,,,-0.583958805,-0.585854709,41198.000000000,1718094023.555668831
1718094023.556676,,,,-0.723802686,-0.722741544,41199.000000000,1718094023.556675911
1718094023.557683,,,,-0.773590624,-0.773923874,41200.000000000,1718094023.557682991
1718094023.558310,202.842559814,8322.000000000,1718094023.558310032,,,,
1718094023.558690,,,,-0.788014948,-0.788059711,41201.000000000,1718094023.558690071
1718094023.559697,,,,-0.832297623,-0.830467224,41202.000000000,1718094023.559697151
1718094023.560704,,,,-1.080251813,-1.079695582,41203.000000000,1718094023.560704231
1718094023.561711,,,,-1.353881240,-1.354743361,41204.000000000,1718094023.561711311
1718094023.562718,,,,-1.388379455,-1.389385819,41205.000000000,1718094023.562718391
1718094023.563310,211.522567749,8323.000000000,1718094023.563309908,,,,
1718094023.563725,,,,-1.284572363,-1.285939336,41206.000000000,1718094023.563725471
1718094023.564733,,,,-1.226610661,-1.225645661,41207.000000000,1718094023.564732552
1718094023.565740,,,,-1.272744417,-1.275529742,41208.000000000,1718094023.565739632
1718094023.566747,,,,-1.310896754,-1.312840700,41209.000000000,1718094023.566746712
1718094023.567754,,,,-1.395086765,-1.393785238,41210.000000000,1718094023.567753792
1718094023.568310,219.813476563,8324.000000000,1718094023.568310022,,,,
1718094023.568761,,,,-1.521588087,-1.522209764,41211.000000000,1718094023.568760872
1718094023.569768,,,,-1.506418467,-1.506727695,41212.000000000,1718094023.569767952
1718094023.570775,,,,-1.436821103,-1.436457157,41213.000000000,1718094023.570775032
1718094023.571782,,,,-1.361430049,-1.365080833,41214.000000000,1718094023.571782112
1718094023.572789,,,,-1.326234579,-1.329260468,41215.000000000,1718094023.572789192
1718094023.573310,227.671310425,8325.000000000,1718094023.573309898,,,,
1718094023.573796,,,,-1.384124279,-1.389169455,41216.000000000,1718094023.573796272
1718094023.574803,,,,-1.513510466,-1.516993046,41217.000000000,1718094023.574803352
1718094023.575810,,,,-1.595825315,-1.597648978,41218.000000000,1718094023.575810432
1718094023.576818,,,,-1.399317861,-1.399554968,41219.000000000,1718094023.576817513
1718094023.577825,,,,-1.159297109,-1.160688162,41220.000000000,1718094023.577824593
1718094023.578832,,,,-1.097825408,-1.100226164,41221.000000000,1718094023.578831673
1718094023.579839,,,,-1.254689932,-1.254157782,41222.000000000,1718094023.579838753
1718094023.580846,,,,-1.350010753,-1.348276496,41223.000000000,1718094023.580845833
1718094023.581853,,,,-1.197521567,-1.195811391,41224.000000000,1718094023.581852913
1718094023.582860,,,,-1.058326840,-1.059813976,41225.000000000,1718094023.582859993
1718094023.583867,,,,-1.039599299,-1.040148854,41226.000000000,1718094023.583867073
1718094023.584874,,,,-1.142204285,-1.144124150,41227.000000000,1718094023.584874153
1718094023.585881,,,,-1.279812336,-1.278053999,41228.000000000,1718094023.585881233
1718094023.586888,,,,-1.319431186,-1.319091320,41229.000000000,1718094023.586888313
1718094023.587895,,,,-1.256805539,-1.256585836,41230.000000000,1718094023.587895393
1718094023.588902,,,,-1.133189082,-1.134051204,41231.000000000,1718094023.588902473
1718094023.589910,,,,-1.145666122,-1.145566583,41232.000000000,1718094023.589909554
1718094023.590917,,,,-1.304910660,-1.305219889,41233.000000000,1718094023.590916634
1718094023.591924,,,,-1.396505117,-1.396814346,41234.000000000,1718094023.591923714
1718094023.592931,,,,-1.269835472,-1.271058202,41235.000000000,1718094023.592930794
1718094023.593938,,,,-1.089747787,-1.089119434,41236.000000000,1718094023.593937874
1718094023.594945,,,,-0.972502112,-0.971609235,41237.000000000,1718094023.594944954
1718094023.595952,,,,-1.098546624,-1.096788406,41238.000000000,1718094023.595952034
1718094023.596959,,,,-1.203844190,-1.205163121,41239.000000000,1718094023.596959114
1718094023.597966,,,,-1.251155972,-1.252258539,41240.000000000,1718094023.597966194
1718094023.598973,,,,-1.267431498,-1.267644525,41241.000000000,1718094023.598973274
1718094023.599980,,,,-1.279115200,-1.281804323,41242.000000000,1718094023.599980354
1718094023.600987,,,,-1.494927168,-1.497063398,41243.000000000,1718094023.600987434
1718094023.601995,,,,-1.513486385,-1.512689710,41244.000000000,1718094023.601994514
1718094023.603002,,,,-1.347222090,-1.346809983,41245.000000000,1718094023.603001595
1718094023.603310,266.075775146,8331.000000000,1718094023.603309870,,,,
1718094023.604009,,,,-1.220143676,-1.219707608,41246.000000000,1718094023.604008675
1718094023.605016,,,,-1.084482908,-1.083445907,41247.000000000,1718094023.605015755
1718094023.606023,,,,-1.114341259,-1.115780354,41248.000000000,1718094023.606022835
1718094023.607030,,,,-1.266782403,-1.268269539,41249.000000000,1718094023.607029915
1718094023.608037,,,,-1.449947238,-1.452660561,41250.000000000,1718094023.608036995
1718094023.608310,271.091491699,8332.000000000,1718094023.608309984,,,,
1718094023.609044,,,,-1.580030680,-1.580363870,41251.000000000,1718094023.609044075
1718094023.610051,,,,-1.620707273,-1.620559692,41252.000000000,1718094023.610051155
1718094023.611058,,,,-1.501826763,-1.500909925,41253.000000000,1718094023.611058235
1718094023.612065,,,,-1.318758011,-1.319259524,41254.000000000,1718094023.612065315
1718094023.613072,,,,-1.159561515,-1.159990907,41255.000000000,1718094023.613072395
1718094023.613310,275.738708496,8333.000000000,1718094023.613309860,,,,
1718094023.614079,,,,-1.038277030,-1.036494732,41256.000000000,1718094023.614079475
1718094023.615087,,,,-0.897736013,-0.899607837,41257.000000000,1718094023.615086555
1718094023.616094,,,,-0.861867487,-0.861912251,41258.000000000,1718094023.616093636
1718094023.617101,,,,-0.949759722,-0.951871991,41259.000000000,1718094023.617100716
1718094023.618108,,,,-1.095878124,-1.097293258,41260.000000000,1718094023.618107796
1718094023.618310,280.178253174,8334.000000000,1718094023.618309975,,,,
1718094023.619115,,,,-1.177519798,-1.177636743,41261.000000000,1718094023.619114876
1718094023.620122,,,,-1.179058433,-1.180064797,41262.000000000,1718094023.620121956
1718094023.621129,,,,-1.228317499,-1.228410363,41263.000000000,1718094023.621129036
1718094023.622136,,,,-1.293539524,-1.294762254,41264.000000000,1718094023.622136116
1718094023.623143,,,,-1.359747171,-1.362700820,41265.000000000,1718094023.623143196
1718094023.623310,284.250030518,8335.000000000,1718094023.623309851,,,,
1718094023.624150,,,,-1.267022729,-1.269952416,41266.000000000,1718094023.624150276
1718094023.625157,,,,-1.167663217,-1.169318676,41267.000000000,1718094023.625157356
1718094023.626164,,,,-1.254545689,-1.255912662,41268.000000000,1718094023.626164436
1718094023.627172,,,,-1.513823032,-1.515093803,41269.000000000,1718094023.627171516
1718094023.628179,,,,-1.603157640,-1.605149627,41270.000000000,1718094023.628178596
1718094023.628310,288.018341064,8336.000000000,1718094023.628309965,,,,
1718094023.629186,,,,-1.556182384,-1.557669640,41271.000000000,1718094023.629185677
1718094023.630193,,,,-1.432181358,-1.432827115,41272.000000000,1718094023.630192757
1718094023.631200,,,,-1.346789360,-1.346497536,41273.000000000,1718094023.631199837
1718094023.632207,,,,-1.248511553,-1.248628378,41274.000000000,1718094023.632206917
1718094023.633214,,,,-1.235313296,-1.236439824,41275.000000000,1718094023.633213997
1718094023.633310,291.691650391,8337.000000000,1718094023.633309841,,,,
1718094023.634221,,,,-1.380013347,-1.382726550,41276.000000000,1718094023.634221077
1718094023.635228,,,,-1.454827547,-1.458117723,41277.000000000,1718094023.635228157
1718094023.636235,,,,-1.337581754,-1.336809158,41278.000000000,1718094023.636235237
1718094023.637242,,,,-1.131482244,-1.132344365,41279.000000000,1718094023.637242317
1718094023.638249,,,,-1.025174975,-1.025315881,41280.000000000,1718094023.638249397
1718094023.638310,295.029418945,8338.000000000,1718094023.638309956,,,,
1718094023.639256,,,,-1.058591247,-1.058611989,41281.000000000,1718094023.639256477
1718094023.640264,,,,-1.013347030,-1.014617801,41282.000000000,1718094023.640263557
1718094023.641271,,,,-0.889706433,-0.889799297,41283.000000000,1718094023.641270638
1718094023.642278,,,,-0.900692999,-0.900930047,41284.000000000,1718094023.642277718
1718094023.643285,,,,-1.042460084,-1.043418407,41285.000000000,1718094023.643284798
1718094023.643310,298.175933838,8339.000000000,1718094023.643309832,,,,
1718094023.644292,,,,-1.101792097,-1.104048610,41286.000000000,1718094023.644291878
1718094023.645299,,,,-1.157662392,-1.160664082,41287.000000000,1718094023.645298958
1718094023.646306,,,,-1.270220160,-1.275048971,41288.000000000,1718094023.646306038
1718094023.646768,303.975341797,8341.000000000,1718094023.646767616,,,,
1718094023.647313,,,,-1.256036282,-1.257908106,41289.000000000,1718094023.647313118
1718094023.648310,301.115112305,8340.000000000,1718094023.648309946,,,,
1718094023.648320,,,,-1.322340012,-1.322048306,41290.000000000,1718094023.648320198
1718094023.649327,,,,-1.357439280,-1.355200171,41291.000000000,1718094023.649327278
1718094023.650334,,,,-1.290822864,-1.292863011,41292.000000000,1718094023.650334358
1718094023.651341,,,,-1.284163713,-1.285386443,41293.000000000,1718094023.651341438
1718094023.651768,306.611816406,8342.000000000,1718094023.651767731,,,,
1718094023.652349,,,,-1.097032070,-1.095634460,41294.000000000,1718094023.652348518
1718094023.653356,,,,-1.002456546,-1.001972437,41295.000000000,1718094023.653355598
1718094023.654363,,,,-0.966924667,-0.965046167,41296.000000000,1718094023.654362679
1718094023.655370,,,,-1.029069543,-1.027070761,41297.000000000,1718094023.655369759
1718094023.656377,,,,-1.223749757,-1.222664595,41298.000000000,1718094023.656376839
1718094023.656768,309.040527344,8343.000000000,1718094023.656767607,,,,
1718094023.657384,,,,-1.383378983,-1.384072900,41299.000000000,1718094023.657383919
1718094023.658391,,,,-1.530194640,-1.530647993,41300.000000000,1718094023.658390999
1718094023.659398,,,,-1.430234075,-1.430278778,41301.000000000,1718094023.659398079
1718094023.660405,,,,-1.300270796,-1.298151970,41302.000000000,1718094023.660405159
1718094023.661412,,,,-1.236010432,-1.235406160,41303.000000000,1718094023.661412239
1718094023.661768,311.518798828,8344.000000000,1718094023.661767721,,,,
1718094023.662419,,,,-1.302049875,-1.303801537,41304.000000000,1718094023.662419319
1718094023.663426,,,,-1.428118467,-1.428067088,41305.000000000,1718094023.663426399
1718094023.664433,,,,-1.442350507,-1.444029927,41306.000000000,1718094023.664433479
1718094023.665441,,,,-1.342053294,-1.341785550,41307.000000000,1718094023.665440559
1718094023.666448,,,,-1.152421474,-1.149653554,41308.000000000,1718094023.666447639
1718094023.667455,,,,-0.942379296,-0.940500796,41309.000000000,1718094023.667454720
1718094023.668462,,,,-1.027074099,-1.031229854,41310.000000000,1718094023.668461800
1718094023.669469,,,,-1.211368918,-1.212062716,41311.000000000,1718094023.669468880
1718094023.670476,,,,-1.250362635,-1.247738957,41312.000000000,1718094023.670475960
1718094023.671483,,,,-1.309117794,-1.307936430,41313.000000000,1718094023.671483040
1718094023.672490,,,,-1.376479387,-1.377269387,41314.000000000,1718094023.672490120
1718094023.673497,,,,-1.372031927,-1.371932387,41315.000000000,1718094023.673497200
1718094023.674504,,,,-1.422156453,-1.421552062,41316.000000000,1718094023.674504280
1718094023.675511,,,,-1.501658440,-1.501390696,41317.000000000,1718094023.675511360
1718094023.676518,,,,-1.547071099,-1.546947479,41318.000000000,1718094023.676518440
1718094023.677526,,,,-1.555220842,-1.557092667,41319.000000000,1718094023.677525520
1718094023.678533,,,,-1.431700468,-1.431865454,41320.000000000,1718094023.678532600
1718094023.679540,,,,-1.339889646,-1.342170238,41321.000000000,1718094023.679539680
1718094023.680547,,,,-1.381768346,-1.383399725,41322.000000000,1718094023.680546761
1718094023.681554,,,,-1.456173778,-1.457925439,41323.000000000,1718094023.681553841
1718094023.682561,,,,-1.475622535,-1.478864670,41324.000000000,1718094023.682560921
1718094023.683568,,,,-1.517957926,-1.518267155,41325.000000000,1718094023.683568001
1718094023.684575,,,,-1.561399221,-1.561492085,41326.000000000,1718094023.684575081
1718094023.685582,,,,-1.441196561,-1.440015197,41327.000000000,1718094023.685582161
1718094023.686589,,,,-1.166292906,-1.165231824,41328.000000000,1718094023.686589241
1718094023.687596,,,,-0.816815555,-0.818086326,41329.000000000,1718094023.687596321
1718094023.688603,,,,-0.735414267,-0.738007307,41330.000000000,1718094023.688603401
1718094023.689610,,,,-0.844798744,-0.846333981,41331.000000000,1718094023.689610481
1718094023.690618,,,,-0.961034775,-0.961416066,41332.000000000,1718094023.690617561
1718094023.691625,,,,-0.974521518,-0.973893106,41333.000000000,1718094023.691624641
1718094023.692632,,,,-0.869512379,-0.871336162,41334.000000000,1718094023.692631721
1718094023.693639,,,,-0.910669804,-0.910762668,41335.000000000,1718094023.693638802
1718094023.694646,,,,-1.124390244,-1.126117826,41336.000000000,1718094023.694645882
1718094023.695653,,,,-1.365060091,-1.366475224,41337.000000000,1718094023.695652962
1718094023.696660,,,,-1.433960319,-1.435784101,41338.000000000,1718094023.696660042
1718094023.696768,326.209655762,8351.000000000,1718094023.696767569,,,,
1718094023.697667,,,,-1.603229761,-1.602817774,41339.000000000,1718094023.697667122
1718094023.698674,,,,-1.692780852,-1.695325732,41340.000000000,1718094023.698674202
1718094023.699681,,,,-1.650926232,-1.655033827,41341.000000000,1718094023.699681282
1718094023.700688,,,,-1.491681695,-1.494154453,41342.000000000,1718094023.700688362
1718094023.701695,,,,-1.356429577,-1.356498361,41343.000000000,1718094023.701695442
1718094023.701768,327.874450684,8352.000000000,1718094023.701767683,,,,
1718094023.702703,,,,-1.322989106,-1.323634982,41344.000000000,1718094023.702702522
1718094023.703710,,,,-1.329960942,-1.329140186,41345.000000000,1718094023.703709602
1718094023.704717,,,,-1.376671672,-1.376788616,41346.000000000,1718094023.704716682
1718094023.705724,,,,-1.404534698,-1.404122710,41347.000000000,1718094023.705723763
1718094023.706731,,,,-1.364987969,-1.362412333,41348.000000000,1718094023.706730843
1718094023.706768,329.443054199,8353.000000000,1718094023.706767559,,,,
1718094023.707738,,,,-1.286327362,-1.285771012,41349.000000000,1718094023.707737923
1718094023.708745,,,,-1.192376852,-1.194729567,41350.000000000,1718094023.708745003
1718094023.709752,,,,-1.152181149,-1.149677515,41351.000000000,1718094023.709752083
1718094023.710759,,,,-1.051787853,-1.051592112,41352.000000000,1718094023.710759163
1718094023.711766,,,,-1.035392165,-1.036134124,41353.000000000,1718094023.711766243
1718094023.711768,330.850616455,8354.000000000,1718094023.711767673,,,,
1718094023.712773,,,,-1.124895096,-1.121718407,41354.000000000,1718094023.712773323
1718094023.713780,,,,-1.155907393,-1.155783892,41355.000000000,1718094023.713780403
1718094023.714787,,,,-0.980507612,-0.980552316,41356.000000000,1718094023.714787483
1718094023.715795,,,,-0.867637217,-0.867032886,41357.000000000,1718094023.715794563
1718094023.716768,332.242675781,8355.000000000,1718094023.716767550,,,,
1718094023.716802,,,,-0.995797396,-0.993702531,41358.000000000,1718094023.716801643
1718094023.717809,,,,-1.071188569,-1.070872664,41359.000000000,1718094023.717808723
1718094023.718816,,,,-1.120976448,-1.119314313,41360.000000000,1718094023.718815804
1718094023.719823,,,,-1.292048931,-1.294618011,41361.000000000,1718094023.719822884
1718094023.720830,,,,-1.411554575,-1.413979292,41362.000000000,1718094023.720829964
1718094023.721768,333.586730957,8356.000000000,1718094023.721767664,,,,
1718094023.721837,,,,-1.445235372,-1.447010994,41363.000000000,1718094023.721837044
1718094023.722844,,,,-1.378811359,-1.378375292,41364.000000000,1718094023.722844124
1718094023.723851,,,,-1.143887162,-1.143955946,41365.000000000,1718094023.723851204
1718094023.724858,,,,-0.955817938,-0.954925120,41366.000000000,1718094023.724858284
1718094023.725865,,,,-0.931416810,-0.927831411,41367.000000000,1718094023.725865364
1718094023.726768,335.109741211,8357.000000000,1718094023.726767540,,,,
1718094023.726872,,,,-1.003081679,-1.003679395,41368.000000000,1718094023.726872444
1718094023.727880,,,,-0.836865366,-0.839554548,41369.000000000,1718094023.727879524
1718094023.728887,,,,-0.758517206,-0.761518955,41370.000000000,1718094023.728886604
1718094023.729894,,,,-0.711157322,-0.712908983,41371.000000000,1718094023.729893684
1718094023.730901,,,,-0.721807301,-0.722188652,41372.000000000,1718094023.730900764
1718094023.731768,336.552490234,8358.000000000,1718094023.731767654,,,,
1718094023.731908,,,,-0.929421425,-0.930403769,41373.000000000,1718094023.731907845
1718094023.732915,,,,-1.437157750,-1.437082291,41374.000000000,1718094023.732914925
1718094023.733922,,,,-1.784495473,-1.784540176,41375.000000000,1718094023.733922005
1718094023.734929,,,,-1.910684228,-1.909911633,41376.000000000,1718094023.734929085
1718094023.735936,,,,-1.934917092,-1.935394645,41377.000000000,1718094023.735936165
1718094023.736768,338.093322754,8359.000000000,1718094023.736767530,,,,
1718094023.736943,,,,-1.825604796,-1.826226473,41378.000000000,1718094023.736943245
1718094023.737950,,,,-1.617461801,-1.616641045,41379.000000000,1718094023.737950325
1718094023.738957,,,,-1.439585805,-1.436962008,41380.000000000,1718094023.738957405
1718094023.739964,,,,-1.424079657,-1.424388885,41381.000000000,1718094023.739964485
1718094023.740972,,,,-1.219182134,-1.221246243,41382.000000000,1718094023.740971565
1718094023.741768,339.813659668,8360.000000000,1718094023.741767645,,,,
1718094023.741979,,,,-1.021833301,-1.023104072,41383.000000000,1718094023.741978645
1718094023.742986,,,,-0.959592342,-0.962570012,41384.000000000,1718094023.742985725
1718094023.743993,,,,-0.786308110,-0.786304772,41385.000000000,1718094023.743992805
1718094023.745000,,,,-0.656080484,-0.655548215,41386.000000000,1718094023.744999886
1718094023.746007,,,,-0.713104606,-0.714303315,41387.000000000,1718094023.746006966
1718094023.747014,,,,-0.820349514,-0.821596265,41388.000000000,1718094023.747014046
1718094023.748021,,,,-0.988200545,-0.987764478,41389.000000000,1718094023.748021126
1718094023.749028,,,,-1.269474864,-1.269687891,41390.000000000,1718094023.749028206
1718094023.750035,,,,-1.585680127,-1.587744355,41391.000000000,1718094023.750035286
1718094023.751042,,,,-1.832504392,-1.835169554,41392.000000000,1718094023.751042366
1718094023.751491,341.518829346,8361.000000000,1718094023.751490593,,,,
1718094023.752049,,,,-1.897125363,-1.895895958,41393.000000000,1718094023.752049446
1718094023.753057,,,,-1.938979983,-1.937942863,41394.000000000,1718094023.753056526
1718094023.754064,,,,-1.742472649,-1.741603851,41395.000000000,1718094023.754063606
1718094023.755071,,,,-1.530218601,-1.530527830,41396.000000000,1718094023.755070686
1718094023.756078,,,,-1.438023210,-1.438452601,41397.000000000,1718094023.756077766
1718094023.757085,,,,-1.442999601,-1.443020225,41398.000000000,1718094023.757084846
1718094023.758092,,,,-1.508966804,-1.509973168,41399.000000000,1718094023.758091927
1718094023.759099,,,,-1.552408099,-1.553726912,41400.000000000,1718094023.759099007
1718094023.760106,,,,-1.480406642,-1.483119845,41401.000000000,1718094023.760106087
1718094023.761113,,,,-1.390543103,-1.392366886,41402.000000000,1718094023.761113167
1718094023.762120,,,,-1.367247820,-1.367893577,41403.000000000,1718094023.762120247
1718094023.763127,,,,-1.281759620,-1.280842781,41404.000000000,1718094023.763127327
1718094023.764134,,,,-0.952764809,-0.950790167,41405.000000000,1718094023.764134407
1718094023.765141,,,,-0.506692529,-0.506785333,41406.000000000,1718094023.765141487
1718094023.766149,,,,-0.552970588,-0.555323243,41407.000000000,1718094023.766148567
1718094023.767156,,,,-0.746232510,-0.746517658,41408.000000000,1718094023.767155647
1718094023.768163,,,,-0.782966435,-0.784020901,41409.000000000,1718094023.768162727
1718094023.769170,,,,-1.012385368,-1.012093544,41410.000000000,1718094023.769169807
1718094023.770177,,,,-1.328085780,-1.326231360,41411.000000000,1718094023.770176888
1718094023.771184,,,,-1.507716656,-1.506799817,41412.000000000,1718094023.771183968
1718094023.772191,,,,-1.650565624,-1.649191976,41413.000000000,1718094023.772191048
1718094023.773198,,,,-1.796082973,-1.794925690,41414.000000000,1718094023.773198128
1718094023.774205,,,,-1.788293839,-1.789660811,41415.000000000,1718094023.774205208
1718094023.775212,,,,-1.629265666,-1.629045963,41416.000000000,1718094023.775212288
1718094023.776219,,,,-1.628328085,-1.626810193,41417.000000000,1718094023.776219368
1718094023.777226,,,,-1.450500250,-1.450713277,41418.000000000,1718094023.777226448
1718094023.778234,,,,-0.879296899,-0.879365683,41419.000000000,1718094023.778233528
1718094023.779241,,,,-1.029550314,-1.028513193,41420.000000000,1718094023.779240608
1718094023.780248,,,,-1.131241798,-1.130204678,41421.000000000,1718094023.780247688
1718094023.781255,,,,-1.141723514,-1.138666987,41422.000000000,1718094023.781254768
1718094023.782262,,,,-1.254810214,-1.253172040,41423.000000000,1718094023.782261848
1718094023.783269,,,,-1.365420699,-1.364263415,41424.000000000,1718094023.783268929
1718094023.784276,,,,-1.427180886,-1.429846048,41425.000000000,1718094023.784276009
1718094023.785283,,,,-1.553105235,-1.556299329,41426.000000000,1718094023.785283089
1718094023.786290,,,,-1.515145183,-1.516223669,41427.000000000,1718094023.786290169
1718094023.787297,,,,-1.386792779,-1.386645198,41428.000000000,1718094023.787297249
1718094023.788304,,,,-1.301641107,-1.303176403,41429.000000000,1718094023.788304329
1718094023.789311,,,,-1.140930176,-1.140373826,41430.000000000,1718094023.789311409
1718094023.790318,,,,-0.853260994,-0.851118028,41431.000000000,1718094023.790318489
1718094023.791326,,,,-0.696805120,-0.696513295,41432.000000000,1718094023.791325569
1718094023.792333,,,,-0.757699847,-0.759499550,41433.000000000,1718094023.792332649
1718094023.793340,,,,-0.891148865,-0.893982351,41434.000000000,1718094023.793339729
1718094023.794347,,,,-1.056259394,-1.056856990,41435.000000000,1718094023.794346809
1718094023.795354,,,,-1.285173416,-1.286756754,41436.000000000,1718094023.795353889
1718094023.796361,,,,-1.522044897,-1.522858858,41437.000000000,1718094023.796360970
1718094023.797368,,,,-1.858492255,-1.859570742,41438.000000000,1718094023.797368050
1718094023.798375,,,,-2.040503263,-2.039754629,41439.000000000,1718094023.798375130
1718094023.799382,,,,-1.769662499,-1.769538879,41440.000000000,1718094023.799382210
1718094023.800389,,,,-1.337076902,-1.337650537,41441.000000000,1718094023.800389290
1718094023.801396,,,,-1.097440839,-1.097605705,41442.000000000,1718094023.801396370
1718094023.801491,352.476776123,8371.000000000,1718094023.801490545,,,,
1718094023.802403,,,,-0.972381890,-0.971104383,41443.000000000,1718094023.802403450
1718094023.803411,,,,-0.944759309,-0.944419384,41444.000000000,1718094023.803410530
1718094023.804418,,,,-0.939758897,-0.941246033,41445.000000000,1718094023.804417610
1718094023.805425,,,,-0.687405288,-0.686296105,41446.000000000,1718094023.805424690
1718094023.806432,,,,-0.757892191,-0.757984996,41447.000000000,1718094023.806431770
1718094023.806491,352.525756836,8372.000000000,1718094023.806490660,,,,
1718094023.807439,,,,-1.149464488,-1.151600838,41448.000000000,1718094023.807438850
1718094023.808446,,,,-1.475021601,-1.479609966,41449.000000000,1718094023.808445930
1718094023.809453,,,,-1.649868369,-1.652485490,41450.000000000,1718094023.809453011
1718094023.810460,,,,-1.728841662,-1.729222894,41451.000000000,1718094023.810460091
1718094023.811467,,,,-1.632150531,-1.631353855,41452.000000000,1718094023.811467171
1718094023.811491,352.558410645,8373.000000000,1718094023.811490536,,,,
1718094023.812474,,,,-1.466342926,-1.465353966,41453.000000000,1718094023.812474251
1718094023.813481,,,,-1.308276296,-1.307599902,41454.000000000,1718094023.813481331
1718094023.814488,,,,-1.269715309,-1.270096660,41455.000000000,1718094023.814488411
1718094023.815495,,,,-1.188602567,-1.189176202,41456.000000000,1718094023.815495491
1718094023.816491,352.737915039,8374.000000000,1718094023.816490650,,,,
1718094023.816503,,,,-1.086237907,-1.086931705,41457.000000000,1718094023.816502571
1718094023.817510,,,,-0.975218654,-0.974926829,41458.000000000,1718094023.817509651
1718094023.818517,,,,-0.889874756,-0.891049385,41459.000000000,1718094023.818516731
1718094023.819524,,,,-0.900043905,-0.901867628,41460.000000000,1718094023.819523811
1718094023.820531,,,,-1.183169365,-1.185521960,41461.000000000,1718094023.820530891
1718094023.821491,353.048095703,8375.000000000,1718094023.821490526,,,,
1718094023.821538,,,,-1.471800089,-1.473215222,41462.000000000,1718094023.821537971
1718094023.822545,,,,-1.608879328,-1.609885693,41463.000000000,1718094023.822545052
1718094023.823552,,,,-1.686097503,-1.686599016,41464.000000000,1718094023.823552132
1718094023.824559,,,,-1.556302667,-1.555770397,41465.000000000,1718094023.824559212
1718094023.825566,,,,-1.439946413,-1.440423846,41466.000000000,1718094023.825566292
1718094023.826491,353.505279541,8376.000000000,1718094023.826490641,,,,
1718094023.826573,,,,-1.329720497,-1.329284430,41467.000000000,1718094023.826573372
1718094023.827580,,,,-1.297578335,-1.297887444,41468.000000000,1718094023.827580452
1718094023.828588,,,,-1.417732954,-1.417657495,41469.000000000,1718094023.828587532
1718094023.829595,,,,-1.379484415,-1.379865766,41470.000000000,1718094023.829594612
1718094023.830602,,,,-1.209998608,-1.210187554,41471.000000000,1718094023.830601692
1718094023.831491,354.158508301,8377.000000000,1718094023.831490517,,,,
1718094023.831609,,,,-1.120687962,-1.119867325,41472.000000000,1718094023.831608772
1718094023.832616,,,,-1.133862257,-1.133426189,41473.000000000,1718094023.832615852
1718094023.833623,,,,-1.173601270,-1.173958540,41474.000000000,1718094023.833622932
1718094023.834630,,,,-1.166365027,-1.167635798,41475.000000000,1718094023.834630013
1718094023.835637,,,,-1.192593217,-1.191604257,41476.000000000,1718094023.835637093
1718094023.836491,355.024414063,8378.000000000,1718094023.836490631,,,,
1718094023.836644,,,,-1.292938471,-1.293031335,41477.000000000,1718094023.836644173
1718094023.837651,,,,-1.387153387,-1.388760805,41478.000000000,1718094023.837651253
1718094023.838658,,,,-1.374003172,-1.376259685,41479.000000000,1718094023.838658333
1718094023.839665,,,,-1.194131851,-1.194272757,41480.000000000,1718094023.839665413
1718094023.840672,,,,-0.953245640,-0.954348147,41481.000000000,1718094023.840672493
1718094023.841491,356.037750244,8379.000000000,1718094023.841490507,,,,
1718094023.841680,,,,-1.240794539,-1.239108324,41482.000000000,1718094023.841679573
1718094023.842687,,,,-1.471920371,-1.471388102,41483.000000000,1718094023.842686653
1718094023.843694,,,,-1.122659326,-1.124410987,41484.000000000,1718094023.843693733
1718094023.844701,,,,-0.613120019,-0.613982141,41485.000000000,1718094023.844700813
1718094023.845708,,,,-0.297660023,-0.298257679,41486.000000000,1718094023.845707893
1718094023.846491,357.166076660,8380.000000000,1718094023.846490622,,,,
1718094023.846715,,,,-0.259339392,-0.257893622,41487.000000000,1718094023.846714973
1718094023.847722,,,,-0.733515024,-0.733175159,41488.000000000,1718094023.847722054
1718094023.848729,,,,-1.194372296,-1.194248676,41489.000000000,1718094023.848729134
1718094023.849736,,,,-1.359530807,-1.361594915,41490.000000000,1718094023.849736214
1718094023.850743,,,,-1.586112857,-1.588609815,41491.000000000,1718094023.850743294
1718094023.851750,,,,-1.749011636,-1.748046637,41492.000000000,1718094023.851750374
1718094023.853765,,,,-1.796443582,-1.799926162,41494.000000000,1718094023.853764534
1718094023.854772,,,,-1.610177517,-1.612313747,41495.000000000,1718094023.854771614
1718094023.855308,358.376861572,8381.000000000,1718094023.855307817,,,,
1718094023.855779,,,,-1.604311585,-1.607145071,41496.000000000,1718094023.855778694
1718094023.856786,,,,-1.652104139,-1.653326988,41497.000000000,1718094023.856785774
1718094023.857793,,,,-1.603205681,-1.606375694,41498.000000000,1718094023.857792854
1718094023.858800,,,,-1.516419411,-1.518243074,41499.000000000,1718094023.858799934
1718094023.859807,,,,-1.382778049,-1.381332278,41500.000000000,1718094023.859807014
1718094023.860308,359.539276123,8382.000000000,1718094023.860307932,,,,
1718094023.860814,,,,-1.252069592,-1.250311255,41501.000000000,1718094023.860814095
1718094023.861821,,,,-1.305487633,-1.307239294,41502.000000000,1718094023.861821175
1718094023.862828,,,,-1.382561684,-1.382870793,41503.000000000,1718094023.862828255
1718094023.863835,,,,-1.378811359,-1.379096508,41504.000000000,1718094023.863835335
1718094023.864842,,,,-1.382922292,-1.384721994,41505.000000000,1718094023.864842415
1718094023.865308,360.702362061,8383.000000000,1718094023.865307808,,,,
1718094023.865849,,,,-1.472881913,-1.473431587,41506.000000000,1718094023.865849495
1718094023.866857,,,,-1.357968211,-1.358493686,41507.000000000,1718094023.866856575
1718094023.867864,,,,-1.213292122,-1.215404391,41508.000000000,1718094023.867863655
1718094023.868871,,,,-1.166533351,-1.167948365,41509.000000000,1718094023.868870735
1718094023.869878,,,,-1.044671774,-1.047457218,41510.000000000,1718094023.869877815
1718094023.870308,361.702117920,8384.000000000,1718094023.870307922,,,,
1718094023.870885,,,,-1.047244191,-1.048827529,41511.000000000,1718094023.870884895
1718094023.871892,,,,-1.022722840,-1.022142529,41512.000000000,1718094023.871891975
1718094023.872899,,,,-0.918675303,-0.919008553,41513.000000000,1718094023.872899055
1718094023.873906,,,,-1.033468962,-1.033489585,41514.000000000,1718094023.873906136
1718094023.874913,,,,-1.095421433,-1.099673271,41515.000000000,1718094023.874913216
1718094023.875308,362.636871338,8385.000000000,1718094023.875307798,,,,
1718094023.875920,,,,-1.154344797,-1.154870272,41516.000000000,1718094023.875920296
1718094023.876927,,,,-1.249280810,-1.248965025,41517.000000000,1718094023.876927376
1718094023.877934,,,,-1.471319318,-1.471412182,41518.000000000,1718094023.877934456
1718094023.878942,,,,-1.692299962,-1.694436312,41519.000000000,1718094023.878941536
1718094023.879949,,,,-1.833706498,-1.832837701,41520.000000000,1718094023.879948616
1718094023.880956,,,,-1.720715880,-1.720616460,41521.000000000,1718094023.880955696
1718094023.881963,,,,-1.561206937,-1.562742114,41522.000000000,1718094023.881962776
1718094023.882970,,,,-1.512164235,-1.512184858,41523.000000000,1718094023.882969856
1718094023.883977,,,,-1.428262711,-1.428571939,41524.000000000,1718094023.883976936
1718094023.884984,,,,-1.329191566,-1.327457428,41525.000000000,1718094023.884984016
1718094023.885991,,,,-1.236779809,-1.236944675,41526.000000000,1718094023.885991096
1718094023.886998,,,,-1.153359056,-1.156336784,41527.000000000,1718094023.886998177
1718094023.888005,,,,-1.063231111,-1.062578678,41528.000000000,1718094023.888005257
1718094023.889012,,,,-1.027098179,-1.026157260,41529.000000000,1718094023.889012337
1718094023.890019,,,,-0.980171025,-0.979951322,41530.000000000,1718094023.890019417
1718094023.891026,,,,-0.903241277,-0.903213918,41531.000000000,1718094023.891026497
1718094023.892034,,,,-0.744165003,-0.743320286,41532.000000000,1718094023.892033577
1718094023.893041,,,,-0.732505322,-0.734833956,41533.000000000,1718094023.893040657
1718094023.894048,,,,-0.920959175,-0.919657648,41534.000000000,1718094023.894047737
1718094023.895055,,,,-0.964640856,-0.960165977,41535.000000000,1718094023.895054817
1718094023.896062,,,,-0.940552235,-0.938241005,41536.000000000,1718094023.896061897
1718094023.897069,,,,-0.966852546,-0.967786789,41537.000000000,1718094023.897068977
1718094023.898076,,,,-1.136963487,-1.139845014,41538.000000000,1718094023.898076057
1718094023.899083,,,,-1.420521617,-1.419628859,41539.000000000,1718094023.899083138
1718094023.900090,,,,-1.579501748,-1.580700397,41540.000000000,1718094023.900090218
1718094023.901097,,,,-1.586930275,-1.588537693,41541.000000000,1718094023.901097298
1718094023.902104,,,,-1.473410845,-1.473143101,41542.000000000,1718094023.902104378
1718094023.903111,,,,-1.409511089,-1.413089752,41543.000000000,1718094023.903111458
1718094023.904119,,,,-1.589358330,-1.590653181,41544.000000000,1718094023.904118538
1718094023.905126,,,,-1.796347499,-1.794012189,41545.000000000,1718094023.905125618
1718094023.905308,365.525848389,8391.000000000,1718094023.905307770,,,,
1718094023.906133,,,,-1.826229811,-1.825024486,41546.000000000,1718094023.906132698
1718094023.907140,,,,-1.599936247,-1.600485802,41547.000000000,1718094023.907139778
1718094023.908147,,,,-1.429224372,-1.430110455,41548.000000000,1718094023.908146858
1718094023.909154,,,,-1.426147103,-1.426841021,41549.000000000,1718094023.909153938
1718094023.910161,,,,-1.305679917,-1.303657293,41550.000000000,1718094023.910161018
1718094023.910308,365.837921143,8392.000000000,1718094023.910307884,,,,
1718094023.911168,,,,-1.055009246,-1.051207542,41551.000000000,1718094023.911168098
1718094023.912175,,,,-0.860905886,-0.861383379,41552.000000000,1718094023.912175179
1718094023.913182,,,,-0.878551662,-0.878307879,41553.000000000,1718094023.913182259
1718094023.914189,,,,-0.953678370,-0.955045342,41554.000000000,1718094023.914189339
1718094023.915196,,,,-1.010462165,-1.011564612,41555.000000000,1718094023.915196419
1718094023.915308,366.133728027,8393.000000000,1718094023.915307760,,,,
1718094023.916203,,,,-1.148070216,-1.147345662,41556.000000000,1718094023.916203499
1718094023.917211,,,,-1.090613246,-1.086450934,41557.000000000,1718094023.917210579
1718094023.918218,,,,-1.182640433,-1.185185432,41558.000000000,1718094023.918217659
1718094023.919225,,,,-1.544570804,-1.547043681,41559.000000000,1718094023.919224739
1718094023.920232,,,,-1.719682217,-1.721289515,41560.000000000,1718094023.920231819
1718094023.920308,366.314453125,8394.000000000,1718094023.920307875,,,,
1718094023.921239,,,,-1.766344905,-1.767014623,41561.000000000,1718094023.921238899
1718094023.922246,,,,-1.701964259,-1.704340935,41562.000000000,1718094023.922245979
1718094023.923253,,,,-1.557889342,-1.557549357,41563.000000000,1718094023.923253059
1718094023.924260,,,,-1.381672144,-1.383183360,41564.000000000,1718094023.924260139
1718094023.925267,,,,-1.375734091,-1.377629995,41565.000000000,1718094023.925267220
1718094023.925308,366.577484131,8395.000000000,1718094023.925307751,,,,
1718094023.926274,,,,-1.451341629,-1.451049805,41566.000000000,1718094023.926274300
1718094023.927281,,,,-1.330561876,-1.331351995,41567.000000000,1718094023.927281380
1718094023.928288,,,,-1.117971420,-1.119218230,41568.000000000,1718094023.928288460
1718094023.929296,,,,-1.004187465,-1.005314112,41569.000000000,1718094023.929295540
1718094023.930303,,,,-1.112922907,-1.116477609,41570.000000000,1718094023.930302620
1718094023.930308,366.774719238,8396.000000000,1718094023.930307865,,,,
1718094023.931310,,,,-1.191703796,-1.191724420,41571.000000000,1718094023.931309700
1718094023.932317,,,,-1.206488729,-1.206389189,41572.000000000,1718094023.932316780
1718094023.933324,,,,-0.968246937,-0.969902396,41573.000000000,1718094023.933323860
1718094023.934331,,,,-0.887590885,-0.886794209,41574.000000000,1718094023.934330940
1718094023.935308,367.119964600,8397.000000000,1718094023.935307741,,,,
1718094023.935338,,,,-1.085516691,-1.083902597,41575.000000000,1718094023.935338020
1718094023.936345,,,,-1.307939768,-1.309282780,41576.000000000,1718094023.936345100
1718094023.937352,,,,-1.535074830,-1.536658168,41577.000000000,1718094023.937352180
1718094023.938359,,,,-1.555220842,-1.556804180,41578.000000000,1718094023.938359261
1718094023.939366,,,,-1.427180886,-1.426191926,41579.000000000,1718094023.939366341
1718094023.940308,367.350128174,8398.000000000,1718094023.940307856,,,,
1718094023.940373,,,,-1.395399332,-1.396958590,41580.000000000,1718094023.940373421
1718094023.941381,,,,-1.406169415,-1.405805469,41581.000000000,1718094023.941380501
1718094023.942388,,,,-1.442158103,-1.441097021,41582.000000000,1718094023.942387581
1718094023.943395,,,,-1.462015629,-1.461820006,41583.000000000,1718094023.943394661
1718094023.944402,,,,-1.416699171,-1.417369008,41584.000000000,1718094023.944401741
1718094023.945308,367.777679443,8399.000000000,1718094023.945307732,,,,
1718094023.945409,,,,-1.357896090,-1.357796550,41585.000000000,1718094023.945408821
1718094023.946416,,,,-1.212835431,-1.216630459,41586.000000000,1718094023.946415901
1718094023.947423,,,,-1.209133148,-1.213168621,41587.000000000,1718094023.947422981
1718094023.948430,,,,-1.364964008,-1.367052197,41588.000000000,1718094023.948430061
1718094023.949437,,,,-1.477305412,-1.479874372,41589.000000000,1718094023.949437141
1718094023.950308,368.156005859,8400.000000000,1718094023.950307846,,,,
1718094023.950444,,,,-1.378811359,-1.378423333,41590.000000000,1718094023.950444221
1718094023.951451,,,,-1.242789865,-1.242810607,41591.000000000,1718094023.951451302
1718094023.952458,,,,-1.241539836,-1.242666364,41592.000000000,1718094023.952458382
1718094023.953465,,,,-1.214806676,-1.212231040,41593.000000000,1718094023.953465462
1718094023.954473,,,,-0.994523227,-0.992524505,41594.000000000,1718094023.954472542
1718094023.955480,,,,-0.827874184,-0.828135312,41595.000000000,1718094023.955479622
1718094023.956487,,,,-0.927930951,-0.926677465,41596.000000000,1718094023.956486702
1718094023.957494,,,,-1.127707839,-1.129507542,41597.000000000,1718094023.957493782
1718094023.958501,,,,-1.345515132,-1.350704551,41598.000000000,1718094023.958500862
1718094023.959508,,,,-1.507019520,-1.508843303,41599.000000000,1718094023.959507942
1718094023.960515,,,,-1.585800409,-1.585460424,41600.000000000,1718094023.960515022
1718094023.961522,,,,-1.499855399,-1.501847506,41601.000000000,1718094023.961522102
1718094023.962529,,,,-1.493652940,-1.493433237,41602.000000000,1718094023.962529182
1718094023.963536,,,,-1.486272573,-1.484754682,41603.000000000,1718094023.963536263
1718094023.964543,,,,-1.257190228,-1.256417513,41604.000000000,1718094023.964543343
1718094023.965550,,,,-1.059600949,-1.056520462,41605.000000000,1718094023.965550423
1718094023.966558,,,,-0.955745816,-0.953626931,41606.000000000,1718094023.966557503
1718094023.967565,,,,-0.905020297,-0.906363249,41607.000000000,1718094023.967564583
1718094023.968572,,,,-0.901077628,-0.903021574,41608.000000000,1718094023.968571663
1718094023.969579,,,,-0.777316928,-0.778227150,41609.000000000,1718094023.969578743
1718094023.970586,,,,-0.721013963,-0.720914483,41610.000000000,1718094023.970585823
1718094023.971593,,,,-0.980291247,-0.980961025,41611.000000000,1718094023.971592903
1718094023.972600,,,,-1.385037780,-1.387967467,41612.000000000,1718094023.972599983
1718094023.973607,,,,-1.477786183,-1.479393601,41613.000000000,1718094023.973607063
1718094023.974614,,,,-1.384508967,-1.384553671,41614.000000000,1718094023.974614143
1718094023.975621,,,,-1.337894320,-1.340054631,41615.000000000,1718094023.975621223
1718094023.976628,,,,-1.261757851,-1.259807229,41616.000000000,1718094023.976628304
1718094023.977635,,,,-1.220311999,-1.220525026,41617.000000000,1718094023.977635384
1718094023.978642,,,,-1.369122982,-1.371259212,41618.000000000,1718094023.978642464
1718094023.979650,,,,-1.514784575,-1.516993046,41619.000000000,1718094023.979649544
1718094023.980657,,,,-1.478819966,-1.479249358,41620.000000000,1718094023.980656624
1718094023.981664,,,,-1.565173626,-1.565146208,41621.000000000,1718094023.981663704
1718094023.982671,,,,-1.567697883,-1.567502141,41622.000000000,1718094023.982670784
1718094023.983678,,,,-1.588805437,-1.590388775,41623.000000000,1718094023.983677864
1718094023.984685,,,,-1.693021178,-1.695037246,41624.000000000,1718094023.984684944
1718094023.985692,,,,-1.648113489,-1.649720907,41625.000000000,1718094023.985692024
1718094023.986699,,,,-1.390495062,-1.394193888,41626.000000000,1718094023.986699104
1718094023.987706,,,,-1.259546161,-1.263629675,41627.000000000,1718094023.987706184
1718094023.988713,,,,-1.333206415,-1.333563685,41628.000000000,1718094023.988713264
1718094023.989720,,,,-1.406914711,-1.405733347,41629.000000000,1718094023.989720345
1718094023.990727,,,,-1.231971622,-1.231030703,41630.000000000,1718094023.990727425
1718094023.991735,,,,-1.172423244,-1.174439311,41631.000000000,1718094023.991734505
1718094023.992742,,,,-1.282817364,-1.283655524,41632.000000000,1718094023.992741585
1718094023.993749,,,,-1.475622535,-1.473191142,41633.000000000,1718094023.993748665
1718094023.994756,,,,-1.603830814,-1.604933262,41634.000000000,1718094023.994755745
1718094023.995763,,,,-1.489085317,-1.490187764,41635.000000000,1718094023.995762825
1718094023.996770,,,,-1.252910972,-1.253436565,41636.000000000,1718094023.996769905
1718094023.997777,,,,-1.129679203,-1.128762245,41637.000000000,1718094023.997776985
1718094023.998784,,,,-1.162422419,-1.163188338,41638.000000000,1718094023.998784065
1718094023.999791,,,,-1.233774662,-1.234396458,41639.000000000,1718094023.999791145
1718094024.000003,374.764953613,8411.000000000,1718094024.000003338,,,,
1718094024.000798,,,,-1.282552958,-1.283751607,41640.000000000,1718094024.000798225
1718094024.001805,,,,-1.339769483,-1.339886308,41641.000000000,1718094024.001805305
1718094024.002812,,,,-1.342606306,-1.341857672,41642.000000000,1718094024.002812386
1718094024.003819,,,,-1.277865052,-1.277957916,41643.000000000,1718094024.003819466
1718094024.004827,,,,-1.066909313,-1.067098260,41644.000000000,1718094024.004826546
1718094024.005003,375.425598145,8412.000000000,1718094024.005003452,,,,
1718094024.005834,,,,-0.590954661,-0.592898607,41645.000000000,1718094024.005833626
1718094024.006841,,,,-0.383628994,-0.383289099,41646.000000000,1718094024.006840706
1718094024.007848,,,,-0.551359832,-0.549721777,41647.000000000,1718094024.007847786
1718094024.008855,,,,-0.623241067,-0.622468472,41648.000000000,1718094024.008854866
1718094024.009862,,,,-0.668629646,-0.667520404,41649.000000000,1718094024.009861946
1718094024.010003,376.069946289,8413.000000000,1718094024.010003328,,,,
1718094024.010869,,,,-0.906462729,-0.907901824,41650.000000000,1718094024.010869026
1718094024.011876,,,,-1.283370376,-1.284112215,41651.000000000,1718094024.011876106
1718094024.012883,,,,-1.658234477,-1.658423543,41652.000000000,1718094024.012883186
1718094024.013890,,,,-1.862771511,-1.861349702,41653.000000000,1718094024.013890266
1718094024.014897,,,,-1.984176159,-1.983427644,41654.000000000,1718094024.014897346
1718094024.015003,376.648437500,8414.000000000,1718094024.015003443,,,,
1718094024.015904,,,,-1.851736903,-1.850795984,41655.000000000,1718094024.015904427
1718094024.016912,,,,-1.781682730,-1.781991959,41656.000000000,1718094024.016911507
1718094024.017919,,,,-1.789952636,-1.789011717,41657.000000000,1718094024.017918587
1718094024.018926,,,,-1.695256948,-1.693642974,41658.000000000,1718094024.018925667
1718094024.019933,,,,-1.628087640,-1.626930356,41659.000000000,1718094024.019932747
1718094024.020003,377.260192871,8415.000000000,1718094024.020003319,,,,
1718094024.020940,,,,-1.578203559,-1.578584909,41660.000000000,1718094024.020939827
1718094024.021947,,,,-1.485695601,-1.487134695,41661.000000000,1718094024.021946907
1718094024.022954,,,,-1.470982790,-1.472229481,41662.000000000,1718094024.022953987
1718094024.023961,,,,-1.571207762,-1.573079586,41663.000000000,1718094024.023961067
1718094024.024968,,,,-1.525001884,-1.526416898,41664.000000000,1718094024.024968147
1718094024.025003,377.839080811,8416.000000000,1718094024.025003433,,,,
1718094024.025975,,,,-1.408861995,-1.408353806,41665.000000000,1718094024.025975227
1718094024.026982,,,,-1.310439944,-1.311830997,41666.000000000,1718094024.026982307
1718094024.027989,,,,-1.258872986,-1.259566903,41667.000000000,1718094024.027989388
1718094024.028996,,,,-1.233798742,-1.233795404,41668.000000000,1718094024.028996468
1718094024.030003,378.401641846,8417.000000000,1718094024.030003309,,,,
1718094024.030004,,,,-1.281399012,-1.282910228,41669.000000000,1718094024.030003548
1718094024.031011,,,,-1.283418417,-1.285530686,41670.000000000,1718094024.031010628
1718094024.032018,,,,-1.211368918,-1.211437702,41671.000000000,1718094024.032017708
1718094024.033025,,,,-1.149103880,-1.151456594,41672.000000000,1718094024.033024788
1718094024.034032,,,,-1.028636813,-1.028945923,41673.000000000,1718094024.034031868
1718094024.035003,378.898162842,8418.000000000,1718094024.035003424,,,,
1718094024.035039,,,,-0.667740107,-0.667183876,41674.000000000,1718094024.035038948
1718094024.036046,,,,-0.350765556,-0.349776566,41675.000000000,1718094024.036046028
1718094024.037053,,,,-0.472122222,-0.472671837,41676.000000000,1718094024.037053108
1718094024.038060,,,,-0.750535727,-0.750796854,41677.000000000,1718094024.038060188
1718094024.039067,,,,-0.930695593,-0.930548012,41678.000000000,1718094024.039067268
1718094024.040003,379.427978516,8419.000000000,1718094024.040003300,,,,
1718094024.040074,,,,-1.124991298,-1.126117826,41679.000000000,1718094024.040074348
1718094024.041081,,,,-1.427781940,-1.431745291,41680.000000000,1718094024.041081429
1718094024.042089,,,,-1.767066121,-1.769611001,41681.000000000,1718094024.042088509
1718094024.043096,,,,-2.121279478,-2.121227980,41682.000000000,1718094024.043095589
1718094024.044103,,,,-2.049614668,-2.048577547,41683.000000000,1718094024.044102669
1718094024.045003,379.891662598,8420.000000000,1718094024.045003414,,,,
1718094024.045110,,,,-1.680784583,-1.678521395,41684.000000000,1718094024.045109749
1718094024.046117,,,,-1.301568985,-1.299185634,41685.000000000,1718094024.046116829
1718094024.047124,,,,-1.244713187,-1.245959878,41686.000000000,1718094024.047123909
1718094024.048131,,,,-1.435859561,-1.435014725,41687.000000000,1718094024.048130989
1718094024.049138,,,,-1.563610911,-1.561804533,41688.000000000,1718094024.049138069
1718094024.050145,,,,-1.594142437,-1.591470599,41689.000000000,1718094024.050145149
1718094024.051152,,,,-1.453168750,-1.454391479,41690.000000000,1718094024.051152229
1718094024.052159,,,,-1.284139633,-1.285386443,41691.000000000,1718094024.052159309
1718094024.053166,,,,-1.304405808,-1.303537011,41692.000000000,1718094024.053166389
1718094024.054173,,,,-1.381768346,-1.383808374,41693.000000000,1718094024.054173470
1718094024.054402,380.289276123,8421.000000000,1718094024.054401875,,,,
1718094024.055181,,,,-1.325224876,-1.324500442,41694.000000000,1718094024.055180550
1718094024.056188,,,,-1.206656933,-1.205740094,41695.000000000,1718094024.056187630
1718094024.057195,,,,-1.179923892,-1.183382392,41696.000000000,1718094024.057194710
1718094024.058202,,,,-1.060274124,-1.063732624,41697.000000000,1718094024.058201790
1718094024.059209,,,,-0.890788257,-0.892395675,41698.000000000,1718094024.059208870
1718094024.059402,380.570892334,8422.000000000,1718094024.059401989,,,,
1718094024.060216,,,,-0.976228356,-0.977835774,41699.000000000,1718094024.060215950
1718094024.061223,,,,-1.278081417,-1.279135823,41700.000000000,1718094024.061223030
1718094024.062230,,,,-1.332749605,-1.331784725,41701.000000000,1718094024.062230110
1718094024.063237,,,,-1.091094136,-1.090225339,41702.000000000,1718094024.063237190
1718094024.064244,,,,-0.790611327,-0.789526165,41703.000000000,1718094024.064244270
1718094024.064402,380.869232178,8423.000000000,1718094024.064401865,,,,
1718094024.065251,,,,-0.818354130,-0.817317069,41704.000000000,1718094024.065251350
1718094024.066258,,,,-0.856482446,-0.858258069,41705.000000000,1718094024.066258430
1718094024.067266,,,,-0.810589015,-0.810297191,41706.000000000,1718094024.067265511
1718094024.068273,,,,-0.744838119,-0.744882882,41707.000000000,1718094024.068272591
1718094024.069280,,,,-0.890716136,-0.891121507,41708.000000000,1718094024.069279671
1718094024.069402,381.217285156,8424.000000000,1718094024.069401979,,,,
1718094024.070287,,,,-1.493556857,-1.496534467,41709.000000000,1718094024.070286751
1718094024.071294,,,,-1.922560334,-1.922845483,41710.000000000,1718094024.071293831
1718094024.072301,,,,-1.751632094,-1.752878785,41711.000000000,1718094024.072300911
1718094024.073308,,,,-1.292986512,-1.293367863,41712.000000000,1718094024.073307991
1718094024.074315,,,,-1.255603552,-1.255984783,41713.000000000,1718094024.074315071
1718094024.074402,381.465972900,8425.000000000,1718094024.074401855,,,,
1718094024.075322,,,,-1.487474561,-1.488985777,41714.000000000,1718094024.075322151
1718094024.076329,,,,-1.753603339,-1.755571365,41715.000000000,1718094024.076329231
1718094024.077336,,,,-1.883013606,-1.882192850,41716.000000000,1718094024.077336311
1718094024.078343,,,,-1.785697460,-1.787304878,41717.000000000,1718094024.078343391
1718094024.079350,,,,-1.636381626,-1.636282206,41718.000000000,1718094024.079350471
1718094024.079402,381.814178467,8426.000000000,1718094024.079401970,,,,
1718094024.080358,,,,-1.486464858,-1.485115290,41719.000000000,1718094024.080357552
1718094024.081365,,,,-1.235289216,-1.236848593,41720.000000000,1718094024.081364632
1718094024.082372,,,,-1.124366164,-1.125805259,41721.000000000,1718094024.082371712
1718094024.083379,,,,-1.325537443,-1.326519847,41722.000000000,1718094024.083378792
1718094024.084386,,,,-1.526949167,-1.527402520,41723.000000000,1718094024.084385872
1718094024.084402,382.228851318,8427.000000000,1718094024.084401846,,,,
1718094024.085393,,,,-1.512404561,-1.513170600,41724.000000000,1718094024.085392952
1718094024.086400,,,,-1.231995702,-1.235021472,41725.000000000,1718094024.086400032
1718094024.087407,,,,-1.099460244,-1.099817514,41726.000000000,1718094024.087407112
1718094024.088414,,,,-1.168023825,-1.168068528,41727.000000000,1718094024.088414192
1718094024.089421,,,,-1.076597691,-1.075728893,41728.000000000,1718094024.089421272
1718094024.090428,,,,-0.996951342,-0.997380733,41729.000000000,1718094024.090428352
1718094024.091435,,,,-1.077174664,-1.079070449,41730.000000000,1718094024.091435432
1718094024.092443,,,,-1.027651072,-1.030460477,41731.000000000,1718094024.092442513
1718094024.093450,,,,-0.898721635,-0.900208831,41732.000000000,1718094024.093449593
1718094024.094457,,,,-0.925935566,-0.928023756,41733.000000000,1718094024.094456673
1718094024.095464,,,,-1.276831269,-1.277573228,41734.000000000,1718094024.095463753
1718094024.096471,,,,-1.715739489,-1.715014935,41735.000000000,1718094024.096470833
1718094024.097478,,,,-1.926815510,-1.926403403,41736.000000000,1718094024.097477913
1718094024.098485,,,,-1.868757606,-1.867431998,41737.000000000,1718094024.098484993
1718094024.099492,,,,-1.614240289,-1.613059044,41738.000000000,1718094024.099492073
1718094024.100499,,,,-1.350203037,-1.350295901,41739.000000000,1718094024.100499153
1718094024.101506,,,,-1.074265718,-1.077363610,41740.000000000,1718094024.101506233
1718094024.102513,,,,-1.041426301,-1.042504787,41741.000000000,1718094024.102513313
1718094024.103520,,,,-1.177159190,-1.178742528,41742.000000000,1718094024.103520393
1718094024.104402,384.419952393,8431.000000000,1718094024.104401827,,,,
1718094024.104527,,,,-1.327965498,-1.329837441,41743.000000000,1718094024.104527473
1718094024.105535,,,,-1.384412766,-1.386645198,41744.000000000,1718094024.105534554
1718094024.106542,,,,-1.255363107,-1.257018566,41745.000000000,1718094024.106541634
1718094024.107549,,,,-1.096262813,-1.094336271,41746.000000000,1718094024.107548714
1718094024.108556,,,,-1.014909625,-1.012959003,41747.000000000,1718094024.108555794
1718094024.109402,385.134368896,8432.000000000,1718094024.109401941,,,,
1718094024.109563,,,,-1.197233081,-1.198575974,41748.000000000,1718094024.109562874
1718094024.110570,,,,-1.299910188,-1.300387740,41749.000000000,1718094024.110569954
1718094024.111577,,,,-1.203291297,-1.203504324,41750.000000000,1718094024.111577034
1718094024.112584,,,,-1.149392366,-1.149557352,41751.000000000,1718094024.112584114
1718094024.113591,,,,-1.355203509,-1.356257915,41752.000000000,1718094024.113591194
1718094024.114402,385.882354736,8433.000000000,1718094024.114401817,,,,
1718094024.114598,,,,-1.439802170,-1.439991117,41753.000000000,1718094024.114598274
1718094024.115605,,,,-1.429969549,-1.430831671,41754.000000000,1718094024.115605354
1718094024.116612,,,,-1.575655222,-1.576252937,41755.000000000,1718094024.116612434
1718094024.117620,,,,-1.613158464,-1.612818599,41756.000000000,1718094024.117619514
1718094024.118627,,,,-1.575631261,-1.575291276,41757.000000000,1718094024.118626595
1718094024.119402,386.780487061,8434.000000000,1718094024.119401932,,,,
1718094024.119634,,,,-1.570462465,-1.571709275,41758.000000000,1718094024.119633675
1718094024.120641,,,,-1.498485088,-1.501030087,41759.000000000,1718094024.120640755
1718094024.121648,,,,-1.362511873,-1.361883402,41760.000000000,1718094024.121647835
1718094024.122655,,,,-1.397995710,-1.397583604,41761.000000000,1718094024.122654915
1718094024.123662,,,,-1.532911181,-1.534470439,41762.000000000,1718094024.123661995
1718094024.124402,387.579254150,8435.000000000,1718094024.124401808,,,,
1718094024.124669,,,,-1.377657413,-1.379360914,41763.000000000,1718094024.124669075
1718094024.125676,,,,-1.046138287,-1.044379950,41764.000000000,1718094024.125676155
1718094024.126683,,,,-0.776187003,-0.776760638,41765.000000000,1718094024.126683235
1718094024.127690,,,,-0.994931936,-0.996875882,41766.000000000,1718094024.127690315
1718094024.128697,,,,-1.616812706,-1.615150571,41767.000000000,1718094024.128697395
1718094024.129402,388.461700439,8436.000000000,1718094024.129401922,,,,
1718094024.129704,,,,-1.460188508,-1.461771846,41768.000000000,1718094024.129704475
1718094024.130712,,,,-1.282288551,-1.282381296,41769.000000000,1718094024.130711555
1718094024.131719,,,,-1.273850322,-1.274976850,41770.000000000,1718094024.131718636
1718094024.132726,,,,-1.212570906,-1.210716486,41771.000000000,1718094024.132725716
1718094024.133733,,,,-1.217811823,-1.218072891,41772.000000000,1718094024.133732796
1718094024.134402,389.278045654,8437.000000000,1718094024.134401798,,,,
1718094024.134740,,,,-1.296664715,-1.297767282,41773.000000000,1718094024.134739876
1718094024.135747,,,,-1.245578647,-1.245815635,41774.000000000,1718094024.135746956
1718094024.136754,,,,-1.141170502,-1.143018365,41775.000000000,1718094024.136754036
1718094024.137761,,,,-1.171870351,-1.170472622,41776.000000000,1718094024.137761116
1718094024.138768,,,,-1.223509431,-1.222856998,41777.000000000,1718094024.138768196
1718094024.139402,390.144836426,8438.000000000,1718094024.139401913,,,,
1718094024.139775,,,,-1.231010079,-1.230814338,41778.000000000,1718094024.139775276
1718094024.140782,,,,-1.049816489,-1.049668908,41779.000000000,1718094024.140782356
1718094024.141789,,,,-1.013803720,-1.015507340,41780.000000000,1718094024.141789436
1718094024.142797,,,,-1.124943137,-1.128137231,41781.000000000,1718094024.142796516
1718094024.143804,,,,-1.294717431,-1.296421051,41782.000000000,1718094024.143803596
1718094024.144402,391.078887939,8439.000000000,1718094024.144401789,,,,
1718094024.144811,,,,-1.298636079,-1.299666524,41783.000000000,1718094024.144810677
1718094024.145818,,,,-1.155522704,-1.155062675,41784.000000000,1718094024.145817757
1718094024.146825,,,,-1.218460917,-1.218048811,41785.000000000,1718094024.146824837
1718094024.147832,,,,-1.520963073,-1.522642493,41786.000000000,1718094024.147831917
1718094024.148566,392.464294434,8441.000000000,1718094024.148565769,,,,
1718094024.148839,,,,-1.748194218,-1.750498772,41787.000000000,1718094024.148838997
1718094024.149402,391.813140869,8440.000000000,1718094024.149401903,,,,
1718094024.149846,,,,-1.713792205,-1.715207338,41788.000000000,1718094024.149846077
1718094024.150853,,,,-1.694030881,-1.694051623,41789.000000000,1718094024.150853157
1718094024.151860,,,,-1.557312369,-1.555842519,41790.000000000,1718094024.151860237
1718094024.152867,,,,-1.418790698,-1.417633414,41791.000000000,1718094024.152867317
1718094024.153566,393.149200439,8442.000000000,1718094024.153565884,,,,
1718094024.153874,,,,-1.329359889,-1.328298807,41792.000000000,1718094024.153874397
1718094024.154881,,,,-1.135785460,-1.136984110,41793.000000000,1718094024.154881477
1718094024.155889,,,,-0.817464650,-0.815297663,41794.000000000,1718094024.155888557
1718094024.156896,,,,-0.667764187,-0.666126072,41795.000000000,1718094024.156895638
1718094024.157903,,,,-0.657258451,-0.657399356,41796.000000000,1718094024.157902718
1718094024.158566,393.683929443,8443.000000000,1718094024.158565760,,,,
1718094024.158910,,,,-0.825253785,-0.823783934,41797.000000000,1718094024.158909798
1718094024.159917,,,,-1.121577501,-1.123305082,41798.000000000,1718094024.159916878
1718094024.160924,,,,-1.460501075,-1.461218953,41799.000000000,1718094024.160923958
1718094024.161931,,,,-1.684534907,-1.684916258,41800.000000000,1718094024.161931038
1718094024.162938,,,,-1.781899095,-1.780669689,41801.000000000,1718094024.162938118
1718094024.163566,394.118560791,8444.000000000,1718094024.163565874,,,,
1718094024.163945,,,,-1.772956014,-1.770164013,41802.000000000,1718094024.163945198
1718094024.164952,,,,-1.661528111,-1.660611272,41803.000000000,1718094024.164952278
1718094024.165959,,,,-1.675832272,-1.673977733,41804.000000000,1718094024.165959358
1718094024.166966,,,,-1.652224422,-1.651379704,41805.000000000,1718094024.166966438
1718094024.167974,,,,-1.534714222,-1.534855127,41806.000000000,1718094024.167973518
1718094024.168981,,,,-1.406506062,-1.406598806,41807.000000000,1718094024.168980598
1718094024.169988,,,,-1.394245386,-1.395011306,41808.000000000,1718094024.169987679
1718094024.170995,,,,-1.435571074,-1.433115602,41809.000000000,1718094024.170994759
1718094024.172002,,,,-1.367271900,-1.365080833,41810.000000000,1718094024.172001839
1718094024.173009,,,,-1.337341309,-1.333948374,41811.000000000,1718094024.173008919
1718094024.174016,,,,-1.267960310,-1.264927864,41812.000000000,1718094024.174015999
1718094024.175023,,,,-1.284764647,-1.283318877,41813.000000000,1718094024.175023079
1718094024.176030,,,,-1.319455147,-1.318898916,41814.000000000,1718094024.176030159
1718094024.177037,,,,-1.175019622,-1.174463391,41815.000000000,1718094024.177037239
1718094024.178044,,,,-1.176558256,-1.178934932,41816.000000000,1718094024.178044319
1718094024.179051,,,,-1.274547458,-1.275938511,41817.000000000,1718094024.179051399
1718094024.180058,,,,-1.292289376,-1.292382240,41818.000000000,1718094024.180058479
1718094024.181066,,,,-1.409463048,-1.406839252,41819.000000000,1718094024.181065559
1718094024.182073,,,,-1.433431387,-1.431841373,41820.000000000,1718094024.182072639
1718094024.183080,,,,-1.228509784,-1.227568865,41821.000000000,1718094024.183079720
1718094024.184087,,,,-0.973487735,-0.973340154,41822.000000000,1718094024.184086800
1718094024.185094,,,,-0.886989892,-0.888428986,41823.000000000,1718094024.185093880
1718094024.186101,,,,-0.686563849,-0.683988214,41824.000000000,1718094024.186100960
1718094024.187108,,,,-0.564269602,-0.562102675,41825.000000000,1718094024.187108040
1718094024.188115,,,,-0.922569871,-0.919705749,41826.000000000,1718094024.188115120
1718094024.189122,,,,-1.200430512,-1.199104905,41827.000000000,1718094024.189122200
1718094024.190129,,,,-1.044407368,-1.044283867,41828.000000000,1718094024.190129280
1718094024.191136,,,,-1.158912420,-1.159942865,41829.000000000,1718094024.191136360
1718094024.192143,,,,-1.407443643,-1.409892440,41830.000000000,1718094024.192143440
1718094024.193151,,,,-1.407106996,-1.405997872,41831.000000000,1718094024.193150520
1718094024.194158,,,,-1.326090336,-1.324404240,41832.000000000,1718094024.194157600
1718094024.195165,,,,-1.309862971,-1.311927199,41833.000000000,1718094024.195164680
1718094024.196172,,,,-1.507620573,-1.510453939,41834.000000000,1718094024.196171761
1718094024.197179,,,,-1.609239936,-1.612818599,41835.000000000,1718094024.197178841
1718094024.198186,,,,-1.422973752,-1.426095724,41836.000000000,1718094024.198185921
1718094024.198566,394.938079834,8451.000000000,1718094024.198565722,,,,
1718094024.199193,,,,-1.272071242,-1.272957444,41837.000000000,1718094024.199193001
1718094024.200200,,,,-1.177543879,-1.177973270,41838.000000000,1718094024.200200081
1718094024.201207,,,,-1.253007174,-1.251681566,41839.000000000,1718094024.201207161
1718094024.202214,,,,-1.592483640,-1.592504382,41840.000000000,1718094024.202214241
1718094024.203221,,,,-1.808632135,-1.808604836,41841.000000000,1718094024.203221321
1718094024.203566,395.188995361,8452.000000000,1718094024.203565836,,,,
1718094024.204228,,,,-1.813704729,-1.815600634,41842.000000000,1718094024.204228401
1718094024.205235,,,,-1.769013405,-1.767375231,41843.000000000,1718094024.205235481
1718094024.206243,,,,-1.639627099,-1.636137962,41844.000000000,1718094024.206242561
1718094024.207250,,,,-1.467352629,-1.465209723,41845.000000000,1718094024.207249641
1718094024.208257,,,,-1.398476481,-1.398449063,41846.000000000,1718094024.208256721
1718094024.208566,395.607360840,8453.000000000,1718094024.208565712,,,,
1718094024.209264,,,,-1.321763039,-1.321976185,41847.000000000,1718094024.209263802
1718094024.210271,,,,-1.209950566,-1.208745122,41848.000000000,1718094024.210270882
1718094024.211278,,,,-1.174394608,-1.173742175,41849.000000000,1718094024.211277962
1718094024.212285,,,,-1.197233081,-1.197446108,41850.000000000,1718094024.212285042
1718094024.213292,,,,-1.101936340,-1.100442529,41851.000000000,1718094024.213292122
1718094024.213566,396.126312256,8454.000000000,1718094024.213565826,,,,
1718094024.214299,,,,-0.842635095,-0.843376994,41852.000000000,1718094024.214299202
1718094024.215306,,,,-0.810925603,-0.813494623,41853.000000000,1718094024.215306282
1718094024.216313,,,,-1.114124894,-1.114938974,41854.000000000,1718094024.216313362
1718094024.217320,,,,-1.292097092,-1.292478323,41855.000000000,1718094024.217320442
1718094024.218328,,,,-1.222716093,-1.225621581,41856.000000000,1718094024.218327522
1718094024.218566,396.695709229,8455.000000000,1718094024.218565702,,,,
1718094024.219335,,,,-1.229158878,-1.230501890,41857.000000000,1718094024.219334602
1718094024.220342,,,,-1.217667580,-1.213360906,41858.000000000,1718094024.220341682
1718094024.221349,,,,-1.192304730,-1.193551540,41859.000000000,1718094024.221348763
1718094024.222356,,,,-1.361862779,-1.364311576,41860.000000000,1718094024.222355843
1718094024.223363,,,,-1.425594211,-1.426167846,41861.000000000,1718094024.223362923
1718094024.223566,397.282073975,8456.000000000,1718094024.223565817,,,,
1718094024.224370,,,,-1.385206103,-1.385371089,41862.000000000,1718094024.224370003
1718094024.225377,,,,-1.348087549,-1.349045753,41863.000000000,1718094024.225377083
1718094024.226384,,,,-1.320224524,-1.321423173,41864.000000000,1718094024.226384163
1718094024.227391,,,,-1.520145655,-1.521873236,41865.000000000,1718094024.227391243
1718094024.228398,,,,-1.614600897,-1.616833329,41866.000000000,1718094024.228398323
1718094024.228566,397.835144043,8457.000000000,1718094024.228565693,,,,
1718094024.229405,,,,-1.492787480,-1.493505359,41867.000000000,1718094024.229405403
1718094024.230412,,,,-1.307603240,-1.309234619,41868.000000000,1718094024.230412483
1718094024.231420,,,,-1.364098549,-1.366571307,41869.000000000,1718094024.231419563
1718094024.232427,,,,-1.428022265,-1.430951953,41870.000000000,1718094024.232426643
1718094024.233434,,,,-1.384340644,-1.388568401,41871.000000000,1718094024.233433723
1718094024.233566,398.388458252,8458.000000000,1718094024.233565807,,,,
1718094024.234441,,,,-1.391889334,-1.394338131,41872.000000000,1718094024.234440804
1718094024.235448,,,,-1.340178132,-1.341208577,41873.000000000,1718094024.235447884
1718094024.236455,,,,-1.272503972,-1.275048971,41874.000000000,1718094024.236454964
1718094024.237462,,,,-1.300607443,-1.303897619,41875.000000000,1718094024.237462044
1718094024.238469,,,,-1.340538740,-1.342025995,41876.000000000,1718094024.238469124
1718094024.238566,398.925231934,8459.000000000,1718094024.238565683,,,,
1718094024.239476,,,,-1.334817052,-1.336232185,41877.000000000,1718094024.239476204
1718094024.240483,,,,-1.327148199,-1.326615930,41878.000000000,1718094024.240483284
1718094024.241490,,,,-1.404294252,-1.403497577,41879.000000000,1718094024.241490364
1718094024.242497,,,,-1.510361195,-1.508218169,41880.000000000,1718094024.242497444
1718094024.243505,,,,-1.524280667,-1.518964291,41881.000000000,1718094024.243504524
1718094024.243566,399.210418701,8460.000000000,1718094024.243565798,,,,
1718094024.244512,,,,-1.523439169,-1.520406723,41882.000000000,1718094024.244511604
1718094024.245519,,,,-1.544883370,-1.544687748,41883.000000000,1718094024.245518684
1718094024.246526,,,,-1.504230857,-1.505429506,41884.000000000,1718094024.246525764
1718094024.247533,,,,-1.333663106,-1.335342646,41885.000000000,1718094024.247532845
1718094024.248540,,,,-1.210575581,-1.212303162,41886.000000000,1718094024.248539925
1718094024.249547,,,,-1.158768177,-1.159029365,41887.000000000,1718094024.249547005
1718094024.250554,,,,-1.146940231,-1.146624446,41888.000000000,1718094024.250554085
1718094024.251561,,,,-1.032435179,-1.033489585,41889.000000000,1718094024.251561165
1718094024.252568,,,,-0.897110939,-0.897973061,41890.000000000,1718094024.252568245
1718094024.252913,399.378295898,8461.000000000,1718094024.252912521,,,,
1718094024.253575,,,,-0.943316877,-0.944611728,41891.000000000,1718094024.253575325
1718094024.254582,,,,-1.052653313,-1.052265286,41892.000000000,1718094024.254582405
1718094024.255589,,,,-1.060971260,-1.060126543,41893.000000000,1718094024.255589485
1718094024.256597,,,,-1.239255905,-1.238435268,41894.000000000,1718094024.256596565
1718094024.257604,,,,-1.580511451,-1.583489180,41895.000000000,1718094024.257603645
1718094024.257913,399.378295898,8462.000000000,1718094024.257912636,,,,
1718094024.258611,,,,-1.717975259,-1.718116164,41896.000000000,1718094024.258610725
1718094024.259618,,,,-1.708839893,-1.709052920,41897.000000000,1718094024.259617805
1718094024.260625,,,,-1.498701453,-1.497640371,41898.000000000,1718094024.260624886
1718094024.261632,,,,-1.290197849,-1.290699363,41899.000000000,1718094024.261631966
1718094024.262639,,,,-1.312339187,-1.312816739,41900.000000000,1718094024.262639046
1718094024.262913,399.210418701,8463.000000000,1718094024.262912512,,,,
1718094024.263646,,,,-1.313565254,-1.311181903,41901.000000000,1718094024.263646126
1718094024.264653,,,,-1.256589174,-1.256008863,41902.000000000,1718094024.264653206
1718094024.265660,,,,-1.105157852,-1.105274677,41903.000000000,1718094024.265660286
1718094024.266667,,,,-1.022746801,-1.023560882,41904.000000000,1718094024.266667366
1718094024.267674,,,,-1.212306499,-1.213264823,41905.000000000,1718094024.267674446
1718094024.267913,398.891693115,8464.000000000,1718094024.267912626,,,,
1718094024.268682,,,,-1.443600535,-1.443332791,41906.000000000,1718094024.268681526
1718094024.269689,,,,-1.529545546,-1.530191302,41907.000000000,1718094024.269688606
1718094024.270696,,,,-1.543633223,-1.541971087,41908.000000000,1718094024.270695686
1718094024.271703,,,,-1.491633534,-1.493865967,41909.000000000,1718094024.271702766
1718094024.272710,,,,-1.427253008,-1.429605603,41910.000000000,1718094024.272709846
1718094024.272913,398.371734619,8465.000000000,1718094024.272912502,,,,
1718094024.273717,,,,-1.423502684,-1.424436927,41911.000000000,1718094024.273716927
1718094024.274724,,,,-1.413646102,-1.414315820,41912.000000000,1718094024.274724007
1718094024.275731,,,,-1.261565566,-1.262644053,41913.000000000,1718094024.275731087
1718094024.276738,,,,-1.119630218,-1.121309757,41914.000000000,1718094024.276738167
1718094024.277745,,,,-1.208844662,-1.209586620,41915.000000000,1718094024.277745247
1718094024.277913,397.851959229,8466.000000000,1718094024.277912617,,,,
1718094024.278752,,,,-1.378018022,-1.379384995,41916.000000000,1718094024.278752327
1718094024.279759,,,,-1.281230688,-1.283751607,41917.000000000,1718094024.279759407
1718094024.280766,,,,-1.122587204,-1.122391582,41918.000000000,1718094024.280766487
1718094024.281774,,,,-1.036834598,-1.037239909,41919.000000000,1718094024.281773567
1718094024.282781,,,,-0.993489504,-0.993534207,41920.000000000,1718094024.282780647
1718094024.283788,,,,-1.111360312,-1.113424420,41921.000000000,1718094024.283787727
1718094024.284795,,,,-1.345178604,-1.345247388,41922.000000000,1718094024.284794807
1718094024.285802,,,,-1.332268834,-1.329909563,41923.000000000,1718094024.285801888
1718094024.286809,,,,-1.135977745,-1.134099245,41924.000000000,1718094024.286808968
1718094024.287816,,,,-1.166701555,-1.166626096,41925.000000000,1718094024.287816048
1718094024.288823,,,,-1.344409347,-1.341184497,41926.000000000,1718094024.288823128
1718094024.289830,,,,-1.369579792,-1.369456172,41927.000000000,1718094024.289830208
1718094024.290837,,,,-1.247670174,-1.248604417,41928.000000000,1718094024.290837288
1718094024.291844,,,,-1.171004891,-1.171410203,41929.000000000,1718094024.291844368
1718094024.292851,,,,-1.220336080,-1.220909715,41930.000000000,1718094024.292851448
1718094024.293859,,,,-1.351621509,-1.352483630,41931.000000000,1718094024.293858528
1718094024.294866,,,,-1.597051382,-1.597216249,41932.000000000,1718094024.294865608
1718094024.295873,,,,-1.707806110,-1.705927610,41933.000000000,1718094024.295872688
1718094024.296880,,,,-1.699656367,-1.699364543,41934.000000000,1718094024.296879768
1718094024.297887,,,,-1.520602465,-1.522305965,41935.000000000,1718094024.297886848
1718094024.298894,,,,-1.238582850,-1.241873026,41936.000000000,1718094024.298893929
1718094024.299901,,,,-0.988032281,-0.987716436,41937.000000000,1718094024.299901009
1718094024.300908,,,,-1.030824423,-1.029883504,41938.000000000,1718094024.300908089
1718094024.301915,,,,-1.295438647,-1.295339227,41939.000000000,1718094024.301915169
1718094024.302912,396.377471924,8471.000000000,1718094024.302912474,,,,
1718094024.302922,,,,-1.225312471,-1.225813985,41940.000000000,1718094024.302922249
1718094024.303929,,,,-0.953197539,-0.954732776,41941.000000000,1718094024.303929329
1718094024.304936,,,,-1.311786294,-1.312335849,41942.000000000,1718094024.304936409
1718094024.305943,,,,-1.573179126,-1.573247910,41943.000000000,1718094024.305943489
1718094024.306951,,,,-1.725884676,-1.725400448,41944.000000000,1718094024.306950569
1718094024.307913,396.544952393,8472.000000000,1718094024.307912588,,,,
1718094024.307958,,,,-1.586088896,-1.586542249,41945.000000000,1718094024.307957649
1718094024.308965,,,,-1.487955332,-1.492591858,41946.000000000,1718094024.308964729
1718094024.309972,,,,-1.637511611,-1.637628436,41947.000000000,1718094024.309971809
1718094024.310979,,,,-1.634001613,-1.633325219,41948.000000000,1718094024.310978889
1718094024.311986,,,,-1.524641275,-1.526152492,41949.000000000,1718094024.311985970
1718094024.312912,396.896697998,8473.000000000,1718094024.312912464,,,,
1718094024.312993,,,,-1.421699643,-1.423018575,41950.000000000,1718094024.312993050
1718094024.314000,,,,-1.404270291,-1.404795766,41951.000000000,1718094024.314000130
1718094024.315007,,,,-1.414655805,-1.413810968,41952.000000000,1718094024.315007210
1718094024.316014,,,,-1.365228415,-1.363205671,41953.000000000,1718094024.316014290
1718094024.317021,,,,-1.305271268,-1.308104753,41954.000000000,1718094024.317021370
1718094024.317913,397.332366943,8474.000000000,1718094024.317912579,,,,
1718094024.318028,,,,-1.268008471,-1.269134998,41955.000000000,1718094024.318028450
1718094024.319036,,,,-1.164369702,-1.167155027,41956.000000000,1718094024.319035530
1718094024.320043,,,,-1.008202314,-1.009737611,41957.000000000,1718094024.320042610
1718094024.321050,,,,-0.879873872,-0.879870534,41958.000000000,1718094024.321049690
1718094024.322057,,,,-0.967886329,-0.968195498,41959.000000000,1718094024.322056770
1718094024.322912,397.717803955,8475.000000000,1718094024.322912455,,,,
1718094024.323064,,,,-1.255315065,-1.255479932,41960.000000000,1718094024.323063850
1718094024.324071,,,,-1.532646775,-1.531176925,41961.000000000,1718094024.324070930
1718094024.325078,,,,-1.523631573,-1.523435831,41962.000000000,1718094024.325078011
1718094024.326085,,,,-1.407780170,-1.408233643,41963.000000000,1718094024.326085091
1718094024.327092,,,,-1.232933283,-1.234324336,41964.000000000,1718094024.327092171
1718094024.327913,398.220794678,8476.000000000,1718094024.327912569,,,,
1718094024.328099,,,,-1.181270123,-1.181122541,41965.000000000,1718094024.328099251
1718094024.329106,,,,-1.172134757,-1.172107339,41966.000000000,1718094024.329106331
1718094024.330113,,,,-1.211729527,-1.214995742,41967.000000000,1718094024.330113411
1718094024.331120,,,,-1.220143676,-1.223241568,41968.000000000,1718094024.331120491
1718094024.332128,,,,-1.291976810,-1.293199539,41969.000000000,1718094024.332127571
1718094024.332912,398.572967529,8477.000000000,1718094024.332912445,,,,
1718094024.333135,,,,-1.482209682,-1.483168006,41970.000000000,1718094024.333134651
1718094024.334142,,,,-1.556422830,-1.559424520,41971.000000000,1718094024.334141731
1718094024.335149,,,,-1.472665548,-1.473551750,41972.000000000,1718094024.335148811
1718094024.336156,,,,-1.471006751,-1.471748710,41973.000000000,1718094024.336155891
1718094024.337163,,,,-1.481320143,-1.479032993,41974.000000000,1718094024.337162971
1718094024.337913,398.757446289,8478.000000000,1718094024.337912560,,,,
1718094024.338170,,,,-1.388956428,-1.385563374,41975.000000000,1718094024.338170052
1718094024.339177,,,,-1.345106483,-1.345824361,41976.000000000,1718094024.339177132
1718094024.340184,,,,-1.404703021,-1.407368183,41977.000000000,1718094024.340184212
1718094024.341191,,,,-1.464539886,-1.466964602,41978.000000000,1718094024.341191292
1718094024.342198,,,,-1.528103113,-1.529518127,41979.000000000,1718094024.342198372
1718094024.342912,398.790985107,8479.000000000,1718094024.342912436,,,,
1718094024.343205,,,,-1.475935102,-1.475138426,41980.000000000,1718094024.343205452
1718094024.344213,,,,-1.391672969,-1.389265656,41981.000000000,1718094024.344212532
1718094024.345220,,,,-1.372320414,-1.371812224,41982.000000000,1718094024.345219612
1718094024.346227,,,,-1.375806212,-1.375514388,41983.000000000,1718094024.346226692
1718094024.347234,,,,-1.313517213,-1.313682199,41984.000000000,1718094024.347233772
1718094024.347913,398.858154297,8480.000000000,1718094024.347912550,,,,
1718094024.348241,,,,-1.259065390,-1.257259011,41985.000000000,1718094024.348240852
1718094024.349248,,,,-1.175235987,-1.173573852,41986.000000000,1718094024.349247932
1718094024.350255,,,,-1.043085098,-1.041855693,41987.000000000,1718094024.350255013
1718094024.351262,,,,-0.784048259,-0.783996880,41988.000000000,1718094024.351262093
1718094024.352269,,,,-0.273379058,-0.271043807,41989.000000000,1718094024.352269173
1718094024.353276,,,,-0.154186055,-0.154158667,41990.000000000,1718094024.353276253
1718094024.354283,,,,-0.151397347,-0.152620077,41991.000000000,1718094024.354283333
1718094024.355290,,,,-0.055691943,-0.056554068,41992.000000000,1718094024.355290413
1718094024.356297,,,,-0.009197533,-0.009650971,41993.000000000,1718094024.356297493
1718094024.357305,,,,-0.549965501,-0.549000561,41994.000000000,1718094024.357304573
1718094024.357911,398.891693115,8481.000000000,1718094024.357910633,,,,
1718094024.358312,,,,-1.421651602,-1.420542359,41995.000000000,1718094024.358311653
1718094024.359319,,,,-2.075265884,-2.074685574,41996.000000000,1718094024.359318733
1718094024.360326,,,,-2.480324984,-2.482365131,41997.000000000,1718094024.360325813
1718094024.361333,,,,-2.310526609,-2.309489489,41998.000000000,1718094024.361332893
1718094024.362340,,,,-1.957298875,-1.955853105,41999.000000000,1718094024.362339973
1718094024.362911,398.908447266,8482.000000000,1718094024.362910748,,,,
1718094024.363347,,,,-1.999898672,-2.000520468,42000.000000000,1718094024.363347054
1718094024.364354,,,,-2.118298292,-2.118006468,42001.000000000,1718094024.364354134
1718094024.365361,,,,-1.976579428,-1.973498940,42002.000000000,1718094024.365361214
1718094024.366368,,,,-1.736919284,-1.733622313,42003.000000000,1718094024.366368294
1718094024.367375,,,,-1.582747221,-1.581061006,42004.000000000,1718094024.367375374
1718094024.367911,399.210418701,8483.000000000,1718094024.367910624,,,,
1718094024.368382,,,,-1.527477980,-1.527306437,42005.000000000,1718094024.368382454
1718094024.369390,,,,-1.538849235,-1.538941979,42006.000000000,1718094024.369389534
1718094024.370397,,,,-1.474877357,-1.478263736,42007.000000000,1718094024.370396614
1718094024.371404,,,,-1.418093562,-1.419436455,42008.000000000,1718094024.371403694
1718094024.372411,,,,-1.383138657,-1.383688211,42009.000000000,1718094024.372410774
1718094024.372911,399.613250732,8484.000000000,1718094024.372910738,,,,
1718094024.373418,,,,-1.343664050,-1.343852997,42010.000000000,1718094024.373417854
1718094024.374425,,,,-1.288995862,-1.287550092,42011.000000000,1718094024.374424934
1718094024.375432,,,,-1.237765431,-1.239156485,42012.000000000,1718094024.375432014
1718094024.376439,,,,-1.233029485,-1.235382080,42013.000000000,1718094024.376439095
1718094024.377446,,,,-1.253512025,-1.252811432,42014.000000000,1718094024.377446175
1718094024.377911,400.133697510,8485.000000000,1718094024.377910614,,,,
1718094024.378453,,,,-1.282240391,-1.281491876,42015.000000000,1718094024.378453255
1718094024.379460,,,,-1.294501066,-1.295098782,42016.000000000,1718094024.379460335
1718094024.380467,,,,-1.349001050,-1.348012090,42017.000000000,1718094024.380467415
1718094024.381474,,,,-1.397202373,-1.397607684,42018.000000000,1718094024.381474495
1718094024.382482,,,,-1.459779859,-1.458598495,42019.000000000,1718094024.382481575
1718094024.383489,,,,-1.405688643,-1.405853629,42020.000000000,1718094024.383488655
1718094024.384496,,,,-1.288611174,-1.290795565,42021.000000000,1718094024.384495735
1718094024.385503,,,,-1.185429215,-1.185449839,42022.000000000,1718094024.385502815
1718094024.386510,,,,-1.178120852,-1.176458716,42023.000000000,1718094024.386509895
1718094024.387517,,,,-1.110398650,-1.110106826,42024.000000000,1718094024.387516975
1718094024.388524,,,,-1.038325071,-1.039980531,42025.000000000,1718094024.388524055
1718094024.389531,,,,-0.947548032,-0.947039843,42026.000000000,1718094024.389531136
1718094024.390538,,,,-0.786957204,-0.785150826,42027.000000000,1718094024.390538216
1718094024.391545,,,,-0.833884299,-0.834506035,42028.000000000,1718094024.391545296
1718094024.392552,,,,-0.956635356,-0.959108174,42029.000000000,1718094024.392552376
1718094024.393559,,,,-1.066236138,-1.067579150,42030.000000000,1718094024.393559456
1718094024.394567,,,,-1.369892240,-1.369937062,42031.000000000,1718094024.394566536
1718094024.395574,,,,-1.666937232,-1.669361949,42032.000000000,1718094024.395573616
1718094024.396581,,,,-1.762354136,-1.764682770,42033.000000000,1718094024.396580696
1718094024.397588,,,,-1.753314853,-1.755090594,42034.000000000,1718094024.397587776
1718094024.398595,,,,-1.733289123,-1.734824419,42035.000000000,1718094024.398594856
1718094024.399602,,,,-1.660782814,-1.661500692,42036.000000000,1718094024.399601936
1718094024.400609,,,,-1.547383547,-1.548870802,42037.000000000,1718094024.400609016
1718094024.401616,,,,-1.498845696,-1.498698115,42038.000000000,1718094024.401616096
1718094024.402623,,,,-1.489998817,-1.489779115,42039.000000000,1718094024.402623177
1718094024.403630,,,,-1.444610238,-1.445784926,42040.000000000,1718094024.403630257
1718094024.404637,,,,-1.339505076,-1.338948727,42041.000000000,1718094024.404637337
1718094024.405644,,,,-1.292337418,-1.294521809,42042.000000000,1718094024.405644417
1718094024.406651,,,,-1.338591456,-1.341136456,42043.000000000,1718094024.406651497
1718094024.407659,,,,-1.273105025,-1.272957444,42044.000000000,1718094024.407658577
1718094024.407911,402.150177002,8491.000000000,1718094024.407910585,,,,
1718094024.408666,,,,-1.165691853,-1.166602135,42045.000000000,1718094024.408665657
1718094024.409673,,,,-1.181630731,-1.184151649,42046.000000000,1718094024.409672737
1718094024.410680,,,,-1.189468026,-1.194753528,42047.000000000,1718094024.410679817
1718094024.411687,,,,-1.213292122,-1.214250445,42048.000000000,1718094024.411686897
1718094024.412694,,,,-1.326499104,-1.326856375,42049.000000000,1718094024.412693977
1718094024.412911,402.301483154,8492.000000000,1718094024.412910700,,,,
1718094024.413701,,,,-1.323830605,-1.323490739,42050.000000000,1718094024.413701057
1718094024.414708,,,,-1.021833301,-1.021012545,42051.000000000,1718094024.414708138
1718094024.415715,,,,-0.810829461,-0.809792340,42052.000000000,1718094024.415715218
1718094024.416722,,,,-1.022338152,-1.023248315,42053.000000000,1718094024.416722298
1718094024.417729,,,,-1.310872674,-1.311686754,42054.000000000,1718094024.417729378
1718094024.417911,402.469726563,8493.000000000,1718094024.417910576,,,,
1718094024.418736,,,,-1.491513371,-1.494130492,42055.000000000,1718094024.418736458
1718094024.419744,,,,-1.457976818,-1.459031224,42056.000000000,1718094024.419743538
1718094024.420751,,,,-1.242886066,-1.243123174,42057.000000000,1718094024.420750618
1718094024.421758,,,,-1.426531792,-1.430903792,42058.000000000,1718094024.421757698
1718094024.422765,,,,-1.604263544,-1.605942965,42059.000000000,1718094024.422764778
1718094024.422911,402.469726563,8494.000000000,1718094024.422910690,,,,
1718094024.423772,,,,-1.399366021,-1.396189332,42060.000000000,1718094024.423771858
1718094024.424779,,,,-1.179178596,-1.180353284,42061.000000000,1718094024.424778938
1718094024.425786,,,,-1.277023673,-1.279472470,42062.000000000,1718094024.425786018
1718094024.426793,,,,-1.441028237,-1.442467332,42063.000000000,1718094024.426793098
1718094024.427800,,,,-1.492523074,-1.492615938,42064.000000000,1718094024.427800179
1718094024.427911,402.452880859,8495.000000000,1718094024.427910566,,,,
1718094024.428807,,,,-1.356333375,-1.358445644,42065.000000000,1718094024.428807259
1718094024.429814,,,,-1.165740013,-1.168645501,42066.000000000,1718094024.429814339
1718094024.430821,,,,-0.990628660,-0.987980843,42067.000000000,1718094024.430821419
1718094024.431828,,,,-0.894706905,-0.893381357,42068.000000000,1718094024.431828499
1718094024.432836,,,,-0.824917197,-0.823904157,42069.000000000,1718094024.432835579
1718094024.432911,402.520172119,8496.000000000,1718094024.432910681,,,,
1718094024.433843,,,,-0.843620718,-0.844579041,42070.000000000,1718094024.433842659
1718094024.434850,,,,-0.833692014,-0.834626257,42071.000000000,1718094024.434849739
1718094024.435857,,,,-0.874248385,-0.873018980,42072.000000000,1718094024.435856819
1718094024.436864,,,,-1.456077576,-1.458526373,42073.000000000,1718094024.436863899
1718094024.437871,,,,-1.813536406,-1.816009283,42074.000000000,1718094024.437870979
1718094024.437911,402.503387451,8497.000000000,1718094024.437910557,,,,
1718094024.438878,,,,-1.766200662,-1.767207026,42075.000000000,1718094024.438878059
1718094024.439885,,,,-1.656816125,-1.657510042,42076.000000000,1718094024.439885139
1718094024.440892,,,,-1.615586638,-1.617001653,42077.000000000,1718094024.440892220
1718094024.441899,,,,-1.557841182,-1.559689045,42078.000000000,1718094024.441899300
1718094024.442906,,,,-1.614528775,-1.616160274,42079.000000000,1718094024.442906380
1718094024.442911,402.604309082,8498.000000000,1718094024.442910671,,,,
1718094024.443913,,,,-1.545845032,-1.543846250,42080.000000000,1718094024.443913460
1718094024.444921,,,,-1.391961455,-1.388977170,42081.000000000,1718094024.444920540
1718094024.445928,,,,-1.293948174,-1.295387268,42082.000000000,1718094024.445927620
1718094024.446935,,,,-1.165475488,-1.166962743,42083.000000000,1718094024.446934700
1718094024.447911,402.839813232,8499.000000000,1718094024.447910547,,,,
1718094024.447942,,,,-0.930046499,-0.928119898,42084.000000000,1718094024.447941780
1718094024.448949,,,,-0.695603132,-0.694349647,42085.000000000,1718094024.448948860
1718094024.449956,,,,-0.828114569,-0.828904569,42086.000000000,1718094024.449955940
1718094024.450963,,,,-1.106864691,-1.108832717,42087.000000000,1718094024.450963020
1718094024.451970,,,,-1.258151770,-1.259470701,42088.000000000,1718094024.451970100
1718094024.452911,403.109039307,8500.000000000,1718094024.452910662,,,,
1718094024.452977,,,,-1.406746387,-1.405685306,42089.000000000,1718094024.452977180
1718094024.453984,,,,-1.406626225,-1.407223940,42090.000000000,1718094024.453984261
1718094024.454991,,,,-1.359650970,-1.363157630,42091.000000000,1718094024.454991341
1718094024.455998,,,,-1.379292130,-1.382942915,42092.000000000,1718094024.455998421
1718094024.457006,,,,-1.366863132,-1.368710995,42093.000000000,1718094024.457005501
1718094024.458013,,,,-1.507764816,-1.508771181,42094.000000000,1718094024.458012581
1718094024.459020,,,,-1.672418475,-1.672775745,42095.000000000,1718094024.459019661
1718094024.460027,,,,-1.703238487,-1.704966068,42096.000000000,1718094024.460026741
1718094024.461034,,,,-1.685688853,-1.687560678,42097.000000000,1718094024.461033821
1718094024.462041,,,,-1.578708410,-1.576757789,42098.000000000,1718094024.462040901
1718094024.463048,,,,-1.435378671,-1.435014725,42099.000000000,1718094024.463047981
1718094024.464055,,,,-1.577818871,-1.578921437,42100.000000000,1718094024.464055061
1718094024.465062,,,,-1.578876734,-1.580892801,42101.000000000,1718094024.465062141
1718094024.466069,,,,-1.189516068,-1.191484094,42102.000000000,1718094024.466069221
1718094024.467076,,,,-0.850111663,-0.849026501,42103.000000000,1718094024.467076302
1718094024.468083,,,,-0.825950921,-0.823735893,42104.000000000,1718094024.468083382
1718094024.469090,,,,-1.047099948,-1.045630097,42105.000000000,1718094024.469090462
1718094024.470098,,,,-1.299044728,-1.300291538,42106.000000000,1718094024.470097542
1718094024.471105,,,,-1.373185873,-1.373230577,42107.000000000,1718094024.471104622
1718094024.472112,,,,-1.332845807,-1.330967307,42108.000000000,1718094024.472111702
1718094024.473119,,,,-1.547263384,-1.546178222,42109.000000000,1718094024.473118782
1718094024.474126,,,,-1.619072437,-1.617746949,42110.000000000,1718094024.474125862
1718094024.475133,,,,-1.480719209,-1.480884075,42111.000000000,1718094024.475132942
1718094024.476140,,,,-1.406554103,-1.406406522,42112.000000000,1718094024.476140022
1718094024.477147,,,,-1.327003956,-1.327962279,42113.000000000,1718094024.477147102
1718094024.478154,,,,-1.348640442,-1.351065159,42114.000000000,1718094024.478154182
1718094024.479161,,,,-1.469011426,-1.467012763,42115.000000000,1718094024.479161263
1718094024.480168,,,,-1.320032120,-1.319668293,42116.000000000,1718094024.480168343
1718094024.481175,,,,-1.243487120,-1.244805932,42117.000000000,1718094024.481175423
1718094024.482183,,,,-1.262623310,-1.265288472,42118.000000000,1718094024.482182503
1718094024.483190,,,,-1.334432483,-1.334284902,42119.000000000,1718094024.483189583
1718094024.484197,,,,-1.314526916,-1.316807389,42120.000000000,1718094024.484196663
1718094024.485204,,,,-1.372993469,-1.372389197,42121.000000000,1718094024.485203743
1718094024.486211,,,,-1.457111359,-1.455401182,42122.000000000,1718094024.486210823
1718094024.487218,,,,-1.422517061,-1.422585845,42123.000000000,1718094024.487217903
1718094024.488225,,,,-1.411145806,-1.412104130,42124.000000000,1718094024.488224983
1718094024.489232,,,,-1.451149344,-1.451939344,42125.000000000,1718094024.489232063
1718094024.490239,,,,-1.480070114,-1.479513764,42126.000000000,1718094024.490239143
1718094024.491246,,,,-1.442085981,-1.440880656,42127.000000000,1718094024.491246223
1718094024.492253,,,,-1.442783237,-1.440135360,42128.000000000,1718094024.492253304
1718094024.493260,,,,-1.445644021,-1.445784926,42129.000000000,1718094024.493260384
1718094024.494267,,,,-1.429248333,-1.431769252,42130.000000000,1718094024.494267464
1718094024.495275,,,,-1.399245739,-1.404194832,42131.000000000,1718094024.495274544
1718094024.496282,,,,-1.396432996,-1.397222996,42132.000000000,1718094024.496281624
1718094024.497289,,,,-1.311113119,-1.308176875,42133.000000000,1718094024.497288704
1718094024.498296,,,,-1.274258971,-1.275361538,42134.000000000,1718094024.498295784
1718094024.499303,,,,-1.243270755,-1.245286822,42135.000000000,1718094024.499302864
1718094024.500310,,,,-1.167182446,-1.168260932,42136.000000000,1718094024.500309944
1718094024.501317,,,,-1.146627784,-1.146720529,42137.000000000,1718094024.501317024
1718094024.502147,404.944610596,8511.000000000,1718094024.502147436,,,,
1718094024.502324,,,,-1.083497286,-1.084744096,42138.000000000,1718094024.502324104
1718094024.503331,,,,-1.039214611,-1.041711450,42139.000000000,1718094024.503331184
1718094024.504338,,,,-0.837057650,-0.837054312,42140.000000000,1718094024.504338264
1718094024.505345,,,,-0.385624349,-0.387688518,42141.000000000,1718094024.505345345
1718094024.506352,,,,-0.328167468,-0.331625968,42142.000000000,1718094024.506352425
1718094024.507148,405.113189697,8512.000000000,1718094024.507147551,,,,
1718094024.507360,,,,-0.699257255,-0.699878991,42143.000000000,1718094024.507359505
1718094024.508367,,,,-0.941609979,-0.940837383,42144.000000000,1718094024.508366585
1718094024.509374,,,,-1.160475135,-1.163116217,42145.000000000,1718094024.509373665
1718094024.510381,,,,-1.265820742,-1.268461823,42146.000000000,1718094024.510380745
1718094024.511388,,,,-1.239159822,-1.240310431,42147.000000000,1718094024.511387825
1718094024.512147,405.298553467,8513.000000000,1718094024.512147427,,,,
1718094024.512395,,,,-1.330057025,-1.331784725,42148.000000000,1718094024.512394905
1718094024.513402,,,,-1.602195978,-1.604981422,42149.000000000,1718094024.513401985
1718094024.514409,,,,-1.628905058,-1.630464315,42150.000000000,1718094024.514409065
1718094024.515416,,,,-1.584357977,-1.586830735,42151.000000000,1718094024.515416145
1718094024.516423,,,,-1.524929762,-1.525695682,42152.000000000,1718094024.516423225
1718094024.517148,405.568267822,8514.000000000,1718094024.517147541,,,,
1718094024.517430,,,,-1.454298615,-1.452275872,42153.000000000,1718094024.517430305
1718094024.518437,,,,-1.426748157,-1.425158143,42154.000000000,1718094024.518437386
1718094024.519444,,,,-1.466535211,-1.464223981,42155.000000000,1718094024.519444466
1718094024.520452,,,,-1.446870089,-1.447876453,42156.000000000,1718094024.520451546
1718094024.521459,,,,-1.512284398,-1.513579249,42157.000000000,1718094024.521458626
1718094024.522147,405.838104248,8515.000000000,1718094024.522147417,,,,
1718094024.522466,,,,-1.555076599,-1.554087520,42158.000000000,1718094024.522465706
1718094024.523473,,,,-1.576063991,-1.578608871,42159.000000000,1718094024.523472786
1718094024.524480,,,,-1.633641005,-1.635320544,42160.000000000,1718094024.524479866
1718094024.525487,,,,-1.535555601,-1.535263777,42161.000000000,1718094024.525486946
1718094024.526494,,,,-1.540051222,-1.541201830,42162.000000000,1718094024.526494026
1718094024.527148,406.141662598,8516.000000000,1718094024.527147532,,,,
1718094024.527501,,,,-1.579261303,-1.580988884,42163.000000000,1718094024.527501106
1718094024.528508,,,,-1.609528422,-1.609284639,42164.000000000,1718094024.528508186
1718094024.529515,,,,-1.575919747,-1.573800802,42165.000000000,1718094024.529515266
1718094024.530522,,,,-1.482305884,-1.482518911,42166.000000000,1718094024.530522346
1718094024.531529,,,,-1.430594683,-1.430038333,42167.000000000,1718094024.531529427
1718094024.532147,406.327209473,8517.000000000,1718094024.532147408,,,,
1718094024.532537,,,,-1.415184617,-1.416431427,42168.000000000,1718094024.532536507
1718094024.533544,,,,-1.390903711,-1.393544793,42169.000000000,1718094024.533543587
1718094024.534551,,,,-1.395182967,-1.396213293,42170.000000000,1718094024.534550667
1718094024.535558,,,,-1.339456916,-1.339333415,42171.000000000,1718094024.535557747
1718094024.536565,,,,-1.106431961,-1.103014827,42172.000000000,1718094024.536564827
1718094024.537148,406.360961914,8518.000000000,1718094024.537147522,,,,
1718094024.537572,,,,-0.828210771,-0.829986393,42173.000000000,1718094024.537571907
1718094024.538579,,,,-0.841577291,-0.843569338,42174.000000000,1718094024.538578987
1718094024.539586,,,,-0.938580871,-0.939418972,42175.000000000,1718094024.539586067
1718094024.540593,,,,-0.891870081,-0.890424371,42176.000000000,1718094024.540593147
1718094024.541600,,,,-0.850207865,-0.852993190,42177.000000000,1718094024.541600227
1718094024.542147,406.445281982,8519.000000000,1718094024.542147398,,,,
