__time,/gdx/grip_force_stream/grip_force,/gdx/grip_force_stream/header/seq,/gdx/grip_force_stream/header/stamp,/shimmer0/emg_stream/emg_ch1,/shimmer0/emg_stream/emg_ch2,/shimmer0/emg_stream/header/seq,/shimmer0/emg_stream/header/stamp
1718094314.266282,,,,0.174219891,0.171970770,91693.000000000,1718094314.266281843
1718094314.267289,,,,0.175734445,0.176418260,91694.000000000,1718094314.267288923
1718094314.268296,,,,0.179917499,0.179206967,91695.000000000,1718094314.268296003
1718094314.269303,,,,0.182249442,0.180841729,91696.000000000,1718094314.269303083
1718094314.269727,0.430308074,18483.000000000,1718094314.269727230,,,,
1718094314.270310,,,,0.177946180,0.178798273,91697.000000000,1718094314.270310163
1718094314.271317,,,,0.184725612,0.182909206,91698.000000000,1718094314.271317244
1718094314.272324,,,,0.184485212,0.184976697,91699.000000000,1718094314.272324324
1718094314.273331,,,,0.200520247,0.201300234,91700.000000000,1718094314.273331404
1718094314.274338,,,,0.228022635,0.225677341,91701.000000000,1718094314.274338484
1718094314.274727,0.447982699,18484.000000000,1718094314.274727345,,,,
1718094314.275346,,,,0.231532544,0.230028674,91702.000000000,1718094314.275345564
1718094314.276353,,,,0.217564985,0.216686174,91703.000000000,1718094314.276352644
1718094314.277360,,,,0.227133125,0.225196525,91704.000000000,1718094314.277359724
1718094314.278367,,,,0.236557022,0.238563061,91705.000000000,1718094314.278366804
1718094314.279374,,,,0.238528341,0.238635182,91706.000000000,1718094314.279373884
1718094314.279727,0.412625194,18485.000000000,1718094314.279727221,,,,
1718094314.280381,,,,0.235306919,0.233394355,91707.000000000,1718094314.280380964
1718094314.281388,,,,0.227373540,0.227071688,91708.000000000,1718094314.281388044
1718094314.282395,,,,0.212660715,0.211469382,91709.000000000,1718094314.282395124
1718094314.283402,,,,0.199053779,0.200026080,91710.000000000,1718094314.283402205
1718094314.284409,,,,0.197443053,0.196540192,91711.000000000,1718094314.284409285
1718094314.284727,0.465657175,18486.000000000,1718094314.284727335,,,,
1718094314.285416,,,,0.202659860,0.201781034,91712.000000000,1718094314.285416365
1718094314.286423,,,,0.206193820,0.205964088,91713.000000000,1718094314.286423445
1718094314.287431,,,,0.184701577,0.186827824,91714.000000000,1718094314.287430525
1718094314.288438,,,,0.169580072,0.170937017,91715.000000000,1718094314.288437605
1718094314.289445,,,,0.176888391,0.177836657,91716.000000000,1718094314.289444685
1718094314.289727,0.465657175,18487.000000000,1718094314.289727211,,,,
1718094314.290452,,,,0.172681302,0.173268959,91717.000000000,1718094314.290451765
1718094314.291459,,,,0.172224522,0.170816824,91718.000000000,1718094314.291458845
1718094314.292466,,,,0.180734873,0.178341508,91719.000000000,1718094314.292465925
1718094314.293473,,,,0.194870725,0.193246648,91720.000000000,1718094314.293473005
1718094314.294480,,,,0.207492009,0.208632588,91721.000000000,1718094314.294480085
1718094314.294727,0.571709156,18488.000000000,1718094314.294727325,,,,
1718094314.295487,,,,0.215521544,0.215580314,91722.000000000,1718094314.295487165
1718094314.296494,,,,0.212853044,0.215748593,91723.000000000,1718094314.296494246
1718094314.297501,,,,0.234826103,0.234716579,91724.000000000,1718094314.297501326
1718094314.298508,,,,0.250981361,0.250078499,91725.000000000,1718094314.298508406
1718094314.299515,,,,0.238119662,0.237096593,91726.000000000,1718094314.299515486
1718094314.299727,0.624729156,18489.000000000,1718094314.299727201,,,,
1718094314.300523,,,,0.225666657,0.223970458,91727.000000000,1718094314.300522566
1718094314.301530,,,,0.223430887,0.222696304,91728.000000000,1718094314.301529646
1718094314.302537,,,,0.226964846,0.227840990,91729.000000000,1718094314.302536726
1718094314.303544,,,,0.224921405,0.227143809,91730.000000000,1718094314.303543806
1718094314.304551,,,,0.208405539,0.210844323,91731.000000000,1718094314.304550886
1718094314.304727,0.819132984,18490.000000000,1718094314.304727316,,,,
1718094314.305558,,,,0.198765293,0.200266480,91732.000000000,1718094314.305557966
1718094314.306565,,,,0.206722707,0.206637233,91733.000000000,1718094314.306565046
1718094314.307572,,,,0.198933572,0.199112535,91734.000000000,1718094314.307572126
1718094314.308579,,,,0.187874928,0.188967422,91735.000000000,1718094314.308579206
1718094314.309586,,,,0.181504175,0.181995675,91736.000000000,1718094314.309586287
1718094314.309727,1.101883650,18491.000000000,1718094314.309727192,,,,
1718094314.310593,,,,0.181888834,0.180240706,91737.000000000,1718094314.310593367
1718094314.311600,,,,0.175974846,0.176298067,91738.000000000,1718094314.311600447
1718094314.312608,,,,0.184028432,0.185144976,91739.000000000,1718094314.312607527
1718094314.313615,,,,0.209150806,0.208440274,91740.000000000,1718094314.313614607
1718094314.314622,,,,0.245379895,0.246159881,91741.000000000,1718094314.314621687
1718094314.314727,1.720252156,18492.000000000,1718094314.314727306,,,,
1718094314.315629,,,,0.265165269,0.264935553,91742.000000000,1718094314.315628767
1718094314.316636,,,,0.267401040,0.268878192,91743.000000000,1718094314.316635847
1718094314.317643,,,,0.255116314,0.257266611,91744.000000000,1718094314.317642927
1718094314.318650,,,,0.260862023,0.258997530,91745.000000000,1718094314.318650007
1718094314.319657,,,,0.276175827,0.276258647,91746.000000000,1718094314.319657087
1718094314.319727,2.726937056,18493.000000000,1718094314.319727182,,,,
1718094314.320664,,,,0.286801755,0.287485570,91747.000000000,1718094314.320664167
1718094314.321671,,,,0.285142958,0.286451817,91748.000000000,1718094314.321671247
1718094314.322678,,,,0.281416684,0.283566952,91749.000000000,1718094314.322678328
1718094314.323685,,,,0.278820306,0.281860083,91750.000000000,1718094314.323685408
1718094314.324692,,,,0.295288056,0.297702789,91751.000000000,1718094314.324692488
1718094314.324727,4.456645966,18494.000000000,1718094314.324727297,,,,
1718094314.325700,,,,0.294350475,0.294866025,91752.000000000,1718094314.325699568
1718094314.326707,,,,0.293292701,0.293712080,91753.000000000,1718094314.326706648
1718094314.327714,,,,0.293028265,0.294048637,91754.000000000,1718094314.327713728
1718094314.328721,,,,0.287811458,0.289817512,91755.000000000,1718094314.328720808
1718094314.329727,7.136725903,18495.000000000,1718094314.329727173,,,,
1718094314.329728,,,,0.293340772,0.296284407,91756.000000000,1718094314.329727888
1718094314.330735,,,,0.335555971,0.337658197,91757.000000000,1718094314.330734968
1718094314.331742,,,,0.381569564,0.382974595,91758.000000000,1718094314.331742048
1718094314.332749,,,,0.441334367,0.441272914,91759.000000000,1718094314.332749128
1718094314.333756,,,,0.490304947,0.490387768,91760.000000000,1718094314.333756208
1718094314.334727,10.869163513,18496.000000000,1718094314.334727287,,,,
1718094314.334763,,,,0.531534493,0.531112432,91761.000000000,1718094314.334763288
1718094314.335770,,,,0.566032648,0.564793229,91762.000000000,1718094314.335770369
1718094314.336777,,,,0.550766945,0.551450729,91763.000000000,1718094314.336777449
1718094314.337785,,,,0.496411264,0.495893031,91764.000000000,1718094314.337784529
1718094314.338792,,,,0.432439357,0.432065398,91765.000000000,1718094314.338791609
1718094314.339727,15.701102257,18497.000000000,1718094314.339727163,,,,
1718094314.339799,,,,0.366808683,0.365304798,91766.000000000,1718094314.339798689
1718094314.340806,,,,0.287739336,0.287028790,91767.000000000,1718094314.340805769
1718094314.341813,,,,0.255909652,0.256641567,91768.000000000,1718094314.341812849
1718094314.342820,,,,0.277425945,0.275537431,91769.000000000,1718094314.342819929
1718094314.343827,,,,0.289398134,0.289240539,91770.000000000,1718094314.343827009
1718094314.344727,21.519968033,18498.000000000,1718094314.344727278,,,,
1718094314.344834,,,,0.301466495,0.305011123,91771.000000000,1718094314.344834089
1718094314.345841,,,,0.289470255,0.292702377,91772.000000000,1718094314.345841169
1718094314.346848,,,,0.314183921,0.313184917,91773.000000000,1718094314.346848249
1718094314.347855,,,,0.355365396,0.355424136,91774.000000000,1718094314.347855330
1718094314.348862,,,,0.437896580,0.437690884,91775.000000000,1718094314.348862410
1718094314.349727,28.230255127,18499.000000000,1718094314.349727154,,,,
1718094314.349869,,,,0.543987513,0.544430912,91776.000000000,1718094314.349869490
1718094314.350877,,,,0.573917985,0.573351681,91777.000000000,1718094314.350876570
1718094314.351884,,,,0.621349931,0.621264458,91778.000000000,1718094314.351883650
1718094314.352891,,,,0.704506218,0.703843713,91779.000000000,1718094314.352890730
1718094314.353898,,,,0.723137617,0.723893523,91780.000000000,1718094314.353897810
1718094314.354727,35.823253632,18500.000000000,1718094314.354727268,,,,
1718094314.354905,,,,0.721022069,0.720479786,91781.000000000,1718094314.354904890
1718094314.355912,,,,0.623249173,0.621721268,91782.000000000,1718094314.355911970
1718094314.356919,,,,0.471072525,0.468510866,91783.000000000,1718094314.356919050
1718094314.357926,,,,0.432920188,0.433147222,91784.000000000,1718094314.357926130
1718094314.358933,,,,0.487444133,0.487334609,91785.000000000,1718094314.358933210
1718094314.359940,,,,0.493598491,0.493296653,91786.000000000,1718094314.359940290
1718094314.360947,,,,0.362721801,0.362251669,91787.000000000,1718094314.360947371
1718094314.361954,,,,0.211891428,0.213296458,91788.000000000,1718094314.361954451
1718094314.362962,,,,0.112940550,0.111845367,91789.000000000,1718094314.362961531
1718094314.363969,,,,0.087529697,0.085136324,91790.000000000,1718094314.363968611
1718094314.364976,,,,0.067191400,0.067370363,91791.000000000,1718094314.364975691
1718094314.365983,,,,0.057430934,0.057850305,91792.000000000,1718094314.365982771
1718094314.366990,,,,0.048968665,0.050878551,91793.000000000,1718094314.366989851
1718094314.367997,,,,0.100439467,0.098526902,91794.000000000,1718094314.367996931
1718094314.369004,,,,0.236797422,0.234235764,91795.000000000,1718094314.369004011
1718094314.370011,,,,0.324593484,0.322536677,91796.000000000,1718094314.370011091
1718094314.371018,,,,0.423880935,0.424757063,91797.000000000,1718094314.371018171
1718094314.372025,,,,0.495714068,0.496085376,91798.000000000,1718094314.372025251
1718094314.373032,,,,0.449676424,0.450504482,91799.000000000,1718094314.373032331
1718094314.374039,,,,0.356543362,0.356409818,91800.000000000,1718094314.374039412
1718094314.375046,,,,0.319352657,0.320829809,91801.000000000,1718094314.375046492
1718094314.376054,,,,0.339811146,0.339292943,91802.000000000,1718094314.376053572
1718094314.377061,,,,0.327141792,0.328955501,91803.000000000,1718094314.377060652
1718094314.378068,,,,0.323463589,0.322608799,91804.000000000,1718094314.378067732
1718094314.379075,,,,0.365318179,0.362660348,91805.000000000,1718094314.379074812
1718094314.380082,,,,0.442704678,0.439830482,91806.000000000,1718094314.380081892
1718094314.381089,,,,0.471361011,0.471852511,91807.000000000,1718094314.381088972
1718094314.382096,,,,0.407196790,0.410933763,91808.000000000,1718094314.382096052
1718094314.383103,,,,0.417101502,0.420213401,91809.000000000,1718094314.383103132
1718094314.384110,,,,0.341181457,0.339533359,91810.000000000,1718094314.384110212
1718094314.385117,,,,0.210617274,0.207190156,91811.000000000,1718094314.385117292
1718094314.386124,,,,0.119744025,0.119538337,91812.000000000,1718094314.386124372
1718094314.387131,,,,0.145996302,0.148170620,91813.000000000,1718094314.387131453
1718094314.388139,,,,0.184076518,0.185120940,91814.000000000,1718094314.388138533
1718094314.389146,,,,0.217348620,0.217094868,91815.000000000,1718094314.389145613
1718094314.390153,,,,0.253193080,0.253564358,91816.000000000,1718094314.390152693
1718094314.391160,,,,0.270718634,0.269334972,91817.000000000,1718094314.391159773
1718094314.392167,,,,0.329714119,0.328787237,91818.000000000,1718094314.392166853
1718094314.393174,,,,0.457561731,0.458029181,91819.000000000,1718094314.393173933
1718094314.394181,,,,0.495906413,0.496566176,91820.000000000,1718094314.394181013
1718094314.395188,,,,0.410586506,0.409851938,91821.000000000,1718094314.395188093
1718094314.396195,,,,0.309303701,0.309602886,91822.000000000,1718094314.396195173
1718094314.397202,,,,0.230186284,0.229956552,91823.000000000,1718094314.397202253
1718094314.398209,,,,0.196361229,0.195049688,91824.000000000,1718094314.398209333
1718094314.399216,,,,0.171479270,0.171225503,91825.000000000,1718094314.399216413
1718094314.400223,,,,0.209631607,0.210964531,91826.000000000,1718094314.400223494
1718094314.401231,,,,0.284109205,0.283254445,91827.000000000,1718094314.401230574
1718094314.402238,,,,0.338561058,0.340158403,91828.000000000,1718094314.402237654
1718094314.403245,,,,0.384670794,0.385018051,91829.000000000,1718094314.403244734
1718094314.404252,,,,0.377001882,0.375522047,91830.000000000,1718094314.404251814
1718094314.405259,,,,0.394888043,0.393744767,91831.000000000,1718094314.405258894
1718094314.406266,,,,0.368443429,0.368382007,91832.000000000,1718094314.406265974
1718094314.407273,,,,0.364957571,0.367228061,91833.000000000,1718094314.407273054
1718094314.408280,,,,0.324881971,0.324748427,91834.000000000,1718094314.408280134
1718094314.409287,,,,0.182249442,0.181707188,91835.000000000,1718094314.409287214
1718094314.410294,,,,0.127268717,0.127111107,91836.000000000,1718094314.410294294
1718094314.411301,,,,0.144000933,0.143723130,91837.000000000,1718094314.411301374
1718094314.412308,,,,0.156141400,0.157642603,91838.000000000,1718094314.412308455
1718094314.413316,,,,0.100607753,0.101844497,91839.000000000,1718094314.413315535
1718094314.414323,,,,0.125537798,0.124370486,91840.000000000,1718094314.414322615
1718094314.415220,135.640380859,18511.000000000,1718094314.415220261,,,,
1718094314.415330,,,,0.188139364,0.186443165,91841.000000000,1718094314.415329695
1718094314.416337,,,,0.235499233,0.233442426,91842.000000000,1718094314.416336775
1718094314.417344,,,,0.340965092,0.338571727,91843.000000000,1718094314.417343855
1718094314.418351,,,,0.446719438,0.446105063,91844.000000000,1718094314.418350935
1718094314.419358,,,,0.485544920,0.488200068,91845.000000000,1718094314.419358015
1718094314.420220,144.098602295,18512.000000000,1718094314.420220375,,,,
1718094314.420365,,,,0.469101191,0.472597748,91846.000000000,1718094314.420365095
1718094314.421372,,,,0.367361605,0.367204010,91847.000000000,1718094314.421372175
1718094314.422379,,,,0.309760481,0.309747130,91848.000000000,1718094314.422379255
1718094314.423386,,,,0.354163349,0.353524953,91849.000000000,1718094314.423386335
1718094314.424393,,,,0.419745952,0.415838033,91850.000000000,1718094314.424393415
1718094314.425220,152.510513306,18513.000000000,1718094314.425220251,,,,
1718094314.425400,,,,0.433328867,0.432546198,91851.000000000,1718094314.425400496
1718094314.426408,,,,0.413976222,0.413674384,91852.000000000,1718094314.426407576
1718094314.427415,,,,0.359572470,0.358669609,91853.000000000,1718094314.427414656
1718094314.428422,,,,0.337863863,0.338956386,91854.000000000,1718094314.428421736
1718094314.429429,,,,0.348417670,0.350832403,91855.000000000,1718094314.429428816
1718094314.430220,160.696990967,18514.000000000,1718094314.430220366,,,,
1718094314.430436,,,,0.430155516,0.430647016,91856.000000000,1718094314.430435896
1718094314.431443,,,,0.467105836,0.466852069,91857.000000000,1718094314.431442976
1718094314.432450,,,,0.455878884,0.457692623,91858.000000000,1718094314.432450056
1718094314.433457,,,,0.346806943,0.346553177,91859.000000000,1718094314.433457136
1718094314.434464,,,,0.215401337,0.211950183,91860.000000000,1718094314.434464216
1718094314.435220,168.743103027,18515.000000000,1718094314.435220242,,,,
1718094314.435471,,,,0.223527044,0.221277922,91861.000000000,1718094314.435471296
1718094314.436478,,,,0.350076467,0.351048768,91862.000000000,1718094314.436478376
1718094314.437485,,,,0.408350736,0.407928705,91863.000000000,1718094314.437485456
1718094314.438493,,,,0.418904543,0.419323921,91864.000000000,1718094314.438492537
1718094314.439500,,,,0.468524218,0.469352275,91865.000000000,1718094314.439499617
1718094314.440220,176.422729492,18516.000000000,1718094314.440220356,,,,
1718094314.440507,,,,0.489944339,0.491229177,91866.000000000,1718094314.440506697
1718094314.441514,,,,0.462970853,0.464255691,91867.000000000,1718094314.441513777
1718094314.442521,,,,0.458403140,0.459543735,91868.000000000,1718094314.442520857
1718094314.443528,,,,0.426934093,0.426415861,91869.000000000,1718094314.443527937
1718094314.444535,,,,0.343176842,0.342033565,91870.000000000,1718094314.444535017
1718094314.445220,183.772506714,18517.000000000,1718094314.445220232,,,,
1718094314.445542,,,,0.272040874,0.270609111,91871.000000000,1718094314.445542097
1718094314.446549,,,,0.182994694,0.184880540,91872.000000000,1718094314.446549177
1718094314.447556,,,,0.196409315,0.196996972,91873.000000000,1718094314.447556257
1718094314.448563,,,,0.308606535,0.307799846,91874.000000000,1718094314.448563337
1718094314.449570,,,,0.368828088,0.371098578,91875.000000000,1718094314.449570417
1718094314.450220,190.730957031,18518.000000000,1718094314.450220346,,,,
1718094314.450577,,,,0.370006084,0.370449483,91876.000000000,1718094314.450577497
1718094314.451585,,,,0.310842305,0.310828954,91877.000000000,1718094314.451584578
1718094314.452592,,,,0.203982085,0.202502251,91878.000000000,1718094314.452591658
1718094314.453599,,,,0.195279405,0.194496751,91879.000000000,1718094314.453598738
1718094314.454606,,,,0.248384967,0.246857062,91880.000000000,1718094314.454605818
1718094314.455220,197.204345703,18519.000000000,1718094314.455220222,,,,
1718094314.455613,,,,0.291441590,0.290346384,91881.000000000,1718094314.455612898
1718094314.456620,,,,0.374309331,0.373526663,91882.000000000,1718094314.456619978
1718094314.457627,,,,0.475399822,0.476083636,91883.000000000,1718094314.457627058
1718094314.458634,,,,0.483958244,0.481925488,91884.000000000,1718094314.458634138
1718094314.459641,,,,0.407869935,0.404803425,91885.000000000,1718094314.459641218
1718094314.460183,208.839157104,18521.000000000,1718094314.460183144,,,,
1718094314.460220,203.228652954,18520.000000000,1718094314.460220337,,,,
1718094314.460648,,,,0.380367547,0.379681051,91886.000000000,1718094314.460648298
1718094314.461655,,,,0.379478037,0.377853960,91887.000000000,1718094314.461655378
1718094314.462662,,,,0.348417670,0.346673399,91888.000000000,1718094314.462662458
1718094314.463670,,,,0.332791328,0.335855156,91889.000000000,1718094314.463669538
1718094314.464677,,,,0.297571927,0.299481809,91890.000000000,1718094314.464676619
1718094314.465183,214.006042480,18522.000000000,1718094314.465183258,,,,
1718094314.465684,,,,0.312909782,0.312680066,91891.000000000,1718094314.465683699
1718094314.466691,,,,0.392411858,0.394081354,91892.000000000,1718094314.466690779
1718094314.467698,,,,0.300288498,0.298880786,91893.000000000,1718094314.467697859
1718094314.468705,,,,0.236989751,0.234380007,91894.000000000,1718094314.468704939
1718094314.469712,,,,0.219440147,0.218465179,91895.000000000,1718094314.469712019
1718094314.470183,218.715270996,18523.000000000,1718094314.470183134,,,,
1718094314.470719,,,,0.217204377,0.216998696,91896.000000000,1718094314.470719099
1718094314.471726,,,,0.243817270,0.245438665,91897.000000000,1718094314.471726179
1718094314.472733,,,,0.319304556,0.320397079,91898.000000000,1718094314.472733259
1718094314.473740,,,,0.358610868,0.359486997,91899.000000000,1718094314.473740339
1718094314.474747,,,,0.325002164,0.324556082,91900.000000000,1718094314.474747419
1718094314.475183,223.161987305,18524.000000000,1718094314.475183249,,,,
1718094314.475754,,,,0.227253333,0.228081390,91901.000000000,1718094314.475754499
1718094314.476762,,,,0.189750090,0.190962791,91902.000000000,1718094314.476761580
1718094314.477769,,,,0.238023490,0.237457201,91903.000000000,1718094314.477768660
1718094314.478776,,,,0.280551225,0.279816628,91904.000000000,1718094314.478775740
1718094314.479783,,,,0.295624644,0.295707434,91905.000000000,1718094314.479782820
1718094314.480183,227.186340332,18525.000000000,1718094314.480183125,,,,
1718094314.480790,,,,0.319448799,0.321959704,91906.000000000,1718094314.480789900
1718094314.481797,,,,0.330122828,0.330758542,91907.000000000,1718094314.481796980
1718094314.482804,,,,0.357601166,0.358212858,91908.000000000,1718094314.482804060
1718094314.483811,,,,0.394359142,0.397783577,91909.000000000,1718094314.483811140
1718094314.484818,,,,0.353105575,0.355448186,91910.000000000,1718094314.484818220
1718094314.485183,230.982543945,18526.000000000,1718094314.485183239,,,,
1718094314.485825,,,,0.339787126,0.338884264,91911.000000000,1718094314.485825300
1718094314.486832,,,,0.409336388,0.408746064,91912.000000000,1718094314.486832380
1718094314.487839,,,,0.465134501,0.464472055,91913.000000000,1718094314.487839460
1718094314.488847,,,,0.435540587,0.436897546,91914.000000000,1718094314.488846540
1718094314.489854,,,,0.409456611,0.407207489,91915.000000000,1718094314.489853621
1718094314.490861,,,,0.457465559,0.456730992,91916.000000000,1718094314.490860701
1718094314.491868,,,,0.496002555,0.497119099,91917.000000000,1718094314.491867781
1718094314.492875,,,,0.479462653,0.479256988,91918.000000000,1718094314.492874861
1718094314.493882,,,,0.369789720,0.366771281,91919.000000000,1718094314.493881941
1718094314.494889,,,,0.252495915,0.251569003,91920.000000000,1718094314.494889021
1718094314.495896,,,,0.267617404,0.267411709,91921.000000000,1718094314.495896101
1718094314.496903,,,,0.289277941,0.288254857,91922.000000000,1718094314.496903181
1718094314.497910,,,,0.331949890,0.334004015,91923.000000000,1718094314.497910261
1718094314.498917,,,,0.419048786,0.421367347,91924.000000000,1718094314.498917341
1718094314.499924,,,,0.325963795,0.327152461,91925.000000000,1718094314.499924421
1718094314.500932,,,,0.246101111,0.244477049,91926.000000000,1718094314.500931501
1718094314.501939,,,,0.240355432,0.238659233,91927.000000000,1718094314.501938581
1718094314.502946,,,,0.249971643,0.249092832,91928.000000000,1718094314.502945662
1718094314.503953,,,,0.257111698,0.256713688,91929.000000000,1718094314.503952742
1718094314.504960,,,,0.267184675,0.267868489,91930.000000000,1718094314.504959822
1718094314.505967,,,,0.226844639,0.227191895,91931.000000000,1718094314.505966902
1718094314.506974,,,,0.160853356,0.161200598,91932.000000000,1718094314.506973982
1718094314.507981,,,,0.165348932,0.163917184,91933.000000000,1718094314.507981062
1718094314.508988,,,,0.249971643,0.248612016,91934.000000000,1718094314.508988142
1718094314.509995,,,,0.436285853,0.436464816,91935.000000000,1718094314.509995222
1718094314.510183,246.786499023,18531.000000000,1718094314.510183096,,,,
1718094314.511002,,,,0.633418322,0.632347167,91936.000000000,1718094314.511002302
1718094314.512009,,,,0.599953890,0.599459708,91937.000000000,1718094314.512009382
1718094314.513016,,,,0.468428046,0.469592690,91938.000000000,1718094314.513016462
1718094314.514024,,,,0.443161458,0.446008921,91939.000000000,1718094314.514023542
1718094314.515031,,,,0.355750024,0.357371420,91940.000000000,1718094314.515030622
1718094314.515183,249.513671875,18532.000000000,1718094314.515183210,,,,
1718094314.516038,,,,0.313606948,0.312848359,91941.000000000,1718094314.516037703
1718094314.517045,,,,0.402605057,0.402759969,91942.000000000,1718094314.517044783
1718094314.518052,,,,0.520523906,0.522505939,91943.000000000,1718094314.518051863
1718094314.519059,,,,0.548242688,0.551570952,91944.000000000,1718094314.519058943
1718094314.520066,,,,0.483501464,0.485675812,91945.000000000,1718094314.520066023
1718094314.520183,252.175994873,18533.000000000,1718094314.520183086,,,,
1718094314.521073,,,,0.452128559,0.451898843,91946.000000000,1718094314.521073103
1718094314.522080,,,,0.254347026,0.254069209,91947.000000000,1718094314.522080183
1718094314.523087,,,,0.219608441,0.220412463,91948.000000000,1718094314.523087263
1718094314.524094,,,,0.278315455,0.277340472,91949.000000000,1718094314.524094343
1718094314.525101,,,,0.262641013,0.262579560,91950.000000000,1718094314.525101423
1718094314.525183,254.805709839,18534.000000000,1718094314.525183201,,,,
1718094314.526109,,,,0.260116756,0.260055304,91951.000000000,1718094314.526108503
1718094314.527116,,,,0.284469813,0.284456462,91952.000000000,1718094314.527115583
1718094314.528123,,,,0.282642752,0.281451404,91953.000000000,1718094314.528122663
1718094314.529130,,,,0.265237391,0.264695138,91954.000000000,1718094314.529129744
1718094314.530137,,,,0.273723692,0.272315979,91955.000000000,1718094314.530136824
1718094314.530183,257.547088623,18535.000000000,1718094314.530183077,,,,
1718094314.531144,,,,0.251173675,0.249958292,91956.000000000,1718094314.531143904
1718094314.532151,,,,0.177345157,0.176802918,91957.000000000,1718094314.532150984
1718094314.533158,,,,0.152222797,0.151055485,91958.000000000,1718094314.533158064
1718094314.534165,,,,0.148953289,0.148002341,91959.000000000,1718094314.534165144
1718094314.535172,,,,0.175878689,0.175168157,91960.000000000,1718094314.535172224
1718094314.535183,260.304077148,18536.000000000,1718094314.535183191,,,,
1718094314.536179,,,,0.241485327,0.242722079,91961.000000000,1718094314.536179304
1718094314.537186,,,,0.289277941,0.288567394,91962.000000000,1718094314.537186384
1718094314.538193,,,,0.354860544,0.352731615,91963.000000000,1718094314.538193464
1718094314.539201,,,,0.437487870,0.438941002,91964.000000000,1718094314.539200544
1718094314.540183,263.108856201,18537.000000000,1718094314.540183067,,,,
1718094314.540208,,,,0.461384177,0.462981522,91965.000000000,1718094314.540207624
1718094314.541215,,,,0.540237188,0.539310277,91966.000000000,1718094314.541214705
1718094314.542222,,,,0.609497964,0.609893322,91967.000000000,1718094314.542221785
1718094314.543229,,,,0.536414742,0.539430439,91968.000000000,1718094314.543228865
1718094314.544236,,,,0.463307410,0.466106802,91969.000000000,1718094314.544235945
1718094314.545183,265.929290771,18538.000000000,1718094314.545183182,,,,
1718094314.545243,,,,0.429362178,0.429420948,91970.000000000,1718094314.545243025
1718094314.546250,,,,0.436718583,0.437282205,91971.000000000,1718094314.546250105
1718094314.547257,,,,0.441430539,0.442715347,91972.000000000,1718094314.547257185
1718094314.548264,,,,0.419144958,0.420237452,91973.000000000,1718094314.548264265
1718094314.549271,,,,0.532351851,0.534141541,91974.000000000,1718094314.549271345
1718094314.550183,268.637512207,18539.000000000,1718094314.550183058,,,,
1718094314.550278,,,,0.395657331,0.396797925,91975.000000000,1718094314.550278425
1718094314.551286,,,,0.187514320,0.186154678,91976.000000000,1718094314.551285505
1718094314.552293,,,,0.327141792,0.327969849,91977.000000000,1718094314.552292585
1718094314.553300,,,,0.327237934,0.328811258,91978.000000000,1718094314.553299665
1718094314.554307,,,,0.198164269,0.200386688,91979.000000000,1718094314.554306746
1718094314.555183,271.409729004,18540.000000000,1718094314.555183172,,,,
1718094314.559342,,,,0.475592136,0.475963444,91984.000000000,1718094314.559342146
1718094314.560349,,,,0.148208022,0.148026377,91985.000000000,1718094314.560349226
1718094314.561356,,,,0.027043689,0.027511142,91986.000000000,1718094314.561356306
1718094314.562363,,,,0.157223225,0.161008283,91987.000000000,1718094314.562363386
1718094314.563370,,,,0.306635201,0.307871968,91988.000000000,1718094314.563370466
1718094314.564378,,,,0.306563079,0.307799846,91989.000000000,1718094314.564377546
1718094314.565385,,,,0.220594093,0.221854895,91990.000000000,1718094314.565384626
1718094314.566392,,,,0.206265941,0.206901670,91991.000000000,1718094314.566391706
1718094314.567399,,,,0.237783089,0.240822881,91992.000000000,1718094314.567398787
1718094314.568406,,,,0.262472719,0.262170881,91993.000000000,1718094314.568405867
1718094314.569413,,,,0.266607702,0.266666472,91994.000000000,1718094314.569412947
1718094314.570420,,,,0.310842305,0.312968552,91995.000000000,1718094314.570420027
1718094314.572434,,,,0.307067931,0.306766093,91997.000000000,1718094314.572434187
1718094314.573441,,,,0.318919927,0.317031413,91998.000000000,1718094314.573441267
1718094314.574448,,,,0.440108299,0.439806461,91999.000000000,1718094314.574448347
1718094314.575455,,,,0.524394453,0.526208162,92000.000000000,1718094314.575455427
1718094314.576463,,,,0.546728134,0.546666682,92001.000000000,1718094314.576462507
1718094314.577470,,,,0.576898992,0.575419128,92002.000000000,1718094314.577469587
1718094314.578477,,,,0.586419046,0.587030709,92003.000000000,1718094314.578476667
1718094314.579484,,,,0.473164052,0.473607451,92004.000000000,1718094314.579483747
1718094314.580491,,,,0.424385786,0.423290610,92005.000000000,1718094314.580490828
1718094314.581498,,,,0.567475080,0.565249979,92006.000000000,1718094314.581497908
1718094314.588547,,,,0.303942651,0.304362029,92013.000000000,1718094314.588547468
1718094314.589555,,,,0.130538225,0.131774977,92014.000000000,1718094314.589554548
1718094314.590562,,,,0.122027874,0.124658972,92015.000000000,1718094314.590561628
1718094314.591569,,,,0.183908239,0.186539337,92016.000000000,1718094314.591568708
1718094314.592576,,,,0.167103887,0.167475179,92017.000000000,1718094314.592575788
1718094314.593583,,,,0.164988324,0.163123846,92018.000000000,1718094314.593582869
1718094314.594590,,,,0.215449423,0.212262720,92019.000000000,1718094314.594589949
1718094314.595597,,,,0.256342381,0.255247205,92020.000000000,1718094314.595597029
1718094314.596604,,,,0.330435336,0.327849656,92021.000000000,1718094314.596604109
1718094314.597611,,,,0.366063416,0.364463389,92022.000000000,1718094314.597611189
1718094314.600632,,,,0.389671236,0.391653240,92025.000000000,1718094314.600632429
1718094314.601640,,,,0.392964780,0.395427614,92026.000000000,1718094314.601639509
1718094314.602647,,,,0.374910355,0.372949690,92027.000000000,1718094314.602646589
1718094314.603654,,,,0.322574079,0.320757687,92028.000000000,1718094314.603653669
1718094314.604498,295.364227295,18551.000000000,1718094314.604498148,,,,
1718094314.604661,,,,0.237999454,0.236880228,92029.000000000,1718094314.604660749
1718094314.605668,,,,0.110151850,0.110354856,92030.000000000,1718094314.605667830
1718094314.606675,,,,0.079379953,0.081626400,92031.000000000,1718094314.606674910
1718094314.607682,,,,0.202010766,0.201781034,92032.000000000,1718094314.607681990
1718094314.608689,,,,0.302500218,0.302727282,92033.000000000,1718094314.608689070
1718094314.609498,296.776855469,18552.000000000,1718094314.609498262,,,,
1718094314.609696,,,,0.311876029,0.313088745,92034.000000000,1718094314.609696150
1718094314.610703,,,,0.283628404,0.286187381,92035.000000000,1718094314.610703230
1718094314.611710,,,,0.329016954,0.329580575,92036.000000000,1718094314.611710310
1718094314.612717,,,,0.420154661,0.419997036,92037.000000000,1718094314.612717390
1718094314.613724,,,,0.526774466,0.526568770,92038.000000000,1718094314.613724470
1718094314.614498,297.884674072,18553.000000000,1718094314.614498138,,,,
1718094314.614732,,,,0.649693727,0.650666058,92039.000000000,1718094314.614731550
1718094314.615739,,,,0.700299084,0.699756861,92040.000000000,1718094314.615738630
1718094314.616746,,,,0.680056930,0.679827213,92041.000000000,1718094314.616745710
1718094314.617753,,,,0.745904028,0.744279921,92042.000000000,1718094314.617752790
1718094314.618760,,,,0.697846949,0.697328746,92043.000000000,1718094314.618759871
1718094314.619498,298.751800537,18554.000000000,1718094314.619498253,,,,
1718094314.619767,,,,0.440132350,0.442450911,92044.000000000,1718094314.619766951
1718094314.620774,,,,0.146116495,0.145502120,92045.000000000,1718094314.620774031
1718094314.621781,,,,0.042501759,0.042223953,92046.000000000,1718094314.621781111
1718094314.622788,,,,0.133423090,0.135284901,92047.000000000,1718094314.622788191
1718094314.623795,,,,0.280262738,0.281499475,92048.000000000,1718094314.623795271
1718094314.624498,299.362091064,18555.000000000,1718094314.624498129,,,,
1718094314.624802,,,,0.337960035,0.339773744,92049.000000000,1718094314.624802351
1718094314.625809,,,,0.307837218,0.309170157,92050.000000000,1718094314.625809431
1718094314.626817,,,,0.283580333,0.284432411,92051.000000000,1718094314.626816511
1718094314.627824,,,,0.226219594,0.225989863,92052.000000000,1718094314.627823591
1718094314.628831,,,,0.198500842,0.197069094,92053.000000000,1718094314.628830671
1718094314.629498,299.795745850,18556.000000000,1718094314.629498243,,,,
1718094314.629838,,,,0.236749351,0.237889931,92054.000000000,1718094314.629837751
1718094314.630845,,,,0.217372671,0.217455477,92055.000000000,1718094314.630844831
1718094314.631852,,,,0.214824364,0.213007972,92056.000000000,1718094314.631851912
1718094314.632859,,,,0.311683714,0.307727724,92057.000000000,1718094314.632858992
1718094314.633866,,,,0.359548450,0.357106984,92058.000000000,1718094314.633866072
1718094314.634498,299.988464355,18557.000000000,1718094314.634498119,,,,
1718094314.634873,,,,0.331805646,0.330421984,92059.000000000,1718094314.634873152
1718094314.635880,,,,0.233359635,0.232192323,92060.000000000,1718094314.635880232
1718094314.636887,,,,0.280479103,0.279624313,92061.000000000,1718094314.636887312
1718094314.637894,,,,0.435660809,0.434565604,92062.000000000,1718094314.637894392
1718094314.638901,,,,0.451359272,0.452019036,92063.000000000,1718094314.638901472
1718094314.639498,300.309692383,18558.000000000,1718094314.639498234,,,,
1718094314.639909,,,,0.464365214,0.464351833,92064.000000000,1718094314.639908552
1718094314.640916,,,,0.567354918,0.567726195,92065.000000000,1718094314.640915632
1718094314.641923,,,,0.544059634,0.543926060,92066.000000000,1718094314.641922712
1718094314.642930,,,,0.379502088,0.379248321,92067.000000000,1718094314.642929792
1718094314.643937,,,,0.373540044,0.373093933,92068.000000000,1718094314.643936872
1718094314.644498,300.647003174,18559.000000000,1718094314.644498110,,,,
1718094314.644944,,,,0.435492516,0.436080158,92069.000000000,1718094314.644943953
1718094314.645951,,,,0.303245485,0.301429093,92070.000000000,1718094314.645951033
1718094314.646958,,,,0.236773387,0.235774368,92071.000000000,1718094314.646958113
1718094314.647965,,,,0.273146719,0.273469925,92072.000000000,1718094314.647965193
1718094314.648972,,,,0.290023178,0.287774056,92073.000000000,1718094314.648972273
1718094314.649498,301.161041260,18560.000000000,1718094314.649498224,,,,
1718094314.649979,,,,0.238432184,0.237962052,92074.000000000,1718094314.649979353
1718094314.650986,,,,0.185062185,0.185313269,92075.000000000,1718094314.650986433
1718094314.651994,,,,0.262232333,0.262699783,92076.000000000,1718094314.651993513
1718094314.653001,,,,0.368371308,0.369968683,92077.000000000,1718094314.653000593
1718094314.654008,,,,0.370102227,0.368814737,92078.000000000,1718094314.654007673
1718094314.655015,,,,0.237831175,0.237120628,92079.000000000,1718094314.655014753
1718094314.656022,,,,0.204583094,0.206444904,92080.000000000,1718094314.656021833
1718094314.657029,,,,0.266439408,0.264310479,92081.000000000,1718094314.657028913
1718094314.658036,,,,0.321900934,0.319171011,92082.000000000,1718094314.658035994
1718094314.659043,,,,0.311443299,0.311982900,92083.000000000,1718094314.659043074
1718094314.660050,,,,0.260621607,0.260079354,92084.000000000,1718094314.660050154
1718094314.661057,,,,0.237590760,0.238514990,92085.000000000,1718094314.661057234
1718094314.662064,,,,0.265597999,0.263829678,92086.000000000,1718094314.662064314
1718094314.663071,,,,0.307356417,0.307439238,92087.000000000,1718094314.663071394
1718094314.664078,,,,0.287547022,0.289625168,92088.000000000,1718094314.664078474
1718094314.665086,,,,0.290792495,0.294313073,92089.000000000,1718094314.665085554
1718094314.666093,,,,0.460013866,0.463029623,92090.000000000,1718094314.666092634
1718094314.667100,,,,0.571009040,0.573688209,92091.000000000,1718094314.667099714
1718094314.668107,,,,0.615580201,0.614917755,92092.000000000,1718094314.668106794
1718094314.669114,,,,0.582620621,0.583568871,92093.000000000,1718094314.669113874
1718094314.670121,,,,0.455446154,0.455745339,92094.000000000,1718094314.670120955
1718094314.671128,,,,0.455734640,0.456586748,92095.000000000,1718094314.671128035
1718094314.672135,,,,0.411019236,0.412231952,92096.000000000,1718094314.672135115
1718094314.673142,,,,0.362289071,0.361698717,92097.000000000,1718094314.673142195
1718094314.674149,,,,0.418712229,0.419852793,92098.000000000,1718094314.674149275
1718094314.675156,,,,0.523072183,0.524140656,92099.000000000,1718094314.675156355
1718094314.676163,,,,0.566946208,0.569360912,92100.000000000,1718094314.676163435
1718094314.677171,,,,0.604064822,0.601455092,92101.000000000,1718094314.677170515
1718094314.678178,,,,0.539155364,0.537867844,92102.000000000,1718094314.678177595
1718094314.679185,,,,0.474149704,0.474953741,92103.000000000,1718094314.679184675
1718094314.680192,,,,0.292980164,0.292654276,92104.000000000,1718094314.680191755
1718094314.681199,,,,0.140082330,0.139876634,92105.000000000,1718094314.681198835
1718094314.682206,,,,0.250067800,0.249862120,92106.000000000,1718094314.682205915
1718094314.683213,,,,0.331589282,0.336071521,92107.000000000,1718094314.683212996
1718094314.684220,,,,0.418015033,0.422521293,92108.000000000,1718094314.684220076
1718094314.685227,,,,0.329906464,0.330133498,92109.000000000,1718094314.685227156
1718094314.686234,,,,0.273459256,0.274119020,92110.000000000,1718094314.686234236
1718094314.687241,,,,0.375102669,0.375978798,92111.000000000,1718094314.687241316
1718094314.688248,,,,0.364332497,0.363910466,92112.000000000,1718094314.688248396
1718094314.689255,,,,0.252784401,0.254525989,92113.000000000,1718094314.689255476
1718094314.690263,,,,0.168618441,0.166417405,92114.000000000,1718094314.690262556
1718094314.691270,,,,0.172272608,0.171225503,92115.000000000,1718094314.691269636
1718094314.692277,,,,0.194486067,0.195410296,92116.000000000,1718094314.692276716
1718094314.693284,,,,0.214127198,0.215412021,92117.000000000,1718094314.693283796
1718094314.694291,,,,0.289878935,0.288182735,92118.000000000,1718094314.694290876
1718094314.695298,,,,0.395080358,0.394057304,92119.000000000,1718094314.695297956
1718094314.696305,,,,0.435324222,0.435142577,92120.000000000,1718094314.696305037
1718094314.697312,,,,0.415707141,0.416222692,92121.000000000,1718094314.697312117
1718094314.698319,,,,0.390079916,0.389657885,92122.000000000,1718094314.698319197
1718094314.699326,,,,0.385560304,0.386460483,92123.000000000,1718094314.699326277
1718094314.700333,,,,0.510643244,0.510557771,92124.000000000,1718094314.700333357
1718094314.701340,,,,0.538386047,0.537170649,92125.000000000,1718094314.701340437
1718094314.702348,,,,0.448835015,0.450696826,92126.000000000,1718094314.702347517
1718094314.703355,,,,0.373515993,0.373791128,92127.000000000,1718094314.703354597
1718094314.704362,,,,0.192226261,0.191491678,92128.000000000,1718094314.704361677
1718094314.705369,,,,0.059450340,0.059725471,92129.000000000,1718094314.705368757
1718094314.706376,,,,0.018990107,0.021044236,92130.000000000,1718094314.706375837
1718094314.707383,,,,0.077673070,0.077299103,92131.000000000,1718094314.707382917
1718094314.708390,,,,0.174868986,0.172788143,92132.000000000,1718094314.708389997
1718094314.708560,312.128234863,18571.000000000,1718094314.708559513,,,,
1718094314.709397,,,,0.217516914,0.216734260,92133.000000000,1718094314.709397078
1718094314.710404,,,,0.309712380,0.313040674,92134.000000000,1718094314.710404158
1718094314.711411,,,,0.364428669,0.364583582,92135.000000000,1718094314.711411238
1718094314.712418,,,,0.257400185,0.257194489,92136.000000000,1718094314.712418318
1718094314.713425,,,,0.272088945,0.272267908,92137.000000000,1718094314.713425398
1718094314.713560,312.756164551,18572.000000000,1718094314.713559628,,,,
1718094314.714432,,,,0.345052004,0.342586488,92138.000000000,1718094314.714432478
1718094314.715440,,,,0.437415749,0.435527235,92139.000000000,1718094314.715439558
1718094314.716447,,,,0.485352606,0.482814997,92140.000000000,1718094314.716446638
1718094314.717454,,,,0.420899898,0.422160685,92141.000000000,1718094314.717453718
1718094314.718461,,,,0.392195493,0.395067006,92142.000000000,1718094314.718460798
1718094314.718560,313.400238037,18573.000000000,1718094314.718559504,,,,
1718094314.719468,,,,0.351663142,0.355159700,92143.000000000,1718094314.719467878
1718094314.720475,,,,0.196072742,0.199617386,92144.000000000,1718094314.720474958
1718094314.721482,,,,0.274228543,0.278446317,92145.000000000,1718094314.721482038
1718094314.722489,,,,0.373419821,0.374247879,92146.000000000,1718094314.722489119
1718094314.723496,,,,0.373155385,0.373021811,92147.000000000,1718094314.723496199
1718094314.723560,313.899475098,18574.000000000,1718094314.723559618,,,,
1718094314.724503,,,,0.363202602,0.364222974,92148.000000000,1718094314.724503279
1718094314.725510,,,,0.400826037,0.402014732,92149.000000000,1718094314.725510359
1718094314.726517,,,,0.513816595,0.517048717,92150.000000000,1718094314.726517439
1718094314.727525,,,,0.577451944,0.579602182,92151.000000000,1718094314.727524519
1718094314.728532,,,,0.606781363,0.607873917,92152.000000000,1718094314.728531599
1718094314.728559,314.366546631,18575.000000000,1718094314.728559494,,,,
1718094314.729539,,,,0.541607499,0.541329682,92153.000000000,1718094314.729538679
1718094314.730546,,,,0.321780741,0.320733637,92154.000000000,1718094314.730545759
1718094314.731553,,,,0.158016562,0.159229279,92155.000000000,1718094314.731552839
1718094314.732560,,,,0.237975419,0.237553358,92156.000000000,1718094314.732559919
1718094314.733560,314.753173828,18576.000000000,1718094314.733559608,,,,
1718094314.733567,,,,0.223503008,0.221927017,92157.000000000,1718094314.733566999
1718094314.734574,,,,0.214175269,0.215123534,92158.000000000,1718094314.734574080
1718094314.735581,,,,0.323223174,0.324532062,92159.000000000,1718094314.735581160
1718094314.736588,,,,0.394839942,0.396629632,92160.000000000,1718094314.736588240
1718094314.737595,,,,0.319280535,0.316839069,92161.000000000,1718094314.737595320
1718094314.738559,315.204223633,18577.000000000,1718094314.738559484,,,,
1718094314.738602,,,,0.261318773,0.262002587,92162.000000000,1718094314.738602400
1718094314.739609,,,,0.307260245,0.308472961,92163.000000000,1718094314.739609480
1718094314.740617,,,,0.416740894,0.418242097,92164.000000000,1718094314.740616560
1718094314.741624,,,,0.347600281,0.346384913,92165.000000000,1718094314.741623640
1718094314.742631,,,,0.286681563,0.288206786,92166.000000000,1718094314.742630720
1718094314.743560,315.671447754,18578.000000000,1718094314.743559599,,,,
1718094314.743638,,,,0.309015214,0.311694413,92167.000000000,1718094314.743637800
1718094314.744645,,,,0.355076909,0.357804149,92168.000000000,1718094314.744644880
1718094314.745652,,,,0.403230101,0.404490888,92169.000000000,1718094314.745651960
1718094314.746659,,,,0.323415488,0.323185772,92170.000000000,1718094314.746659040
1718094314.747666,,,,0.187802806,0.186923981,92171.000000000,1718094314.747666121
1718094314.748559,316.025909424,18579.000000000,1718094314.748559475,,,,
1718094314.748673,,,,0.174844950,0.175240278,92172.000000000,1718094314.748673201
1718094314.749680,,,,0.294687063,0.296909451,92173.000000000,1718094314.749680281
1718094314.750687,,,,0.366375953,0.367805034,92174.000000000,1718094314.750687361
1718094314.751694,,,,0.343489349,0.343355805,92175.000000000,1718094314.751694441
1718094314.752702,,,,0.253024787,0.255800128,92176.000000000,1718094314.752701521
1718094314.753560,316.444915771,18580.000000000,1718094314.753559589,,,,
1718094314.753709,,,,0.271463901,0.277508736,92177.000000000,1718094314.753708601
1718094314.754716,,,,0.354764372,0.356698304,92178.000000000,1718094314.754715681
1718094314.755723,,,,0.439819813,0.439181387,92179.000000000,1718094314.755722761
1718094314.756730,,,,0.482804298,0.481901437,92180.000000000,1718094314.756729841
1718094314.757737,,,,0.435781002,0.437498569,92181.000000000,1718094314.757736921
1718094314.758744,,,,0.387627780,0.386292189,92182.000000000,1718094314.758744001
1718094314.759751,,,,0.388180733,0.386508554,92183.000000000,1718094314.759751081
1718094314.760758,,,,0.397989273,0.398576915,92184.000000000,1718094314.760758162
1718094314.761765,,,,0.406379402,0.409250915,92185.000000000,1718094314.761765242
1718094314.762772,,,,0.383132219,0.384152591,92186.000000000,1718094314.762772322
1718094314.763779,,,,0.269973367,0.270536989,92187.000000000,1718094314.763779402
1718094314.764786,,,,0.192995563,0.192693710,92188.000000000,1718094314.764786482
1718094314.765794,,,,0.298389286,0.297943205,92189.000000000,1718094314.765793562
1718094314.766801,,,,0.392724395,0.393864989,92190.000000000,1718094314.766800642
1718094314.767808,,,,0.512398183,0.515053332,92191.000000000,1718094314.767807722
1718094314.768815,,,,0.587500870,0.586718202,92192.000000000,1718094314.768814802
1718094314.769822,,,,0.503984034,0.505797744,92193.000000000,1718094314.769821882
1718094314.770829,,,,0.366207659,0.365665406,92194.000000000,1718094314.770828962
1718094314.771836,,,,0.275574833,0.273782462,92195.000000000,1718094314.771836042
1718094314.772843,,,,0.164964288,0.163604662,92196.000000000,1718094314.772843122
1718094314.773332,318.443725586,18585.000000000,1718094314.773331642,,,,
1718094314.773850,,,,0.205833212,0.205555409,92197.000000000,1718094314.773850203
1718094314.774857,,,,0.373948723,0.372108281,92198.000000000,1718094314.774857283
1718094314.775864,,,,0.452080488,0.453894198,92199.000000000,1718094314.775864363
1718094314.776871,,,,0.490401119,0.489017457,92200.000000000,1718094314.776871443
1718094314.777879,,,,0.429410249,0.428819925,92201.000000000,1718094314.777878523
1718094314.778332,318.975830078,18586.000000000,1718094314.778331757,,,,
1718094314.778886,,,,0.374357402,0.372589082,92202.000000000,1718094314.778885603
1718094314.779893,,,,0.414529175,0.411366493,92203.000000000,1718094314.779892683
1718094314.780900,,,,0.355870247,0.357034862,92204.000000000,1718094314.780899763
1718094314.781907,,,,0.324593484,0.324916691,92205.000000000,1718094314.781906843
1718094314.782914,,,,0.335796386,0.336167663,92206.000000000,1718094314.782913923
1718094314.783332,319.491882324,18587.000000000,1718094314.783331633,,,,
1718094314.783921,,,,0.333873153,0.334100187,92207.000000000,1718094314.783921003
1718094314.784928,,,,0.334594369,0.337706268,92208.000000000,1718094314.784928083
1718094314.785935,,,,0.321107596,0.322200119,92209.000000000,1718094314.785935163
1718094314.786942,,,,0.329185247,0.328883380,92210.000000000,1718094314.786942244
1718094314.787949,,,,0.344138443,0.344028920,92211.000000000,1718094314.787949324
1718094314.788332,320.104797363,18588.000000000,1718094314.788331747,,,,
1718094314.788956,,,,0.352047801,0.351433426,92212.000000000,1718094314.788956404
1718094314.789963,,,,0.353682548,0.353981704,92213.000000000,1718094314.789963484
1718094314.790971,,,,0.346181899,0.346721470,92214.000000000,1718094314.790970564
1718094314.791978,,,,0.290407836,0.291283965,92215.000000000,1718094314.791977644
1718094314.792985,,,,0.189389482,0.191539764,92216.000000000,1718094314.792984724
1718094314.793332,320.798492432,18589.000000000,1718094314.793331623,,,,
1718094314.793992,,,,0.103132010,0.104993813,92217.000000000,1718094314.793991804
1718094314.794999,,,,0.109863363,0.108431607,92218.000000000,1718094314.794998884
1718094314.796006,,,,0.225017563,0.225076318,92219.000000000,1718094314.796005964
1718094314.797013,,,,0.349259079,0.351289183,92220.000000000,1718094314.797013044
1718094314.798020,,,,0.381401300,0.379344493,92221.000000000,1718094314.798020124
1718094314.798332,321.621368408,18590.000000000,1718094314.798331738,,,,
1718094314.799027,,,,0.383372605,0.382205307,92222.000000000,1718094314.799027205
1718094314.800034,,,,0.431790262,0.432401955,92223.000000000,1718094314.800034285
1718094314.801041,,,,0.537809074,0.538757324,92224.000000000,1718094314.801041365
1718094314.802048,,,,0.503791690,0.504571676,92225.000000000,1718094314.802048445
1718094314.803056,,,,0.440829515,0.439421803,92226.000000000,1718094314.803055525
1718094314.803332,322.460601807,18591.000000000,1718094314.803331614,,,,
1718094314.804063,,,,0.456600100,0.452668130,92227.000000000,1718094314.804062605
1718094314.805070,,,,0.398373902,0.399923205,92228.000000000,1718094314.805069685
1718094314.806077,,,,0.276007563,0.278686732,92229.000000000,1718094314.806076765
1718094314.807084,,,,0.263963252,0.263853729,92230.000000000,1718094314.807083845
1718094314.808091,,,,0.282835066,0.281547546,92231.000000000,1718094314.808090925
1718094314.808332,323.542266846,18592.000000000,1718094314.808331728,,,,
1718094314.809098,,,,0.230546892,0.228393912,92232.000000000,1718094314.809098005
1718094314.810105,,,,0.233744279,0.234091520,92233.000000000,1718094314.810105085
1718094314.811112,,,,0.309231579,0.307054579,92234.000000000,1718094314.811112165
1718094314.812119,,,,0.278291404,0.278181881,92235.000000000,1718094314.812119246
1718094314.813126,,,,0.225810900,0.227672696,92236.000000000,1718094314.813126326
1718094314.813332,324.608062744,18593.000000000,1718094314.813331604,,,,
1718094314.814133,,,,0.315337867,0.316526562,92237.000000000,1718094314.814133406
1718094314.815140,,,,0.482804298,0.484017015,92238.000000000,1718094314.815140486
1718094314.816148,,,,0.593030214,0.592271566,92239.000000000,1718094314.816147566
1718094314.817155,,,,0.487011403,0.487238437,92240.000000000,1718094314.817154646
1718094314.818162,,,,0.360197544,0.357635885,92241.000000000,1718094314.818161726
1718094314.818332,325.722686768,18594.000000000,1718094314.818331718,,,,
1718094314.819169,,,,0.231941238,0.231591314,92242.000000000,1718094314.819168806
1718094314.820176,,,,0.238480270,0.239813179,92243.000000000,1718094314.820175886
1718094314.821183,,,,0.304543674,0.304482251,92244.000000000,1718094314.821182966
1718094314.822190,,,,0.360582173,0.359511048,92245.000000000,1718094314.822190046
1718094314.823197,,,,0.445349127,0.445359826,92246.000000000,1718094314.823197126
1718094314.823332,326.869964600,18595.000000000,1718094314.823331594,,,,
1718094314.824204,,,,0.520884514,0.521592379,92247.000000000,1718094314.824204206
1718094314.825211,,,,0.586851776,0.586549938,92248.000000000,1718094314.825211287
1718094314.826218,,,,0.515018642,0.516135156,92249.000000000,1718094314.826218367
1718094314.827225,,,,0.347552210,0.348524511,92250.000000000,1718094314.827225447
1718094314.828233,,,,0.302764684,0.303039789,92251.000000000,1718094314.828232527
1718094314.828332,328.098510742,18596.000000000,1718094314.828331709,,,,
1718094314.829240,,,,0.303630143,0.304362029,92252.000000000,1718094314.829239607
1718094314.830247,,,,0.189702004,0.190481976,92253.000000000,1718094314.830246687
1718094314.831254,,,,0.096689142,0.097156592,92254.000000000,1718094314.831253767
1718094314.832261,,,,0.103372410,0.103142686,92255.000000000,1718094314.832260847
1718094314.833268,,,,0.214055076,0.213825345,92256.000000000,1718094314.833267927
1718094314.833332,329.327575684,18597.000000000,1718094314.833331585,,,,
1718094314.834275,,,,0.359283984,0.358693659,92257.000000000,1718094314.834275007
1718094314.835282,,,,0.551440060,0.551330507,92258.000000000,1718094314.835282087
1718094314.836289,,,,0.713353097,0.714060962,92259.000000000,1718094314.836289167
1718094314.837296,,,,0.670200348,0.670259118,92260.000000000,1718094314.837296247
1718094314.838303,,,,0.576898992,0.575130641,92261.000000000,1718094314.838303328
1718094314.838332,330.540863037,18598.000000000,1718094314.838331699,,,,
1718094314.839310,,,,0.441310316,0.440070897,92262.000000000,1718094314.839310408
1718094314.840317,,,,0.258794516,0.259454310,92263.000000000,1718094314.840317488
1718094314.841325,,,,0.226123422,0.226831287,92264.000000000,1718094314.841324568
1718094314.842332,,,,0.309688359,0.311670363,92265.000000000,1718094314.842331648
1718094314.843332,331.851837158,18599.000000000,1718094314.843331575,,,,
1718094314.843339,,,,0.317838103,0.318497866,92266.000000000,1718094314.843338728
1718094314.844346,,,,0.278748184,0.278350174,92267.000000000,1718094314.844345808
1718094314.845353,,,,0.242807567,0.244308755,92268.000000000,1718094314.845352888
1718094314.846360,,,,0.198188320,0.198703840,92269.000000000,1718094314.846359968
1718094314.847367,,,,0.123878993,0.125356153,92270.000000000,1718094314.847367048
1718094314.848332,333.130981445,18600.000000000,1718094314.848331690,,,,
1718094314.848374,,,,0.134985730,0.138073593,92271.000000000,1718094314.848374128
1718094314.849381,,,,0.184917942,0.187813476,92272.000000000,1718094314.849381208
1718094314.850388,,,,0.256967455,0.258324385,92273.000000000,1718094314.850388288
1718094314.851395,,,,0.348513842,0.347250372,92274.000000000,1718094314.851395369
1718094314.852402,,,,0.497300744,0.495364159,92275.000000000,1718094314.852402449
1718094314.853410,,,,0.579134762,0.576332688,92276.000000000,1718094314.853409529
1718094314.854417,,,,0.592765749,0.592680275,92277.000000000,1718094314.854416609
1718094314.855424,,,,0.656136632,0.656724274,92278.000000000,1718094314.855423689
1718094314.856431,,,,0.695130348,0.695549726,92279.000000000,1718094314.856430769
1718094314.857438,,,,0.476673961,0.475290298,92280.000000000,1718094314.857437849
1718094314.858445,,,,0.323583782,0.322873265,92281.000000000,1718094314.858444929
1718094314.859452,,,,0.173979491,0.174398854,92282.000000000,1718094314.859452009
1718094314.860459,,,,0.075172856,0.075447984,92283.000000000,1718094314.860459089
1718094314.861466,,,,0.102530994,0.104416840,92284.000000000,1718094314.861466169
1718094314.862473,,,,0.223527044,0.225412890,92285.000000000,1718094314.862473249
1718094314.863480,,,,0.282811016,0.285514235,92286.000000000,1718094314.863480330
1718094314.864487,,,,0.390825182,0.390787780,92287.000000000,1718094314.864487410
1718094314.865494,,,,0.492877275,0.491637856,92288.000000000,1718094314.865494490
1718094314.866502,,,,0.496916115,0.496229619,92289.000000000,1718094314.866501570
1718094314.867509,,,,0.499584615,0.498850018,92290.000000000,1718094314.867508650
1718094314.868516,,,,0.498190254,0.498489410,92291.000000000,1718094314.868515730
1718094314.869523,,,,0.430708438,0.430743158,92292.000000000,1718094314.869522810
1718094314.870530,,,,0.342383504,0.340687305,92293.000000000,1718094314.870529890
1718094314.871537,,,,0.280166566,0.280489773,92294.000000000,1718094314.871536970
1718094314.872544,,,,0.100319266,0.098935597,92295.000000000,1718094314.872544050
1718094314.873551,,,,0.047045421,0.047128223,92296.000000000,1718094314.873551130
1718094314.874558,,,,0.116859160,0.116773680,92297.000000000,1718094314.874558210
1718094314.875565,,,,0.172585130,0.169470549,92298.000000000,1718094314.875565290
1718094314.876572,,,,0.241557449,0.239140034,92299.000000000,1718094314.876572371
1718094314.877579,,,,0.283484161,0.282629371,92300.000000000,1718094314.877579451
1718094314.878587,,,,0.383637071,0.382782280,92301.000000000,1718094314.878586531
1718094314.879594,,,,0.574999809,0.573640168,92302.000000000,1718094314.879593611
1718094314.880601,,,,0.658660889,0.657108903,92303.000000000,1718094314.880600691
1718094314.881608,,,,0.585409343,0.584891140,92304.000000000,1718094314.881607771
1718094314.882615,,,,0.341998845,0.340975791,92305.000000000,1718094314.882614851
1718094314.883622,,,,0.299182624,0.298784614,92306.000000000,1718094314.883621931
1718094314.884629,,,,0.352865160,0.353765339,92307.000000000,1718094314.884629011
1718094314.885636,,,,0.322093278,0.322608799,92308.000000000,1718094314.885636091
1718094314.886643,,,,0.387459517,0.389417470,92309.000000000,1718094314.886643171
1718094314.887650,,,,0.542881608,0.544743419,92310.000000000,1718094314.887650251
1718094314.888657,,,,0.676835537,0.675692260,92311.000000000,1718094314.888657331
1718094314.889664,,,,0.605699539,0.606359363,92312.000000000,1718094314.889664412
1718094314.890671,,,,0.473284245,0.473992109,92313.000000000,1718094314.890671492
1718094314.891679,,,,0.375703692,0.375305682,92314.000000000,1718094314.891678572
1718094314.892686,,,,0.091352142,0.090785854,92315.000000000,1718094314.892685652
1718094314.893693,,,,-0.036904156,-0.037013676,92316.000000000,1718094314.893692732
1718094314.894700,,,,0.007691052,0.010466397,92317.000000000,1718094314.894699812
1718094314.895707,,,,0.105752423,0.106917053,92318.000000000,1718094314.895706892
1718094314.896714,,,,0.164555594,0.167499229,92319.000000000,1718094314.896713972
1718094314.897721,,,,0.202491567,0.205675602,92320.000000000,1718094314.897721052
1718094314.898728,,,,0.279589593,0.278903097,92321.000000000,1718094314.898728132
1718094314.899735,,,,0.348513842,0.347779244,92322.000000000,1718094314.899735212
1718094314.900742,,,,0.451551586,0.452740252,92323.000000000,1718094314.900742292
1718094314.901749,,,,0.509080589,0.510605872,92324.000000000,1718094314.901749372
1718094314.902756,,,,0.385680497,0.384945929,92325.000000000,1718094314.902756453
1718094314.903764,,,,0.189774126,0.189520359,92326.000000000,1718094314.903763533
1718094314.904771,,,,0.101737656,0.101003081,92327.000000000,1718094314.904770613
1718094314.905778,,,,0.130946919,0.129515171,92328.000000000,1718094314.905777693
1718094314.906785,,,,0.273988158,0.274119020,92329.000000000,1718094314.906784773
1718094314.907792,,,,0.402508885,0.402759969,92330.000000000,1718094314.907791853
1718094314.908003,341.435302734,18611.000000000,1718094314.908003330,,,,
1718094314.908799,,,,0.495521754,0.493825555,92331.000000000,1718094314.908798933
1718094314.909806,,,,0.444916397,0.441946059,92332.000000000,1718094314.909806013
1718094314.910813,,,,0.401955962,0.402904212,92333.000000000,1718094314.910813093
1718094314.911820,,,,0.512181818,0.515245676,92334.000000000,1718094314.911820173
1718094314.912827,,,,0.561152458,0.563038290,92335.000000000,1718094314.912827253
1718094314.913003,341.532775879,18612.000000000,1718094314.913003445,,,,
1718094314.913834,,,,0.461864978,0.465024978,92336.000000000,1718094314.913834333
1718094314.914841,,,,0.222204819,0.222792476,92337.000000000,1718094314.914841413
1718094314.915848,,,,0.075870030,0.075375862,92338.000000000,1718094314.915848494
1718094314.916856,,,,0.011609660,0.011548221,92339.000000000,1718094314.916855574
1718094314.917863,,,,0.142702743,0.142064333,92340.000000000,1718094314.917862654
1718094314.918003,341.565277100,18613.000000000,1718094314.918003321,,,,
1718094314.918870,,,,0.273747742,0.273469925,92341.000000000,1718094314.918869734
1718094314.919877,,,,0.346085727,0.346769542,92342.000000000,1718094314.919876814
1718094314.920884,,,,0.427583188,0.426656276,92343.000000000,1718094314.920883894
1718094314.921891,,,,0.445974201,0.445455968,92344.000000000,1718094314.921890974
1718094314.922898,,,,0.347311795,0.346481055,92345.000000000,1718094314.922898054
1718094314.923003,341.857757568,18614.000000000,1718094314.923003435,,,,
1718094314.923905,,,,0.391137719,0.392037898,92346.000000000,1718094314.923905134
1718094314.924912,,,,0.462706417,0.465433657,92347.000000000,1718094314.924912214
1718094314.925919,,,,0.525692642,0.526809156,92348.000000000,1718094314.925919294
1718094314.926926,,,,0.550935209,0.551907480,92349.000000000,1718094314.926926374
1718094314.927933,,,,0.431045026,0.430382550,92350.000000000,1718094314.927933455
1718094314.928003,342.361450195,18615.000000000,1718094314.928003311,,,,
1718094314.928941,,,,0.388060510,0.386580676,92351.000000000,1718094314.928940535
1718094314.929948,,,,0.405946672,0.405452520,92352.000000000,1718094314.929947615
1718094314.930955,,,,0.398638368,0.400283813,92353.000000000,1718094314.930954695
1718094314.931962,,,,0.340676606,0.343139440,92354.000000000,1718094314.931961775
1718094314.932969,,,,0.284037083,0.285442114,92355.000000000,1718094314.932968855
1718094314.933003,343.011535645,18616.000000000,1718094314.933003426,,,,
1718094314.933976,,,,0.284710228,0.284817070,92356.000000000,1718094314.933975935
1718094314.934983,,,,0.111570239,0.111821324,92357.000000000,1718094314.934983015
1718094314.935990,,,,0.129648730,0.129707485,92358.000000000,1718094314.935990095
1718094314.936997,,,,0.291393489,0.294048637,92359.000000000,1718094314.936997175
1718094314.938003,343.840728760,18617.000000000,1718094314.938003302,,,,
1718094314.938004,,,,0.353946984,0.354294240,92360.000000000,1718094314.938004255
1718094314.939011,,,,0.364044011,0.365425020,92361.000000000,1718094314.939011335
1718094314.940018,,,,0.363298774,0.364198953,92362.000000000,1718094314.940018415
1718094314.941025,,,,0.420371026,0.419828773,92363.000000000,1718094314.941025496
1718094314.942033,,,,0.489367366,0.488921285,92364.000000000,1718094314.942032576
1718094314.943003,344.751495361,18618.000000000,1718094314.943003416,,,,
1718094314.943040,,,,0.493959129,0.493296653,92365.000000000,1718094314.943039656
1718094314.944047,,,,0.427847624,0.427810222,92366.000000000,1718094314.944046736
1718094314.945054,,,,0.387844145,0.388936669,92367.000000000,1718094314.945053816
1718094314.946061,,,,0.402484834,0.406798780,92368.000000000,1718094314.946060896
1718094314.947068,,,,0.474269897,0.477285653,92369.000000000,1718094314.947067976
1718094314.948003,345.743896484,18619.000000000,1718094314.948003292,,,,
1718094314.948075,,,,0.489247173,0.486925930,92370.000000000,1718094314.948075056
1718094314.949082,,,,0.410033584,0.410476983,92371.000000000,1718094314.949082136
1718094314.950089,,,,0.416332215,0.417665124,92372.000000000,1718094314.950089216
1718094314.951096,,,,0.337575376,0.338114947,92373.000000000,1718094314.951096296
1718094314.952103,,,,0.229320824,0.225460976,92374.000000000,1718094314.952103376
1718094314.953003,346.704193115,18620.000000000,1718094314.953003407,,,,
1718094314.953110,,,,0.389406800,0.389898300,92375.000000000,1718094314.953110456
1718094314.954118,,,,0.460085988,0.462596893,92376.000000000,1718094314.954117537
1718094314.955125,,,,0.290600151,0.290538728,92377.000000000,1718094314.955124617
1718094314.956132,,,,0.261583239,0.262243003,92378.000000000,1718094314.956131697
1718094314.957139,,,,0.310169160,0.309723079,92379.000000000,1718094314.957138777
1718094314.958146,,,,0.263602644,0.260968864,92380.000000000,1718094314.958145857
1718094314.959153,,,,0.223238558,0.221734688,92381.000000000,1718094314.959152937
1718094314.960160,,,,0.344042301,0.344149143,92382.000000000,1718094314.960160017
1718094314.961167,,,,0.410009533,0.410212547,92383.000000000,1718094314.961167097
1718094314.962174,,,,0.382819682,0.383791983,92384.000000000,1718094314.962174177
1718094314.963181,,,,0.433016330,0.434060752,92385.000000000,1718094314.963181257
1718094314.964188,,,,0.484294802,0.483632356,92386.000000000,1718094314.964188337
1718094314.965195,,,,0.544684649,0.542748034,92387.000000000,1718094314.965195417
1718094314.966202,,,,0.557979107,0.558109939,92388.000000000,1718094314.966202497
1718094314.967210,,,,0.519898832,0.519885480,92389.000000000,1718094314.967209578
1718094314.968217,,,,0.278147161,0.276162475,92390.000000000,1718094314.968216658
1718094314.970231,,,,0.048968665,0.049484197,92392.000000000,1718094314.970230818
1718094314.971238,,,,0.350220710,0.351577669,92393.000000000,1718094314.971237898
1718094314.972245,,,,0.570047438,0.573039114,92394.000000000,1718094314.972244978
1718094314.973252,,,,0.531726778,0.533997297,92395.000000000,1718094314.973252058
1718094314.974259,,,,0.280262738,0.280922502,92396.000000000,1718094314.974259138
1718094314.975266,,,,0.315097481,0.317367971,92397.000000000,1718094314.975266218
1718094314.976273,,,,0.379526138,0.379128128,92398.000000000,1718094314.976273298
1718094314.977280,,,,0.298148900,0.297390282,92399.000000000,1718094314.977280378
1718094314.978287,,,,0.259107053,0.258180141,92400.000000000,1718094314.978287458
1718094314.979295,,,,0.102939680,0.102181070,92401.000000000,1718094314.979294538
1718094314.980302,,,,0.030000675,0.029362263,92402.000000000,1718094314.980301619
1718094314.981309,,,,0.160612941,0.162570909,92403.000000000,1718094314.981308699
1718094314.982316,,,,0.195880428,0.198775962,92404.000000000,1718094314.982315779
1718094314.983323,,,,0.198524877,0.200987697,92405.000000000,1718094314.983322859
1718094314.984330,,,,0.212684765,0.210579872,92406.000000000,1718094314.984329939
1718094314.985337,,,,0.299975961,0.300154924,92407.000000000,1718094314.985337019
1718094314.986344,,,,0.379189551,0.381315798,92408.000000000,1718094314.986344099
1718094314.987351,,,,0.389094263,0.390980124,92409.000000000,1718094314.987351179
1718094314.988358,,,,0.319232434,0.319315255,92410.000000000,1718094314.988358259
1718094314.989365,,,,0.350917876,0.349173605,92411.000000000,1718094314.989365339
1718094314.990372,,,,0.516388953,0.517120838,92412.000000000,1718094314.990372419
1718094314.991379,,,,0.569254100,0.569312871,92413.000000000,1718094314.991379499
1718094314.992387,,,,0.489391416,0.488680869,92414.000000000,1718094314.992386580
1718094314.993394,,,,0.428713083,0.428531438,92415.000000000,1718094314.993393660
1718094314.994401,,,,0.401835740,0.402904212,92416.000000000,1718094314.994400740
1718094314.995408,,,,0.433689475,0.432858735,92417.000000000,1718094314.995407820
1718094314.996415,,,,0.479943484,0.481853366,92418.000000000,1718094314.996414900
1718094314.997422,,,,0.490593433,0.491397470,92419.000000000,1718094314.997421980
1718094314.998429,,,,0.374309331,0.373382419,92420.000000000,1718094314.998429060
1718094314.999436,,,,0.253145009,0.251809418,92421.000000000,1718094314.999436140
1718094315.000443,,,,0.306250542,0.305395782,92422.000000000,1718094315.000443220
1718094315.001450,,,,0.424481958,0.423771411,92423.000000000,1718094315.001450300
1718094315.002457,,,,0.388733655,0.387013406,92424.000000000,1718094315.002457380
1718094315.003464,,,,0.408206493,0.409130722,92425.000000000,1718094315.003464460
1718094315.004472,,,,0.391834885,0.393576503,92426.000000000,1718094315.004471540
1718094315.005479,,,,0.327766836,0.326791853,92427.000000000,1718094315.005478621
1718094315.006486,,,,0.374934375,0.374127686,92428.000000000,1718094315.006485701
1718094315.007493,,,,0.448161870,0.448557198,92429.000000000,1718094315.007492781
1718094315.008500,,,,0.504609048,0.502528250,92430.000000000,1718094315.008499861
1718094315.009507,,,,0.511460602,0.510437548,92431.000000000,1718094315.009506941
1718094315.010514,,,,0.249995679,0.248972625,92432.000000000,1718094315.010514021
1718094315.011521,,,,-0.060632169,-0.062953420,92433.000000000,1718094315.011521101
1718094315.012528,,,,0.036227178,0.039892022,92434.000000000,1718094315.012528181
1718094315.012906,359.258575439,18631.000000000,1718094315.012906075,,,,
1718094315.013535,,,,0.198524877,0.200747296,92435.000000000,1718094315.013535261
1718094315.014542,,,,0.216122553,0.215892836,92436.000000000,1718094315.014542341
1718094315.015549,,,,0.281224340,0.280561894,92437.000000000,1718094315.015549421
1718094315.016557,,,,0.369308889,0.370329291,92438.000000000,1718094315.016556501
1718094315.017564,,,,0.514393568,0.517769933,92439.000000000,1718094315.017563581
1718094315.017906,360.405151367,18632.000000000,1718094315.017906189,,,,
1718094315.018571,,,,0.889426053,0.890999377,92440.000000000,1718094315.018570662
1718094315.019578,,,,1.058262825,1.056831002,92441.000000000,1718094315.019577742
1718094315.020585,,,,1.017610192,1.019111395,92442.000000000,1718094315.020584822
1718094315.021592,,,,0.859207094,0.859145641,92443.000000000,1718094315.021591902
1718094315.022599,,,,0.404696584,0.402423412,92444.000000000,1718094315.022598982
1718094315.022906,361.240875244,18633.000000000,1718094315.022906065,,,,
1718094315.023606,,,,0.132148936,0.130765274,92445.000000000,1718094315.023606062
1718094315.024613,,,,-0.094192766,-0.096802503,92446.000000000,1718094315.024613142
1718094315.025620,,,,-0.078157723,-0.078603812,92447.000000000,1718094315.025620222
1718094315.026627,,,,-0.010411477,-0.012852930,92448.000000000,1718094315.026627302
1718094315.027634,,,,-0.006709233,-0.008261186,92449.000000000,1718094315.027634382
1718094315.027906,361.781829834,18634.000000000,1718094315.027906179,,,,
1718094315.028641,,,,0.075725786,0.073019892,92450.000000000,1718094315.028641462
1718094315.029649,,,,0.139120698,0.138410166,92451.000000000,1718094315.029648542
1718094315.030656,,,,0.154626846,0.154950052,92452.000000000,1718094315.030655622
1718094315.031663,,,,0.141837284,0.140453607,92453.000000000,1718094315.031662703
1718094315.032670,,,,0.148015708,0.148939922,92454.000000000,1718094315.032669783
1718094315.032906,361.945770264,18635.000000000,1718094315.032906055,,,,
1718094315.033677,,,,0.170998454,0.170143679,92455.000000000,1718094315.033676863
1718094315.034684,,,,0.243793219,0.241904706,92456.000000000,1718094315.034683943
1718094315.035691,,,,0.291970462,0.289985776,92457.000000000,1718094315.035691023
1718094315.036698,,,,0.371256173,0.371483237,92458.000000000,1718094315.036698103
1718094315.037705,,,,0.438810110,0.438508272,92459.000000000,1718094315.037705183
1718094315.037906,361.781829834,18636.000000000,1718094315.037906170,,,,
1718094315.038712,,,,0.387723953,0.388311625,92460.000000000,1718094315.038712263
1718094315.039719,,,,0.340003490,0.340302646,92461.000000000,1718094315.039719343
1718094315.040726,,,,0.379958868,0.381988943,92462.000000000,1718094315.040726423
1718094315.041734,,,,0.455686569,0.455336630,92463.000000000,1718094315.041733503
1718094315.042741,,,,0.336084872,0.335590690,92464.000000000,1718094315.042740583
1718094315.042906,361.421203613,18637.000000000,1718094315.042906046,,,,
1718094315.043748,,,,0.185591072,0.185000733,92465.000000000,1718094315.043747663
1718094315.044755,,,,0.167151973,0.166080832,92466.000000000,1718094315.044754744
1718094315.045762,,,,0.196241036,0.195530489,92467.000000000,1718094315.045761824
1718094315.046769,,,,0.222565427,0.220965385,92468.000000000,1718094315.046768904
1718094315.047776,,,,0.280767590,0.281908154,92469.000000000,1718094315.047775984
1718094315.047906,360.945892334,18638.000000000,1718094315.047906160,,,,
1718094315.048783,,,,0.329185247,0.331143200,92470.000000000,1718094315.048783064
1718094315.049790,,,,0.371737003,0.373767078,92471.000000000,1718094315.049790144
1718094315.050797,,,,0.461648613,0.462933451,92472.000000000,1718094315.050797224
1718094315.051804,,,,0.559157073,0.561042905,92473.000000000,1718094315.051804304
1718094315.052811,,,,0.622888565,0.621577024,92474.000000000,1718094315.052811384
1718094315.052906,360.487030029,18639.000000000,1718094315.052906036,,,,
1718094315.053818,,,,0.713737786,0.714109063,92475.000000000,1718094315.053818464
1718094315.054826,,,,0.561513066,0.560393810,92476.000000000,1718094315.054825544
1718094315.055833,,,,0.372866899,0.374151736,92477.000000000,1718094315.055832624
1718094315.056840,,,,0.394912064,0.394946814,92478.000000000,1718094315.056839705
1718094315.057006,360.257690430,18641.000000000,1718094315.057006359,,,,
1718094315.057847,,,,0.366183639,0.365376920,92479.000000000,1718094315.057846785
1718094315.057906,360.323211670,18640.000000000,1718094315.057906151,,,,
1718094315.058854,,,,0.212877080,0.213705152,92480.000000000,1718094315.058853865
1718094315.059861,,,,0.198404685,0.199449107,92481.000000000,1718094315.059860945
1718094315.060868,,,,0.219536319,0.221325994,92482.000000000,1718094315.060868025
1718094315.061875,,,,0.227301419,0.228682399,92483.000000000,1718094315.061875105
1718094315.062006,360.339569092,18642.000000000,1718094315.062006474,,,,
1718094315.062882,,,,0.228888094,0.229187250,92484.000000000,1718094315.062882185
1718094315.063889,,,,0.370342642,0.372949690,92485.000000000,1718094315.063889265
1718094315.064896,,,,0.569157958,0.569817722,92486.000000000,1718094315.064896345
1718094315.065903,,,,0.512879014,0.512360811,92487.000000000,1718094315.065903425
1718094315.066911,,,,0.331300795,0.332297146,92488.000000000,1718094315.066910505
1718094315.067918,,,,0.228214949,0.228153512,92489.000000000,1718094315.067917585
1718094315.068925,,,,0.265045077,0.263613313,92490.000000000,1718094315.068924665
1718094315.069932,,,,0.406956375,0.408409506,92491.000000000,1718094315.069931746
1718094315.070939,,,,0.422486573,0.419612408,92492.000000000,1718094315.070938826
1718094315.071946,,,,0.458403140,0.454927951,92493.000000000,1718094315.071945906
1718094315.072953,,,,0.546054959,0.544262588,92494.000000000,1718094315.072952986
1718094315.073960,,,,0.438665867,0.438364029,92495.000000000,1718094315.073960066
1718094315.074967,,,,0.216483161,0.214594647,92496.000000000,1718094315.074967146
1718094315.075974,,,,0.096256413,0.096603662,92497.000000000,1718094315.075974226
1718094315.076981,,,,0.143784568,0.144348174,92498.000000000,1718094315.076981306
1718094315.077988,,,,0.274949759,0.276186526,92499.000000000,1718094315.077988386
1718094315.078995,,,,0.317910224,0.319026768,92500.000000000,1718094315.078995466
1718094315.080003,,,,0.383372605,0.384945929,92501.000000000,1718094315.080002546
1718094315.081010,,,,0.374862254,0.377349108,92502.000000000,1718094315.081009626
1718094315.082017,,,,0.277738482,0.277917445,92503.000000000,1718094315.082016706
1718094315.083024,,,,0.289494306,0.288254857,92504.000000000,1718094315.083023787
1718094315.084031,,,,0.376665294,0.375906676,92505.000000000,1718094315.084030867
1718094315.085038,,,,0.408398807,0.408649921,92506.000000000,1718094315.085037947
1718094315.086045,,,,0.484559268,0.481877416,92507.000000000,1718094315.086045027
1718094315.087052,,,,0.651184261,0.650185227,92508.000000000,1718094315.087052107
1718094315.088059,,,,0.841056466,0.844360709,92509.000000000,1718094315.088059187
1718094315.089066,,,,0.771338880,0.770796657,92510.000000000,1718094315.089066267
1718094315.090073,,,,0.296970904,0.295130461,92511.000000000,1718094315.090073347
1718094315.091080,,,,0.306947738,0.305828512,92512.000000000,1718094315.091080427
1718094315.092088,,,,0.081735924,0.082083173,92513.000000000,1718094315.092087507
1718094315.093095,,,,-0.103232011,-0.101851016,92514.000000000,1718094315.093094587
1718094315.094102,,,,0.085967056,0.087203808,92515.000000000,1718094315.094101667
1718094315.095109,,,,0.205713004,0.205194801,92516.000000000,1718094315.095108747
1718094315.096116,,,,0.220449850,0.217503548,92517.000000000,1718094315.096115828
1718094315.097123,,,,0.262328476,0.260295719,92518.000000000,1718094315.097122908
1718094315.098130,,,,0.391907007,0.392566800,92519.000000000,1718094315.098129988
1718094315.099137,,,,0.475688308,0.477117389,92520.000000000,1718094315.099137068
1718094315.100144,,,,0.504657149,0.508009493,92521.000000000,1718094315.100144148
1718094315.101151,,,,0.476649910,0.480338812,92522.000000000,1718094315.101151228
1718094315.102158,,,,0.320145994,0.319988400,92523.000000000,1718094315.102158308
1718094315.103165,,,,0.160733148,0.158916757,92524.000000000,1718094315.103165388
1718094315.104172,,,,0.257760793,0.259526432,92525.000000000,1718094315.104172468
1718094315.105180,,,,0.371761024,0.371867865,92526.000000000,1718094315.105179548
1718094315.106187,,,,0.492396474,0.494642943,92527.000000000,1718094315.106186628
1718094315.107006,366.180694580,18651.000000000,1718094315.107006311,,,,
1718094315.107194,,,,0.596203566,0.598377883,92528.000000000,1718094315.107193708
1718094315.108201,,,,0.423424155,0.425285965,92529.000000000,1718094315.108200788
1718094315.109208,,,,0.054065261,0.053883616,92530.000000000,1718094315.109207869
1718094315.110215,,,,0.064667135,0.065038428,92531.000000000,1718094315.110214949
1718094315.111222,,,,0.254996121,0.254333675,92532.000000000,1718094315.111222029
1718094315.112006,367.282043457,18652.000000000,1718094315.112006426,,,,
1718094315.112229,,,,0.321372062,0.319267184,92533.000000000,1718094315.112229109
1718094315.113236,,,,0.334281832,0.337177366,92534.000000000,1718094315.113236189
1718094315.114243,,,,0.411932796,0.411654979,92535.000000000,1718094315.114243269
1718094315.115250,,,,0.482419640,0.480651349,92536.000000000,1718094315.115250349
1718094315.116257,,,,0.363851696,0.364992291,92537.000000000,1718094315.116257429
1718094315.117006,368.334686279,18653.000000000,1718094315.117006302,,,,
1718094315.117265,,,,0.321203768,0.324003160,92538.000000000,1718094315.117264509
1718094315.118272,,,,0.293340772,0.296019971,92539.000000000,1718094315.118271589
1718094315.119279,,,,0.224152103,0.227071688,92540.000000000,1718094315.119278669
1718094315.120286,,,,0.281633049,0.282004327,92541.000000000,1718094315.120285749
1718094315.121293,,,,0.363611281,0.365352899,92542.000000000,1718094315.121292830
1718094315.122006,369.503204346,18654.000000000,1718094315.122006416,,,,
1718094315.122300,,,,0.405970722,0.409106672,92543.000000000,1718094315.122299910
1718094315.123307,,,,0.440372735,0.441729695,92544.000000000,1718094315.123306990
1718094315.124314,,,,0.445709735,0.449110150,92545.000000000,1718094315.124314070
1718094315.125321,,,,0.257616550,0.257867634,92546.000000000,1718094315.125321150
1718094315.126328,,,,0.137029171,0.137881279,92547.000000000,1718094315.126328230
1718094315.127006,370.639434814,18655.000000000,1718094315.127006292,,,,
1718094315.127335,,,,0.214391634,0.216085166,92548.000000000,1718094315.127335310
1718094315.128342,,,,0.291778147,0.292990863,92549.000000000,1718094315.128342390
1718094315.129349,,,,0.297379583,0.299121201,92550.000000000,1718094315.129349470
1718094315.130357,,,,0.261655360,0.262964219,92551.000000000,1718094315.130356550
1718094315.131364,,,,0.325987846,0.327152461,92552.000000000,1718094315.131363630
1718094315.132006,371.661102295,18656.000000000,1718094315.132006407,,,,
1718094315.132371,,,,0.465278745,0.466491461,92553.000000000,1718094315.132370710
1718094315.133378,,,,0.582284093,0.582294762,92554.000000000,1718094315.133377790
1718094315.134385,,,,0.615556180,0.617369890,92555.000000000,1718094315.134384871
1718094315.135392,,,,0.590289593,0.594411194,92556.000000000,1718094315.135391951
1718094315.136399,,,,0.491386771,0.492166758,92557.000000000,1718094315.136399031
1718094315.137006,372.468902588,18657.000000000,1718094315.137006283,,,,
1718094315.137406,,,,0.499079764,0.499811649,92558.000000000,1718094315.137406111
1718094315.138413,,,,0.564013243,0.565009594,92559.000000000,1718094315.138413191
1718094315.139420,,,,0.521076858,0.520799041,92560.000000000,1718094315.139420271
1718094315.140427,,,,0.462297708,0.460914046,92561.000000000,1718094315.140427351
1718094315.141434,,,,0.358875304,0.357828200,92562.000000000,1718094315.141434431
1718094315.142006,372.798797607,18658.000000000,1718094315.142006397,,,,
1718094315.142442,,,,0.078754894,0.079414673,92563.000000000,1718094315.142441511
1718094315.143449,,,,-0.051616967,-0.050909109,92564.000000000,1718094315.143448591
1718094315.144456,,,,0.018581418,0.017918965,92565.000000000,1718094315.144455671
1718094315.145463,,,,0.170373410,0.173533395,92566.000000000,1718094315.145462751
1718094315.146470,,,,0.277401894,0.277148128,92567.000000000,1718094315.146469831
1718094315.147006,372.732818604,18659.000000000,1718094315.147006273,,,,
1718094315.147477,,,,0.366111517,0.367252082,92568.000000000,1718094315.147476912
1718094315.148484,,,,0.413783908,0.413722456,92569.000000000,1718094315.148483992
1718094315.149491,,,,0.320746988,0.321238488,92570.000000000,1718094315.149491072
1718094315.150498,,,,0.008340147,0.006139099,92571.000000000,1718094315.150498152
1718094315.150795,371.512725830,18661.000000000,1718094315.150795460,,,,
1718094315.151505,,,,0.006200538,0.001883923,92572.000000000,1718094315.151505232
1718094315.152006,372.287567139,18660.000000000,1718094315.152006388,,,,
1718094315.152512,,,,0.185831472,0.187092260,92573.000000000,1718094315.152512312
1718094315.153519,,,,0.357961774,0.361987203,92574.000000000,1718094315.153519392
1718094315.154526,,,,0.520884514,0.523467541,92575.000000000,1718094315.154526472
1718094315.155534,,,,0.664839268,0.663744092,92576.000000000,1718094315.155533552
1718094315.155796,370.771240234,18662.000000000,1718094315.155795574,,,,
1718094315.156541,,,,0.754462421,0.754280806,92577.000000000,1718094315.156540632
1718094315.157548,,,,0.690490544,0.689948320,92578.000000000,1718094315.157547712
1718094315.158555,,,,0.432968259,0.434084803,92579.000000000,1718094315.158554792
1718094315.159562,,,,0.203933999,0.204161048,92580.000000000,1718094315.159561872
1718094315.160569,,,,-0.009497936,-0.010689281,92581.000000000,1718094315.160568953
1718094315.161576,,,,0.001344349,0.000705936,92582.000000000,1718094315.161576033
1718094315.162583,,,,0.032380689,0.032727938,92583.000000000,1718094315.162583113
1718094315.163590,,,,0.037861932,0.037752412,92584.000000000,1718094315.163590193
1718094315.164597,,,,0.124263644,0.124250285,92585.000000000,1718094315.164597273
1718094315.165604,,,,0.158978194,0.161224648,92586.000000000,1718094315.165604353
1718094315.166611,,,,0.143640324,0.144684747,92587.000000000,1718094315.166611433
1718094315.167619,,,,0.174364135,0.175961494,92588.000000000,1718094315.167618513
1718094315.168626,,,,0.227012932,0.232288480,92589.000000000,1718094315.168625593
1718094315.169633,,,,0.240812197,0.242024913,92590.000000000,1718094315.169632673
1718094315.170640,,,,0.222950071,0.222840548,92591.000000000,1718094315.170639753
1718094315.171647,,,,0.232133567,0.231663436,92592.000000000,1718094315.171646833
1718094315.172654,,,,0.271103293,0.272436202,92593.000000000,1718094315.172653913
1718094315.173661,,,,0.300673157,0.300082803,92594.000000000,1718094315.173660994
1718094315.174668,,,,0.307236224,0.309723079,92595.000000000,1718094315.174668074
1718094315.175675,,,,0.319929630,0.320228785,92596.000000000,1718094315.175675154
1718094315.176682,,,,0.359981179,0.360737115,92597.000000000,1718094315.176682234
1718094315.177689,,,,0.367505848,0.366747230,92598.000000000,1718094315.177689314
1718094315.178696,,,,0.459412843,0.458918691,92599.000000000,1718094315.178696394
1718094315.179703,,,,0.493141741,0.494426578,92600.000000000,1718094315.179703474
1718094315.180711,,,,0.371135980,0.371002406,92601.000000000,1718094315.180710554
1718094315.181718,,,,0.145178914,0.143122107,92602.000000000,1718094315.181717634
1718094315.182725,,,,0.197899833,0.195794940,92603.000000000,1718094315.182724714
1718094315.183732,,,,0.462129444,0.461226583,92604.000000000,1718094315.183731794
1718094315.184739,,,,0.573220789,0.574770033,92605.000000000,1718094315.184738874
1718094315.185746,,,,0.559950411,0.561547756,92606.000000000,1718094315.185745955
1718094315.186753,,,,0.537568688,0.536545575,92607.000000000,1718094315.186753035
1718094315.187760,,,,0.576418161,0.578135729,92608.000000000,1718094315.187760115
1718094315.188767,,,,0.633346200,0.638405383,92609.000000000,1718094315.188767195
1718094315.189774,,,,0.789297163,0.790798366,92610.000000000,1718094315.189774275
1718094315.190781,,,,0.889426053,0.888018310,92611.000000000,1718094315.190781355
1718094315.191788,,,,0.687749922,0.688361645,92612.000000000,1718094315.191788435
1718094315.192796,,,,0.525572419,0.525054216,92613.000000000,1718094315.192795515
1718094315.193803,,,,0.533337533,0.531352818,92614.000000000,1718094315.193802595
1718094315.194810,,,,0.489992410,0.488921285,92615.000000000,1718094315.194809675
1718094315.195817,,,,0.305192769,0.305612147,92616.000000000,1718094315.195816755
1718094315.196824,,,,0.083250478,0.082107216,92617.000000000,1718094315.196823835
1718094315.197831,,,,0.026154188,0.026044669,92618.000000000,1718094315.197830915
1718094315.198838,,,,-0.036519505,-0.035162553,92619.000000000,1718094315.198837996
1718094315.199845,,,,0.000671214,-0.000351848,92620.000000000,1718094315.199845076
1718094315.200795,373.161682129,18671.000000000,1718094315.200795412,,,,
1718094315.200852,,,,0.115705214,0.114321545,92621.000000000,1718094315.200852156
1718094315.201859,,,,0.273940057,0.271138012,92622.000000000,1718094315.201859236
1718094315.202866,,,,0.375030547,0.374848902,92623.000000000,1718094315.202866316
1718094315.203873,,,,0.380439669,0.382998645,92624.000000000,1718094315.203873396
1718094315.204880,,,,0.274108350,0.277388543,92625.000000000,1718094315.204880476
1718094315.205796,374.003204346,18672.000000000,1718094315.205795527,,,,
1718094315.205888,,,,0.066926949,0.068860874,92626.000000000,1718094315.205887556
1718094315.206895,,,,0.131235406,0.129346877,92627.000000000,1718094315.206894636
1718094315.207902,,,,0.315818697,0.314651400,92628.000000000,1718094315.207901716
1718094315.208909,,,,0.473043829,0.471636146,92629.000000000,1718094315.208908796
1718094315.209916,,,,0.463139147,0.463053644,92630.000000000,1718094315.209915876
1718094315.210795,374.630554199,18673.000000000,1718094315.210795403,,,,
1718094315.210923,,,,0.354211450,0.354775041,92631.000000000,1718094315.210922956
1718094315.211930,,,,0.363226652,0.360664994,92632.000000000,1718094315.211930037
1718094315.212937,,,,0.532616317,0.531256676,92633.000000000,1718094315.212937117
1718094315.213944,,,,0.703496516,0.703218699,92634.000000000,1718094315.213944197
1718094315.214951,,,,0.847475290,0.849240959,92635.000000000,1718094315.214951277
1718094315.215796,375.076416016,18674.000000000,1718094315.215795517,,,,
1718094315.215958,,,,0.753308475,0.752381563,92636.000000000,1718094315.215958357
1718094315.216965,,,,0.590433836,0.592295587,92637.000000000,1718094315.216965437
1718094315.217973,,,,0.460614890,0.462092042,92638.000000000,1718094315.217972517
1718094315.218980,,,,0.372025490,0.370281190,92639.000000000,1718094315.218979597
1718094315.219987,,,,0.412413597,0.414395601,92640.000000000,1718094315.219986677
1718094315.220795,375.225067139,18675.000000000,1718094315.220795393,,,,
1718094315.220994,,,,0.348609984,0.349918872,92641.000000000,1718094315.220993757
1718094315.222001,,,,-0.010627842,-0.009919983,92642.000000000,1718094315.222000837
1718094315.223008,,,,-0.169872403,-0.169645354,92643.000000000,1718094315.223007917
1718094315.224015,,,,-0.132825926,-0.133079678,92644.000000000,1718094315.224014997
1718094315.225022,,,,0.050795745,0.053114321,92645.000000000,1718094315.225022078
1718094315.225796,375.092956543,18676.000000000,1718094315.225795507,,,,
1718094315.226029,,,,0.197683468,0.197622016,92646.000000000,1718094315.226029158
1718094315.227036,,,,0.198140234,0.198223040,92647.000000000,1718094315.227036238
1718094315.228043,,,,0.170782089,0.172691986,92648.000000000,1718094315.228043318
1718094315.229050,,,,0.157439590,0.158916757,92649.000000000,1718094315.229050398
1718094315.230057,,,,0.174219891,0.176057652,92650.000000000,1718094315.230057478
1718094315.230795,374.547973633,18677.000000000,1718094315.230795383,,,,
1718094315.231065,,,,0.227349490,0.229259372,92651.000000000,1718094315.231064558
1718094315.232072,,,,0.320867211,0.323402137,92652.000000000,1718094315.232071638
1718094315.233079,,,,0.403254151,0.404010087,92653.000000000,1718094315.233078718
1718094315.234086,,,,0.472226471,0.472573727,92654.000000000,1718094315.234085798
1718094315.235093,,,,0.516749561,0.517241061,92655.000000000,1718094315.235092878
1718094315.235795,373.821716309,18678.000000000,1718094315.235795498,,,,
1718094315.236100,,,,0.499584615,0.498946190,92656.000000000,1718094315.236099958
1718094315.237107,,,,0.416981310,0.414636016,92657.000000000,1718094315.237107038
1718094315.238114,,,,0.240643919,0.240774795,92658.000000000,1718094315.238114119
1718094315.239121,,,,0.165709540,0.168076202,92659.000000000,1718094315.239121199
1718094315.240128,,,,0.125225261,0.125019580,92660.000000000,1718094315.240128279
1718094315.240795,372.963745117,18679.000000000,1718094315.240795374,,,,
1718094315.241135,,,,0.120849885,0.123336747,92661.000000000,1718094315.241135359
1718094315.242142,,,,0.138399482,0.138482288,92662.000000000,1718094315.242142439
1718094315.243150,,,,0.115104198,0.112326175,92663.000000000,1718094315.243149519
1718094315.244157,,,,0.087914348,0.088934727,92664.000000000,1718094315.244156599
1718094315.245164,,,,0.187874928,0.187909648,92665.000000000,1718094315.245163679
1718094315.245795,372.106201172,18680.000000000,1718094315.245795488,,,,
1718094315.246171,,,,0.275935441,0.275561452,92666.000000000,1718094315.246170759
1718094315.247178,,,,0.332190305,0.333571285,92667.000000000,1718094315.247177839
1718094315.248185,,,,0.355774075,0.357804149,92668.000000000,1718094315.248184919
1718094315.249192,,,,0.446623296,0.449687123,92669.000000000,1718094315.249191999
1718094315.250199,,,,0.588029742,0.589074194,92670.000000000,1718094315.250199080
1718094315.251206,,,,0.586010337,0.586285472,92671.000000000,1718094315.251206160
1718094315.252213,,,,0.571033120,0.571043789,92672.000000000,1718094315.252213240
1718094315.253220,,,,0.431670070,0.431175888,92673.000000000,1718094315.253220320
1718094315.254227,,,,0.225858986,0.223994493,92674.000000000,1718094315.254227400
1718094315.255234,,,,0.149217725,0.148771644,92675.000000000,1718094315.255234480
1718094315.255386,371.446807861,18681.000000000,1718094315.255385637,,,,
1718094315.256242,,,,0.213165566,0.214161918,92676.000000000,1718094315.256241560
1718094315.257249,,,,0.247255057,0.250751615,92677.000000000,1718094315.257248640
1718094315.258256,,,,0.211242333,0.212406963,92678.000000000,1718094315.258255720
1718094315.259263,,,,0.289013475,0.290779114,92679.000000000,1718094315.259262800
1718094315.260270,,,,0.369837791,0.370545655,92680.000000000,1718094315.260269880
1718094315.260386,371.084289551,18682.000000000,1718094315.260385752,,,,
1718094315.261277,,,,0.340243876,0.339629501,92681.000000000,1718094315.261276960
1718094315.262284,,,,0.304423481,0.303472519,92682.000000000,1718094315.262284040
1718094315.263291,,,,0.303413779,0.303063840,92683.000000000,1718094315.263291121
1718094315.264298,,,,0.264492124,0.265127867,92684.000000000,1718094315.264298201
1718094315.265305,,,,0.254731685,0.253564358,92685.000000000,1718094315.265305281
1718094315.265386,371.117248535,18683.000000000,1718094315.265385628,,,,
1718094315.266312,,,,0.261390895,0.263108462,92686.000000000,1718094315.266312361
1718094315.267319,,,,0.359211862,0.362516105,92687.000000000,1718094315.267319441
1718094315.268327,,,,0.376232564,0.378022254,92688.000000000,1718094315.268326521
1718094315.269334,,,,0.431886435,0.431897104,92689.000000000,1718094315.269333601
1718094315.270341,,,,0.521100879,0.521255791,92690.000000000,1718094315.270340681
1718094315.270386,371.347930908,18684.000000000,1718094315.270385742,,,,
1718094315.271348,,,,0.596155465,0.599219322,92691.000000000,1718094315.271347761
1718094315.272355,,,,0.583462059,0.586622059,92692.000000000,1718094315.272354841
1718094315.273362,,,,0.482251376,0.481973559,92693.000000000,1718094315.273361921
1718094315.274369,,,,0.336589724,0.335710913,92694.000000000,1718094315.274369001
1718094315.275376,,,,0.303221434,0.305203468,92695.000000000,1718094315.275376081
1718094315.276383,,,,0.403999388,0.405260205,92696.000000000,1718094315.276383162
1718094315.277390,,,,0.458018512,0.461274654,92697.000000000,1718094315.277390242
1718094315.278397,,,,0.276464313,0.278518438,92698.000000000,1718094315.278397322
1718094315.279404,,,,-0.009690261,-0.012131713,92699.000000000,1718094315.279404402
1718094315.280411,,,,-0.009425814,-0.008717957,92700.000000000,1718094315.280411482
1718094315.281419,,,,0.103733018,0.107926756,92701.000000000,1718094315.281418562
1718094315.282426,,,,0.215353265,0.218513250,92702.000000000,1718094315.282425642
1718094315.283433,,,,0.331300795,0.329556525,92703.000000000,1718094315.283432722
1718094315.284440,,,,0.482083082,0.482069731,92704.000000000,1718094315.284439802
1718094315.285447,,,,0.625773430,0.624942660,92705.000000000,1718094315.285446882
1718094315.286454,,,,0.679143429,0.680668652,92706.000000000,1718094315.286453962
1718094315.287461,,,,0.707342982,0.708002746,92707.000000000,1718094315.287461042
1718094315.288468,,,,0.837979257,0.837941885,92708.000000000,1718094315.288468122
1718094315.289475,,,,0.994843841,0.996248841,92709.000000000,1718094315.289475203
1718094315.290482,,,,0.869712830,0.866261661,92710.000000000,1718094315.290482283
1718094315.291489,,,,0.551776648,0.550128520,92711.000000000,1718094315.291489363
1718094315.292496,,,,0.086327665,0.089728065,92712.000000000,1718094315.292496443
1718094315.293504,,,,-0.127873570,-0.124425091,92713.000000000,1718094315.293503523
1718094315.294511,,,,0.030241081,0.032102887,92714.000000000,1718094315.294510603
1718094315.295518,,,,0.089573145,0.091891713,92715.000000000,1718094315.295517683
1718094315.296525,,,,0.079668440,0.082636103,92716.000000000,1718094315.296524763
1718094315.297532,,,,0.025481055,0.024313750,92717.000000000,1718094315.297531843
1718094315.298539,,,,0.039664973,0.039194845,92718.000000000,1718094315.298538923
1718094315.299546,,,,0.143399924,0.143819287,92719.000000000,1718094315.299546003
1718094315.300553,,,,0.172008157,0.174302697,92720.000000000,1718094315.300553083
1718094315.301560,,,,0.221772090,0.221205801,92721.000000000,1718094315.301560163
1718094315.302567,,,,0.282113850,0.281235039,92722.000000000,1718094315.302567244
1718094315.303574,,,,0.316203326,0.315829366,92723.000000000,1718094315.303574324
1718094315.304581,,,,0.385343939,0.386532605,92724.000000000,1718094315.304581404
1718094315.305386,373.706146240,18691.000000000,1718094315.305385590,,,,
1718094315.305588,,,,0.581033945,0.583064020,92725.000000000,1718094315.305588484
1718094315.306596,,,,0.754558623,0.755963624,92726.000000000,1718094315.306595564
1718094315.307603,,,,0.845936716,0.845779121,92727.000000000,1718094315.307602644
1718094315.308610,,,,0.663300693,0.663840294,92728.000000000,1718094315.308609724
1718094315.309617,,,,0.182706207,0.183726594,92729.000000000,1718094315.309616804
1718094315.310386,373.590698242,18692.000000000,1718094315.310385704,,,,
1718094315.310624,,,,0.036707986,0.037247561,92730.000000000,1718094315.310623884
1718094315.311631,,,,-0.036134858,-0.034537498,92731.000000000,1718094315.311630964
1718094315.312638,,,,-0.074840128,-0.075478546,92732.000000000,1718094315.312638044
1718094315.313645,,,,-0.018945869,-0.020401660,92733.000000000,1718094315.313645124
1718094315.314652,,,,0.064739257,0.064389333,92734.000000000,1718094315.314652205
1718094315.315386,373.326629639,18693.000000000,1718094315.315385580,,,,
1718094315.315659,,,,0.145275086,0.147473454,92735.000000000,1718094315.315659285
1718094315.316666,,,,0.236460865,0.238346696,92736.000000000,1718094315.316666365
1718094315.317673,,,,0.295528471,0.294938147,92737.000000000,1718094315.317673445
1718094315.318681,,,,0.266896188,0.264959574,92738.000000000,1718094315.318680525
1718094315.319688,,,,0.193933144,0.190890670,92739.000000000,1718094315.319687605
1718094315.320386,373.046173096,18694.000000000,1718094315.320385695,,,,
1718094315.320695,,,,0.219704598,0.218369007,92740.000000000,1718094315.320694685
1718094315.321702,,,,0.309111387,0.305443853,92741.000000000,1718094315.321701765
1718094315.322709,,,,0.393229246,0.393456280,92742.000000000,1718094315.322708845
1718094315.323716,,,,0.389647186,0.392158091,92743.000000000,1718094315.323715925
1718094315.324723,,,,0.369957983,0.369271487,92744.000000000,1718094315.324723005
1718094315.325386,372.683319092,18695.000000000,1718094315.325385571,,,,
1718094315.325730,,,,0.393349439,0.391244560,92745.000000000,1718094315.325730085
1718094315.326737,,,,0.392363787,0.389465570,92746.000000000,1718094315.326737165
1718094315.327744,,,,0.306226522,0.305756390,92747.000000000,1718094315.327744246
1718094315.328751,,,,0.194966882,0.195290089,92748.000000000,1718094315.328751326
1718094315.329758,,,,0.032044124,0.029218020,92749.000000000,1718094315.329758406
1718094315.330386,372.435943604,18696.000000000,1718094315.330385685,,,,
1718094315.330765,,,,0.029832393,0.027583264,92750.000000000,1718094315.330765486
1718094315.331773,,,,0.245836675,0.245414630,92751.000000000,1718094315.331772566
1718094315.332780,,,,0.440997809,0.443749100,92752.000000000,1718094315.332779646
1718094315.333787,,,,0.466673106,0.465626001,92753.000000000,1718094315.333786726
1718094315.334794,,,,0.338032156,0.337489903,92754.000000000,1718094315.334793806
1718094315.335386,372.238067627,18697.000000000,1718094315.335385561,,,,
1718094315.335801,,,,0.301394373,0.302847475,92755.000000000,1718094315.335800886
1718094315.336808,,,,0.398349881,0.400211692,92756.000000000,1718094315.336807966
1718094315.337815,,,,0.436934948,0.438460171,92757.000000000,1718094315.337815046
1718094315.338822,,,,0.428208232,0.430190235,92758.000000000,1718094315.338822126
1718094315.339829,,,,0.425347418,0.428435266,92759.000000000,1718094315.339829206
1718094315.340386,372.155670166,18698.000000000,1718094315.340385675,,,,
1718094315.340836,,,,0.332767278,0.334460795,92760.000000000,1718094315.340836287
1718094315.341843,,,,0.351735264,0.353428781,92761.000000000,1718094315.341843367
1718094315.342850,,,,0.390488625,0.391773462,92762.000000000,1718094315.342850447
1718094315.343858,,,,0.380487740,0.382541865,92763.000000000,1718094315.343857527
1718094315.344865,,,,0.343128741,0.343259633,92764.000000000,1718094315.344864607
1718094315.345386,372.172119141,18699.000000000,1718094315.345385551,,,,
1718094315.345872,,,,0.190086648,0.188823178,92765.000000000,1718094315.345871687
1718094315.346879,,,,0.180879116,0.181851432,92766.000000000,1718094315.346878767
1718094315.347886,,,,0.273627549,0.274119020,92767.000000000,1718094315.347885847
1718094315.348893,,,,0.291249245,0.289601147,92768.000000000,1718094315.348892927
1718094315.349900,,,,0.164146900,0.166273162,92769.000000000,1718094315.349900007
1718094315.350386,372.419494629,18700.000000000,1718094315.350385666,,,,
1718094315.350907,,,,0.081663802,0.080472454,92770.000000000,1718094315.350907087
1718094315.351914,,,,0.148135900,0.147305161,92771.000000000,1718094315.351914167
1718094315.352921,,,,0.222661585,0.222455904,92772.000000000,1718094315.352921247
1718094315.353928,,,,0.293028265,0.294817924,92773.000000000,1718094315.353928328
1718094315.354935,,,,0.348008990,0.347058028,92774.000000000,1718094315.354935408
1718094315.355942,,,,0.394094706,0.395860344,92775.000000000,1718094315.355942488
1718094315.356950,,,,0.490328997,0.490724325,92776.000000000,1718094315.356949568
1718094315.357957,,,,0.571201384,0.571765006,92777.000000000,1718094315.357956648
1718094315.358964,,,,0.678013504,0.679130077,92778.000000000,1718094315.358963728
1718094315.359971,,,,0.715877354,0.718292117,92779.000000000,1718094315.359970808
1718094315.360608,372.782287598,18701.000000000,1718094315.360608339,,,,
1718094315.360978,,,,0.563652635,0.565442324,92780.000000000,1718094315.360977888
1718094315.361985,,,,0.452104539,0.455649167,92781.000000000,1718094315.361984968
1718094315.362992,,,,0.458210826,0.458918691,92782.000000000,1718094315.362992048
1718094315.363999,,,,0.335580021,0.334653109,92783.000000000,1718094315.363999128
1718094315.365006,,,,0.295600593,0.293615907,92784.000000000,1718094315.365006208
1718094315.365608,373.161682129,18702.000000000,1718094315.365608454,,,,
1718094315.366013,,,,0.290215522,0.290009826,92785.000000000,1718094315.366013288
1718094315.367020,,,,0.213598296,0.214931220,92786.000000000,1718094315.367020369
1718094315.368027,,,,0.254154712,0.252674878,92787.000000000,1718094315.368027449
1718094315.369035,,,,0.322405785,0.320300907,92788.000000000,1718094315.369034529
1718094315.370042,,,,0.302139610,0.300275147,92789.000000000,1718094315.370041609
1718094315.370608,373.640167236,18703.000000000,1718094315.370608330,,,,
1718094315.371049,,,,0.264588296,0.265055746,92790.000000000,1718094315.371048689
1718094315.372056,,,,0.112291455,0.111003950,92791.000000000,1718094315.372055769
1718094315.373063,,,,-0.108256489,-0.108967021,92792.000000000,1718094315.373062849
1718094315.374070,,,,0.085005440,0.087035529,92793.000000000,1718094315.374069929
1718094315.375077,,,,0.385440111,0.388143331,92794.000000000,1718094315.375077009
1718094315.375608,374.036224365,18704.000000000,1718094315.375608444,,,,
1718094315.376084,,,,0.649116755,0.650858402,92795.000000000,1718094315.376084089
1718094315.377091,,,,0.813361764,0.812266588,92796.000000000,1718094315.377091169
1718094315.378098,,,,0.739653468,0.737764955,92797.000000000,1718094315.378098249
1718094315.379105,,,,0.546920419,0.545512736,92798.000000000,1718094315.379105330
1718094315.380112,,,,0.200327918,0.196540192,92799.000000000,1718094315.380112410
1718094315.381119,,,,0.025048325,0.018976748,92800.000000000,1718094315.381119490
1718094315.382127,,,,0.016658174,0.013471465,92801.000000000,1718094315.382126570
1718094315.383134,,,,0.214632049,0.214258075,92802.000000000,1718094315.383133650
1718094315.384141,,,,0.391498327,0.390547395,92803.000000000,1718094315.384140730
1718094315.385148,,,,0.331108481,0.329171866,92804.000000000,1718094315.385147810
1718094315.386155,,,,0.227662027,0.226446629,92805.000000000,1718094315.386154890
1718094315.387162,,,,0.087625854,0.086843200,92806.000000000,1718094315.387161970
1718094315.388169,,,,0.039232243,0.039242927,92807.000000000,1718094315.388169050
1718094315.389176,,,,0.062984303,0.064749941,92808.000000000,1718094315.389176130
1718094315.390183,,,,0.178090423,0.178221300,92809.000000000,1718094315.390183210
1718094315.391190,,,,0.286080539,0.285538286,92810.000000000,1718094315.391190290
1718094315.392197,,,,0.318967998,0.320517272,92811.000000000,1718094315.392197371
1718094315.393204,,,,0.297740191,0.297847033,92812.000000000,1718094315.393204451
1718094315.394212,,,,0.252423793,0.253468215,92813.000000000,1718094315.394211531
1718094315.395219,,,,0.303918630,0.301837772,92814.000000000,1718094315.395218611
1718094315.396226,,,,0.402845442,0.401533902,92815.000000000,1718094315.396225691
1718094315.397233,,,,0.454172015,0.453365326,92816.000000000,1718094315.397232771
1718094315.398240,,,,0.493093640,0.493777484,92817.000000000,1718094315.398239851
1718094315.399247,,,,0.476577789,0.478607893,92818.000000000,1718094315.399246931
1718094315.400254,,,,0.463187218,0.463798910,92819.000000000,1718094315.400254011
1718094315.401261,,,,0.364332497,0.362900764,92820.000000000,1718094315.401261091
1718094315.402268,,,,0.291657954,0.290610850,92821.000000000,1718094315.402268171
1718094315.403275,,,,0.213574260,0.216421723,92822.000000000,1718094315.403275251
1718094315.404282,,,,0.146885797,0.147449404,92823.000000000,1718094315.404282331
1718094315.405289,,,,0.228190914,0.227071688,92824.000000000,1718094315.405289412
1718094315.406296,,,,0.316515863,0.315180272,92825.000000000,1718094315.406296492
1718094315.407304,,,,0.220690265,0.219547004,92826.000000000,1718094315.407303572
1718094315.408311,,,,0.262785256,0.262699783,92827.000000000,1718094315.408310652
1718094315.409318,,,,0.375078619,0.374896973,92828.000000000,1718094315.409317732
1718094315.410325,,,,0.340556413,0.339629501,92829.000000000,1718094315.410324812
1718094315.410608,373.607147217,18711.000000000,1718094315.410608292,,,,
1718094315.411332,,,,0.334137589,0.333090484,92830.000000000,1718094315.411331892
1718094315.412339,,,,0.402965665,0.402832091,92831.000000000,1718094315.412338972
1718094315.413346,,,,0.414649367,0.416318834,92832.000000000,1718094315.413346052
1718094315.414353,,,,0.462826610,0.464784563,92833.000000000,1718094315.414353132
1718094315.415360,,,,0.411812574,0.411222249,92834.000000000,1718094315.415360212
1718094315.415608,373.079223633,18712.000000000,1718094315.415608406,,,,
1718094315.416367,,,,0.210304752,0.211685747,92835.000000000,1718094315.416367292
1718094315.417374,,,,0.095847726,0.096844070,92836.000000000,1718094315.417374372
1718094315.418381,,,,0.360702395,0.361915082,92837.000000000,1718094315.418381453
1718094315.419389,,,,0.335796386,0.334653109,92838.000000000,1718094315.419388533
1718094315.420396,,,,0.152439162,0.150550634,92839.000000000,1718094315.420395613
1718094315.420608,372.617370605,18713.000000000,1718094315.420608282,,,,
1718094315.421403,,,,0.131620049,0.133385688,92840.000000000,1718094315.421402693
1718094315.422410,,,,0.137558058,0.137160063,92841.000000000,1718094315.422409773
1718094315.423417,,,,0.127701446,0.126077369,92842.000000000,1718094315.423416853
1718094315.424424,,,,0.112363577,0.111436680,92843.000000000,1718094315.424423933
1718094315.425431,,,,0.137077257,0.138410166,92844.000000000,1718094315.425431013
1718094315.425608,372.501892090,18714.000000000,1718094315.425608397,,,,
1718094315.426438,,,,0.204991788,0.206805512,92845.000000000,1718094315.426438093
1718094315.427445,,,,0.242086351,0.243130773,92846.000000000,1718094315.427445173
1718094315.428452,,,,0.333632737,0.335061818,92847.000000000,1718094315.428452253
1718094315.429459,,,,0.344667345,0.344629943,92848.000000000,1718094315.429459333
1718094315.430466,,,,0.302115589,0.305035174,92849.000000000,1718094315.430466413
1718094315.430608,372.435943604,18715.000000000,1718094315.430608273,,,,
1718094315.431473,,,,0.328007251,0.328691065,92850.000000000,1718094315.431473494
1718094315.432481,,,,0.274132401,0.272772759,92851.000000000,1718094315.432480574
1718094315.433488,,,,0.216362968,0.215964958,92852.000000000,1718094315.433487654
1718094315.434495,,,,0.238408148,0.238418818,92853.000000000,1718094315.434494734
1718094315.435502,,,,0.288676918,0.289529026,92854.000000000,1718094315.435501814
1718094315.435608,372.386505127,18716.000000000,1718094315.435608387,,,,
1718094315.436509,,,,0.337046504,0.337537974,92855.000000000,1718094315.436508894
1718094315.437516,,,,0.363298774,0.361746818,92856.000000000,1718094315.437515974
1718094315.438523,,,,0.413206935,0.413914800,92857.000000000,1718094315.438523054
1718094315.439530,,,,0.375920057,0.376002848,92858.000000000,1718094315.439530134
1718094315.440537,,,,0.494343758,0.493368775,92859.000000000,1718094315.440537214
1718094315.440608,372.419494629,18717.000000000,1718094315.440608263,,,,
1718094315.441544,,,,0.794057190,0.793394744,92860.000000000,1718094315.441544294
1718094315.442551,,,,0.918899775,0.919415295,92861.000000000,1718094315.442551374
1718094315.443558,,,,1.141443014,1.141934514,92862.000000000,1718094315.443558455
1718094315.444566,,,,0.796894014,0.794524670,92863.000000000,1718094315.444565535
1718094315.445573,,,,0.465134501,0.464880735,92864.000000000,1718094315.445572615
1718094315.445608,372.650329590,18718.000000000,1718094315.445608377,,,,
1718094315.446580,,,,0.222998157,0.223032877,92865.000000000,1718094315.446579695
1718094315.447587,,,,-0.005122557,-0.006265821,92866.000000000,1718094315.447586775
1718094315.448594,,,,-0.124507897,-0.125314593,92867.000000000,1718094315.448593855
1718094315.449601,,,,-0.111742362,-0.113943413,92868.000000000,1718094315.449600935
1718094315.450608,,,,-0.151553497,-0.150965855,92869.000000000,1718094315.450608015
1718094315.450608,373.062713623,18719.000000000,1718094315.450608253,,,,
1718094315.451615,,,,-0.099024914,-0.098100692,92870.000000000,1718094315.451615095
1718094315.452622,,,,-0.025797425,-0.025281891,92871.000000000,1718094315.452622175
1718094315.453629,,,,0.011032688,0.009913464,92872.000000000,1718094315.453629255
1718094315.454636,,,,0.080533899,0.081434079,92873.000000000,1718094315.454636335
1718094315.455608,373.557678223,18720.000000000,1718094315.455608368,,,,
1718094315.455643,,,,0.199029729,0.202574372,92874.000000000,1718094315.455643415
1718094315.456650,,,,0.288676918,0.289336681,92875.000000000,1718094315.456650496
1718094315.457658,,,,0.320891231,0.321719319,92876.000000000,1718094315.457657576
1718094315.458665,,,,0.333200008,0.336768687,92877.000000000,1718094315.458664656
1718094315.459672,,,,0.225522414,0.225989863,92878.000000000,1718094315.459671736
1718094315.460679,,,,0.104189791,0.105354421,92879.000000000,1718094315.460678816
1718094315.461686,,,,0.204030171,0.204040855,92880.000000000,1718094315.461685896
1718094315.462693,,,,0.275502712,0.276042283,92881.000000000,1718094315.462692976
1718094315.463700,,,,0.272088945,0.272508323,92882.000000000,1718094315.463700056
1718094315.464707,,,,0.343994200,0.344341457,92883.000000000,1718094315.464707136
1718094315.465714,,,,0.449484110,0.449735194,92884.000000000,1718094315.465714216
1718094315.466721,,,,0.442344069,0.441369087,92885.000000000,1718094315.466721296
1718094315.467728,,,,0.544107676,0.542507648,92886.000000000,1718094315.467728376
1718094315.468735,,,,0.581394553,0.580395520,92887.000000000,1718094315.468735456
1718094315.469743,,,,0.552257419,0.553614378,92888.000000000,1718094315.469742537
1718094315.470750,,,,0.538386047,0.537531257,92889.000000000,1718094315.470749617
1718094315.471757,,,,0.616998613,0.617634356,92890.000000000,1718094315.471756697
1718094315.472764,,,,0.597357512,0.596190214,92891.000000000,1718094315.472763777
1718094315.473771,,,,0.315938890,0.315060079,92892.000000000,1718094315.473770857
1718094315.474778,,,,0.350485146,0.348981291,92893.000000000,1718094315.474777937
1718094315.475785,,,,0.413615614,0.411029935,92894.000000000,1718094315.475785017
1718094315.476792,,,,0.195928499,0.197093129,92895.000000000,1718094315.476792097
1718094315.477799,,,,0.034231812,0.035348359,92896.000000000,1718094315.477799177
1718094315.478806,,,,0.069667570,0.071048565,92897.000000000,1718094315.478806257
1718094315.479813,,,,0.180422351,0.180505157,92898.000000000,1718094315.479813337
1718094315.480820,,,,0.310048968,0.308208525,92899.000000000,1718094315.480820417
1718094315.481827,,,,0.396955520,0.397687435,92900.000000000,1718094315.481827497
1718094315.482835,,,,0.290071279,0.292173475,92901.000000000,1718094315.482834578
1718094315.483842,,,,0.097915210,0.095834367,92902.000000000,1718094315.483841658
1718094315.484849,,,,0.138135031,0.139636233,92903.000000000,1718094315.484848738
1718094315.485856,,,,0.265862435,0.266017377,92904.000000000,1718094315.485855818
1718094315.486863,,,,0.219055504,0.219979733,92905.000000000,1718094315.486862898
1718094315.487870,,,,0.177369207,0.176346138,92906.000000000,1718094315.487869978
1718094315.488877,,,,0.244826972,0.244885728,92907.000000000,1718094315.488877058
1718094315.489884,,,,0.247928202,0.247554228,92908.000000000,1718094315.489884138
1718094315.490891,,,,0.213405982,0.212599277,92909.000000000,1718094315.490891218
1718094315.491898,,,,0.180975288,0.178870395,92910.000000000,1718094315.491898298
1718094315.492905,,,,0.281584948,0.281307161,92911.000000000,1718094315.492905378
1718094315.493912,,,,0.414216638,0.412856996,92912.000000000,1718094315.493912458
1718094315.494920,,,,0.402436763,0.402687848,92913.000000000,1718094315.494919538
1718094315.495927,,,,0.351759315,0.353164345,92914.000000000,1718094315.495926619
1718094315.496934,,,,0.329473734,0.333138555,92915.000000000,1718094315.496933699
1718094315.497941,,,,0.230546892,0.231350899,92916.000000000,1718094315.497940779
1718094315.503983,,,,0.253361374,0.254550040,92922.000000000,1718094315.503983259
1718094315.504406,376.315551758,18731.000000000,1718094315.504405737,,,,
1718094315.504990,,,,0.460494667,0.460889995,92923.000000000,1718094315.504990339
1718094315.505997,,,,0.697293997,0.697472990,92924.000000000,1718094315.505997419
1718094315.507004,,,,0.751265049,0.752525806,92925.000000000,1718094315.507004499
1718094315.508012,,,,0.637072444,0.638741970,92926.000000000,1718094315.508011580
1718094315.509019,,,,0.483862072,0.485507518,92927.000000000,1718094315.509018660
1718094315.509406,376.298980713,18732.000000000,1718094315.509405851,,,,
1718094315.510026,,,,0.300384670,0.300683826,92928.000000000,1718094315.510025740
1718094315.511033,,,,0.155420184,0.155863598,92929.000000000,1718094315.511032820
1718094315.512040,,,,0.301129907,0.299986660,92930.000000000,1718094315.512039900
1718094315.513047,,,,0.350437075,0.350808352,92931.000000000,1718094315.513046980
1718094315.514054,,,,0.304567724,0.304578394,92932.000000000,1718094315.514054060
1718094315.514406,376.414703369,18733.000000000,1718094315.514405727,,,,
1718094315.515061,,,,0.304399431,0.303472519,92933.000000000,1718094315.515061140
1718094315.516068,,,,0.315818697,0.315613002,92934.000000000,1718094315.516068220
1718094315.517075,,,,0.194365874,0.193967864,92935.000000000,1718094315.517075300
1718094315.518082,,,,0.179292440,0.181514859,92936.000000000,1718094315.518082380
1718094315.519089,,,,0.084067859,0.086194105,92937.000000000,1718094315.519089460
1718094315.519406,376.513885498,18734.000000000,1718094315.519405842,,,,
1718094315.520097,,,,0.163233370,0.165095165,92938.000000000,1718094315.520096540
1718094315.521104,,,,0.379478037,0.380089730,92939.000000000,1718094315.521103621
1718094315.522111,,,,0.369020402,0.368117541,92940.000000000,1718094315.522110701
1718094315.523118,,,,0.353922963,0.354775041,92941.000000000,1718094315.523117781
1718094315.524125,,,,0.354523957,0.354558676,92942.000000000,1718094315.524124861
1718094315.524406,376.679168701,18735.000000000,1718094315.524405718,,,,
1718094315.525132,,,,0.245836675,0.242649958,92943.000000000,1718094315.525131941
1718094315.526139,,,,0.218887225,0.216686174,92944.000000000,1718094315.526139021
1718094315.527146,,,,0.172488973,0.172980472,92945.000000000,1718094315.527146101
1718094315.528153,,,,0.165877819,0.167282864,92946.000000000,1718094315.528153181
1718094315.529160,,,,0.323752075,0.320661515,92947.000000000,1718094315.529160261
1718094315.529406,376.993316650,18736.000000000,1718094315.529405832,,,,
1718094315.530167,,,,0.354139328,0.352875859,92948.000000000,1718094315.530167341
1718094315.531174,,,,0.284758300,0.284696877,92949.000000000,1718094315.531174421
1718094315.532182,,,,0.215377301,0.214859098,92950.000000000,1718094315.532181501
1718094315.533189,,,,0.212420315,0.211228967,92951.000000000,1718094315.533188581
1718094315.534196,,,,0.252592057,0.253372043,92952.000000000,1718094315.534195662
1718094315.534406,377.357086182,18737.000000000,1718094315.534405708,,,,
1718094315.535203,,,,0.189389482,0.188510656,92953.000000000,1718094315.535202742
1718094315.536210,,,,0.136428162,0.137160063,92954.000000000,1718094315.536209822
1718094315.537217,,,,0.204535022,0.204161048,92955.000000000,1718094315.537216902
1718094315.538224,,,,0.396306425,0.395163178,92956.000000000,1718094315.538223982
1718094315.539406,377.803680420,18738.000000000,1718094315.539405823,,,,
1718094315.540238,,,,0.467346221,0.466996312,92958.000000000,1718094315.540238142
1718094315.541245,,,,0.419842124,0.420165330,92959.000000000,1718094315.541245222
1718094315.542252,,,,0.505690873,0.508249879,92960.000000000,1718094315.542252302
1718094315.543259,,,,0.463139147,0.463462353,92961.000000000,1718094315.543259382
1718094315.544266,,,,0.377987534,0.378214568,92962.000000000,1718094315.544266462
1718094315.544406,378.349670410,18739.000000000,1718094315.544405699,,,,
1718094315.545274,,,,0.373636186,0.371771723,92963.000000000,1718094315.545273542
1718094315.546281,,,,0.171118662,0.171826527,92964.000000000,1718094315.546280622
1718094315.547288,,,,0.103540696,0.102205105,92965.000000000,1718094315.547287703
1718094315.548295,,,,0.358995497,0.357708007,92966.000000000,1718094315.548294783
1718094315.549302,,,,0.436141610,0.439541996,92967.000000000,1718094315.549301863
1718094315.549406,378.829620361,18740.000000000,1718094315.549405813,,,,
1718094315.550309,,,,0.524875224,0.525631189,92968.000000000,1718094315.550308943
1718094315.551316,,,,0.391858935,0.389657885,92969.000000000,1718094315.551316023
1718094315.552323,,,,0.091592550,0.088862605,92970.000000000,1718094315.552323103
1718094315.553330,,,,0.016345648,0.014120559,92971.000000000,1718094315.553330183
1718094315.554337,,,,-0.031158466,-0.029200500,92972.000000000,1718094315.554337263
1718094315.555344,,,,0.154025838,0.154998139,92973.000000000,1718094315.555344343
1718094315.556351,,,,0.363418967,0.364030659,92974.000000000,1718094315.556351423
1718094315.557359,,,,0.412341475,0.410957813,92975.000000000,1718094315.557358503
1718094315.558226,379.276611328,18741.000000000,1718094315.558226109,,,,
1718094315.558366,,,,0.333224058,0.331239372,92976.000000000,1718094315.558365583
1718094315.559373,,,,0.309327751,0.307030529,92977.000000000,1718094315.559372663
1718094315.560380,,,,0.267328918,0.266209692,92978.000000000,1718094315.560379744
1718094315.561387,,,,0.146885797,0.146607995,92979.000000000,1718094315.561386824
1718094315.562394,,,,0.269083887,0.270729303,92980.000000000,1718094315.562393904
1718094315.563226,379.607757568,18742.000000000,1718094315.563226223,,,,
1718094315.563401,,,,0.431093097,0.432618320,92981.000000000,1718094315.563400984
1718094315.564408,,,,0.540934324,0.540151656,92982.000000000,1718094315.564408064
1718094315.565415,,,,0.699962497,0.700117469,92983.000000000,1718094315.565415144
1718094315.566422,,,,0.792230129,0.792433143,92984.000000000,1718094315.566422224
1718094315.567429,,,,0.719723880,0.721777976,92985.000000000,1718094315.567429304
1718094315.568226,379.806549072,18743.000000000,1718094315.568226099,,,,
1718094315.568436,,,,0.354764372,0.353813440,92986.000000000,1718094315.568436384
1718094315.569443,,,,-0.016782220,-0.015713755,92987.000000000,1718094315.569443464
1718094315.570451,,,,0.029808352,0.031742278,92988.000000000,1718094315.570450544
1718094315.571458,,,,0.102218464,0.101099245,92989.000000000,1718094315.571457624
1718094315.572465,,,,0.095967926,0.096219011,92990.000000000,1718094315.572464705
1718094315.573226,379.707183838,18744.000000000,1718094315.573226213,,,,
1718094315.573472,,,,0.115993701,0.118528634,92991.000000000,1718094315.573471785
1718094315.574479,,,,0.139890000,0.140886337,92992.000000000,1718094315.574478865
1718094315.575486,,,,0.184773698,0.185697913,92993.000000000,1718094315.575485945
1718094315.576493,,,,0.255789459,0.256401151,92994.000000000,1718094315.576493025
1718094315.577500,,,,0.282161921,0.282461107,92995.000000000,1718094315.577500105
1718094315.578226,379.491882324,18745.000000000,1718094315.578226089,,,,
1718094315.578507,,,,0.186119959,0.184495881,92996.000000000,1718094315.578507185
1718094315.579514,,,,0.092746496,0.093117781,92997.000000000,1718094315.579514265
1718094315.580521,,,,0.324353069,0.325541764,92998.000000000,1718094315.580521345
1718094315.581528,,,,0.542496979,0.546017587,92999.000000000,1718094315.581528425
1718094315.582536,,,,0.544804871,0.546378195,93000.000000000,1718094315.582535505
1718094315.583226,379.028259277,18746.000000000,1718094315.583226204,,,,
1718094315.583543,,,,0.521461487,0.523491561,93001.000000000,1718094315.583542585
1718094315.584550,,,,0.461071640,0.462284356,93002.000000000,1718094315.584549665
1718094315.585557,,,,0.487900883,0.487671167,93003.000000000,1718094315.585556746
1718094315.586564,,,,0.336156994,0.335807055,93004.000000000,1718094315.586563826
1718094315.587571,,,,0.103877261,0.102253191,93005.000000000,1718094315.587570906
1718094315.588226,378.515136719,18747.000000000,1718094315.588226080,,,,
1718094315.588578,,,,0.062767938,0.061528511,93006.000000000,1718094315.588577986
1718094315.589585,,,,0.098612383,0.100786716,93007.000000000,1718094315.589585066
1718094315.590592,,,,0.162151545,0.167114571,93008.000000000,1718094315.590592146
1718094315.591599,,,,0.212925166,0.214931220,93009.000000000,1718094315.591599226
1718094315.592606,,,,0.163401648,0.164638400,93010.000000000,1718094315.592606306
1718094315.593613,,,,0.019302635,0.020731708,93011.000000000,1718094315.593613386
1718094315.594620,,,,0.054401826,0.056600198,93012.000000000,1718094315.594620466
1718094315.595628,,,,0.141837284,0.143314436,93013.000000000,1718094315.595627546
1718094315.596635,,,,0.189245239,0.189808846,93014.000000000,1718094315.596634626
1718094315.597642,,,,0.183739945,0.185048819,93015.000000000,1718094315.597641706
1718094315.598649,,,,0.179629013,0.179711819,93016.000000000,1718094315.598648787
1718094315.599656,,,,0.218646809,0.218849823,93017.000000000,1718094315.599655867
1718094315.600663,,,,0.314929187,0.315877467,93018.000000000,1718094315.600662947
1718094315.601670,,,,0.448955208,0.448581249,93019.000000000,1718094315.601670027
1718094315.602677,,,,0.466793299,0.466563582,93020.000000000,1718094315.602677107
1718094315.603684,,,,0.372722656,0.374872953,93021.000000000,1718094315.603684187
