__time,/gdx/grip_force_stream/grip_force,/gdx/grip_force_stream/header/seq,/gdx/grip_force_stream/header/stamp,/shimmer0/emg_stream/emg_ch1,/shimmer0/emg_stream/emg_ch2,/shimmer0/emg_stream/header/seq,/shimmer0/emg_stream/header/stamp
1718097927.000722,,,,14.342114449,14.345793724,57623.000000000,1718097927.000721931
1718097927.001729,,,,14.351057053,14.356226921,57624.000000000,1718097927.001729012
1718097927.002736,,,,14.350456238,14.356587410,57625.000000000,1718097927.002736092
1718097927.003743,,,,14.334036827,14.338413239,57626.000000000,1718097927.003743172
1718097927.004750,,,,14.325934410,14.332643509,57627.000000000,1718097927.004750252
1718097927.005757,,,,14.335863113,14.342908859,57628.000000000,1718097927.005757332
1718097927.006764,,,,14.331776619,14.339014053,57629.000000000,1718097927.006764412
1718097927.007771,,,,14.317399979,14.322666168,57630.000000000,1718097927.007771492
1718097927.008779,,,,14.317665100,14.321752548,57631.000000000,1718097927.008778572
1718097927.009786,,,,14.309538841,14.313674927,57632.000000000,1718097927.009785652
1718097927.010793,,,,14.290691376,14.296341896,57633.000000000,1718097927.010792732
1718097927.011800,,,,14.286219597,14.289466858,57634.000000000,1718097927.011799812
1718097927.012807,,,,14.289730072,14.294779778,57635.000000000,1718097927.012806892
1718097927.013814,,,,14.310019493,14.315791130,57636.000000000,1718097927.013813972
1718097927.014821,,,,14.346513748,14.352115631,57637.000000000,1718097927.014821053
1718097927.015828,,,,14.361899376,14.366805077,57638.000000000,1718097927.015828133
1718097927.016835,,,,14.344253540,14.350961685,57639.000000000,1718097927.016835213
1718097927.017842,,,,14.362789154,14.368632317,57640.000000000,1718097927.017842293
1718097927.018849,,,,14.410485268,14.414837837,57641.000000000,1718097927.018849373
1718097927.019856,,,,14.424957275,14.431209564,57642.000000000,1718097927.019856453
1718097927.020864,,,,14.422842026,14.428035736,57643.000000000,1718097927.020863533
1718097927.021871,,,,14.415437698,14.421184540,57644.000000000,1718097927.021870613
1718097927.022878,,,,14.414403915,14.422578812,57645.000000000,1718097927.022877693
1718097927.023885,,,,14.407672882,14.414213181,57646.000000000,1718097927.023884773
1718097927.024892,,,,14.380290031,14.385051727,57647.000000000,1718097927.024891853
1718097927.025899,,,,14.356754303,14.360338211,57648.000000000,1718097927.025898933
1718097927.026906,,,,14.357812881,14.363871574,57649.000000000,1718097927.026906013
1718097927.027913,,,,14.365193367,14.370458603,57650.000000000,1718097927.027913094
1718097927.028355,0.250959605,11632.000000000,1718097927.028354883,,,,
1718097927.028920,,,,14.351610184,14.359208107,57651.000000000,1718097927.028920174
1718097927.029927,,,,14.323675156,14.327907562,57652.000000000,1718097927.029927254
1718097927.030934,,,,14.318530083,14.324686050,57653.000000000,1718097927.030934334
1718097927.031941,,,,14.327257156,14.331249237,57654.000000000,1718097927.031941414
1718097927.032948,,,,14.330045700,14.335215569,57655.000000000,1718097927.032948494
1718097927.033355,0.250959605,11633.000000000,1718097927.033354759,,,,
1718097927.033956,,,,14.327233315,14.331777573,57656.000000000,1718097927.033955574
1718097927.034963,,,,14.339974403,14.343726158,57657.000000000,1718097927.034962654
1718097927.035970,,,,14.380578995,14.386926651,57658.000000000,1718097927.035969734
1718097927.036977,,,,14.401878357,14.407817841,57659.000000000,1718097927.036976814
1718097927.037984,,,,14.382526398,14.385148048,57660.000000000,1718097927.037983894
1718097927.038355,0.268635690,11634.000000000,1718097927.038354874,,,,
1718097927.038991,,,,14.365914345,14.370554924,57661.000000000,1718097927.038990974
1718097927.039998,,,,14.368462563,14.375099182,57662.000000000,1718097927.039998055
1718097927.041005,,,,14.376131058,14.382383347,57663.000000000,1718097927.041005135
1718097927.042012,,,,14.381035805,14.387383461,57664.000000000,1718097927.042012215
1718097927.043019,,,,14.382165909,14.388777733,57665.000000000,1718097927.043019295
1718097927.043355,0.339346677,11635.000000000,1718097927.043354750,,,,
1718097927.044026,,,,14.375433922,14.382407188,57666.000000000,1718097927.044026375
1718097927.045033,,,,14.376491547,14.380700111,57667.000000000,1718097927.045033455
1718097927.046041,,,,14.381756783,14.386758804,57668.000000000,1718097927.046040535
1718097927.047048,,,,14.384785652,14.392408371,57669.000000000,1718097927.047047615
1718097927.048055,,,,14.373029709,14.377478600,57670.000000000,1718097927.048054695
1718097927.048355,0.427722067,11636.000000000,1718097927.048354864,,,,
1718097927.049062,,,,14.348532677,14.352164268,57671.000000000,1718097927.049061775
1718097927.050069,,,,14.351033211,14.354880333,57672.000000000,1718097927.050068855
1718097927.051076,,,,14.367308617,14.371541023,57673.000000000,1718097927.051075935
1718097927.052083,,,,14.370770454,14.375988007,57674.000000000,1718097927.052083015
1718097927.053090,,,,14.370386124,14.375603676,57675.000000000,1718097927.053090096
1718097927.053355,0.427722067,11637.000000000,1718097927.053354740,,,,
1718097927.054097,,,,14.366515160,14.370387077,57676.000000000,1718097927.054097176
1718097927.055104,,,,14.346273422,14.350000381,57677.000000000,1718097927.055104256
1718097927.056111,,,,14.338219643,14.342331886,57678.000000000,1718097927.056111336
1718097927.057118,,,,14.342354774,14.347019196,57679.000000000,1718097927.057118416
1718097927.058125,,,,14.339013100,14.344470978,57680.000000000,1718097927.058125496
1718097927.058355,0.410047263,11638.000000000,1718097927.058354855,,,,
1718097927.059133,,,,14.318386078,14.324637413,57681.000000000,1718097927.059132576
1718097927.060140,,,,14.311222076,14.314180374,57682.000000000,1718097927.060139656
1718097927.061147,,,,14.311486244,14.314708710,57683.000000000,1718097927.061146736
1718097927.062154,,,,14.314467430,14.319613457,57684.000000000,1718097927.062153816
1718097927.063161,,,,14.338267326,14.345216751,57685.000000000,1718097927.063160896
1718097927.063355,0.480753690,11639.000000000,1718097927.063354731,,,,
1718097927.064168,,,,14.372164726,14.376637459,57686.000000000,1718097927.064167976
1718097927.065175,,,,14.383463860,14.388946533,57687.000000000,1718097927.065175056
1718097927.066182,,,,14.354134560,14.361299515,57688.000000000,1718097927.066182137
1718097927.067189,,,,14.346056938,14.351947784,57689.000000000,1718097927.067189217
1718097927.068196,,,,14.352378845,14.356659889,57690.000000000,1718097927.068196297
1718097927.068355,0.533775926,11640.000000000,1718097927.068354845,,,,
1718097927.069203,,,,14.349615097,14.355457306,57691.000000000,1718097927.069203377
1718097927.070210,,,,14.348845482,14.351154327,57692.000000000,1718097927.070210457
1718097927.071218,,,,14.332737923,14.340576172,57693.000000000,1718097927.071217537
1718097927.072225,,,,14.328362465,14.338413239,57694.000000000,1718097927.072224617
1718097927.073232,,,,14.332209587,14.339614868,57695.000000000,1718097927.073231697
1718097927.074239,,,,14.337618828,14.342042923,57696.000000000,1718097927.074238777
1718097927.075246,,,,14.346032143,14.352115631,57697.000000000,1718097927.075245857
1718097927.076253,,,,14.371875763,14.378464699,57698.000000000,1718097927.076252937
1718097927.077260,,,,14.407600403,14.411496162,57699.000000000,1718097927.077260017
1718097927.078267,,,,14.394570351,14.394931793,57700.000000000,1718097927.078267097
1718097927.079274,,,,14.360384941,14.362405777,57701.000000000,1718097927.079274178
1718097927.080281,,,,14.332016945,14.338364601,57702.000000000,1718097927.080281258
1718097927.081288,,,,14.301677704,14.306510925,57703.000000000,1718097927.081288338
1718097927.082295,,,,14.291532516,14.297159195,57704.000000000,1718097927.082295418
1718097927.083302,,,,14.291124344,14.295861244,57705.000000000,1718097927.083302498
1718097927.084310,,,,14.294970512,14.297231674,57706.000000000,1718097927.084309578
1718097927.085317,,,,14.294441223,14.298289299,57707.000000000,1718097927.085316658
1718097927.086324,,,,14.292205811,14.298986435,57708.000000000,1718097927.086323738
1718097927.087331,,,,14.329059601,14.336249352,57709.000000000,1718097927.087330818
1718097927.088338,,,,14.392478943,14.397456169,57710.000000000,1718097927.088337898
1718097927.089345,,,,14.398681641,14.404812813,57711.000000000,1718097927.089344978
1718097927.090352,,,,14.374376297,14.380916595,57712.000000000,1718097927.090352058
1718097927.091359,,,,14.366779327,14.370603561,57713.000000000,1718097927.091359138
1718097927.092366,,,,14.381804466,14.388730049,57714.000000000,1718097927.092366219
1718097927.093373,,,,14.389064789,14.396494865,57715.000000000,1718097927.093373299
1718097927.094380,,,,14.403128624,14.411423683,57716.000000000,1718097927.094380379
1718097927.095387,,,,14.409090996,14.413924217,57717.000000000,1718097927.095387459
1718097927.096395,,,,14.400844574,14.406928062,57718.000000000,1718097927.096394539
1718097927.097402,,,,14.387863159,14.391879082,57719.000000000,1718097927.097401619
1718097927.098409,,,,14.363943100,14.369930267,57720.000000000,1718097927.098408699
1718097927.099416,,,,14.361899376,14.370554924,57721.000000000,1718097927.099415779
1718097927.100423,,,,14.354495049,14.360962868,57722.000000000,1718097927.100422859
1718097927.101430,,,,14.343075752,14.348318100,57723.000000000,1718097927.101429939
1718097927.102437,,,,14.386516571,14.389378548,57724.000000000,1718097927.102437019
1718097927.103444,,,,14.359062195,14.361203194,57725.000000000,1718097927.103444099
1718097927.104451,,,,14.316150665,14.317978859,57726.000000000,1718097927.104451180
1718097927.105458,,,,14.314371109,14.319733620,57727.000000000,1718097927.105458260
1718097927.106465,,,,14.311702728,14.316007614,57728.000000000,1718097927.106465340
1718097927.107472,,,,14.288816452,14.293649673,57729.000000000,1718097927.107472420
1718097927.108479,,,,14.291869164,14.296654701,57730.000000000,1718097927.108479500
1718097927.109487,,,,14.296701431,14.301583290,57731.000000000,1718097927.109486580
1718097927.110494,,,,14.290787697,14.295067787,57732.000000000,1718097927.110493660
1718097927.111501,,,,14.253932953,14.260833740,57733.000000000,1718097927.111500740
1718097927.112508,,,,14.258212090,14.267205238,57734.000000000,1718097927.112507820
1718097927.113515,,,,14.276074409,14.279273033,57735.000000000,1718097927.113514900
1718097927.114522,,,,14.304875374,14.306847572,57736.000000000,1718097927.114521980
1718097927.115529,,,,14.356850624,14.361852646,57737.000000000,1718097927.115529060
1718097927.116536,,,,14.388512611,14.393754005,57738.000000000,1718097927.116536140
1718097927.117543,,,,14.414259911,14.418492317,57739.000000000,1718097927.117543221
1718097927.118550,,,,14.464119911,14.468039513,57740.000000000,1718097927.118550301
1718097927.119557,,,,14.444790840,14.451354980,57741.000000000,1718097927.119557381
1718097927.120564,,,,14.398753166,14.404572487,57742.000000000,1718097927.120564461
1718097927.121572,,,,14.410774231,14.416809082,57743.000000000,1718097927.121571541
1718097927.122579,,,,14.454142570,14.460105896,57744.000000000,1718097927.122578621
1718097927.123586,,,,14.467004776,14.474530220,57745.000000000,1718097927.123585701
1718097927.124593,,,,14.393152237,14.400942802,57746.000000000,1718097927.124592781
1718097927.125600,,,,14.350600243,14.355793953,57747.000000000,1718097927.125599861
1718097927.126607,,,,14.351537704,14.357765198,57748.000000000,1718097927.126606941
1718097927.127083,1.894319177,11651.000000000,1718097927.127083302,,,,
1718097927.127614,,,,14.326319695,14.331489563,57749.000000000,1718097927.127614021
1718097927.128621,,,,14.366611481,14.370434761,57750.000000000,1718097927.128621101
1718097927.129628,,,,14.389473915,14.393850327,57751.000000000,1718097927.129628181
1718097927.130635,,,,14.391397476,14.397384644,57752.000000000,1718097927.130635262
1718097927.131642,,,,14.409571648,14.414284706,57753.000000000,1718097927.131642342
1718097927.132083,2.159261703,11652.000000000,1718097927.132083416,,,,
1718097927.132649,,,,14.415148735,14.419982910,57754.000000000,1718097927.132649422
1718097927.133657,,,,14.413874626,14.420103073,57755.000000000,1718097927.133656502
1718097927.134664,,,,14.412840843,14.419429779,57756.000000000,1718097927.134663582
1718097927.135671,,,,14.407480240,14.412817955,57757.000000000,1718097927.135670662
1718097927.136678,,,,14.402720451,14.411087036,57758.000000000,1718097927.136677742
1718097927.137083,2.512470484,11653.000000000,1718097927.137083292,,,,
1718097927.137685,,,,14.387526512,14.393706322,57759.000000000,1718097927.137684822
1718097927.138692,,,,14.367813110,14.373368263,57760.000000000,1718097927.138691902
1718097927.139699,,,,14.342859268,14.349760056,57761.000000000,1718097927.139698982
1718097927.140706,,,,14.318939209,14.324589729,57762.000000000,1718097927.140706062
1718097927.141713,,,,14.326439857,14.333292007,57763.000000000,1718097927.141713142
1718097927.142083,2.812648535,11654.000000000,1718097927.142083406,,,,
1718097927.142720,,,,14.360601425,14.366588593,57764.000000000,1718097927.142720222
1718097927.143727,,,,14.364254951,14.370410919,57765.000000000,1718097927.143727303
1718097927.144734,,,,14.369279861,14.373439789,57766.000000000,1718097927.144734383
1718097927.145741,,,,14.405244827,14.411328316,57767.000000000,1718097927.145741463
1718097927.146749,,,,14.437314987,14.444912910,57768.000000000,1718097927.146748543
1718097927.147083,3.183403730,11655.000000000,1718097927.147083282,,,,
1718097927.147756,,,,14.443469048,14.451667786,57769.000000000,1718097927.147755623
1718097927.148763,,,,14.470417976,14.473400116,57770.000000000,1718097927.148762703
1718097927.149770,,,,14.462869644,14.467269897,57771.000000000,1718097927.149769783
1718097927.150777,,,,14.442892075,14.445946693,57772.000000000,1718097927.150776863
1718097927.151784,,,,14.440631866,14.448806763,57773.000000000,1718097927.151783943
1718097927.152083,3.677637339,11656.000000000,1718097927.152083397,,,,
1718097927.152791,,,,14.485203743,14.491118431,57774.000000000,1718097927.152791023
1718097927.153798,,,,14.494435310,14.500133514,57775.000000000,1718097927.153798103
1718097927.154805,,,,14.483736992,14.489507675,57776.000000000,1718097927.154805183
1718097927.155812,,,,14.472894669,14.478592873,57777.000000000,1718097927.155812263
1718097927.156819,,,,14.455392838,14.459577560,57778.000000000,1718097927.156819344
1718097927.157083,4.065889835,11657.000000000,1718097927.157083273,,,,
1718097927.157826,,,,14.431545258,14.436690331,57779.000000000,1718097927.157826424
1718097927.158834,,,,14.428972244,14.435248375,57780.000000000,1718097927.158833504
1718097927.159841,,,,14.450585365,14.457197189,57781.000000000,1718097927.159840584
1718097927.160848,,,,14.468158722,14.475492477,57782.000000000,1718097927.160847664
1718097927.161855,,,,14.497680664,14.504677773,57783.000000000,1718097927.161854744
1718097927.162083,4.524639606,11658.000000000,1718097927.162083387,,,,
1718097927.162862,,,,14.531385422,14.539487839,57784.000000000,1718097927.162861824
1718097927.163869,,,,14.551459312,14.558407784,57785.000000000,1718097927.163868904
1718097927.164876,,,,14.506238937,14.510351181,57786.000000000,1718097927.164875984
1718097927.165883,,,,14.445944786,14.449215889,57787.000000000,1718097927.165883064
1718097927.166890,,,,14.497800827,14.502297401,57788.000000000,1718097927.166890144
1718097927.167083,5.000937939,11659.000000000,1718097927.167083263,,,,
1718097927.167897,,,,14.564897537,14.569033623,57789.000000000,1718097927.167897224
1718097927.168904,,,,14.521528244,14.527467728,57790.000000000,1718097927.168904305
1718097927.169911,,,,14.501334190,14.506960869,57791.000000000,1718097927.169911385
1718097927.170918,,,,14.495180130,14.501431465,57792.000000000,1718097927.170918465
1718097927.171926,,,,14.459143639,14.465491295,57793.000000000,1718097927.171925545
1718097927.172083,5.653469086,11660.000000000,1718097927.172083378,,,,
1718097927.172933,,,,14.433083534,14.438541412,57794.000000000,1718097927.172932625
1718097927.173940,,,,14.436112404,14.442652702,57795.000000000,1718097927.173939705
1718097927.174947,,,,14.466644287,14.472751617,57796.000000000,1718097927.174946785
1718097927.175954,,,,14.466187477,14.470876694,57797.000000000,1718097927.175953865
1718097927.176961,,,,14.418851852,14.421809196,57798.000000000,1718097927.176960945
1718097927.177968,,,,14.391757965,14.396350861,57799.000000000,1718097927.177968025
1718097927.178975,,,,14.413490295,14.419405937,57800.000000000,1718097927.178975105
1718097927.179982,,,,14.388873100,14.393850327,57801.000000000,1718097927.179982185
1718097927.180989,,,,14.355023384,14.360121727,57802.000000000,1718097927.180989265
1718097927.181996,,,,14.345094681,14.353919029,57803.000000000,1718097927.181996346
1718097927.183003,,,,14.401566505,14.407289505,57804.000000000,1718097927.183003426
1718097927.184011,,,,14.449046135,14.453302383,57805.000000000,1718097927.184010506
1718097927.185018,,,,14.501863480,14.505134583,57806.000000000,1718097927.185017586
1718097927.186025,,,,14.577037811,14.581847191,57807.000000000,1718097927.186024666
1718097927.187032,,,,14.544198990,14.549536705,57808.000000000,1718097927.187031746
1718097927.188039,,,,14.475322723,14.481863022,57809.000000000,1718097927.188038826
1718097927.189046,,,,14.475490570,14.483425140,57810.000000000,1718097927.189045906
1718097927.190053,,,,14.520687103,14.528308868,57811.000000000,1718097927.190052986
1718097927.191060,,,,14.528548241,14.534655571,57812.000000000,1718097927.191060066
1718097927.192067,,,,14.522706985,14.528141022,57813.000000000,1718097927.192067146
1718097927.193074,,,,14.517321587,14.521313667,57814.000000000,1718097927.193074226
1718097927.194081,,,,14.554464340,14.558551788,57815.000000000,1718097927.194081306
1718097927.195088,,,,14.569537163,14.576342583,57816.000000000,1718097927.195088387
1718097927.196095,,,,14.482342720,14.487055779,57817.000000000,1718097927.196095467
1718097927.197103,,,,14.441257477,14.446595192,57818.000000000,1718097927.197102547
1718097927.198110,,,,14.462653160,14.467823029,57819.000000000,1718097927.198109627
1718097927.199117,,,,14.479121208,14.483449936,57820.000000000,1718097927.199116707
1718097927.200124,,,,14.497344017,14.503595352,57821.000000000,1718097927.200123787
1718097927.201131,,,,14.554896355,14.561581612,57822.000000000,1718097927.201130867
1718097927.202138,,,,14.626393318,14.633919716,57823.000000000,1718097927.202137947
1718097927.203145,,,,14.647164345,14.654738426,57824.000000000,1718097927.203145027
1718097927.204152,,,,14.645072937,14.649785995,57825.000000000,1718097927.204152107
1718097927.205159,,,,14.670700073,14.675990105,57826.000000000,1718097927.205159187
1718097927.206166,,,,14.736522675,14.742101669,57827.000000000,1718097927.206166267
1718097927.207173,,,,14.717819214,14.723542213,57828.000000000,1718097927.207173347
1718097927.208180,,,,14.646491051,14.654954910,57829.000000000,1718097927.208180428
1718097927.209188,,,,14.582759857,14.589372635,57830.000000000,1718097927.209187508
1718097927.210195,,,,14.549463272,14.553263664,57831.000000000,1718097927.210194588
1718097927.211202,,,,14.519028664,14.524438858,57832.000000000,1718097927.211201668
1718097927.212209,,,,14.470081329,14.475612640,57833.000000000,1718097927.212208748
1718097927.213216,,,,14.450825691,14.454936981,57834.000000000,1718097927.213215828
1718097927.214223,,,,14.424765587,14.429718971,57835.000000000,1718097927.214222908
1718097927.215230,,,,14.389617920,14.394451141,57836.000000000,1718097927.215229988
1718097927.216237,,,,14.470586777,14.476550102,57837.000000000,1718097927.216237068
1718097927.217244,,,,14.596703529,14.602546692,57838.000000000,1718097927.217244148
1718097927.218251,,,,14.666348457,14.670821190,57839.000000000,1718097927.218251228
1718097927.219258,,,,14.663031578,14.665917397,57840.000000000,1718097927.219258308
1718097927.220265,,,,14.615479469,14.620769501,57841.000000000,1718097927.220265388
1718097927.221272,,,,14.557300568,14.562566757,57842.000000000,1718097927.221272469
1718097927.221394,16.874114990,11671.000000000,1718097927.221394062,,,,
1718097927.222280,,,,14.551530838,14.558431625,57843.000000000,1718097927.222279549
1718097927.223287,,,,14.599659920,14.606993675,57844.000000000,1718097927.223286629
1718097927.224294,,,,14.565811157,14.570668221,57845.000000000,1718097927.224293709
1718097927.225301,,,,14.507584572,14.511192322,57846.000000000,1718097927.225300789
1718097927.226308,,,,14.525495529,14.530088425,57847.000000000,1718097927.226307869
1718097927.226394,18.522335052,11672.000000000,1718097927.226394176,,,,
1718097927.227315,,,,14.646130562,14.649185181,57848.000000000,1718097927.227314949
1718097927.228322,,,,14.682840347,14.685365677,57849.000000000,1718097927.228322029
1718097927.229329,,,,14.648005486,14.652166367,57850.000000000,1718097927.229329109
1718097927.230336,,,,14.661155701,14.669018745,57851.000000000,1718097927.230336189
1718097927.231343,,,,14.680436134,14.688563347,57852.000000000,1718097927.231343269
1718097927.231394,20.326898575,11673.000000000,1718097927.231394053,,,,
1718097927.232350,,,,14.717507362,14.725345612,57853.000000000,1718097927.232350349
1718097927.233357,,,,14.776646614,14.785037994,57854.000000000,1718097927.233357430
1718097927.234365,,,,14.881054878,14.887571335,57855.000000000,1718097927.234364510
1718097927.235372,,,,14.847109795,14.851462364,57856.000000000,1718097927.235371590
1718097927.236379,,,,14.686999321,14.691881180,57857.000000000,1718097927.236378670
1718097927.236394,22.252393723,11674.000000000,1718097927.236394167,,,,
1718097927.237386,,,,14.606728554,14.612186432,57858.000000000,1718097927.237385750
1718097927.238393,,,,14.714766502,14.721907616,57859.000000000,1718097927.238392830
1718097927.239400,,,,14.767968178,14.772945404,57860.000000000,1718097927.239399910
1718097927.240407,,,,14.692481041,14.695439339,57861.000000000,1718097927.240406990
1718097927.241394,24.315971375,11675.000000000,1718097927.241394043,,,,
1718097927.241414,,,,14.601992607,14.607979774,57862.000000000,1718097927.241414070
1718097927.242421,,,,14.588529587,14.592569351,57863.000000000,1718097927.242421150
1718097927.243428,,,,14.622017860,14.626419067,57864.000000000,1718097927.243428230
1718097927.244435,,,,14.606439590,14.613917351,57865.000000000,1718097927.244435310
1718097927.245442,,,,14.569296837,14.575572968,57866.000000000,1718097927.245442390
1718097927.246394,26.517229080,11676.000000000,1718097927.246394157,,,,
1718097927.246449,,,,14.606896400,14.610816002,57867.000000000,1718097927.246449471
1718097927.247457,,,,14.788786888,14.792827606,57868.000000000,1718097927.247456551
1718097927.248464,,,,14.809798241,14.813815117,57869.000000000,1718097927.248463631
1718097927.249471,,,,14.682408333,14.689429283,57870.000000000,1718097927.249470711
1718097927.250478,,,,14.721978188,14.728423119,57871.000000000,1718097927.250477791
1718097927.251394,28.820823669,11677.000000000,1718097927.251394033,,,,
1718097927.251485,,,,14.873722076,14.883387566,57872.000000000,1718097927.251484871
1718097927.252492,,,,14.818525314,14.826147079,57873.000000000,1718097927.252491951
1718097927.253499,,,,14.774314880,14.780158043,57874.000000000,1718097927.253499031
1718097927.254506,,,,14.817107201,14.825113297,57875.000000000,1718097927.254506111
1718097927.255513,,,,14.831338882,14.837471008,57876.000000000,1718097927.255513191
1718097927.256394,31.278684616,11678.000000000,1718097927.256394148,,,,
1718097927.256520,,,,14.850282669,14.853697777,57877.000000000,1718097927.256520271
1718097927.257527,,,,14.818909645,14.824055672,57878.000000000,1718097927.257527351
1718097927.258534,,,,14.773858070,14.778691292,57879.000000000,1718097927.258534431
1718097927.259542,,,,14.732483864,14.737125397,57880.000000000,1718097927.259541512
1718097927.260549,,,,14.704645157,14.710200310,57881.000000000,1718097927.260548592
1718097927.261394,33.785850525,11679.000000000,1718097927.261394024,,,,
1718097927.261556,,,,14.713155746,14.720465660,57882.000000000,1718097927.261555672
1718097927.262563,,,,14.713925362,14.721547127,57883.000000000,1718097927.262562752
1718097927.263570,,,,14.724863052,14.730154037,57884.000000000,1718097927.263569832
1718097927.264577,,,,14.809919357,14.815641403,57885.000000000,1718097927.264576912
1718097927.265584,,,,14.863818169,14.873074532,57886.000000000,1718097927.265583992
1718097927.266394,36.255256653,11680.000000000,1718097927.266394138,,,,
1718097927.266591,,,,14.817178726,14.824656487,57887.000000000,1718097927.266591072
1718097927.267598,,,,14.777319908,14.782850266,57888.000000000,1718097927.267598152
1718097927.268605,,,,14.745754242,14.750395775,57889.000000000,1718097927.268605232
1718097927.269612,,,,14.706881523,14.711449623,57890.000000000,1718097927.269612312
1718097927.270619,,,,14.697264671,14.701761246,57891.000000000,1718097927.270619392
1718097927.271626,,,,14.713636398,14.720369339,57892.000000000,1718097927.271626472
1718097927.272634,,,,14.716834068,14.725152969,57893.000000000,1718097927.272633553
1718097927.273641,,,,14.750971794,14.759050369,57894.000000000,1718097927.273640633
1718097927.274648,,,,14.763665199,14.774315834,57895.000000000,1718097927.274647713
1718097927.275513,38.773803711,11681.000000000,1718097927.275512695,,,,
1718097927.275655,,,,14.677310944,14.685270309,57896.000000000,1718097927.275654793
1718097927.276662,,,,14.668199539,14.675365448,57897.000000000,1718097927.276661873
1718097927.277669,,,,14.701543808,14.708084106,57898.000000000,1718097927.277668953
1718097927.278676,,,,14.662165642,14.666975021,57899.000000000,1718097927.278676033
1718097927.279683,,,,14.748447418,14.752079010,57900.000000000,1718097927.279683113
1718097927.280513,41.375976563,11682.000000000,1718097927.280512810,,,,
1718097927.280690,,,,14.817755699,14.822589874,57901.000000000,1718097927.280690193
1718097927.281697,,,,14.846364021,14.851846695,57902.000000000,1718097927.281697273
1718097927.282704,,,,14.836507797,14.844178200,57903.000000000,1718097927.282704353
1718097927.283711,,,,14.756068230,14.762704849,57904.000000000,1718097927.283711433
1718097927.284719,,,,14.706520081,14.713325500,57905.000000000,1718097927.284718513
1718097927.285513,43.888313293,11683.000000000,1718097927.285512686,,,,
1718097927.285726,,,,14.662285805,14.667215347,57906.000000000,1718097927.285725594
1718097927.286733,,,,14.611488342,14.615600586,57907.000000000,1718097927.286732674
1718097927.287740,,,,14.582230568,14.586318970,57908.000000000,1718097927.287739754
1718097927.288747,,,,14.636754990,14.639593124,57909.000000000,1718097927.288746834
1718097927.289754,,,,14.713443756,14.719575882,57910.000000000,1718097927.289753914
1718097927.290513,46.605121613,11684.000000000,1718097927.290512800,,,,
1718097927.290761,,,,14.711688995,14.717724800,57911.000000000,1718097927.290760994
1718097927.291768,,,,14.671180725,14.675485611,57912.000000000,1718097927.291768074
1718097927.292775,,,,14.565306664,14.568649292,57913.000000000,1718097927.292775154
1718097927.293782,,,,14.524341583,14.531338692,57914.000000000,1718097927.293782234
1718097927.294789,,,,14.464600563,14.471308708,57915.000000000,1718097927.294789314
1718097927.295796,,,,14.427121162,14.433805466,57916.000000000,1718097927.295796394
1718097927.296803,,,,14.473543167,14.480492592,57917.000000000,1718097927.296803474
1718097927.297811,,,,14.598867416,14.606152534,57918.000000000,1718097927.297810555
1718097927.298818,,,,14.638076782,14.644882202,57919.000000000,1718097927.298817635
1718097927.299825,,,,14.585597038,14.591151237,57920.000000000,1718097927.299824715
1718097927.300832,,,,14.646707535,14.651300430,57921.000000000,1718097927.300831795
1718097927.301839,,,,14.638918877,14.644449234,57922.000000000,1718097927.301838875
1718097927.302846,,,,14.501911163,14.508043289,57923.000000000,1718097927.302845955
1718097927.303853,,,,14.523571968,14.532588005,57924.000000000,1718097927.303853035
1718097927.304860,,,,14.797417641,14.808260918,57925.000000000,1718097927.304860115
1718097927.305867,,,,15.061815262,15.071889877,57926.000000000,1718097927.305867195
1718097927.306874,,,,14.940195084,14.945676804,57927.000000000,1718097927.306874275
1718097927.307881,,,,14.862567902,14.865742683,57928.000000000,1718097927.307881355
1718097927.308888,,,,14.875982285,14.878700256,57929.000000000,1718097927.308888435
1718097927.309896,,,,14.879083633,14.882162094,57930.000000000,1718097927.309895515
1718097927.310903,,,,14.851556778,14.854274750,57931.000000000,1718097927.310902596
1718097927.311910,,,,14.765371323,14.766623497,57932.000000000,1718097927.311909676
1718097927.312917,,,,14.617738724,14.620769501,57933.000000000,1718097927.312916756
1718097927.313924,,,,14.489867210,14.496840477,57934.000000000,1718097927.313923836
1718097927.314931,,,,14.482366562,14.488017082,57935.000000000,1718097927.314930916
1718097927.315938,,,,14.528380394,14.534271240,57936.000000000,1718097927.315937996
1718097927.316945,,,,14.611656189,14.618845940,57937.000000000,1718097927.316945076
1718097927.317952,,,,14.627739906,14.632837296,57938.000000000,1718097927.317952156
1718097927.318959,,,,14.568888664,14.571822166,57939.000000000,1718097927.318959236
1718097927.319966,,,,14.501623154,14.504341125,57940.000000000,1718097927.319966316
1718097927.320973,,,,14.802923203,14.806362152,57941.000000000,1718097927.320973396
1718097927.321980,,,,15.041429520,15.045372963,57942.000000000,1718097927.321980476
1718097927.322988,,,,14.844104767,14.850885391,57943.000000000,1718097927.322987556
1718097927.323995,,,,14.650674820,14.656325340,57944.000000000,1718097927.323994637
1718097927.325002,,,,14.413346291,14.419477463,57945.000000000,1718097927.325001717
1718097927.325513,64.220504761,11691.000000000,1718097927.325512648,,,,
1718097927.326009,,,,14.265304565,14.269897461,57946.000000000,1718097927.326008797
1718097927.327016,,,,14.289176941,14.296125412,57947.000000000,1718097927.327015877
1718097927.328023,,,,14.366226196,14.373896599,57948.000000000,1718097927.328022957
1718097927.329030,,,,14.358269691,14.366179466,57949.000000000,1718097927.329030037
1718097927.330037,,,,14.596054077,14.602787018,57950.000000000,1718097927.330037117
1718097927.330513,66.756538391,11692.000000000,1718097927.330512762,,,,
1718097927.331044,,,,14.945892334,14.950918198,57951.000000000,1718097927.331044197
1718097927.332051,,,,14.818140984,14.824320793,57952.000000000,1718097927.332051277
1718097927.333058,,,,14.737893105,14.742702484,57953.000000000,1718097927.333058357
1718097927.334065,,,,14.639159203,14.644160271,57954.000000000,1718097927.334065437
1718097927.335073,,,,14.476380348,14.480372429,57955.000000000,1718097927.335072517
1718097927.335513,69.374961853,11693.000000000,1718097927.335512638,,,,
1718097927.336080,,,,14.381564140,14.386373520,57956.000000000,1718097927.336079597
1718097927.337087,,,,14.505421638,14.511264801,57957.000000000,1718097927.337086678
1718097927.338094,,,,14.653727531,14.657887459,57958.000000000,1718097927.338093758
1718097927.339101,,,,14.905744553,14.910241127,57959.000000000,1718097927.339100838
1718097927.340108,,,,14.839993477,14.844635010,57960.000000000,1718097927.340107918
1718097927.340513,72.109619141,11694.000000000,1718097927.340512753,,,,
1718097927.341115,,,,14.666108131,14.673971176,57961.000000000,1718097927.341114998
1718097927.342122,,,,14.661444664,14.667961121,57962.000000000,1718097927.342122078
1718097927.343129,,,,14.562902451,14.570644379,57963.000000000,1718097927.343129158
1718097927.344136,,,,14.575379372,14.582424164,57964.000000000,1718097927.344136238
1718097927.345143,,,,14.593482018,14.599036217,57965.000000000,1718097927.345143318
1718097927.345513,74.925956726,11695.000000000,1718097927.345512629,,,,
1718097927.346150,,,,14.633220673,14.638895988,57966.000000000,1718097927.346150398
1718097927.347157,,,,14.604612350,14.612595558,57967.000000000,1718097927.347157478
1718097927.348165,,,,14.525639534,14.535208702,57968.000000000,1718097927.348164558
1718097927.349172,,,,14.503425598,14.508331299,57969.000000000,1718097927.349171638
1718097927.350179,,,,14.549006462,14.552133560,57970.000000000,1718097927.350178719
1718097927.350513,77.721405029,11696.000000000,1718097927.350512743,,,,
1718097927.351186,,,,14.730657578,14.736956596,57971.000000000,1718097927.351185799
1718097927.352193,,,,14.747124672,14.751573563,57972.000000000,1718097927.352192879
1718097927.353200,,,,14.477221489,14.483064651,57973.000000000,1718097927.353199959
1718097927.354207,,,,14.337762833,14.343389511,57974.000000000,1718097927.354207039
1718097927.355214,,,,14.279872894,14.284562111,57975.000000000,1718097927.355214119
1718097927.355513,80.649177551,11697.000000000,1718097927.355512619,,,,
1718097927.356221,,,,14.486742020,14.493041992,57976.000000000,1718097927.356221199
1718097927.357228,,,,14.773401260,14.778403282,57977.000000000,1718097927.357228279
1718097927.358235,,,,14.725079536,14.729240417,57978.000000000,1718097927.358235359
1718097927.359242,,,,14.633990288,14.639569283,57979.000000000,1718097927.359242439
1718097927.360250,,,,14.589010239,14.594372749,57980.000000000,1718097927.360249519
1718097927.360513,83.759651184,11698.000000000,1718097927.360512733,,,,
1718097927.361257,,,,14.784291267,14.790062904,57981.000000000,1718097927.361256599
1718097927.362264,,,,14.690773964,14.695294380,57982.000000000,1718097927.362263680
1718097927.363271,,,,14.632716179,14.637165070,57983.000000000,1718097927.363270760
1718097927.364278,,,,14.541121483,14.544079781,57984.000000000,1718097927.364277840
1718097927.365285,,,,14.781286240,14.788066864,57985.000000000,1718097927.365284920
1718097927.365513,86.831565857,11699.000000000,1718097927.365512609,,,,
1718097927.366292,,,,15.034482002,15.039362907,57986.000000000,1718097927.366292000
1718097927.367299,,,,14.885622978,14.889373779,57987.000000000,1718097927.367299080
1718097927.368306,,,,14.846436501,14.852159500,57988.000000000,1718097927.368306160
1718097927.369313,,,,14.799845695,14.803380966,57989.000000000,1718097927.369313240
1718097927.369603,93.519783020,11701.000000000,1718097927.369603395,,,,
1718097927.370320,,,,14.664089203,14.666854858,57990.000000000,1718097927.370320320
1718097927.370513,90.119087219,11700.000000000,1718097927.370512724,,,,
1718097927.371327,,,,14.635216713,14.641684532,57991.000000000,1718097927.371327400
1718097927.372334,,,,14.841027260,14.846870422,57992.000000000,1718097927.372334480
1718097927.373342,,,,14.807538986,14.814872742,57993.000000000,1718097927.373341560
1718097927.374349,,,,14.827516556,14.831916809,57994.000000000,1718097927.374348640
1718097927.374604,96.965606689,11702.000000000,1718097927.374603510,,,,
1718097927.375356,,,,14.849874496,14.853217125,57995.000000000,1718097927.375355721
1718097927.376363,,,,14.632523537,14.633871078,57996.000000000,1718097927.376362801
1718097927.377370,,,,14.381059647,14.385580063,57997.000000000,1718097927.377369881
1718097927.378377,,,,14.359254837,14.366155624,57998.000000000,1718097927.378376961
1718097927.379384,,,,14.565498352,14.571053505,57999.000000000,1718097927.379384041
1718097927.379603,100.490051270,11703.000000000,1718097927.379603386,,,,
1718097927.380391,,,,14.618002892,14.623558044,58000.000000000,1718097927.380391121
1718097927.381398,,,,14.509340286,14.513836861,58001.000000000,1718097927.381398201
1718097927.382405,,,,14.485948563,14.491695404,58002.000000000,1718097927.382405281
1718097927.383412,,,,14.396734238,14.403009415,58003.000000000,1718097927.383412361
1718097927.384419,,,,14.360625267,14.366395950,58004.000000000,1718097927.384419441
1718097927.384604,104.075942993,11704.000000000,1718097927.384603500,,,,
1718097927.385427,,,,14.328290939,14.334061623,58005.000000000,1718097927.385426521
1718097927.386434,,,,14.461908340,14.465948105,58006.000000000,1718097927.386433601
1718097927.387441,,,,14.420366287,14.422145844,58007.000000000,1718097927.387440681
1718097927.388448,,,,14.161209106,14.165969849,58008.000000000,1718097927.388447762
1718097927.389455,,,,14.097188950,14.101661682,58009.000000000,1718097927.389454842
1718097927.389603,107.722976685,11705.000000000,1718097927.389603376,,,,
1718097927.390462,,,,14.217295647,14.222249031,58010.000000000,1718097927.390461922
1718097927.391469,,,,14.404258728,14.410245895,58011.000000000,1718097927.391469002
1718097927.392476,,,,14.489554405,14.495037079,58012.000000000,1718097927.392476082
1718097927.393483,,,,14.783498764,14.790086746,58013.000000000,1718097927.393483162
1718097927.394490,,,,15.046141624,15.053379059,58014.000000000,1718097927.394490242
1718097927.394603,111.464416504,11706.000000000,1718097927.394603491,,,,
1718097927.395497,,,,14.908701897,14.914472580,58015.000000000,1718097927.395497322
1718097927.396504,,,,14.684980392,14.691881180,58016.000000000,1718097927.396504402
1718097927.397511,,,,14.614565849,14.619470596,58017.000000000,1718097927.397511482
1718097927.398519,,,,14.688995361,14.693996429,58018.000000000,1718097927.398518562
1718097927.399526,,,,14.685965538,14.691617012,58019.000000000,1718097927.399525642
1718097927.399603,115.199378967,11707.000000000,1718097927.399603367,,,,
1718097927.400533,,,,14.836771965,14.840259552,58020.000000000,1718097927.400532722
1718097927.401540,,,,15.188965797,15.192693710,58021.000000000,1718097927.401539803
1718097927.402547,,,,14.846003532,14.850933075,58022.000000000,1718097927.402546883
1718097927.403554,,,,14.551651001,14.558071136,58023.000000000,1718097927.403553963
1718097927.404561,,,,14.744841576,14.750612259,58024.000000000,1718097927.404561043
1718097927.404603,119.061599731,11708.000000000,1718097927.404603481,,,,
1718097927.405568,,,,14.934953690,14.938898087,58025.000000000,1718097927.405568123
1718097927.406575,,,,14.840859413,14.843937874,58026.000000000,1718097927.406575203
1718097927.407582,,,,14.737436295,14.743568420,58027.000000000,1718097927.407582283
1718097927.408589,,,,14.637283325,14.643198967,58028.000000000,1718097927.408589363
1718097927.409596,,,,14.310524940,14.318771362,58029.000000000,1718097927.409596443
1718097927.410604,,,,13.972153664,13.980257034,58030.000000000,1718097927.410603523
1718097927.411611,,,,13.714632034,13.720186234,58031.000000000,1718097927.411610603
1718097927.412618,,,,13.795936584,13.803583145,58032.000000000,1718097927.412617683
1718097927.413625,,,,13.949676514,13.955615044,58033.000000000,1718097927.413624763
1718097927.414632,,,,13.906018257,13.910034180,58034.000000000,1718097927.414631844
1718097927.415639,,,,13.884886742,13.890225410,58035.000000000,1718097927.415638924
1718097927.416646,,,,14.577519417,14.584107399,58036.000000000,1718097927.416646004
1718097927.417653,,,,15.014239311,15.020755768,58037.000000000,1718097927.417653084
1718097927.418660,,,,14.875669479,14.883075714,58038.000000000,1718097927.418660164
1718097927.419603,131.023452759,11711.000000000,1718097927.419603348,,,,
1718097927.419667,,,,14.792104721,14.796193123,58039.000000000,1718097927.419667244
1718097927.420674,,,,14.577975273,14.584395409,58040.000000000,1718097927.420674324
1718097927.421681,,,,14.668416023,14.672071457,58041.000000000,1718097927.421681404
1718097927.422688,,,,14.702794075,14.709286690,58042.000000000,1718097927.422688484
1718097927.423696,,,,14.679955482,14.686615944,58043.000000000,1718097927.423695564
1718097927.424603,135.107269287,11712.000000000,1718097927.424603462,,,,
1718097927.424703,,,,14.644183159,14.652262688,58044.000000000,1718097927.424702644
1718097927.425710,,,,14.482606888,14.489820480,58045.000000000,1718097927.425709724
1718097927.426717,,,,14.601943970,14.608653069,58046.000000000,1718097927.426716805
1718097927.427724,,,,14.875164986,14.880647659,58047.000000000,1718097927.427723885
1718097927.428731,,,,14.821266174,14.825738907,58048.000000000,1718097927.428730965
1718097927.429603,139.365997314,11713.000000000,1718097927.429603338,,,,
1718097927.429738,,,,14.638149261,14.644376755,58049.000000000,1718097927.429738045
1718097927.430745,,,,14.613050461,14.617523193,58050.000000000,1718097927.430745125
1718097927.431752,,,,14.446666718,14.451187134,58051.000000000,1718097927.431752205
1718097927.432759,,,,14.306077003,14.309492111,58052.000000000,1718097927.432759285
1718097927.433766,,,,14.419716835,14.426978111,58053.000000000,1718097927.433766365
1718097927.434603,143.567413330,11714.000000000,1718097927.434603453,,,,
1718097927.434773,,,,14.843047142,14.848673820,58054.000000000,1718097927.434773445
1718097927.435781,,,,15.180792809,15.184976578,58055.000000000,1718097927.435780525
1718097927.436788,,,,14.854561806,14.856775284,58056.000000000,1718097927.436787605
1718097927.437795,,,,14.564993858,14.568721771,58057.000000000,1718097927.437794685
1718097927.438802,,,,14.676301956,14.682600975,58058.000000000,1718097927.438801765
1718097927.439603,147.860412598,11715.000000000,1718097927.439603329,,,,
1718097927.439809,,,,14.870525360,14.876969337,58059.000000000,1718097927.439808846
1718097927.440816,,,,14.809823036,14.816531181,58060.000000000,1718097927.440815926
1718097927.441823,,,,14.882738113,14.888339996,58061.000000000,1718097927.441823006
1718097927.442830,,,,14.970269203,14.975247383,58062.000000000,1718097927.442830086
1718097927.443837,,,,14.856822014,14.858842850,58063.000000000,1718097927.443837166
1718097927.444603,152.129364014,11716.000000000,1718097927.444603443,,,,
1718097927.444844,,,,14.862447739,14.867208481,58064.000000000,1718097927.444844246
1718097927.445851,,,,14.801456451,14.807203293,58065.000000000,1718097927.445851326
1718097927.446858,,,,14.720896721,14.725489616,58066.000000000,1718097927.446858406
1718097927.447865,,,,14.722314835,14.727629662,58067.000000000,1718097927.447865486
1718097927.448873,,,,14.669137955,14.674187660,58068.000000000,1718097927.448872566
1718097927.449603,156.341629028,11717.000000000,1718097927.449603319,,,,
1718097927.449880,,,,14.490300179,14.495109558,58069.000000000,1718097927.449879646
1718097927.450887,,,,14.492511749,14.498787880,58070.000000000,1718097927.450886726
1718097927.451894,,,,14.579634666,14.583843231,58071.000000000,1718097927.451893806
1718097927.452901,,,,14.532202721,14.537108421,58072.000000000,1718097927.452900887
1718097927.453908,,,,14.351104736,14.354760170,58073.000000000,1718097927.453907967
1718097927.454603,160.612533569,11718.000000000,1718097927.454603434,,,,
1718097927.454915,,,,14.216814995,14.219411850,58074.000000000,1718097927.454915047
1718097927.455922,,,,14.144020081,14.150415421,58075.000000000,1718097927.455922127
1718097927.456929,,,,13.939723015,13.946119308,58076.000000000,1718097927.456929207
1718097927.457936,,,,13.911908150,13.917534828,58077.000000000,1718097927.457936287
1718097927.458943,,,,14.104016304,14.110316277,58078.000000000,1718097927.458943367
1718097927.459603,164.827239990,11719.000000000,1718097927.459603310,,,,
1718097927.459950,,,,14.187990189,14.193087578,58079.000000000,1718097927.459950447
1718097927.460958,,,,14.834007263,14.840379715,58080.000000000,1718097927.460957527
1718097927.461965,,,,14.886175156,14.890936852,58081.000000000,1718097927.461964607
1718097927.462972,,,,14.399739265,14.406015396,58082.000000000,1718097927.462971687
1718097927.463979,,,,14.145798683,14.153204918,58083.000000000,1718097927.463978767
1718097927.464603,169.084304810,11720.000000000,1718097927.464603424,,,,
1718097927.464986,,,,14.166449547,14.172942162,58084.000000000,1718097927.464985847
1718097927.465993,,,,14.462076187,14.470948219,58085.000000000,1718097927.465992928
1718097927.467000,,,,14.290307045,14.297327995,58086.000000000,1718097927.467000008
1718097927.468007,,,,13.992156029,13.997469902,58087.000000000,1718097927.468007088
1718097927.469014,,,,13.911908150,13.918111801,58088.000000000,1718097927.469014168
1718097927.470021,,,,13.669002533,13.673234940,58089.000000000,1718097927.470021248
1718097927.471028,,,,13.980688095,13.983815193,58090.000000000,1718097927.471028328
1718097927.472035,,,,14.287542343,14.293144226,58091.000000000,1718097927.472035408
1718097927.473042,,,,14.612473488,14.617812157,58092.000000000,1718097927.473042488
1718097927.474050,,,,14.523499489,14.529126167,58093.000000000,1718097927.474049568
1718097927.475057,,,,14.664930344,14.673394203,58094.000000000,1718097927.475056648
1718097927.476064,,,,14.769699097,14.775855064,58095.000000000,1718097927.476063728
1718097927.477071,,,,14.539053917,14.543839455,58096.000000000,1718097927.477070808
1718097927.478078,,,,14.372909546,14.377911568,58097.000000000,1718097927.478077888
1718097927.479085,,,,14.412505150,14.417578697,58098.000000000,1718097927.479084969
1718097927.480092,,,,14.579778671,14.585429192,58099.000000000,1718097927.480092049
1718097927.481099,,,,14.867591858,14.873988152,58100.000000000,1718097927.481099129
1718097927.482106,,,,14.838502884,14.843769073,58101.000000000,1718097927.482106209
1718097927.483113,,,,14.719598770,14.726667404,58102.000000000,1718097927.483113289
1718097927.484120,,,,14.623748779,14.629062653,58103.000000000,1718097927.484120369
1718097927.485127,,,,14.451137543,14.456812859,58104.000000000,1718097927.485127449
1718097927.486135,,,,14.166858673,14.169335365,58105.000000000,1718097927.486134529
1718097927.487142,,,,14.128129005,14.132529259,58106.000000000,1718097927.487141609
1718097927.488149,,,,14.359807968,14.367189407,58107.000000000,1718097927.488148689
1718097927.489156,,,,14.441497803,14.447075844,58108.000000000,1718097927.489155769
1718097927.490163,,,,14.337282181,14.340456009,58109.000000000,1718097927.490162849
1718097927.491170,,,,14.035789490,14.039421082,58110.000000000,1718097927.491169930
1718097927.492177,,,,13.904432297,13.907438278,58111.000000000,1718097927.492177010
1718097927.493184,,,,14.172339439,14.177052498,58112.000000000,1718097927.493184090
1718097927.494191,,,,14.856533051,14.862280846,58113.000000000,1718097927.494191170
1718097927.494710,189.494110107,11725.000000000,1718097927.494710445,,,,
1718097927.495198,,,,14.855524063,14.861895561,58114.000000000,1718097927.495198250
1718097927.496205,,,,14.438853264,14.445801735,58115.000000000,1718097927.496205330
1718097927.497212,,,,14.439910889,14.448806763,58116.000000000,1718097927.497212410
1718097927.498219,,,,14.283118248,14.288793564,58117.000000000,1718097927.498219490
1718097927.499227,,,,14.025139809,14.032064438,58118.000000000,1718097927.499226570
1718097927.499711,193.569366455,11726.000000000,1718097927.499710560,,,,
1718097927.500234,,,,14.540928841,14.549176216,58119.000000000,1718097927.500233650
1718097927.501241,,,,14.924808502,14.931949615,58120.000000000,1718097927.501240730
1718097927.502248,,,,14.983371735,14.989262581,58121.000000000,1718097927.502247810
1718097927.503255,,,,14.497415543,14.501600266,58122.000000000,1718097927.503254890
1718097927.504262,,,,14.747557640,14.751116753,58123.000000000,1718097927.504261971
1718097927.504710,197.542343140,11727.000000000,1718097927.504710436,,,,
1718097927.505269,,,,14.817107201,14.821315765,58124.000000000,1718097927.505269051
1718097927.506276,,,,14.568528175,14.572567940,58125.000000000,1718097927.506276131
1718097927.507283,,,,14.368558884,14.374377251,58126.000000000,1718097927.507283211
1718097927.508290,,,,14.250711441,14.255184174,58127.000000000,1718097927.508290291
1718097927.509297,,,,14.019898415,14.022809029,58128.000000000,1718097927.509297371
1718097927.509711,201.494552612,11728.000000000,1718097927.509710550,,,,
1718097927.510304,,,,13.909048080,13.911380768,58129.000000000,1718097927.510304451
1718097927.511312,,,,13.778435707,13.783942223,58130.000000000,1718097927.511311531
1718097927.512319,,,,13.801731110,13.805650711,58131.000000000,1718097927.512318611
1718097927.513326,,,,14.022542953,14.027761459,58132.000000000,1718097927.513325691
1718097927.514333,,,,14.000017166,14.006004333,58133.000000000,1718097927.514332771
1718097927.514710,205.410064697,11729.000000000,1718097927.514710426,,,,
1718097927.515340,,,,14.072859764,14.079809189,58134.000000000,1718097927.515339851
1718097927.516347,,,,14.110122681,14.118874550,58135.000000000,1718097927.516346931
1718097927.517354,,,,14.312616348,14.318170547,58136.000000000,1718097927.517354012
1718097927.518361,,,,14.596823692,14.601007462,58137.000000000,1718097927.518361092
1718097927.519368,,,,14.559945107,14.565788269,58138.000000000,1718097927.519368172
1718097927.519711,209.289169312,11730.000000000,1718097927.519710541,,,,
1718097927.520375,,,,14.757053375,14.763016701,58139.000000000,1718097927.520375252
1718097927.521382,,,,15.021860123,15.025899887,58140.000000000,1718097927.521382332
1718097927.522389,,,,14.853143692,14.858242035,58141.000000000,1718097927.522389412
1718097927.523396,,,,14.624975204,14.632717133,58142.000000000,1718097927.523396492
1718097927.524404,,,,14.557877541,14.561918259,58143.000000000,1718097927.524403572
1718097927.524710,213.003112793,11731.000000000,1718097927.524710417,,,,
1718097927.525411,,,,14.513426781,14.518596649,58144.000000000,1718097927.525410652
1718097927.526418,,,,14.562132835,14.567447662,58145.000000000,1718097927.526417732
1718097927.527425,,,,14.650409698,14.652791023,58146.000000000,1718097927.527424812
1718097927.528432,,,,14.471740723,14.475203514,58147.000000000,1718097927.528431892
1718097927.529439,,,,14.263813972,14.268214226,58148.000000000,1718097927.529438972
1718097927.529711,216.584701538,11732.000000000,1718097927.529710531,,,,
1718097927.530446,,,,14.106516838,14.112239838,58149.000000000,1718097927.530446053
1718097927.531453,,,,14.514797211,14.521337509,58150.000000000,1718097927.531453133
1718097927.532460,,,,14.977505684,14.985440254,58151.000000000,1718097927.532460213
1718097927.533467,,,,14.817467690,14.824897766,58152.000000000,1718097927.533467293
1718097927.534474,,,,14.379352570,14.384882927,58153.000000000,1718097927.534474373
1718097927.534710,220.082824707,11733.000000000,1718097927.534710407,,,,
1718097927.535481,,,,14.188687325,14.192871094,58154.000000000,1718097927.535481453
1718097927.536489,,,,14.152722359,14.158012390,58155.000000000,1718097927.536488533
1718097927.537496,,,,14.162747383,14.168758392,58156.000000000,1718097927.537495613
1718097927.538503,,,,14.457412720,14.462462425,58157.000000000,1718097927.538502693
1718097927.539510,,,,14.696711540,14.699958801,58158.000000000,1718097927.539509773
1718097927.539711,223.336791992,11734.000000000,1718097927.539710522,,,,
1718097927.540517,,,,14.455008507,14.458735466,58159.000000000,1718097927.540516853
1718097927.541524,,,,14.381516457,14.391085625,58160.000000000,1718097927.541523933
1718097927.542531,,,,14.444550514,14.452052116,58161.000000000,1718097927.542531013
1718097927.543538,,,,14.317616463,14.321151733,58162.000000000,1718097927.543538094
1718097927.544545,,,,14.154141426,14.158469200,58163.000000000,1718097927.544545174
1718097927.544710,226.379379272,11735.000000000,1718097927.544710398,,,,
1718097927.545552,,,,13.971961975,13.975568771,58164.000000000,1718097927.545552254
1718097927.546559,,,,13.713141441,13.717037201,58165.000000000,1718097927.546559334
1718097927.547566,,,,13.555242538,13.560605049,58166.000000000,1718097927.547566414
1718097927.548573,,,,13.620368958,13.626836777,58167.000000000,1718097927.548573494
1718097927.549581,,,,13.947969437,13.953259468,58168.000000000,1718097927.549580574
1718097927.549711,229.114593506,11736.000000000,1718097927.549710512,,,,
1718097927.550588,,,,14.707289696,14.712676048,58169.000000000,1718097927.550587654
1718097927.551595,,,,15.066335678,15.074654579,58170.000000000,1718097927.551594734
1718097927.552602,,,,15.082707405,15.090160370,58171.000000000,1718097927.552601814
1718097927.553609,,,,14.723877907,14.730538368,58172.000000000,1718097927.553608894
1718097927.554616,,,,14.568528175,14.575043678,58173.000000000,1718097927.554615974
1718097927.554710,231.703750610,11737.000000000,1718097927.554710388,,,,
1718097927.555623,,,,14.354254723,14.360049248,58174.000000000,1718097927.555623055
1718097927.556630,,,,14.320164680,14.325527191,58175.000000000,1718097927.556630135
1718097927.557637,,,,14.456186295,14.462558746,58176.000000000,1718097927.557637215
1718097927.558644,,,,14.378030777,14.383128166,58177.000000000,1718097927.558644295
1718097927.559651,,,,14.177099228,14.183664322,58178.000000000,1718097927.559651375
1718097927.559711,233.986419678,11738.000000000,1718097927.559710503,,,,
1718097927.560658,,,,14.129836082,14.135582924,58179.000000000,1718097927.560658455
1718097927.561666,,,,14.180682182,14.186885834,58180.000000000,1718097927.561665535
1718097927.562673,,,,14.154477119,14.160416603,58181.000000000,1718097927.562672615
1718097927.563680,,,,14.119931221,14.126134872,58182.000000000,1718097927.563679695
1718097927.564687,,,,14.070335388,14.077837944,58183.000000000,1718097927.564686775
1718097927.564710,236.059371948,11739.000000000,1718097927.564710379,,,,
1718097927.565694,,,,14.075456619,14.082765579,58184.000000000,1718097927.565693855
1718097927.566701,,,,14.283407211,14.288360596,58185.000000000,1718097927.566700935
1718097927.567708,,,,14.525255203,14.533213615,58186.000000000,1718097927.567708015
1718097927.568715,,,,14.812995911,14.821219444,58187.000000000,1718097927.568715096
1718097927.569710,237.922882080,11740.000000000,1718097927.569710493,,,,
1718097927.569722,,,,14.807923317,14.810857773,58188.000000000,1718097927.569722176
1718097927.570729,,,,14.623652458,14.630024910,58189.000000000,1718097927.570729256
1718097927.571736,,,,14.334925652,14.340744972,58190.000000000,1718097927.571736336
1718097927.572743,,,,14.127479553,14.134501457,58191.000000000,1718097927.572743416
1718097927.573750,,,,14.048915863,14.056754112,58192.000000000,1718097927.573750496
1718097927.574758,,,,14.042112350,14.050478935,58193.000000000,1718097927.574757576
1718097927.575765,,,,14.328434944,14.334662437,58194.000000000,1718097927.575764656
1718097927.576772,,,,14.375457764,14.378608704,58195.000000000,1718097927.576771736
1718097927.577779,,,,14.392431259,14.396158218,58196.000000000,1718097927.577778816
1718097927.578786,,,,14.376131058,14.382454872,58197.000000000,1718097927.578785896
1718097927.579793,,,,14.330165863,14.332523346,58198.000000000,1718097927.579792976
1718097927.580800,,,,14.302230835,14.304924011,58199.000000000,1718097927.580800056
1718097927.581807,,,,14.545833588,14.552927017,58200.000000000,1718097927.581807137
1718097927.582814,,,,14.552973747,14.559585571,58201.000000000,1718097927.582814217
1718097927.583821,,,,14.266626358,14.271916389,58202.000000000,1718097927.583821297
1718097927.584828,,,,14.097549438,14.101445198,58203.000000000,1718097927.584828377
1718097927.585835,,,,14.072282791,14.074856758,58204.000000000,1718097927.585835457
1718097927.586843,,,,13.899190903,13.903326988,58205.000000000,1718097927.586842537
1718097927.587850,,,,13.758913994,13.765743256,58206.000000000,1718097927.587849617
1718097927.588857,,,,13.773097992,13.779830933,58207.000000000,1718097927.588856697
1718097927.589864,,,,13.928809166,13.936671257,58208.000000000,1718097927.589863777
1718097927.590871,,,,14.046175003,14.053893089,58209.000000000,1718097927.590870857
1718097927.591878,,,,14.127864838,14.131134987,58210.000000000,1718097927.591877937
1718097927.592885,,,,14.026341438,14.029587746,58211.000000000,1718097927.592885017
1718097927.593892,,,,13.856879234,13.861087799,58212.000000000,1718097927.593892097
1718097927.594899,,,,13.880414963,13.883902550,58213.000000000,1718097927.594899178
1718097927.595906,,,,14.177388191,14.184577942,58214.000000000,1718097927.595906258
1718097927.596913,,,,14.289705276,14.298385620,58215.000000000,1718097927.596913338
1718097927.597920,,,,14.388175964,14.394475937,58216.000000000,1718097927.597920418
1718097927.598927,,,,14.128465652,14.133034706,58217.000000000,1718097927.598927498
1718097927.599935,,,,14.002829552,14.009298325,58218.000000000,1718097927.599934578
1718097927.600942,,,,14.295234680,14.299756050,58219.000000000,1718097927.600941658
1718097927.601949,,,,14.878482819,14.883436203,58220.000000000,1718097927.601948738
1718097927.602956,,,,15.019047737,15.024121284,58221.000000000,1718097927.602955818
1718097927.603963,,,,14.962841034,14.966640472,58222.000000000,1718097927.603962898
1718097927.604970,,,,14.707482338,14.713589668,58223.000000000,1718097927.604969978
1718097927.605977,,,,14.472966194,14.477631569,58224.000000000,1718097927.605977058
1718097927.606984,,,,14.448012352,14.453206062,58225.000000000,1718097927.606984138
1718097927.607991,,,,14.379160881,14.382431030,58226.000000000,1718097927.607991219
1718097927.608998,,,,14.213833809,14.218739510,58227.000000000,1718097927.608998299
1718097927.610005,,,,14.086202621,14.092045784,58228.000000000,1718097927.610005379
1718097927.611012,,,,14.069541931,14.077332497,58229.000000000,1718097927.611012459
1718097927.612020,,,,13.994030952,13.998287201,58230.000000000,1718097927.612019539
1718097927.613027,,,,14.007710457,14.013793945,58231.000000000,1718097927.613026619
1718097927.614034,,,,13.952104568,13.955687523,58232.000000000,1718097927.614033699
1718097927.615041,,,,13.792619705,13.797740936,58233.000000000,1718097927.615040779
1718097927.616048,,,,13.879910469,13.887051582,58234.000000000,1718097927.616047859
1718097927.617055,,,,13.852023125,13.858996391,58235.000000000,1718097927.617054939
1718097927.618062,,,,13.900561333,13.907654762,58236.000000000,1718097927.618062019
1718097927.619069,,,,14.054902077,14.060769081,58237.000000000,1718097927.619069099
1718097927.620076,,,,14.013960838,14.020645142,58238.000000000,1718097927.620076180
1718097927.621083,,,,14.101612091,14.109234810,58239.000000000,1718097927.621083260
1718097927.622090,,,,14.351490021,14.360025406,58240.000000000,1718097927.622090340
1718097927.623097,,,,14.869563103,14.875309944,58241.000000000,1718097927.623097420
1718097927.624104,,,,15.417351723,15.423314095,58242.000000000,1718097927.624104500
1718097927.625112,,,,14.948969841,14.956542969,58243.000000000,1718097927.625111580
1718097927.626119,,,,14.404090881,14.408514977,58244.000000000,1718097927.626118660
1718097927.627126,,,,14.462605476,14.469914436,58245.000000000,1718097927.627125740
1718097927.628133,,,,14.524341583,14.529848099,58246.000000000,1718097927.628132820
1718097927.628871,248.532836914,11751.000000000,1718097927.628871202,,,,
1718097927.629140,,,,14.424332619,14.426329613,58247.000000000,1718097927.629139900
1718097927.630147,,,,14.251985550,14.255016327,58248.000000000,1718097927.630146980
1718097927.631154,,,,14.433732033,14.438950539,58249.000000000,1718097927.631154060
1718097927.632161,,,,14.641803741,14.651132584,58250.000000000,1718097927.632161140
1718097927.633168,,,,14.558262825,14.566725731,58251.000000000,1718097927.633168221
1718097927.633871,249.126388550,11752.000000000,1718097927.633871317,,,,
1718097927.634175,,,,14.401903152,14.408058167,58252.000000000,1718097927.634175301
1718097927.635182,,,,14.107911110,14.113730431,58253.000000000,1718097927.635182381
1718097927.636189,,,,13.904095650,13.910683632,58254.000000000,1718097927.636189461
1718097927.637197,,,,13.914601326,13.919987679,58255.000000000,1718097927.637196541
1718097927.638204,,,,14.166257858,14.170441628,58256.000000000,1718097927.638203621
1718097927.638871,249.751937866,11753.000000000,1718097927.638871193,,,,
1718097927.639211,,,,14.289224625,14.293169022,58257.000000000,1718097927.639210701
1718097927.640218,,,,14.377333641,14.383657455,58258.000000000,1718097927.640217781
1718097927.641225,,,,14.473207474,14.479146004,58259.000000000,1718097927.641224861
1718097927.642232,,,,14.547155380,14.555979729,58260.000000000,1718097927.642231941
1718097927.643239,,,,14.778353691,14.784845352,58261.000000000,1718097927.643239021
1718097927.643871,250.329360962,11754.000000000,1718097927.643871307,,,,
1718097927.644246,,,,14.683176994,14.689789772,58262.000000000,1718097927.644246101
1718097927.645253,,,,14.520374298,14.525809288,58263.000000000,1718097927.645253181
1718097927.646260,,,,14.358966827,14.364136696,58264.000000000,1718097927.646260262
1718097927.647267,,,,14.081538200,14.085554123,58265.000000000,1718097927.647267342
1718097927.648274,,,,14.008287430,14.012063026,58266.000000000,1718097927.648274422
1718097927.648871,250.906738281,11755.000000000,1718097927.648871183,,,,
1718097927.649282,,,,14.298359871,14.302905083,58267.000000000,1718097927.649281502
1718097927.650289,,,,14.561364174,14.565764427,58268.000000000,1718097927.650288582
1718097927.651296,,,,14.398441315,14.403442383,58269.000000000,1718097927.651295662
1718097927.652303,,,,14.359447479,14.366468430,58270.000000000,1718097927.652302742
1718097927.653310,,,,14.354398727,14.362693787,58271.000000000,1718097927.653309822
1718097927.653871,251.403900146,11756.000000000,1718097927.653871298,,,,
1718097927.654317,,,,14.187917709,14.193568230,58272.000000000,1718097927.654316902
1718097927.655324,,,,14.259438515,14.266603470,58273.000000000,1718097927.655323982
1718097927.656331,,,,14.270208359,14.274921417,58274.000000000,1718097927.656331062
1718097927.657338,,,,14.254029274,14.259679794,58275.000000000,1718097927.657338142
1718097927.658345,,,,14.202221870,14.209218979,58276.000000000,1718097927.658345222
1718097927.658871,251.804840088,11757.000000000,1718097927.658871174,,,,
1718097927.659352,,,,14.209385872,14.216888428,58277.000000000,1718097927.659352303
1718097927.660359,,,,14.360216141,14.366901398,58278.000000000,1718097927.660359383
1718097927.661366,,,,14.442627907,14.447100639,58279.000000000,1718097927.661366463
1718097927.662374,,,,14.493425369,14.496767998,58280.000000000,1718097927.662373543
1718097927.663381,,,,14.543958664,14.547469139,58281.000000000,1718097927.663380623
1718097927.663871,252.237823486,11758.000000000,1718097927.663871288,,,,
1718097927.664388,,,,14.265328407,14.269536972,58282.000000000,1718097927.664387703
1718097927.665395,,,,13.808173180,13.813608170,58283.000000000,1718097927.665394783
1718097927.666402,,,,13.839426041,13.844619751,58284.000000000,1718097927.666401863
1718097927.667409,,,,13.792450905,13.797909737,58285.000000000,1718097927.667408943
1718097927.668416,,,,13.691360474,13.696482658,58286.000000000,1718097927.668416023
1718097927.668871,252.622695923,11759.000000000,1718097927.668871164,,,,
1718097927.669423,,,,13.867553711,13.873709679,58287.000000000,1718097927.669423103
1718097927.670430,,,,14.143683434,14.150631905,58288.000000000,1718097927.670430183
1718097927.671437,,,,14.616608620,14.622620583,58289.000000000,1718097927.671437263
1718097927.672444,,,,15.089726448,15.094295502,58290.000000000,1718097927.672444344
1718097927.673451,,,,14.917067528,14.924689293,58291.000000000,1718097927.673451424
1718097927.673871,252.975448608,11760.000000000,1718097927.673871279,,,,
1718097927.674459,,,,14.701784134,14.709070206,58292.000000000,1718097927.674458504
1718097927.675466,,,,14.710006714,14.716041565,58293.000000000,1718097927.675465584
1718097927.676473,,,,14.589635849,14.596848488,58294.000000000,1718097927.676472664
1718097927.677480,,,,14.238739967,14.245327950,58295.000000000,1718097927.677479744
1718097927.678487,,,,14.104280472,14.109595299,58296.000000000,1718097927.678486824
1718097927.679494,,,,14.190201759,14.196549416,58297.000000000,1718097927.679493904
1718097927.680501,,,,14.135533333,14.139164925,58298.000000000,1718097927.680500984
1718097927.681508,,,,13.912004471,13.919482231,58299.000000000,1718097927.681508064
1718097927.682515,,,,13.477159500,13.483579636,58300.000000000,1718097927.682515144
1718097927.683522,,,,13.501127243,13.508052826,58301.000000000,1718097927.683522224
1718097927.684529,,,,14.236888885,14.242490768,58302.000000000,1718097927.684529305
1718097927.685536,,,,14.356442451,14.363727570,58303.000000000,1718097927.685536385
1718097927.686543,,,,14.051800728,14.058268547,58304.000000000,1718097927.686543465
1718097927.687551,,,,14.119858742,14.126711845,58305.000000000,1718097927.687550545
1718097927.688558,,,,14.308073044,14.311583519,58306.000000000,1718097927.688557625
1718097927.689565,,,,14.198279381,14.201934814,58307.000000000,1718097927.689564705
1718097927.690572,,,,14.092693329,14.099377632,58308.000000000,1718097927.690571785
1718097927.691579,,,,14.230445862,14.236649513,58309.000000000,1718097927.691578865
1718097927.692586,,,,14.625696182,14.631178856,58310.000000000,1718097927.692585945
1718097927.693593,,,,15.005031586,15.009817123,58311.000000000,1718097927.693593025
1718097927.694600,,,,15.050997734,15.053306580,58312.000000000,1718097927.694600105
1718097927.695607,,,,14.636682510,14.639616966,58313.000000000,1718097927.695607185
1718097927.696614,,,,14.292855263,14.299900055,58314.000000000,1718097927.696614265
1718097927.697621,,,,14.213136673,14.220013618,58315.000000000,1718097927.697621346
1718097927.698628,,,,14.248211861,14.253766060,58316.000000000,1718097927.698628426
1718097927.699636,,,,14.564200401,14.569730759,58317.000000000,1718097927.699635506
1718097927.700643,,,,14.587639809,14.590670586,58318.000000000,1718097927.700642586
1718097927.701650,,,,14.143154144,14.146232605,58319.000000000,1718097927.701649666
1718097927.702657,,,,13.593852043,13.596641541,58320.000000000,1718097927.702656746
1718097927.703664,,,,13.383112907,13.387993813,58321.000000000,1718097927.703663826
1718097927.704671,,,,13.463816643,13.472304344,58322.000000000,1718097927.704670906
1718097927.705678,,,,13.925971985,13.934892654,58323.000000000,1718097927.705677986
1718097927.706685,,,,14.323001862,14.332450867,58324.000000000,1718097927.706685066
1718097927.707692,,,,14.602473259,14.611201286,58325.000000000,1718097927.707692146
1718097927.708699,,,,15.345878601,15.351288795,58326.000000000,1718097927.708699226
1718097927.709706,,,,15.088812828,15.094007492,58327.000000000,1718097927.709706306
1718097927.710713,,,,14.707650185,14.712532043,58328.000000000,1718097927.710713387
1718097927.711720,,,,14.783137321,14.788091660,58329.000000000,1718097927.711720467
1718097927.712728,,,,14.702842712,14.709046364,58330.000000000,1718097927.712727547
1718097927.713735,,,,14.376756668,14.380676270,58331.000000000,1718097927.713734627
1718097927.714742,,,,14.208448410,14.213089943,58332.000000000,1718097927.714741707
1718097927.715749,,,,14.192822456,14.198136330,58333.000000000,1718097927.715748787
1718097927.716756,,,,14.054757118,14.058461189,58334.000000000,1718097927.716755867
1718097927.717763,,,,13.863995552,13.868757248,58335.000000000,1718097927.717762947
1718097927.718770,,,,13.865462303,13.872987747,58336.000000000,1718097927.718770027
1718097927.719777,,,,13.829930305,13.835941315,58337.000000000,1718097927.719777107
1718097927.720784,,,,14.051078796,14.059133530,58338.000000000,1718097927.720784187
1718097927.721791,,,,14.459287643,14.466068268,58339.000000000,1718097927.721791267
1718097927.722798,,,,14.850186348,14.854924202,58340.000000000,1718097927.722798347
1718097927.723424,256.198181152,11771.000000000,1718097927.723423958,,,,
1718097927.723805,,,,14.834247589,14.838528633,58341.000000000,1718097927.723805428
1718097927.724813,,,,14.612017632,14.617282867,58342.000000000,1718097927.724812508
1718097927.725820,,,,14.621200562,14.627404213,58343.000000000,1718097927.725819588
1718097927.726827,,,,14.712602615,14.718181610,58344.000000000,1718097927.726826668
1718097927.727834,,,,14.492919922,14.497849464,58345.000000000,1718097927.727833748
1718097927.728424,256.534820557,11772.000000000,1718097927.728424072,,,,
1718097927.728841,,,,14.160511971,14.164335251,58346.000000000,1718097927.728840828
1718097927.729848,,,,13.788124084,13.791418076,58347.000000000,1718097927.729847908
1718097927.730855,,,,13.747903824,13.754034996,58348.000000000,1718097927.730854988
1718097927.731862,,,,14.066392899,14.071826935,58349.000000000,1718097927.731862068
1718097927.732869,,,,14.026678085,14.031318665,58350.000000000,1718097927.732869148
1718097927.733424,256.935577393,11773.000000000,1718097927.733423948,,,,
1718097927.733876,,,,14.260328293,14.268022537,58351.000000000,1718097927.733876228
1718097927.734883,,,,14.605622292,14.611465454,58352.000000000,1718097927.734883308
1718097927.735890,,,,14.219723701,14.224412918,58353.000000000,1718097927.735890388
1718097927.736897,,,,13.795576096,13.799592018,58354.000000000,1718097927.736897469
1718097927.737905,,,,13.645659447,13.649699211,58355.000000000,1718097927.737904549
1718097927.738424,257.368408203,11774.000000000,1718097927.738424063,,,,
1718097927.738912,,,,14.123537064,14.130390167,58356.000000000,1718097927.738911629
1718097927.739919,,,,14.736571312,14.741067886,58357.000000000,1718097927.739918709
1718097927.740926,,,,14.826194763,14.832013130,58358.000000000,1718097927.740925789
1718097927.741933,,,,14.862062454,14.868891716,58359.000000000,1718097927.741932869
1718097927.742940,,,,14.366635323,14.369353294,58360.000000000,1718097927.742939949
1718097927.743424,257.849334717,11775.000000000,1718097927.743423939,,,,
1718097927.743947,,,,14.043650627,14.049637794,58361.000000000,1718097927.743947029
1718097927.744954,,,,14.247755051,14.253622055,58362.000000000,1718097927.744954109
1718097927.745961,,,,14.240037918,14.244823456,58363.000000000,1718097927.745961189
1718097927.746968,,,,14.320020676,14.325190544,58364.000000000,1718097927.746968269
1718097927.747975,,,,14.483111382,14.490445137,58365.000000000,1718097927.747975349
1718097927.748424,258.282135010,11776.000000000,1718097927.748424053,,,,
1718097927.748982,,,,14.565161705,14.571918488,58366.000000000,1718097927.748982430
1718097927.749990,,,,14.746043205,14.752319336,58367.000000000,1718097927.749989510
1718097927.750997,,,,14.490636826,14.495974541,58368.000000000,1718097927.750996590
1718097927.752004,,,,14.429838181,14.438253403,58369.000000000,1718097927.752003670
1718097927.753011,,,,14.344253540,14.350601196,58370.000000000,1718097927.753010750
1718097927.753424,258.763031006,11777.000000000,1718097927.753423929,,,,
1718097927.754018,,,,14.215540886,14.219003677,58371.000000000,1718097927.754017830
1718097927.755025,,,,14.120003700,14.123562813,58372.000000000,1718097927.755024910
1718097927.756032,,,,14.176979065,14.180779457,58373.000000000,1718097927.756031990
1718097927.757039,,,,14.316727638,14.321079254,58374.000000000,1718097927.757039070
1718097927.758046,,,,14.347018242,14.352308273,58375.000000000,1718097927.758046150
1718097927.758424,259.147705078,11778.000000000,1718097927.758424044,,,,
1718097927.759053,,,,14.295499802,14.299275398,58376.000000000,1718097927.759053230
1718097927.760060,,,,14.144284248,14.151545525,58377.000000000,1718097927.760060310
1718097927.761067,,,,14.532707214,14.538887024,58378.000000000,1718097927.761067390
1718097927.762074,,,,14.600622177,14.603940964,58379.000000000,1718097927.762074471
1718097927.763082,,,,14.407744408,14.412914276,58380.000000000,1718097927.763081551
1718097927.763424,259.500305176,11779.000000000,1718097927.763423920,,,,
1718097927.764089,,,,14.376299858,14.381541252,58381.000000000,1718097927.764088631
1718097927.765096,,,,14.624758720,14.630698204,58382.000000000,1718097927.765095711
1718097927.766103,,,,14.655962944,14.663440704,58383.000000000,1718097927.766102791
1718097927.767110,,,,14.507272720,14.514701843,58384.000000000,1718097927.767109871
1718097927.768117,,,,14.335286140,14.340095520,58385.000000000,1718097927.768116951
1718097927.768424,259.820922852,11780.000000000,1718097927.768424034,,,,
1718097927.769124,,,,14.360095978,14.366612434,58386.000000000,1718097927.769124031
1718097927.770131,,,,14.247682571,14.255088806,58387.000000000,1718097927.770131111
1718097927.771138,,,,14.121374130,14.126880646,58388.000000000,1718097927.771138191
1718097927.772145,,,,13.949074745,13.954076767,58389.000000000,1718097927.772145271
1718097927.773152,,,,13.841349602,13.847721100,58390.000000000,1718097927.773152351
1718097927.774159,,,,13.792234421,13.799712181,58391.000000000,1718097927.774159431
1718097927.775167,,,,13.747903824,13.751943588,58392.000000000,1718097927.775166512
1718097927.776174,,,,13.738287926,13.743601799,58393.000000000,1718097927.776173592
1718097927.777181,,,,13.969630241,13.976482391,58394.000000000,1718097927.777180672
1718097927.778188,,,,14.598987579,14.604205132,58395.000000000,1718097927.778187752
1718097927.779195,,,,14.604204178,14.608291626,58396.000000000,1718097927.779194832
1718097927.780202,,,,14.540424347,14.544560432,58397.000000000,1718097927.780201912
1718097927.781209,,,,14.408009529,14.410486221,58398.000000000,1718097927.781208992
1718097927.782216,,,,14.338123322,14.344206810,58399.000000000,1718097927.782216072
1718097927.783223,,,,14.327497482,14.333652496,58400.000000000,1718097927.783223152
1718097927.784230,,,,14.095578194,14.102382660,58401.000000000,1718097927.784230232
1718097927.785237,,,,14.085913658,14.094641685,58402.000000000,1718097927.785237312
1718097927.786244,,,,14.032855988,14.041512489,58403.000000000,1718097927.786244392
1718097927.787251,,,,14.097718239,14.104739189,58404.000000000,1718097927.787251472
1718097927.788259,,,,14.375145912,14.380989075,58405.000000000,1718097927.788258553
1718097927.788620,261.407653809,11785.000000000,1718097927.788620472,,,,
1718097927.789266,,,,14.339277267,14.345745087,58406.000000000,1718097927.789265633
1718097927.790273,,,,14.567926407,14.574058533,58407.000000000,1718097927.790272713
1718097927.791280,,,,14.592640877,14.603267670,58408.000000000,1718097927.791279793
1718097927.792287,,,,14.497199059,14.504532814,58409.000000000,1718097927.792286873
1718097927.793294,,,,14.518547058,14.521770477,58410.000000000,1718097927.793293953
1718097927.793621,261.824340820,11786.000000000,1718097927.793620586,,,,
1718097927.794301,,,,14.319780350,14.324950218,58411.000000000,1718097927.794301033
1718097927.795308,,,,14.373078346,14.378728867,58412.000000000,1718097927.795308113
1718097927.796315,,,,14.397238731,14.399163246,58413.000000000,1718097927.796315193
1718097927.797322,,,,14.449166298,14.453110695,58414.000000000,1718097927.797322273
1718097927.798329,,,,14.720920563,14.727196693,58415.000000000,1718097927.798329353
1718097927.798620,262.128845215,11787.000000000,1718097927.798620462,,,,
1718097927.799336,,,,14.609420776,14.616874695,58416.000000000,1718097927.799336433
1718097927.800344,,,,14.444526672,14.452220917,58417.000000000,1718097927.800343513
1718097927.801351,,,,14.517272949,14.523476601,58418.000000000,1718097927.801350594
1718097927.802358,,,,14.549824715,14.554297447,58419.000000000,1718097927.802357674
1718097927.803365,,,,14.270954132,14.273912430,58420.000000000,1718097927.803364754
1718097927.803621,262.497467041,11788.000000000,1718097927.803620577,,,,
1718097927.804372,,,,14.330695152,14.333748817,58421.000000000,1718097927.804371834
1718097927.805379,,,,14.143923759,14.148997307,58422.000000000,1718097927.805378914
1718097927.806386,,,,14.182027817,14.185683250,58423.000000000,1718097927.806385994
1718097927.807393,,,,14.386396408,14.390557289,58424.000000000,1718097927.807393074
1718097927.808400,,,,14.692481041,14.695510864,58425.000000000,1718097927.808400154
1718097927.808620,262.866088867,11789.000000000,1718097927.808620453,,,,
1718097927.809407,,,,14.400556564,14.405365944,58426.000000000,1718097927.809407234
1718097927.810414,,,,14.337137222,14.340841293,58427.000000000,1718097927.810414314
1718097927.811421,,,,14.375770569,14.381109238,58428.000000000,1718097927.811421394
1718097927.812428,,,,14.262660027,14.268574715,58429.000000000,1718097927.812428474
1718097927.813436,,,,14.110675812,14.115148544,58430.000000000,1718097927.813435555
1718097927.813621,263.250701904,11790.000000000,1718097927.813620567,,,,
1718097927.814443,,,,13.847888947,13.852986336,58431.000000000,1718097927.814442635
1718097927.815450,,,,13.613829613,13.619095802,58432.000000000,1718097927.815449715
1718097927.816457,,,,13.640563011,13.646838188,58433.000000000,1718097927.816456795
1718097927.817464,,,,13.767280579,13.771248817,58434.000000000,1718097927.817463875
1718097927.818471,,,,14.127071381,14.131616592,58435.000000000,1718097927.818470955
1718097927.818620,263.619293213,11791.000000000,1718097927.818620443,,,,
1718097927.819478,,,,14.842325211,14.846942902,58436.000000000,1718097927.819478035
1718097927.820485,,,,14.833333969,14.836989403,58437.000000000,1718097927.820485115
1718097927.821492,,,,14.276844025,14.282254219,58438.000000000,1718097927.821492195
1718097927.822499,,,,13.827429771,13.833128929,58439.000000000,1718097927.822499275
1718097927.823506,,,,13.878083229,13.882364273,58440.000000000,1718097927.823506355
1718097927.823621,264.068054199,11792.000000000,1718097927.823620558,,,,
1718097927.824513,,,,14.513162613,14.519990921,58441.000000000,1718097927.824513435
1718097927.825521,,,,14.411446571,14.420030594,58442.000000000,1718097927.825520515
1718097927.826528,,,,13.796321869,13.802260399,58443.000000000,1718097927.826527596
1718097927.827535,,,,13.667200089,13.675014496,58444.000000000,1718097927.827534676
1718097927.828542,,,,14.005714417,14.013168335,58445.000000000,1718097927.828541756
1718097927.828620,264.548797607,11793.000000000,1718097927.828620434,,,,
1718097927.829549,,,,14.618123055,14.626419067,58446.000000000,1718097927.829548836
1718097927.830556,,,,14.472077370,14.478137016,58447.000000000,1718097927.830555916
1718097927.831563,,,,14.172508240,14.177221298,58448.000000000,1718097927.831562996
1718097927.832570,,,,14.480082512,14.485565186,58449.000000000,1718097927.832570076
1718097927.833577,,,,14.810976982,14.817372322,58450.000000000,1718097927.833577156
1718097927.833621,264.981475830,11794.000000000,1718097927.833620548,,,,
1718097927.834584,,,,15.129633904,15.134947777,58451.000000000,1718097927.834584236
1718097927.835591,,,,15.114464760,15.118672371,58452.000000000,1718097927.835591316
1718097927.836598,,,,14.889108658,14.891537666,58453.000000000,1718097927.836598396
1718097927.837605,,,,14.621007919,14.626202583,58454.000000000,1718097927.837605476
1718097927.838613,,,,14.581966400,14.589756966,58455.000000000,1718097927.838612556
1718097927.838620,265.478271484,11795.000000000,1718097927.838620424,,,,
1718097927.839620,,,,14.481909752,14.487993240,58456.000000000,1718097927.839619637
1718097927.840627,,,,14.523139000,14.528717995,58457.000000000,1718097927.840626717
1718097927.841634,,,,14.342354774,14.346899033,58458.000000000,1718097927.841633797
1718097927.842641,,,,13.893757820,13.900562286,58459.000000000,1718097927.842640877
1718097927.843621,265.958984375,11796.000000000,1718097927.843620539,,,,
1718097927.843648,,,,13.760957718,13.767474174,58460.000000000,1718097927.843647957
1718097927.844655,,,,13.689269066,13.693405151,58461.000000000,1718097927.844655037
1718097927.845662,,,,13.876521111,13.880753517,58462.000000000,1718097927.845662117
1718097927.846669,,,,14.177388191,14.181572914,58463.000000000,1718097927.846669197
1718097927.847676,,,,14.104857445,14.109018326,58464.000000000,1718097927.847676277
1718097927.848620,266.423706055,11797.000000000,1718097927.848620415,,,,
1718097927.848683,,,,14.495516777,14.502297401,58465.000000000,1718097927.848683357
1718097927.849690,,,,13.990281105,13.991580009,58466.000000000,1718097927.849690437
1718097927.850698,,,,13.472374916,13.473169327,58467.000000000,1718097927.850697517
1718097927.851705,,,,13.850004196,13.854116440,58468.000000000,1718097927.851704597
1718097927.852712,,,,14.217944145,14.222658157,58469.000000000,1718097927.852711678
1718097927.853621,266.824340820,11798.000000000,1718097927.853620529,,,,
1718097927.853719,,,,14.796360016,14.804390907,58470.000000000,1718097927.853718758
1718097927.854726,,,,15.022100449,15.029170036,58471.000000000,1718097927.854725838
1718097927.855733,,,,14.777055740,14.780927658,58472.000000000,1718097927.855732918
1718097927.856740,,,,14.787537575,14.794005394,58473.000000000,1718097927.856739998
1718097927.857747,,,,14.722771645,14.728157997,58474.000000000,1718097927.857747078
1718097927.858620,267.224975586,11799.000000000,1718097927.858620405,,,,
1718097927.858754,,,,14.526312828,14.534680367,58475.000000000,1718097927.858754158
1718097927.859761,,,,14.616921425,14.625096321,58476.000000000,1718097927.859761238
1718097927.860768,,,,14.665964127,14.670052528,58477.000000000,1718097927.860768318
1718097927.861775,,,,14.613315582,14.617499352,58478.000000000,1718097927.861775398
1718097927.862782,,,,14.567445755,14.569779396,58479.000000000,1718097927.862782478
1718097927.863621,267.561492920,11800.000000000,1718097927.863620520,,,,
1718097927.863790,,,,14.563070297,14.566725731,58480.000000000,1718097927.863789558
1718097927.864797,,,,14.426280022,14.430295944,58481.000000000,1718097927.864796638
1718097927.865804,,,,14.203328133,14.207968712,58482.000000000,1718097927.865803719
1718097927.866811,,,,14.188543320,14.194722176,58483.000000000,1718097927.866810799
1718097927.867818,,,,14.483376503,14.489771843,58484.000000000,1718097927.867817879
1718097927.868825,,,,14.501839638,14.508667946,58485.000000000,1718097927.868824959
1718097927.869832,,,,14.391854286,14.394980431,58486.000000000,1718097927.869832039
1718097927.870839,,,,14.241215706,14.243380547,58487.000000000,1718097927.870839119
1718097927.871846,,,,14.216982841,14.220565796,58488.000000000,1718097927.871846199
1718097927.872829,267.817871094,11801.000000000,1718097927.872828960,,,,
1718097927.872853,,,,14.294898033,14.300741196,58489.000000000,1718097927.872853279
1718097927.873860,,,,14.496141434,14.501119614,58490.000000000,1718097927.873860359
1718097927.874867,,,,14.576942444,14.578193665,58491.000000000,1718097927.874867439
1718097927.875875,,,,14.412625313,14.418660164,58492.000000000,1718097927.875874519
1718097927.876882,,,,14.370433807,14.376564980,58493.000000000,1718097927.876881599
1718097927.877829,268.058258057,11802.000000000,1718097927.877829075,,,,
1718097927.877889,,,,14.289825439,14.293673515,58494.000000000,1718097927.877888680
1718097927.878896,,,,14.291388512,14.296774864,58495.000000000,1718097927.878895760
1718097927.879903,,,,14.339926720,14.345240593,58496.000000000,1718097927.879902840
1718097927.880910,,,,14.079158783,14.086708069,58497.000000000,1718097927.880909920
1718097927.881917,,,,13.989704132,13.996123314,58498.000000000,1718097927.881917000
1718097927.882829,268.106353760,11803.000000000,1718097927.882828951,,,,
1718097927.882924,,,,13.952296257,13.957802773,58499.000000000,1718097927.882924080
1718097927.883931,,,,13.924794197,13.929916382,58500.000000000,1718097927.883931160
1718097927.884938,,,,13.686287880,13.691938400,58501.000000000,1718097927.884938240
1718097927.885945,,,,14.069541931,14.075601578,58502.000000000,1718097927.885945320
1718097927.886952,,,,14.448493004,14.453879356,58503.000000000,1718097927.886952400
1718097927.887829,268.122344971,11804.000000000,1718097927.887829065,,,,
1718097927.887959,,,,14.594371796,14.600839615,58504.000000000,1718097927.887959480
1718097927.888967,,,,14.605958939,14.612907410,58505.000000000,1718097927.888966560
1718097927.889974,,,,14.439863205,14.444479942,58506.000000000,1718097927.889973640
1718097927.890981,,,,14.368799210,14.374209404,58507.000000000,1718097927.890980721
1718097927.891988,,,,14.303192139,14.307111740,58508.000000000,1718097927.891987801
1718097927.892995,,,,13.716194153,13.719441414,58509.000000000,1718097927.892994881
1718097927.894002,,,,13.312481880,13.317771912,58510.000000000,1718097927.894001961
1718097927.895009,,,,13.388617516,13.394412994,58511.000000000,1718097927.895009041
1718097927.896016,,,,13.577696800,13.584020615,58512.000000000,1718097927.896016121
1718097927.897023,,,,13.997925758,14.006220818,58513.000000000,1718097927.897023201
1718097927.898030,,,,14.823958397,14.833576202,58514.000000000,1718097927.898030281
1718097927.899037,,,,15.503175735,15.510461807,58515.000000000,1718097927.899037361
1718097927.900044,,,,15.234066010,15.239380836,58516.000000000,1718097927.900044441
1718097927.901052,,,,14.338988304,14.343653679,58517.000000000,1718097927.901051521
1718097927.902059,,,,14.188807487,14.193472862,58518.000000000,1718097927.902058601
1718097927.903066,,,,14.349710464,14.358510971,58519.000000000,1718097927.903065681
1718097927.904073,,,,14.269174576,14.273936272,58520.000000000,1718097927.904072762
1718097927.905080,,,,14.474432945,14.479819298,58521.000000000,1718097927.905079842
1718097927.906087,,,,14.667118073,14.672095299,58522.000000000,1718097927.906086922
1718097927.907094,,,,14.742774010,14.748857498,58523.000000000,1718097927.907094002
1718097927.908101,,,,14.692337036,14.700078964,58524.000000000,1718097927.908101082
1718097927.909108,,,,14.661852837,14.670604706,58525.000000000,1718097927.909108162
1718097927.910115,,,,14.657814026,14.661349297,58526.000000000,1718097927.910115242
1718097927.911122,,,,14.519845963,14.522995949,58527.000000000,1718097927.911122322
1718097927.912129,,,,14.140942574,14.145198822,58528.000000000,1718097927.912129402
1718097927.913136,,,,13.814063072,13.819498062,58529.000000000,1718097927.913136482
1718097927.914144,,,,13.672801018,13.680110931,58530.000000000,1718097927.914143562
1718097927.915151,,,,13.461941719,13.468770027,58531.000000000,1718097927.915150642
1718097927.916158,,,,13.648327827,13.654218674,58532.000000000,1718097927.916157722
1718097927.917165,,,,14.530615807,14.535954475,58533.000000000,1718097927.917164803
1718097927.918172,,,,14.438780785,14.444143295,58534.000000000,1718097927.918171883
1718097927.919179,,,,14.833382607,14.841677666,58535.000000000,1718097927.919178963
1718097927.920186,,,,14.749312401,14.753881454,58536.000000000,1718097927.920186043
1718097927.921193,,,,14.370506287,14.376108170,58537.000000000,1718097927.921193123
1718097927.922200,,,,14.528019905,14.534872055,58538.000000000,1718097927.922200203
1718097927.922829,268.555023193,11811.000000000,1718097927.922828913,,,,
1718097927.923207,,,,14.667647362,14.673418045,58539.000000000,1718097927.923207283
1718097927.924214,,,,14.706496239,14.711209297,58540.000000000,1718097927.924214363
1718097927.925221,,,,14.129066467,14.133275032,58541.000000000,1718097927.925221443
1718097927.926229,,,,13.602723122,13.608493805,58542.000000000,1718097927.926228523
1718097927.927236,,,,13.361139297,13.368376732,58543.000000000,1718097927.927235603
1718097927.927829,268.827453613,11812.000000000,1718097927.927829027,,,,
1718097927.928243,,,,13.527019501,13.532693863,58544.000000000,1718097927.928242683
1718097927.929250,,,,13.933568954,13.939027786,58545.000000000,1718097927.929249763
1718097927.930257,,,,14.204962730,14.210757256,58546.000000000,1718097927.930256844
1718097927.931264,,,,14.321991920,14.328989029,58547.000000000,1718097927.931263924
1718097927.932271,,,,14.501959801,14.510182381,58548.000000000,1718097927.932271004
1718097927.932829,269.179962158,11813.000000000,1718097927.932828903,,,,
1718097927.933278,,,,14.515998840,14.519269943,58549.000000000,1718097927.933278084
1718097927.934285,,,,14.577663422,14.580573082,58550.000000000,1718097927.934285164
1718097927.935292,,,,14.625095367,14.632380486,58551.000000000,1718097927.935292244
1718097927.936299,,,,15.019648552,15.026188850,58552.000000000,1718097927.936299324
1718097927.937306,,,,14.748855591,14.750659943,58553.000000000,1718097927.937306404
1718097927.937829,269.564575195,11814.000000000,1718097927.937829018,,,,
1718097927.938313,,,,14.287757874,14.293289185,58554.000000000,1718097927.938313484
1718097927.939321,,,,14.407768250,14.415751457,58555.000000000,1718097927.939320564
1718097927.940328,,,,14.483760834,14.489387512,58556.000000000,1718097927.940327644
1718097927.941335,,,,14.633966446,14.639136314,58557.000000000,1718097927.941334724
1718097927.942342,,,,14.941252708,14.949908257,58558.000000000,1718097927.942341805
1718097927.942829,269.933105469,11815.000000000,1718097927.942828894,,,,
1718097927.943349,,,,14.851412773,14.855597496,58559.000000000,1718097927.943348885
1718097927.944356,,,,14.633244514,14.636034966,58560.000000000,1718097927.944355965
1718097927.945363,,,,14.348364830,14.353751183,58561.000000000,1718097927.945363045
1718097927.946370,,,,14.536554337,14.545738220,58562.000000000,1718097927.946370125
1718097927.947377,,,,14.682552338,14.689476967,58563.000000000,1718097927.947377205
1718097927.947829,270.365753174,11816.000000000,1718097927.947829008,,,,
1718097927.948384,,,,14.623941422,14.629615784,58564.000000000,1718097927.948384285
1718097927.949391,,,,14.399595261,14.406904221,58565.000000000,1718097927.949391365
1718097927.950398,,,,14.097381592,14.103055954,58566.000000000,1718097927.950398445
1718097927.951406,,,,13.624118805,13.626620293,58567.000000000,1718097927.951405525
1718097927.952413,,,,13.373664856,13.379364014,58568.000000000,1718097927.952412605
1718097927.952829,270.750396729,11817.000000000,1718097927.952828884,,,,
1718097927.953420,,,,13.941309929,13.948283195,58569.000000000,1718097927.953419685
1718097927.954427,,,,14.544415474,14.553094864,58570.000000000,1718097927.954426765
1718097927.955434,,,,15.033784866,15.039362907,58571.000000000,1718097927.955433846
1718097927.956441,,,,14.674907684,14.678730965,58572.000000000,1718097927.956440926
1718097927.957448,,,,13.980496407,13.983862877,58573.000000000,1718097927.957448006
1718097927.957829,271.070861816,11818.000000000,1718097927.957828999,,,,
1718097927.958455,,,,13.675181389,13.679894447,58574.000000000,1718097927.958455086
1718097927.959462,,,,14.171618462,14.178639412,58575.000000000,1718097927.959462166
1718097927.960469,,,,14.434574127,14.442148209,58576.000000000,1718097927.960469246
1718097927.961476,,,,14.451377869,14.459337234,58577.000000000,1718097927.961476326
1718097927.962483,,,,14.724551201,14.730032921,58578.000000000,1718097927.962483406
1718097927.962829,271.343292236,11819.000000000,1718097927.962828875,,,,
1718097927.963490,,,,14.987722397,14.992315292,58579.000000000,1718097927.963490486
1718097927.964498,,,,14.723060608,14.729264259,58580.000000000,1718097927.964497566
1718097927.965505,,,,14.096155167,14.101372719,58581.000000000,1718097927.965504646
1718097927.966512,,,,13.653112411,13.657945633,58582.000000000,1718097927.966511726
1718097927.967519,,,,13.381525993,13.387008667,58583.000000000,1718097927.967518806
1718097927.967829,271.615722656,11820.000000000,1718097927.967828989,,,,
1718097927.968526,,,,13.222690582,13.228437424,58584.000000000,1718097927.968525887
1718097927.969533,,,,13.489780426,13.496633530,58585.000000000,1718097927.969532967
1718097927.970540,,,,14.096155167,14.101348877,58586.000000000,1718097927.970540047
1718097927.971547,,,,14.686638832,14.688395500,58587.000000000,1718097927.971547127
1718097927.972554,,,,14.486141205,14.490613937,58588.000000000,1718097927.972554207
1718097927.973561,,,,14.631778717,14.637597084,58589.000000000,1718097927.973561287
1718097927.974568,,,,14.993588448,14.997364044,58590.000000000,1718097927.974568367
1718097927.975575,,,,14.861053467,14.867112160,58591.000000000,1718097927.975575447
1718097927.976583,,,,14.981544495,14.986377716,58592.000000000,1718097927.976582527
1718097927.977195,271.808013916,11821.000000000,1718097927.977194786,,,,
1718097927.977590,,,,14.777752876,14.783283234,58593.000000000,1718097927.977589607
1718097927.978597,,,,14.439526558,14.441354752,58594.000000000,1718097927.978596687
1718097927.979604,,,,14.362452507,14.364497185,58595.000000000,1718097927.979603767
1718097927.980611,,,,14.561508179,14.564874649,58596.000000000,1718097927.980610847
1718097927.981618,,,,14.899974823,14.904495239,58597.000000000,1718097927.981617928
1718097927.982195,271.984283447,11822.000000000,1718097927.982194901,,,,
1718097927.982625,,,,14.862495422,14.865381241,58598.000000000,1718097927.982625008
1718097927.983632,,,,14.340671539,14.346057892,58599.000000000,1718097927.983632088
1718097927.984639,,,,13.594813347,13.599647522,58600.000000000,1718097927.984639168
1718097927.985646,,,,13.550194740,13.556085587,58601.000000000,1718097927.985646248
1718097927.986653,,,,14.336945534,14.344279289,58602.000000000,1718097927.986653328
1718097927.987195,272.240661621,11823.000000000,1718097927.987194777,,,,
1718097927.987660,,,,14.560330391,14.563696861,58603.000000000,1718097927.987660408
1718097927.988667,,,,14.561099052,14.564417839,58604.000000000,1718097927.988667488
1718097927.989675,,,,14.688850403,14.694837570,58605.000000000,1718097927.989674568
1718097927.990682,,,,14.351946831,14.358943939,58606.000000000,1718097927.990681648
1718097927.991689,,,,14.173902512,14.180514336,58607.000000000,1718097927.991688728
1718097927.992195,272.432952881,11824.000000000,1718097927.992194891,,,,
1718097927.992696,,,,14.116252899,14.121759415,58608.000000000,1718097927.992695808
1718097927.993703,,,,14.315909386,14.323363304,58609.000000000,1718097927.993702888
1718097927.994710,,,,14.498281479,14.504076004,58610.000000000,1718097927.994709969
1718097927.995717,,,,14.336416245,14.343485832,58611.000000000,1718097927.995717049
1718097927.996724,,,,14.150630951,14.158758163,58612.000000000,1718097927.996724129
1718097927.997731,,,,14.349542618,14.356226921,58613.000000000,1718097927.997731209
1718097927.998738,,,,14.423635483,14.429911613,58614.000000000,1718097927.998738289
1718097927.999745,,,,14.508426666,14.515087128,58615.000000000,1718097927.999745369
1718097928.000752,,,,14.553647041,14.561196327,58616.000000000,1718097928.000752449
1718097928.001760,,,,14.522562027,14.531362534,58617.000000000,1718097928.001759529
1718097928.002767,,,,14.378438950,14.385748863,58618.000000000,1718097928.002766609
1718097928.003774,,,,14.287950516,14.293096542,58619.000000000,1718097928.003773689
1718097928.004781,,,,14.047737122,14.054326057,58620.000000000,1718097928.004780769
1718097928.005788,,,,13.606232643,13.611884117,58621.000000000,1718097928.005787849
1718097928.006795,,,,13.470355988,13.474828720,58622.000000000,1718097928.006794930
1718097928.007802,,,,13.971745491,13.975954056,58623.000000000,1718097928.007802010
1718097928.008809,,,,14.406927109,14.410558701,58624.000000000,1718097928.008809090
1718097928.009816,,,,14.473543167,14.477078438,58625.000000000,1718097928.009816170
1718097928.010823,,,,14.528788567,14.532853127,58626.000000000,1718097928.010823250
1718097928.011830,,,,14.470490456,14.475492477,58627.000000000,1718097928.011830330
1718097928.012837,,,,14.624951363,14.628414154,58628.000000000,1718097928.012837410
1718097928.013844,,,,14.512272835,14.516865730,58629.000000000,1718097928.013844490
1718097928.014852,,,,14.534221649,14.544247627,58630.000000000,1718097928.014851570
1718097928.015859,,,,14.669281960,14.674812317,58631.000000000,1718097928.015858650
1718097928.016866,,,,14.363125801,14.367814064,58632.000000000,1718097928.016865730
1718097928.017873,,,,14.226430893,14.232441902,58633.000000000,1718097928.017872810
1718097928.018880,,,,14.222559929,14.226191521,58634.000000000,1718097928.018879890
1718097928.019887,,,,14.143178940,14.147819519,58635.000000000,1718097928.019886971
1718097928.020894,,,,14.218737602,14.221695900,58636.000000000,1718097928.020894051
1718097928.021901,,,,14.474241257,14.478641510,58637.000000000,1718097928.021901131
1718097928.022908,,,,14.531625748,14.537156105,58638.000000000,1718097928.022908211
1718097928.023915,,,,14.563118935,14.568480492,58639.000000000,1718097928.023915291
1718097928.024922,,,,14.523331642,14.526843071,58640.000000000,1718097928.024922371
1718097928.025929,,,,14.173709869,14.176283836,58641.000000000,1718097928.025929451
1718097928.026937,,,,13.786753654,13.791130066,58642.000000000,1718097928.026936531
1718097928.027195,274.003417969,11831.000000000,1718097928.027194738,,,,
1718097928.027944,,,,14.079566956,14.084039688,58643.000000000,1718097928.027943611
1718097928.028951,,,,14.323025703,14.328796387,58644.000000000,1718097928.028950691
1718097928.029958,,,,14.313626289,14.319469452,58645.000000000,1718097928.029957771
1718097928.030965,,,,14.500613213,14.507369995,58646.000000000,1718097928.030964851
1718097928.031972,,,,14.817564011,14.826099396,58647.000000000,1718097928.031971931
1718097928.032195,274.131622314,11832.000000000,1718097928.032194853,,,,
1718097928.032979,,,,14.529822350,14.534992218,58648.000000000,1718097928.032979012
1718097928.033986,,,,14.326800346,14.331320763,58649.000000000,1718097928.033986092
1718097928.034993,,,,14.425919533,14.430920601,58650.000000000,1718097928.034993172
1718097928.036000,,,,13.907004356,13.914289474,58651.000000000,1718097928.036000252
1718097928.037007,,,,13.860870361,13.866617203,58652.000000000,1718097928.037007332
1718097928.037195,274.323913574,11833.000000000,1718097928.037194729,,,,
1718097928.038014,,,,13.610151291,13.614672661,58653.000000000,1718097928.038014412
1718097928.039021,,,,13.640995979,13.647006989,58654.000000000,1718097928.039021492
1718097928.040029,,,,14.094400406,14.104257584,58655.000000000,1718097928.040028572
1718097928.041036,,,,14.589803696,14.595790863,58656.000000000,1718097928.041035652
1718097928.042043,,,,14.989478111,14.997076035,58657.000000000,1718097928.042042732
1718097928.042195,274.484161377,11834.000000000,1718097928.042194843,,,,
1718097928.043050,,,,14.925001144,14.930267334,58658.000000000,1718097928.043049812
1718097928.044057,,,,14.986520767,14.990825653,58659.000000000,1718097928.044056892
1718097928.045064,,,,14.927525520,14.932166100,58660.000000000,1718097928.045063972
1718097928.046071,,,,14.613579750,14.619133949,58661.000000000,1718097928.046071053
1718097928.047078,,,,14.155415535,14.160560608,58662.000000000,1718097928.047078133
1718097928.047195,274.692504883,11835.000000000,1718097928.047194719,,,,
1718097928.048085,,,,14.026966095,14.030621529,58663.000000000,1718097928.048085213
1718097928.049092,,,,14.270184517,14.273311615,58664.000000000,1718097928.049092293
1718097928.050099,,,,14.159718513,14.162988663,58665.000000000,1718097928.050099373
1718097928.051106,,,,14.495997429,14.504485130,58666.000000000,1718097928.051106453
1718097928.052114,,,,15.117733955,15.127712250,58667.000000000,1718097928.052113533
1718097928.052195,275.045043945,11836.000000000,1718097928.052194834,,,,
1718097928.053121,,,,14.995271683,15.003686905,58668.000000000,1718097928.053120613
1718097928.054128,,,,14.460345268,14.464264870,58669.000000000,1718097928.054127693
1718097928.055135,,,,13.893757820,13.898158073,58670.000000000,1718097928.055134773
1718097928.056142,,,,13.638928413,13.644987106,58671.000000000,1718097928.056141853
1718097928.057149,,,,13.702178955,13.710714340,58672.000000000,1718097928.057148933
1718097928.057195,275.333465576,11837.000000000,1718097928.057194710,,,,
1718097928.058156,,,,14.144211769,14.152748108,58673.000000000,1718097928.058156013
1718097928.059163,,,,14.285522461,14.291966438,58674.000000000,1718097928.059163094
1718097928.061177,,,,14.835786819,14.840932846,58676.000000000,1718097928.061177254
1718097928.062184,,,,14.787945747,14.791481018,58677.000000000,1718097928.062184334
1718097928.062195,275.750183105,11838.000000000,1718097928.062194824,,,,
1718097928.063191,,,,14.261001587,14.266772270,58678.000000000,1718097928.063191414
1718097928.064198,,,,13.914672852,13.920876503,58679.000000000,1718097928.064198494
1718097928.065206,,,,13.774901390,13.779878616,58680.000000000,1718097928.065205574
1718097928.066213,,,,13.819111824,13.823296547,58681.000000000,1718097928.066212654
1718097928.067195,276.166839600,11839.000000000,1718097928.067194700,,,,
1718097928.067220,,,,14.329876900,14.336080551,58682.000000000,1718097928.067219734
1718097928.068227,,,,14.775324821,14.781840324,58683.000000000,1718097928.068226814
1718097928.069234,,,,14.869178772,14.876248360,58684.000000000,1718097928.069233894
1718097928.070241,,,,14.895815849,14.900505066,58685.000000000,1718097928.070240974
1718097928.071597,277.128417969,11841.000000000,1718097928.071597338,,,,
1718097928.072195,276.631591797,11840.000000000,1718097928.072194815,,,,
1718097928.072255,,,,14.093679428,14.097719193,58687.000000000,1718097928.072255135
1718097928.073262,,,,13.550146103,13.555292130,58688.000000000,1718097928.073262215
1718097928.074269,,,,13.116502762,13.120206833,58689.000000000,1718097928.074269295
1718097928.075276,,,,13.573610306,13.578851700,58690.000000000,1718097928.075276375
1718097928.076283,,,,14.689235687,14.700030327,58691.000000000,1718097928.076283455
1718097928.076597,277.545135498,11842.000000000,1718097928.076597452,,,,
1718097928.077291,,,,15.289792061,15.297101974,58692.000000000,1718097928.077290535
1718097928.078298,,,,14.875357628,14.881993294,58693.000000000,1718097928.078297615
1718097928.079305,,,,14.777969360,14.783163071,58694.000000000,1718097928.079304695
1718097928.080312,,,,14.731426239,14.735971451,58695.000000000,1718097928.080311775
1718097928.081319,,,,14.755875587,14.759795189,58696.000000000,1718097928.081318855
1718097928.081597,278.009918213,11843.000000000,1718097928.081597328,,,,
1718097928.082326,,,,14.897210121,14.902764320,58697.000000000,1718097928.082325935
1718097928.083333,,,,14.908822060,14.913438797,58698.000000000,1718097928.083333015
1718097928.084340,,,,14.612353325,14.618268967,58699.000000000,1718097928.084340096
1718097928.085347,,,,14.289897919,14.296967506,58700.000000000,1718097928.085347176
1718097928.086354,,,,14.420293808,14.427627563,58701.000000000,1718097928.086354256
1718097928.086597,278.394561768,11844.000000000,1718097928.086597443,,,,
1718097928.087361,,,,14.456859589,14.460995674,58702.000000000,1718097928.087361336
1718097928.088368,,,,14.307399750,14.313338280,58703.000000000,1718097928.088368416
1718097928.089375,,,,14.336608887,14.343029022,58704.000000000,1718097928.089375496
1718097928.090383,,,,14.405749321,14.408250809,58705.000000000,1718097928.090382576
1718097928.091390,,,,14.227512360,14.231360435,58706.000000000,1718097928.091389656
1718097928.091597,278.747131348,11845.000000000,1718097928.091597319,,,,
1718097928.092397,,,,13.452493668,13.457856178,58707.000000000,1718097928.092396736
1718097928.093404,,,,13.467278481,13.472784996,58708.000000000,1718097928.093403816
1718097928.094411,,,,13.480861664,13.486248016,58709.000000000,1718097928.094410896
1718097928.095418,,,,13.496872902,13.502980232,58710.000000000,1718097928.095417976
1718097928.096425,,,,13.975831985,13.979607582,58711.000000000,1718097928.096425056
1718097928.096597,279.115783691,11846.000000000,1718097928.096597433,,,,
1718097928.097432,,,,14.347642899,14.352597237,58712.000000000,1718097928.097432137
1718097928.098439,,,,14.672791481,14.679091454,58713.000000000,1718097928.098439217
1718097928.099446,,,,15.200553894,15.205675125,58714.000000000,1718097928.099446297
1718097928.100453,,,,15.147712708,15.155383110,58715.000000000,1718097928.100453377
1718097928.101460,,,,14.678777695,14.683947563,58716.000000000,1718097928.101460457
1718097928.102468,,,,14.154309273,14.156978607,58717.000000000,1718097928.102467537
1718097928.103475,,,,13.934891701,13.937464714,58718.000000000,1718097928.103474617
1718097928.104482,,,,13.950373650,13.956937790,58719.000000000,1718097928.104481697
1718097928.105489,,,,14.080720901,14.086612701,58720.000000000,1718097928.105488777
1718097928.106496,,,,14.568528175,14.573241234,58721.000000000,1718097928.106495857
1718097928.107503,,,,14.638533592,14.642718315,58722.000000000,1718097928.107502937
1718097928.108510,,,,14.837277412,14.842110634,58723.000000000,1718097928.108510017
1718097928.109517,,,,14.688682556,14.695078850,58724.000000000,1718097928.109517097
1718097928.110524,,,,14.584683418,14.589396477,58725.000000000,1718097928.110524178
1718097928.111531,,,,14.621609688,14.627500534,58726.000000000,1718097928.111531258
1718097928.112538,,,,14.405797005,14.412096977,58727.000000000,1718097928.112538338
1718097928.113545,,,,14.218666077,14.224052429,58728.000000000,1718097928.113545418
1718097928.114552,,,,14.181354523,14.187678337,58729.000000000,1718097928.114552498
1718097928.115560,,,,13.929145813,13.932560921,58730.000000000,1718097928.115559578
1718097928.116567,,,,13.530625343,13.535434723,58731.000000000,1718097928.116566658
1718097928.117574,,,,13.302961349,13.308564186,58732.000000000,1718097928.117573738
1718097928.118581,,,,13.683691978,13.690616608,58733.000000000,1718097928.118580818
1718097928.119588,,,,14.059998512,14.065961838,58734.000000000,1718097928.119587898
1718097928.120595,,,,14.582350731,14.587665558,58735.000000000,1718097928.120594978
1718097928.121597,280.718658447,11851.000000000,1718097928.121597290,,,,
1718097928.121602,,,,15.099198341,15.102973938,58736.000000000,1718097928.121602058
1718097928.122609,,,,15.171561241,15.174735069,58737.000000000,1718097928.122609138
1718097928.123616,,,,15.235460281,15.240534782,58738.000000000,1718097928.123616219
1718097928.124623,,,,14.953825951,14.959115982,58739.000000000,1718097928.124623299
1718097928.125630,,,,14.607642174,14.612546921,58740.000000000,1718097928.125630379
1718097928.126597,280.959106445,11852.000000000,1718097928.126597404,,,,
1718097928.126637,,,,14.459455490,14.465707779,58741.000000000,1718097928.126637459
1718097928.127645,,,,14.038193703,14.042642593,58742.000000000,1718097928.127644539
1718097928.128652,,,,13.938809395,13.942393303,58743.000000000,1718097928.128651619
1718097928.129659,,,,13.762784958,13.766897202,58744.000000000,1718097928.129658699
1718097928.130666,,,,13.799061775,13.804039955,58745.000000000,1718097928.130665779
1718097928.131597,281.167449951,11853.000000000,1718097928.131597281,,,,
1718097928.131673,,,,14.122528076,14.129524231,58746.000000000,1718097928.131672859
1718097928.132680,,,,14.763665199,14.771503448,58747.000000000,1718097928.132679939
1718097928.133687,,,,14.990559578,14.998133659,58748.000000000,1718097928.133687019
1718097928.134694,,,,14.529438019,14.533406258,58749.000000000,1718097928.134694099
1718097928.135701,,,,14.131663322,14.138083458,58750.000000000,1718097928.135701180
1718097928.136597,281.488098145,11854.000000000,1718097928.136597395,,,,
1718097928.136708,,,,13.856927872,13.862410545,58751.000000000,1718097928.136708260
1718097928.137715,,,,13.900970459,13.904072762,58752.000000000,1718097928.137715340
1718097928.138722,,,,14.094857216,14.097502708,58753.000000000,1718097928.138722420
1718097928.139729,,,,13.876568794,13.881714821,58754.000000000,1718097928.139729500
1718097928.140737,,,,13.691336632,13.697276115,58755.000000000,1718097928.140736580
1718097928.141597,281.760559082,11855.000000000,1718097928.141597271,,,,
1718097928.141744,,,,13.899118423,13.906284332,58756.000000000,1718097928.141743660
1718097928.142751,,,,14.145847321,14.153012276,58757.000000000,1718097928.142750740
1718097928.143758,,,,14.612473488,14.616345406,58758.000000000,1718097928.143757820
1718097928.144765,,,,14.864274979,14.871512413,58759.000000000,1718097928.144764900
1718097928.145772,,,,14.650986671,14.658777237,58760.000000000,1718097928.145771980
1718097928.146597,282.017089844,11856.000000000,1718097928.146597385,,,,
1718097928.146779,,,,14.536866188,14.542396545,58761.000000000,1718097928.146779060
1718097928.147786,,,,14.722771645,14.728326797,58762.000000000,1718097928.147786140
1718097928.148793,,,,15.035827637,15.043401718,58763.000000000,1718097928.148793221
1718097928.149800,,,,15.088812828,15.095161438,58764.000000000,1718097928.149800301
1718097928.150807,,,,14.995800018,15.001691818,58765.000000000,1718097928.150807381
1718097928.151597,282.305633545,11857.000000000,1718097928.151597261,,,,
1718097928.151814,,,,14.695053101,14.702699661,58766.000000000,1718097928.151814461
1718097928.152822,,,,14.448758125,14.454216003,58767.000000000,1718097928.152821541
1718097928.153829,,,,14.227320671,14.233018875,58768.000000000,1718097928.153828621
1718097928.154836,,,,14.185562134,14.190395355,58769.000000000,1718097928.154835701
1718097928.155843,,,,14.033337593,14.037737846,58770.000000000,1718097928.155842781
1718097928.156597,282.449920654,11858.000000000,1718097928.156597376,,,,
1718097928.156850,,,,13.836637497,13.840580940,58771.000000000,1718097928.156849861
1718097928.157857,,,,13.566734314,13.571230888,58772.000000000,1718097928.157856941
1718097928.158864,,,,13.682778358,13.686457634,58773.000000000,1718097928.158864021
1718097928.159871,,,,14.295523643,14.300597191,58774.000000000,1718097928.159871101
1718097928.160878,,,,14.242513657,14.247419357,58775.000000000,1718097928.160878181
1718097928.161597,282.642272949,11859.000000000,1718097928.161597252,,,,
1718097928.161885,,,,14.142866135,14.146305084,58776.000000000,1718097928.161885262
1718097928.162892,,,,14.497800827,14.503499031,58777.000000000,1718097928.162892342
1718097928.163899,,,,14.688298225,14.693443298,58778.000000000,1718097928.163899422
1718097928.164907,,,,14.943632126,14.948129654,58779.000000000,1718097928.164906502
1718097928.165914,,,,14.875525475,14.879157066,58780.000000000,1718097928.165913582
1718097928.166597,282.754455566,11860.000000000,1718097928.166597366,,,,
1718097928.166921,,,,14.563550949,14.568168640,58781.000000000,1718097928.166920662
1718097928.167928,,,,14.426808357,14.431522369,58782.000000000,1718097928.167927742
1718097928.168935,,,,14.678273201,14.682793617,58783.000000000,1718097928.168934822
1718097928.169942,,,,14.710391045,14.714599609,58784.000000000,1718097928.169941902
1718097928.170949,,,,14.315332413,14.320117950,58785.000000000,1718097928.170948982
1718097928.171956,,,,14.003815651,14.009826660,58786.000000000,1718097928.171956062
1718097928.172963,,,,13.784877777,13.789927483,58787.000000000,1718097928.172963142
1718097928.173970,,,,13.716434479,13.720450401,58788.000000000,1718097928.173970222
1718097928.174977,,,,14.016076088,14.021366119,58789.000000000,1718097928.174977303
1718097928.175703,282.786529541,11861.000000000,1718097928.175702572,,,,
1718097928.175984,,,,14.264463425,14.268623352,58790.000000000,1718097928.175984383
1718097928.176991,,,,14.705631256,14.711449623,58791.000000000,1718097928.176991463
1718097928.177999,,,,14.016460419,14.019082069,58792.000000000,1718097928.177998543
1718097928.179006,,,,13.726411819,13.728816986,58793.000000000,1718097928.179005623
1718097928.180013,,,,13.375803947,13.380349159,58794.000000000,1718097928.180012703
1718097928.180703,282.914825439,11862.000000000,1718097928.180702686,,,,
1718097928.181020,,,,13.085779190,13.093280792,58795.000000000,1718097928.181019783
1718097928.182027,,,,13.854114532,13.861977577,58796.000000000,1718097928.182026863
1718097928.183034,,,,14.596871376,14.603796959,58797.000000000,1718097928.183033943
1718097928.184041,,,,14.877929688,14.886465073,58798.000000000,1718097928.184041023
1718097928.185048,,,,15.268035889,15.276787758,58799.000000000,1718097928.185048103
1718097928.186055,,,,15.483631134,15.489113808,58800.000000000,1718097928.186055183
1718097928.187062,,,,15.079196930,15.081097603,58801.000000000,1718097928.187062263
1718097928.188069,,,,14.502944946,14.502922058,58802.000000000,1718097928.188069344
1718097928.189076,,,,14.162891388,14.165104866,58803.000000000,1718097928.189076424
1718097928.190084,,,,14.070095062,14.075818062,58804.000000000,1718097928.190083504
1718097928.191091,,,,14.471620560,14.480685234,58805.000000000,1718097928.191090584
1718097928.192098,,,,14.643534660,14.650146484,58806.000000000,1718097928.192097664
1718097928.193105,,,,14.380049706,14.385676384,58807.000000000,1718097928.193104744
1718097928.194112,,,,14.206020355,14.210926056,58808.000000000,1718097928.194111824
1718097928.195119,,,,14.356658936,14.362934113,58809.000000000,1718097928.195118904
1718097928.196126,,,,14.404042244,14.408538818,58810.000000000,1718097928.196125984
1718097928.197133,,,,14.289850235,14.291172981,58811.000000000,1718097928.197133064
1718097928.198140,,,,14.296051979,14.298481941,58812.000000000,1718097928.198140144
1718097928.199147,,,,14.190682411,14.198376656,58813.000000000,1718097928.199147224
1718097928.200154,,,,14.178589821,14.186861038,58814.000000000,1718097928.200154305
1718097928.201161,,,,14.455032349,14.459457397,58815.000000000,1718097928.201161385
1718097928.202168,,,,14.383343697,14.385965347,58816.000000000,1718097928.202168465
1718097928.203176,,,,14.349109650,14.352404594,58817.000000000,1718097928.203175545
1718097928.204183,,,,14.423995972,14.429406166,58818.000000000,1718097928.204182625
1718097928.205190,,,,14.403922081,14.409621239,58819.000000000,1718097928.205189705
1718097928.206197,,,,14.414788246,14.420030594,58820.000000000,1718097928.206196785
1718097928.207204,,,,14.427337646,14.434214592,58821.000000000,1718097928.207203865
1718097928.208211,,,,14.428371429,14.434864044,58822.000000000,1718097928.208210945
1718097928.209218,,,,14.642452240,14.648367882,58823.000000000,1718097928.209218025
1718097928.210225,,,,14.242225647,14.249751091,58824.000000000,1718097928.210225105
1718097928.211232,,,,13.747110367,13.751703262,58825.000000000,1718097928.211232185
1718097928.212239,,,,13.715520859,13.723167419,58826.000000000,1718097928.212239265
1718097928.213246,,,,13.745259285,13.751631737,58827.000000000,1718097928.213246346
1718097928.214253,,,,14.211189270,14.218090057,58828.000000000,1718097928.214253426
1718097928.215261,,,,14.425991058,14.431305885,58829.000000000,1718097928.215260506
1718097928.216268,,,,14.722820282,14.727460861,58830.000000000,1718097928.216267586
1718097928.217275,,,,14.841075897,14.845499992,58831.000000000,1718097928.217274666
1718097928.218282,,,,14.268140793,14.272181511,58832.000000000,1718097928.218281746
1718097928.219289,,,,14.016460419,14.022399902,58833.000000000,1718097928.219288826
1718097928.220296,,,,14.016148567,14.018914223,58834.000000000,1718097928.220295906
1718097928.221303,,,,13.758481979,13.762329102,58835.000000000,1718097928.221302986
1718097928.222310,,,,14.181138039,14.186957359,58836.000000000,1718097928.222310066
1718097928.223317,,,,14.905504227,14.910914421,58837.000000000,1718097928.223317146
1718097928.224324,,,,15.143144608,15.147064209,58838.000000000,1718097928.224324226
1718097928.225331,,,,14.875573158,14.878436089,58839.000000000,1718097928.225331306
1718097928.225703,282.642272949,11871.000000000,1718097928.225702524,,,,
1718097928.226338,,,,14.751596451,14.757199287,58840.000000000,1718097928.226338387
1718097928.227345,,,,14.525423050,14.532179832,58841.000000000,1718097928.227345467
1718097928.228353,,,,14.242538452,14.243669510,58842.000000000,1718097928.228352547
1718097928.229360,,,,14.040741920,14.045839310,58843.000000000,1718097928.229359627
1718097928.230367,,,,14.235806465,14.241529465,58844.000000000,1718097928.230366707
1718097928.230703,282.626220703,11872.000000000,1718097928.230702639,,,,
1718097928.231374,,,,14.254654884,14.261002541,58845.000000000,1718097928.231373787
1718097928.232381,,,,14.272275925,14.277421951,58846.000000000,1718097928.232380867
1718097928.233388,,,,14.321775436,14.328796387,58847.000000000,1718097928.233387947
1718097928.234395,,,,14.556483269,14.563840866,58848.000000000,1718097928.234395027
1718097928.235402,,,,14.183878899,14.189457893,58849.000000000,1718097928.235402107
1718097928.235703,282.610229492,11873.000000000,1718097928.235702515,,,,
1718097928.236409,,,,14.024273872,14.029227257,58850.000000000,1718097928.236409187
1718097928.237416,,,,14.152554512,14.157147408,58851.000000000,1718097928.237416267
1718097928.238423,,,,14.383007050,14.386686325,58852.000000000,1718097928.238423347
1718097928.239430,,,,14.682215691,14.688732147,58853.000000000,1718097928.239430428
1718097928.240438,,,,14.679306984,14.684356689,58854.000000000,1718097928.240437508
1718097928.240703,282.594146729,11874.000000000,1718097928.240702629,,,,
1718097928.241445,,,,14.647765160,14.652791023,58855.000000000,1718097928.241444588
1718097928.242452,,,,14.469048500,14.474722862,58856.000000000,1718097928.242451668
1718097928.243459,,,,14.393825531,14.401760101,58857.000000000,1718097928.243458748
1718097928.244466,,,,14.665940285,14.675245285,58858.000000000,1718097928.244465828
1718097928.245473,,,,14.543958664,14.550474167,58859.000000000,1718097928.245472908
1718097928.245703,282.530029297,11875.000000000,1718097928.245702505,,,,
1718097928.246480,,,,14.111349106,14.115725517,58860.000000000,1718097928.246479988
1718097928.247487,,,,13.953233719,13.960616112,58861.000000000,1718097928.247487068
1718097928.248494,,,,13.895801544,13.900465965,58862.000000000,1718097928.248494148
1718097928.249501,,,,13.885536194,13.890296936,58863.000000000,1718097928.249501228
1718097928.250508,,,,14.146519661,14.150584221,58864.000000000,1718097928.250508308
1718097928.250703,282.481964111,11876.000000000,1718097928.250702620,,,,
1718097928.251515,,,,13.860582352,13.863059044,58865.000000000,1718097928.251515388
1718097928.252522,,,,13.874765396,13.878108978,58866.000000000,1718097928.252522469
1718097928.253530,,,,14.311919212,14.318026543,58867.000000000,1718097928.253529549
1718097928.254537,,,,14.654641151,14.660964966,58868.000000000,1718097928.254536629
1718097928.255544,,,,14.948680878,14.956808090,58869.000000000,1718097928.255543709
1718097928.255702,282.401794434,11877.000000000,1718097928.255702496,,,,
1718097928.256551,,,,14.856461525,14.865020752,58870.000000000,1718097928.256550789
1718097928.257558,,,,14.760323524,14.766887665,58871.000000000,1718097928.257557869
1718097928.258565,,,,14.894949913,14.900552750,58872.000000000,1718097928.258564949
1718097928.259572,,,,14.843262672,14.848048210,58873.000000000,1718097928.259572029
1718097928.260579,,,,14.617498398,14.622812271,58874.000000000,1718097928.260579109
1718097928.260703,282.209442139,11878.000000000,1718097928.260702610,,,,
1718097928.261586,,,,14.358173370,14.366612434,58875.000000000,1718097928.261586189
1718097928.262593,,,,14.201380730,14.206286430,58876.000000000,1718097928.262593269
1718097928.263600,,,,14.165945053,14.171018600,58877.000000000,1718097928.263600349
1718097928.264607,,,,14.039058685,14.044541359,58878.000000000,1718097928.264607430
1718097928.265615,,,,13.991626740,13.998456001,58879.000000000,1718097928.265614510
1718097928.265702,282.145324707,11879.000000000,1718097928.265702486,,,,
1718097928.266622,,,,14.165488243,14.172533035,58880.000000000,1718097928.266621590
1718097928.267629,,,,14.046295166,14.052162170,58881.000000000,1718097928.267628670
1718097928.268636,,,,13.581495285,13.587025642,58882.000000000,1718097928.268635750
1718097928.269281,282.049133301,11881.000000000,1718097928.269281149,,,,
1718097928.269643,,,,13.717493057,13.724297523,58883.000000000,1718097928.269642830
1718097928.270650,,,,14.242946625,14.247779846,58884.000000000,1718097928.270649910
1718097928.270703,282.065155029,11880.000000000,1718097928.270702600,,,,
1718097928.271657,,,,14.282710075,14.286245346,58885.000000000,1718097928.271656990
1718097928.272664,,,,14.321703911,14.325960159,58886.000000000,1718097928.272664070
1718097928.273671,,,,14.910456657,14.916419983,58887.000000000,1718097928.273671150
1718097928.274281,282.065155029,11882.000000000,1718097928.274281263,,,,
1718097928.274678,,,,14.799244881,14.803741455,58888.000000000,1718097928.274678230
1718097928.275685,,,,14.434550285,14.441715240,58889.000000000,1718097928.275685310
1718097928.276692,,,,15.120306015,15.126894951,58890.000000000,1718097928.276692390
1718097928.277699,,,,14.894372940,14.900072098,58891.000000000,1718097928.277699471
1718097928.278707,,,,14.612642288,14.619254112,58892.000000000,1718097928.278706551
1718097928.279281,282.129272461,11883.000000000,1718097928.279281139,,,,
1718097928.279714,,,,14.543933868,14.550065994,58893.000000000,1718097928.279713631
1718097928.280721,,,,14.300572395,14.305622101,58894.000000000,1718097928.280720711
1718097928.281728,,,,13.922943115,13.928401947,58895.000000000,1718097928.281727791
1718097928.282735,,,,13.691408157,13.696410179,58896.000000000,1718097928.282734871
1718097928.283742,,,,13.973212242,13.979944229,58897.000000000,1718097928.283741951
1718097928.284281,282.225433350,11884.000000000,1718097928.284281254,,,,
1718097928.284749,,,,14.534414291,14.543430328,58898.000000000,1718097928.284749031
1718097928.285756,,,,14.722507477,14.724287987,58899.000000000,1718097928.285756111
1718097928.286763,,,,14.455056190,14.456860542,58900.000000000,1718097928.286763191
