__time,/gdx/grip_force_stream/grip_force,/gdx/grip_force_stream/header/seq,/gdx/grip_force_stream/header/stamp,/shimmer0/emg_stream/emg_ch1,/shimmer0/emg_stream/emg_ch2,/shimmer0/emg_stream/header/seq,/shimmer0/emg_stream/header/stamp
1718098471.647569,,,,-1.775725126,-1.776474237,79149.000000000,1718098471.647569418
1718098471.648576,,,,-1.786567330,-1.788686752,79150.000000000,1718098471.648576498
1718098471.649584,,,,-1.790774465,-1.792389035,79151.000000000,1718098471.649583578
1718098471.650591,,,,-1.794620991,-1.795057535,79152.000000000,1718098471.650590658
1718098471.651598,,,,-1.787697315,-1.791090846,79153.000000000,1718098471.651597738
1718098471.652605,,,,-1.769210100,-1.770560265,79154.000000000,1718098471.652604818
1718098471.653612,,,,-1.752429843,-1.751904726,79155.000000000,1718098471.653611898
1718098471.654619,,,,-1.738702655,-1.737889171,79156.000000000,1718098471.654618979
1718098471.655626,,,,-1.753920317,-1.753876090,79157.000000000,1718098471.655626059
1718098471.656633,,,,-1.785076857,-1.784816265,79158.000000000,1718098471.656633139
1718098471.657640,,,,-1.800366640,-1.800634980,79159.000000000,1718098471.657640219
1718098471.658647,,,,-1.789283991,-1.788614631,79160.000000000,1718098471.658647299
1718098471.659654,,,,-1.771998763,-1.770247698,79161.000000000,1718098471.659654379
1718098471.660661,,,,-1.756925344,-1.757169604,79162.000000000,1718098471.660661459
1718098471.661669,,,,-1.749905586,-1.755246401,79163.000000000,1718098471.661668539
1718098471.662676,,,,-1.750386357,-1.750702739,79164.000000000,1718098471.662675619
1718098471.663683,,,,-1.749665141,-1.749404550,79165.000000000,1718098471.663682699
1718098471.664690,,,,-1.754401088,-1.752794266,79166.000000000,1718098471.664689779
1718098471.665697,,,,-1.758512020,-1.757193685,79167.000000000,1718098471.665696859
1718098471.666704,,,,-1.760411263,-1.759525657,79168.000000000,1718098471.666703939
1718098471.667711,,,,-1.766878128,-1.764958739,79169.000000000,1718098471.667711020
1718098471.668718,,,,-1.769017816,-1.769069672,79170.000000000,1718098471.668718100
1718098471.669725,,,,-1.770195723,-1.770536184,79171.000000000,1718098471.669725180
1718098471.670732,,,,-1.771397829,-1.772988319,79172.000000000,1718098471.670732260
1718098471.671739,,,,-1.773056626,-1.774743319,79173.000000000,1718098471.671739340
1718098471.672746,,,,-1.772143006,-1.775608778,79174.000000000,1718098471.672746420
1718098471.673753,,,,-1.767022371,-1.767915726,79175.000000000,1718098471.673753500
1718098471.674761,,,,-1.769570708,-1.769093752,79176.000000000,1718098471.674760580
1718098471.675768,,,,-1.773513317,-1.776137590,79177.000000000,1718098471.675767660
1718098471.676775,,,,-1.770099640,-1.772459388,79178.000000000,1718098471.676774740
1718098471.677782,,,,-1.757045627,-1.756232023,79179.000000000,1718098471.677781820
1718098471.678789,,,,-1.751588345,-1.750318050,79180.000000000,1718098471.678788900
1718098471.679796,,,,-1.748102546,-1.746279240,79181.000000000,1718098471.679795980
1718098471.680803,,,,-1.742212534,-1.740533590,79182.000000000,1718098471.680803061
1718098471.681810,,,,-1.738053560,-1.737360239,79183.000000000,1718098471.681810141
1718098471.682817,,,,-1.749568939,-1.750149846,79184.000000000,1718098471.682817221
1718098471.683824,,,,-1.773994207,-1.775945306,79185.000000000,1718098471.683824301
1718098471.684831,,,,-1.786976099,-1.787100077,79186.000000000,1718098471.684831381
1718098471.685838,,,,-1.758992910,-1.756232023,79187.000000000,1718098471.685838461
1718098471.686846,,,,-1.718965411,-1.720435739,79188.000000000,1718098471.686845541
1718098471.687853,,,,-1.741755843,-1.742144346,79189.000000000,1718098471.687852621
1718098471.688860,,,,-1.749785304,-1.749909401,79190.000000000,1718098471.688859701
1718098471.689867,,,,-1.742044330,-1.743538618,79191.000000000,1718098471.689866781
1718098471.690874,,,,-1.730000019,-1.733633995,79192.000000000,1718098471.690873861
1718098471.691881,,,,-1.739928722,-1.743851185,79193.000000000,1718098471.691880941
1718098471.692888,,,,-1.754064560,-1.755510807,79194.000000000,1718098471.692888021
1718098471.693895,,,,-1.760940194,-1.759044766,79195.000000000,1718098471.693895102
1718098471.694902,,,,-1.763969302,-1.763059616,79196.000000000,1718098471.694902182
1718098471.695909,,,,-1.762118101,-1.764093280,79197.000000000,1718098471.695909262
1718098471.696916,,,,-1.761493087,-1.762001753,79198.000000000,1718098471.696916342
1718098471.697838,2.015403986,16151.000000000,1718098471.697837830,,,,
1718098471.697923,,,,-1.766517520,-1.766377211,79199.000000000,1718098471.697923422
1718098471.698931,,,,-1.770508289,-1.769742846,79200.000000000,1718098471.698930502
1718098471.699938,,,,-1.772311330,-1.771618009,79201.000000000,1718098471.699937582
1718098471.700945,,,,-1.765051126,-1.766160846,79202.000000000,1718098471.700944662
1718098471.701952,,,,-1.760170817,-1.761472940,79203.000000000,1718098471.701951742
1718098471.702838,1.997742176,16152.000000000,1718098471.702837944,,,,
1718098471.702959,,,,-1.755699277,-1.756376266,79204.000000000,1718098471.702958822
1718098471.703966,,,,-1.752550006,-1.751520157,79205.000000000,1718098471.703965902
1718098471.704973,,,,-1.760291100,-1.759477496,79206.000000000,1718098471.704972982
1718098471.705980,,,,-1.765027046,-1.763324022,79207.000000000,1718098471.705980062
1718098471.706987,,,,-1.761372924,-1.760992050,79208.000000000,1718098471.706987143
1718098471.707838,1.962409735,16153.000000000,1718098471.707837820,,,,
1718098471.707994,,,,-1.759305358,-1.760270834,79209.000000000,1718098471.707994223
1718098471.709001,,,,-1.762695074,-1.764381766,79210.000000000,1718098471.709001303
1718098471.710008,,,,-1.774955750,-1.775536656,79211.000000000,1718098471.710008383
1718098471.711015,,,,-1.791928411,-1.791836143,79212.000000000,1718098471.711015463
1718098471.712023,,,,-1.797433734,-1.796548009,79213.000000000,1718098471.712022543
1718098471.712838,1.997742176,16154.000000000,1718098471.712837934,,,,
1718098471.713030,,,,-1.777624249,-1.778854251,79214.000000000,1718098471.713029623
1718098471.714037,,,,-1.755747437,-1.755751252,79215.000000000,1718098471.714036703
1718098471.715044,,,,-1.764137506,-1.762314320,79216.000000000,1718098471.715043783
1718098471.716051,,,,-1.760098696,-1.757458091,79217.000000000,1718098471.716050863
1718098471.717058,,,,-1.765531898,-1.768444657,79218.000000000,1718098471.717057943
1718098471.717838,2.050727367,16155.000000000,1718098471.717837811,,,,
1718098471.718065,,,,-1.789572477,-1.792773724,79219.000000000,1718098471.718065023
1718098471.719072,,,,-1.797385573,-1.798687696,79220.000000000,1718098471.719072104
1718098471.720079,,,,-1.796424031,-1.794432521,79221.000000000,1718098471.720079184
1718098471.721086,,,,-1.788178086,-1.787027955,79222.000000000,1718098471.721086264
1718098471.722093,,,,-1.792048573,-1.792100549,79223.000000000,1718098471.722093344
1718098471.722838,2.015403986,16156.000000000,1718098471.722837925,,,,
1718098471.723100,,,,-1.790798545,-1.791331291,79224.000000000,1718098471.723100424
1718098471.724108,,,,-1.788875222,-1.791042805,79225.000000000,1718098471.724107504
1718098471.725115,,,,-1.797938585,-1.798567414,79226.000000000,1718098471.725114584
1718098471.726122,,,,-1.808540463,-1.807029724,79227.000000000,1718098471.726121664
1718098471.727129,,,,-1.803900599,-1.802149534,79228.000000000,1718098471.727128744
1718098471.727838,2.121380568,16157.000000000,1718098471.727837801,,,,
1718098471.728136,,,,-1.795246005,-1.791667819,79229.000000000,1718098471.728135824
1718098471.729143,,,,-1.790942788,-1.786595225,79230.000000000,1718098471.729142904
1718098471.730150,,,,-1.785894275,-1.785248995,79231.000000000,1718098471.730149984
1718098471.731157,,,,-1.805751681,-1.804216981,79232.000000000,1718098471.731157064
1718098471.732164,,,,-1.803227425,-1.803928494,79233.000000000,1718098471.732164145
1718098471.732838,2.192023277,16158.000000000,1718098471.732837915,,,,
1718098471.733171,,,,-1.771349669,-1.773781657,79234.000000000,1718098471.733171225
1718098471.735185,,,,-1.737188101,-1.737648726,79236.000000000,1718098471.735185385
1718098471.736192,,,,-1.752910614,-1.755198359,79237.000000000,1718098471.736192465
1718098471.737200,,,,-1.770868897,-1.773396969,79238.000000000,1718098471.737199545
1718098471.737838,2.139041424,16159.000000000,1718098471.737837791,,,,
1718098471.738207,,,,-1.787000060,-1.785777926,79239.000000000,1718098471.738206625
1718098471.739214,,,,-1.793731451,-1.792773724,79240.000000000,1718098471.739213705
1718098471.740221,,,,-1.815872788,-1.814530373,79241.000000000,1718098471.740220785
1718098471.741228,,,,-1.829816341,-1.831935763,79242.000000000,1718098471.741227865
1718098471.742235,,,,-1.833326221,-1.833714724,79243.000000000,1718098471.742234945
1718098471.742838,2.156702280,16160.000000000,1718098471.742837906,,,,
1718098471.743242,,,,-1.830994248,-1.831935763,79244.000000000,1718098471.743242025
1718098471.744249,,,,-1.816882491,-1.817992210,79245.000000000,1718098471.744249105
1718098471.745256,,,,-1.812675357,-1.812775373,79246.000000000,1718098471.745256186
1718098471.746263,,,,-1.819887519,-1.820925117,79247.000000000,1718098471.746263266
1718098471.747270,,,,-1.830056667,-1.830276966,79248.000000000,1718098471.747270346
1718098471.748277,,,,-1.844024301,-1.844484925,79249.000000000,1718098471.748277426
1718098471.749285,,,,-1.846788883,-1.843210697,79250.000000000,1718098471.749284506
1718098471.750292,,,,-1.840418220,-1.839003682,79251.000000000,1718098471.750291586
1718098471.751299,,,,-1.831042409,-1.831551075,79252.000000000,1718098471.751298666
1718098471.752306,,,,-1.823012829,-1.824074507,79253.000000000,1718098471.752305746
1718098471.753313,,,,-1.824936032,-1.825997710,79254.000000000,1718098471.753312826
1718098471.754320,,,,-1.823782086,-1.823233008,79255.000000000,1718098471.754319906
1718098471.755327,,,,-1.820224166,-1.820540547,79256.000000000,1718098471.755326986
1718098471.756334,,,,-1.820079923,-1.820300102,79257.000000000,1718098471.756334066
1718098471.757341,,,,-1.818180680,-1.818352818,79258.000000000,1718098471.757341146
1718098471.758348,,,,-1.799645424,-1.800827265,79259.000000000,1718098471.758348227
1718098471.759355,,,,-1.775220275,-1.774959683,79260.000000000,1718098471.759355307
1718098471.760362,,,,-1.761853695,-1.761953712,79261.000000000,1718098471.760362387
1718098471.761369,,,,-1.765916586,-1.765896320,79262.000000000,1718098471.761369467
1718098471.762377,,,,-1.731394291,-1.732239604,79263.000000000,1718098471.762376547
1718098471.763384,,,,-1.721225142,-1.721349239,79264.000000000,1718098471.763383627
1718098471.764391,,,,-1.719277859,-1.719882727,79265.000000000,1718098471.764390707
1718098471.765398,,,,-1.729831696,-1.730051875,79266.000000000,1718098471.765397787
1718098471.766405,,,,-1.753295302,-1.754717469,79267.000000000,1718098471.766404867
1718098471.767412,,,,-1.792841911,-1.792052507,79268.000000000,1718098471.767411947
1718098471.768419,,,,-1.834816694,-1.836984277,79269.000000000,1718098471.768419027
1718098471.769426,,,,-1.885253787,-1.887301087,79270.000000000,1718098471.769426107
1718098471.770433,,,,-1.914607286,-1.913697600,79271.000000000,1718098471.770433187
1718098471.771440,,,,-1.903500557,-1.904297709,79272.000000000,1718098471.771440268
1718098471.772447,,,,-1.889340639,-1.892301559,79273.000000000,1718098471.772447348
1718098471.773454,,,,-1.876166463,-1.878237844,79274.000000000,1718098471.773454428
1718098471.774462,,,,-1.850226760,-1.852033615,79275.000000000,1718098471.774461508
1718098471.775469,,,,-1.836090922,-1.837537169,79276.000000000,1718098471.775468588
1718098471.776476,,,,-1.836018801,-1.836046696,79277.000000000,1718098471.776475668
1718098471.777483,,,,-1.826402545,-1.829748034,79278.000000000,1718098471.777482748
1718098471.778490,,,,-1.815440059,-1.815323710,79279.000000000,1718098471.778489828
1718098471.779497,,,,-1.807049870,-1.807654738,79280.000000000,1718098471.779496908
1718098471.780504,,,,-1.804549694,-1.805731535,79281.000000000,1718098471.780503988
1718098471.781511,,,,-1.802506208,-1.805058360,79282.000000000,1718098471.781511068
1718098471.782518,,,,-1.805968046,-1.808255792,79283.000000000,1718098471.782518148
1718098471.783525,,,,-1.805871964,-1.806548953,79284.000000000,1718098471.783525229
1718098471.784532,,,,-1.800270438,-1.798519373,79285.000000000,1718098471.784532309
1718098471.785539,,,,-1.797024965,-1.797197104,79286.000000000,1718098471.785539389
1718098471.786546,,,,-1.799885869,-1.801716805,79287.000000000,1718098471.786546469
1718098471.787554,,,,-1.796856761,-1.795995116,79288.000000000,1718098471.787553549
1718098471.788561,,,,-1.800390720,-1.799601197,79289.000000000,1718098471.788560629
1718098471.789568,,,,-1.800631046,-1.801668644,79290.000000000,1718098471.789567709
1718098471.790575,,,,-1.803804398,-1.803038955,79291.000000000,1718098471.790574789
1718098471.791582,,,,-1.795750856,-1.795971036,79292.000000000,1718098471.791581869
1718098471.792589,,,,-1.781590939,-1.782027602,79293.000000000,1718098471.792588949
1718098471.793596,,,,-1.769666910,-1.768300414,79294.000000000,1718098471.793596029
1718098471.794603,,,,-1.777696371,-1.777748346,79295.000000000,1718098471.794603109
1718098471.795610,,,,-1.784115195,-1.784455657,79296.000000000,1718098471.795610189
1718098471.796617,,,,-1.792890072,-1.794528604,79297.000000000,1718098471.796617270
1718098471.797624,,,,-1.804741979,-1.807005644,79298.000000000,1718098471.797624350
1718098471.798631,,,,-1.811257005,-1.813352346,79299.000000000,1718098471.798631430
1718098471.799639,,,,-1.816738248,-1.817198873,79300.000000000,1718098471.799638510
1718098471.800646,,,,-1.816978693,-1.813208103,79301.000000000,1718098471.800645590
1718098471.801653,,,,-1.811906099,-1.810034752,79302.000000000,1718098471.801652670
1718098471.802660,,,,-1.818228722,-1.817775846,79303.000000000,1718098471.802659750
1718098471.802829,3.445622921,16171.000000000,1718098471.802829027,,,,
1718098471.803667,,,,-1.805871964,-1.808327913,79304.000000000,1718098471.803666830
1718098471.804674,,,,-1.792048573,-1.792845845,79305.000000000,1718098471.804673910
1718098471.805681,,,,-1.777456045,-1.778926373,79306.000000000,1718098471.805680990
1718098471.806688,,,,-1.777431965,-1.775127888,79307.000000000,1718098471.806688070
1718098471.807695,,,,-1.784403682,-1.782556415,79308.000000000,1718098471.807695150
1718098471.807829,3.604477167,16172.000000000,1718098471.807829142,,,,
1718098471.808702,,,,-1.785677910,-1.786547184,79309.000000000,1718098471.808702230
1718098471.809709,,,,-1.790966749,-1.792028427,79310.000000000,1718098471.809709311
1718098471.810716,,,,-1.798755884,-1.799336791,79311.000000000,1718098471.810716391
1718098471.811723,,,,-1.816329598,-1.816525698,79312.000000000,1718098471.811723471
1718098471.812731,,,,-1.806593180,-1.808880806,79313.000000000,1718098471.812730551
1718098471.812829,3.763327837,16173.000000000,1718098471.812829018,,,,
1718098471.813738,,,,-1.799741626,-1.800466657,79314.000000000,1718098471.813737631
1718098471.814745,,,,-1.803708315,-1.802077413,79315.000000000,1718098471.814744711
1718098471.815752,,,,-1.809453964,-1.810010791,79316.000000000,1718098471.815751791
1718098471.816759,,,,-1.810559869,-1.807294130,79317.000000000,1718098471.816758871
1718098471.817766,,,,-1.810631990,-1.808977008,79318.000000000,1718098471.817765951
1718098471.817829,4.010388374,16174.000000000,1718098471.817829132,,,,
1718098471.818773,,,,-1.813180208,-1.812246561,79319.000000000,1718098471.818773031
1718098471.819780,,,,-1.804333329,-1.802606225,79320.000000000,1718098471.819780111
1718098471.820787,,,,-1.800174356,-1.800442576,79321.000000000,1718098471.820787191
1718098471.821794,,,,-1.806761384,-1.809553981,79322.000000000,1718098471.821794271
1718098471.822801,,,,-1.815175653,-1.815732360,79323.000000000,1718098471.822801352
1718098471.822829,4.204497814,16175.000000000,1718098471.822829008,,,,
1718098471.823808,,,,-1.817291141,-1.815083265,79324.000000000,1718098471.823808432
1718098471.824816,,,,-1.812194586,-1.810034752,79325.000000000,1718098471.824815512
1718098471.825823,,,,-1.806496978,-1.806717157,79326.000000000,1718098471.825822592
1718098471.826830,,,,-1.806040168,-1.804841995,79327.000000000,1718098471.826829672
1718098471.827829,4.504441738,16176.000000000,1718098471.827829123,,,,
1718098471.827837,,,,-1.793995857,-1.794744968,79328.000000000,1718098471.827836752
1718098471.828844,,,,-1.777311802,-1.776378036,79329.000000000,1718098471.828843832
1718098471.829851,,,,-1.777840614,-1.778108954,79330.000000000,1718098471.829850912
1718098471.830858,,,,-1.774234533,-1.776161671,79331.000000000,1718098471.830857992
1718098471.831865,,,,-1.726249695,-1.726710320,79332.000000000,1718098471.831865072
1718098471.832829,4.857268810,16177.000000000,1718098471.832828999,,,,
1718098471.832872,,,,-1.664393306,-1.663988471,79333.000000000,1718098471.832872152
1718098471.833879,,,,-1.634583116,-1.633913755,79334.000000000,1718098471.833879232
1718098471.834886,,,,-1.635544658,-1.635548592,79335.000000000,1718098471.834886312
1718098471.835893,,,,-1.668287873,-1.668099403,79336.000000000,1718098471.835893393
1718098471.836900,,,,-1.712282062,-1.712478280,79337.000000000,1718098471.836900473
1718098471.837829,5.368755341,16178.000000000,1718098471.837829113,,,,
1718098471.837908,,,,-1.763344169,-1.763059616,79338.000000000,1718098471.837907553
1718098471.838915,,,,-1.812458992,-1.812655210,79339.000000000,1718098471.838914633
1718098471.839922,,,,-1.872392058,-1.872083426,79340.000000000,1718098471.839921713
1718098471.840929,,,,-1.870637178,-1.868549466,79341.000000000,1718098471.840928793
1718098471.841936,,,,-1.805727720,-1.804793954,79342.000000000,1718098471.841935873
1718098471.842829,5.862498283,16179.000000000,1718098471.842828989,,,,
1718098471.842943,,,,-1.772912383,-1.769430280,79343.000000000,1718098471.842942953
1718098471.843950,,,,-1.764498115,-1.762001753,79344.000000000,1718098471.843950033
1718098471.844957,,,,-1.764161587,-1.765800238,79345.000000000,1718098471.844957113
1718098471.845964,,,,-1.804597735,-1.805443048,79346.000000000,1718098471.845964193
1718098471.846971,,,,-1.843423247,-1.842994332,79347.000000000,1718098471.846971273
1718098471.847829,6.356128216,16180.000000000,1718098471.847829103,,,,
1718098471.847978,,,,-1.872512341,-1.872203588,79348.000000000,1718098471.847978354
1718098471.848985,,,,-1.901601315,-1.906004667,79349.000000000,1718098471.848985434
1718098471.849993,,,,-1.895470977,-1.898095250,79350.000000000,1718098471.849992514
1718098471.851000,,,,-1.878089666,-1.879487872,79351.000000000,1718098471.850999594
1718098471.852007,,,,-1.866454124,-1.868020535,79352.000000000,1718098471.852006674
1718098471.853014,,,,-1.865348220,-1.865255952,79353.000000000,1718098471.853013754
1718098471.854021,,,,-1.843062639,-1.844220400,79354.000000000,1718098471.854020834
1718098471.855028,,,,-1.768104196,-1.765319347,79355.000000000,1718098471.855027914
1718098471.856035,,,,-1.704324722,-1.703799605,79356.000000000,1718098471.856034994
1718098471.857042,,,,-1.641410589,-1.639491200,79357.000000000,1718098471.857042074
1718098471.858049,,,,-1.578905106,-1.577274323,79358.000000000,1718098471.858049154
1718098471.859056,,,,-1.549359322,-1.551021934,79359.000000000,1718098471.859056234
1718098471.860063,,,,-1.563879848,-1.564917445,79360.000000000,1718098471.860063314
1718098471.861070,,,,-1.589002132,-1.589054108,79361.000000000,1718098471.861070395
1718098471.862077,,,,-1.568760037,-1.570711136,79362.000000000,1718098471.862077475
1718098471.863085,,,,-1.582751632,-1.582827687,79363.000000000,1718098471.863084555
1718098471.864092,,,,-1.622562766,-1.623648524,79364.000000000,1718098471.864091635
1718098471.865099,,,,-1.672326684,-1.670527577,79365.000000000,1718098471.865098715
1718098471.866106,,,,-1.718412399,-1.717887402,79366.000000000,1718098471.866105795
1718098471.867113,,,,-1.801712871,-1.802702427,79367.000000000,1718098471.867112875
1718098471.868120,,,,-1.872368097,-1.875256777,79368.000000000,1718098471.868119955
1718098471.869127,,,,-2.000696421,-2.003152370,79369.000000000,1718098471.869127035
1718098471.870134,,,,-2.086833715,-2.085178852,79370.000000000,1718098471.870134115
1718098471.871141,,,,-2.077770472,-2.077509880,79371.000000000,1718098471.871141195
1718098471.872148,,,,-2.004350662,-2.006494045,79372.000000000,1718098471.872148275
1718098471.873155,,,,-1.916314125,-1.916270018,79373.000000000,1718098471.873155355
1718098471.874162,,,,-1.872319937,-1.872516155,79374.000000000,1718098471.874162436
1718098471.875170,,,,-1.839047909,-1.839700818,79375.000000000,1718098471.875169516
1718098471.876177,,,,-1.842100978,-1.844508886,79376.000000000,1718098471.876176596
1718098471.877184,,,,-1.846476436,-1.847634196,79377.000000000,1718098471.877183676
1718098471.878191,,,,-1.815488100,-1.815708399,79378.000000000,1718098471.878190756
1718098471.879198,,,,-1.785173059,-1.785513401,79379.000000000,1718098471.879197836
1718098471.880205,,,,-1.750025749,-1.753130794,79380.000000000,1718098471.880204916
1718098471.881212,,,,-1.716392994,-1.720171213,79381.000000000,1718098471.881211996
1718098471.882219,,,,-1.643886805,-1.649323821,79382.000000000,1718098471.882219076
1718098471.883226,,,,-1.611672401,-1.611964822,79383.000000000,1718098471.883226156
1718098471.884233,,,,-1.626842022,-1.625643849,79384.000000000,1718098471.884233236
1718098471.885240,,,,-1.679659128,-1.676465511,79385.000000000,1718098471.885240316
1718098471.886247,,,,-1.711873412,-1.713367820,79386.000000000,1718098471.886247396
1718098471.887254,,,,-1.702569723,-1.703487158,79387.000000000,1718098471.887254477
1718098471.888262,,,,-1.725288033,-1.720700145,79388.000000000,1718098471.888261557
1718098471.889269,,,,-1.745265722,-1.746255279,79389.000000000,1718098471.889268637
1718098471.890276,,,,-1.796063423,-1.796668291,79390.000000000,1718098471.890275717
1718098471.891283,,,,-1.836643815,-1.836335182,79391.000000000,1718098471.891282797
1718098471.892290,,,,-1.813204288,-1.810900211,79392.000000000,1718098471.892289877
1718098471.893297,,,,-1.631842494,-1.630043268,79393.000000000,1718098471.893296957
1718098471.894304,,,,-1.409010649,-1.410384774,79394.000000000,1718098471.894304037
1718098471.895311,,,,-1.425286055,-1.427285314,79395.000000000,1718098471.895311117
1718098471.896318,,,,-1.512865782,-1.515081406,79396.000000000,1718098471.896318197
1718098471.897012,29.969142914,16191.000000000,1718098471.897011757,,,,
1718098471.897325,,,,-1.603450537,-1.604247808,79397.000000000,1718098471.897325277
1718098471.898332,,,,-1.691679358,-1.694015145,79398.000000000,1718098471.898332357
1718098471.899339,,,,-1.820368409,-1.823882103,79399.000000000,1718098471.899339437
1718098471.900347,,,,-1.892538071,-1.895835519,79400.000000000,1718098471.900346518
1718098471.901354,,,,-1.878810883,-1.880040884,79401.000000000,1718098471.901353598
1718098471.902012,34.740135193,16192.000000000,1718098471.902011871,,,,
1718098471.902361,,,,-1.873714328,-1.875833750,79402.000000000,1718098471.902360678
1718098471.903368,,,,-1.954923272,-1.958004355,79403.000000000,1718098471.903367758
1718098471.904375,,,,-2.069236040,-2.071475744,79404.000000000,1718098471.904374838
1718098471.905382,,,,-2.070654392,-2.072100878,79405.000000000,1718098471.905381918
1718098471.906389,,,,-1.957279325,-1.957523584,79406.000000000,1718098471.906388998
1718098471.907012,39.933994293,16193.000000000,1718098471.907011747,,,,
1718098471.907396,,,,-1.883619070,-1.884271979,79407.000000000,1718098471.907396078
1718098471.908403,,,,-1.840466261,-1.838498831,79408.000000000,1718098471.908403158
1718098471.909410,,,,-1.871670842,-1.871001601,79409.000000000,1718098471.909410238
1718098471.910417,,,,-1.917468071,-1.914106369,79410.000000000,1718098471.910417318
1718098471.911424,,,,-1.890710950,-1.889128208,79411.000000000,1718098471.911424398
1718098471.912012,45.633972168,16194.000000000,1718098471.912011862,,,,
1718098471.912431,,,,-1.795318127,-1.795394063,79412.000000000,1718098471.912431479
1718098471.913439,,,,-1.756925344,-1.756688833,79413.000000000,1718098471.913438559
1718098471.914446,,,,-1.748847723,-1.751592278,79414.000000000,1718098471.914445639
1718098471.915453,,,,-1.743606925,-1.742216468,79415.000000000,1718098471.915452719
1718098471.916460,,,,-1.711392641,-1.707093239,79416.000000000,1718098471.916459799
1718098471.917012,51.697803497,16195.000000000,1718098471.917011738,,,,
1718098471.917467,,,,-1.764954925,-1.764814496,79417.000000000,1718098471.917466879
1718098471.918474,,,,-1.915328503,-1.916750789,79418.000000000,1718098471.918473959
1718098471.919481,,,,-2.039473772,-2.040968180,79419.000000000,1718098471.919481039
1718098471.920488,,,,-2.114600658,-2.115277529,79420.000000000,1718098471.920488119
1718098471.921495,,,,-2.105753660,-2.105421066,79421.000000000,1718098471.921495199
1718098471.922012,58.087825775,16196.000000000,1718098471.922011852,,,,
1718098471.922502,,,,-2.045628309,-2.045175314,79422.000000000,1718098471.922502279
1718098471.923509,,,,-1.993676662,-1.994906545,79423.000000000,1718098471.923509359
1718098471.924516,,,,-1.942758799,-1.943315625,79424.000000000,1718098471.924516439
1718098471.925524,,,,-1.825777531,-1.828233480,79425.000000000,1718098471.925523520
1718098471.926531,,,,-1.744929194,-1.747361064,79426.000000000,1718098471.926530600
1718098471.927012,64.732345581,16197.000000000,1718098471.927011728,,,,
1718098471.927538,,,,-1.664008737,-1.663892388,79427.000000000,1718098471.927537680
1718098471.928545,,,,-1.534670591,-1.535587907,79428.000000000,1718098471.928544760
1718098471.929552,,,,-1.520125985,-1.523207068,79429.000000000,1718098471.929551840
1718098471.930559,,,,-1.590180159,-1.590400457,79430.000000000,1718098471.930558920
1718098471.931566,,,,-1.617971063,-1.617926836,79431.000000000,1718098471.931566000
1718098471.932012,71.457992554,16198.000000000,1718098471.932011843,,,,
1718098471.932573,,,,-1.494306445,-1.494863272,79432.000000000,1718098471.932573080
1718098471.933580,,,,-1.377493501,-1.377521396,79433.000000000,1718098471.933580160
1718098471.934587,,,,-1.447403431,-1.448128462,79434.000000000,1718098471.934587240
1718098471.935594,,,,-1.606383443,-1.607877851,79435.000000000,1718098471.935594320
1718098471.936601,,,,-1.846452355,-1.845302224,79436.000000000,1718098471.936601400
1718098471.937012,78.093650818,16199.000000000,1718098471.937011719,,,,
1718098471.937608,,,,-2.107676983,-2.109435797,79437.000000000,1718098471.937608480
1718098471.938616,,,,-2.289928198,-2.292384148,79438.000000000,1718098471.938615561
1718098471.939623,,,,-2.351832628,-2.352124929,79439.000000000,1718098471.939622641
1718098471.940630,,,,-2.356640816,-2.355659008,79440.000000000,1718098471.940629721
1718098471.941637,,,,-2.312502384,-2.312169552,79441.000000000,1718098471.941636801
1718098471.942012,84.928787231,16200.000000000,1718098471.942011833,,,,
1718098471.942644,,,,-2.245813847,-2.243582010,79442.000000000,1718098471.942643881
1718098471.943651,,,,-2.146165848,-2.145087957,79443.000000000,1718098471.943650961
1718098471.944658,,,,-2.081761122,-2.082774878,79444.000000000,1718098471.944658041
1718098471.945665,,,,-2.009687662,-2.009066343,79445.000000000,1718098471.945665121
1718098471.946672,,,,-1.897201896,-1.897902966,79446.000000000,1718098471.946672201
1718098471.947679,,,,-1.855034828,-1.856024384,79447.000000000,1718098471.947679281
1718098471.948686,,,,-1.873425841,-1.873285413,79448.000000000,1718098471.948686361
1718098471.949693,,,,-1.839071870,-1.842321277,79449.000000000,1718098471.949693441
1718098471.950701,,,,-1.842822194,-1.846480250,79450.000000000,1718098471.950700521
1718098471.951708,,,,-1.938768029,-1.941200018,79451.000000000,1718098471.951707602
1718098471.952715,,,,-2.003100634,-2.003873587,79452.000000000,1718098471.952714682
1718098471.953722,,,,-1.986368299,-1.988079071,79453.000000000,1718098471.953721762
1718098471.954729,,,,-1.878209949,-1.879992723,79454.000000000,1718098471.954728842
1718098471.955736,,,,-1.730673075,-1.729787469,79455.000000000,1718098471.955735922
1718098471.956743,,,,-1.717787385,-1.718199968,79456.000000000,1718098471.956743002
1718098471.957750,,,,-1.805487275,-1.806164265,79457.000000000,1718098471.957750082
1718098471.958757,,,,-1.815776587,-1.814770818,79458.000000000,1718098471.958757162
1718098471.959764,,,,-1.779042721,-1.777363658,79459.000000000,1718098471.959764242
1718098471.960771,,,,-1.727860332,-1.726566076,79460.000000000,1718098471.960771322
1718098471.961778,,,,-1.712883115,-1.711083889,79461.000000000,1718098471.961778402
1718098471.962785,,,,-1.694996953,-1.694015145,79462.000000000,1718098471.962785482
1718098471.963793,,,,-1.787769437,-1.788157940,79463.000000000,1718098471.963792562
1718098471.964800,,,,-1.858688951,-1.860111237,79464.000000000,1718098471.964799643
1718098471.965807,,,,-1.889436841,-1.890835047,79465.000000000,1718098471.965806723
1718098471.966814,,,,-1.971679568,-1.968726397,79466.000000000,1718098471.966813803
1718098471.967821,,,,-1.963529825,-1.962475896,79467.000000000,1718098471.967820883
1718098471.968828,,,,-1.886551976,-1.891508222,79468.000000000,1718098471.968827963
1718098471.969835,,,,-1.957038879,-1.961081505,79469.000000000,1718098471.969835043
1718098471.970842,,,,-1.989157081,-1.990723491,79470.000000000,1718098471.970842123
1718098471.971849,,,,-1.932084799,-1.930574059,79471.000000000,1718098471.971849203
1718098471.972856,,,,-1.756997466,-1.755751252,79472.000000000,1718098471.972856283
1718098471.973863,,,,-1.629943252,-1.630596161,79473.000000000,1718098471.973863363
1718098471.974870,,,,-1.715960264,-1.718897104,79474.000000000,1718098471.974870443
1718098471.975878,,,,-1.835994720,-1.837825656,79475.000000000,1718098471.975877523
1718098471.976885,,,,-1.909101963,-1.909466505,79476.000000000,1718098471.976884604
1718098471.977892,,,,-1.947230339,-1.948965073,79477.000000000,1718098471.977891684
1718098471.978899,,,,-1.979925513,-1.982717991,79478.000000000,1718098471.978898764
1718098471.979906,,,,-2.007067204,-2.006638288,79479.000000000,1718098471.979905844
1718098471.980913,,,,-1.969275475,-1.969495773,79480.000000000,1718098471.980912924
1718098471.981920,,,,-1.922228098,-1.923337936,79481.000000000,1718098471.981920004
1718098471.982927,,,,-1.833734870,-1.832849264,79482.000000000,1718098471.982927084
1718098471.983934,,,,-1.780364871,-1.780801535,79483.000000000,1718098471.983934164
1718098471.984941,,,,-1.745890737,-1.747192860,79484.000000000,1718098471.984941244
1718098471.985948,,,,-1.686751008,-1.688894510,79485.000000000,1718098471.985948324
1718098471.986955,,,,-1.597175956,-1.598189592,79486.000000000,1718098471.986955404
1718098471.987962,,,,-1.357612014,-1.359635234,79487.000000000,1718098471.987962484
1718098471.988970,,,,-1.320253015,-1.320809722,79488.000000000,1718098471.988969564
1718098471.989977,,,,-1.487791538,-1.488780975,79489.000000000,1718098471.989976645
1718098471.990984,,,,-1.699732900,-1.700433969,79490.000000000,1718098471.990983725
1718098471.991991,,,,-1.807554722,-1.809842467,79491.000000000,1718098471.991990805
1718098471.992998,,,,-1.921026111,-1.923337936,79492.000000000,1718098471.992997885
1718098471.994005,,,,-1.979564905,-1.981035233,79493.000000000,1718098471.994004965
1718098471.995012,,,,-2.055436850,-2.056834936,79494.000000000,1718098471.995012045
1718098471.996019,,,,-2.131477118,-2.132298231,79495.000000000,1718098471.996019125
1718098471.997026,,,,-2.078972578,-2.079216719,79496.000000000,1718098471.997026205
1718098471.998033,,,,-2.041925907,-2.042867422,79497.000000000,1718098471.998033285
1718098471.999040,,,,-2.111306906,-2.114243746,79498.000000000,1718098471.999040365
1718098472.000047,,,,-2.196626902,-2.198938608,79499.000000000,1718098472.000047445
1718098472.001055,,,,-2.174437523,-2.174946308,79500.000000000,1718098472.001054525
1718098472.001850,150.232421875,16211.000000000,1718098472.001849890,,,,
1718098472.002062,,,,-2.147103310,-2.148525715,79501.000000000,1718098472.002061605
1718098472.003069,,,,-2.141886711,-2.141914606,79502.000000000,1718098472.003068686
1718098472.004076,,,,-2.118134499,-2.117922068,79503.000000000,1718098472.004075766
1718098472.005083,,,,-2.067048311,-2.065008879,79504.000000000,1718098472.005082846
1718098472.006090,,,,-1.984541297,-1.986516476,79505.000000000,1718098472.006089926
1718098472.006850,154.875625610,16212.000000000,1718098472.006850004,,,,
1718098472.007097,,,,-1.859674692,-1.862972021,79506.000000000,1718098472.007097006
1718098472.008104,,,,-1.797097087,-1.798471332,79507.000000000,1718098472.008104086
1718098472.009111,,,,-1.831763625,-1.832801223,79508.000000000,1718098472.009111166
1718098472.010118,,,,-1.913092732,-1.914058208,79509.000000000,1718098472.010118246
1718098472.011125,,,,-2.011466742,-2.016927719,79510.000000000,1718098472.011125326
1718098472.011850,159.181838989,16213.000000000,1718098472.011849880,,,,
1718098472.012132,,,,-2.052768230,-2.056041718,79511.000000000,1718098472.012132406
1718098472.013139,,,,-2.088564634,-2.085683584,79512.000000000,1718098472.013139486
1718098472.014147,,,,-2.096810579,-2.097102880,79513.000000000,1718098472.014146566
1718098472.015154,,,,-2.069452524,-2.069312096,79514.000000000,1718098472.015153646
1718098472.016161,,,,-2.035627365,-2.036664963,79515.000000000,1718098472.016160727
1718098472.016850,163.251296997,16214.000000000,1718098472.016849995,,,,
1718098472.017168,,,,-2.003509283,-2.001565695,79516.000000000,1718098472.017167807
1718098472.018175,,,,-2.010288715,-2.011422396,79517.000000000,1718098472.018174887
1718098472.019182,,,,-1.991152406,-1.991997719,79518.000000000,1718098472.019181967
1718098472.020189,,,,-1.911674380,-1.911990762,79519.000000000,1718098472.020189047
1718098472.021196,,,,-1.795847058,-1.794985414,79520.000000000,1718098472.021196127
1718098472.021850,167.052474976,16215.000000000,1718098472.021849871,,,,
1718098472.022203,,,,-1.705574751,-1.704328537,79521.000000000,1718098472.022203207
1718098472.023210,,,,-1.686390400,-1.687163591,79522.000000000,1718098472.023210287
1718098472.024217,,,,-1.786687613,-1.787100077,79523.000000000,1718098472.024217367
1718098472.025224,,,,-1.834600329,-1.834700346,79524.000000000,1718098472.025224447
1718098472.026232,,,,-1.830753922,-1.830325007,79525.000000000,1718098472.026231527
1718098472.026850,170.553970337,16216.000000000,1718098472.026849985,,,,
1718098472.027239,,,,-1.862823963,-1.861697912,79526.000000000,1718098472.027238607
1718098472.028246,,,,-2.006297827,-2.008032799,79527.000000000,1718098472.028245687
1718098472.029253,,,,-2.138232470,-2.140135527,79528.000000000,1718098472.029252768
1718098472.030260,,,,-2.114889145,-2.114556313,79529.000000000,1718098472.030259848
1718098472.031267,,,,-2.078347445,-2.079433203,79530.000000000,1718098472.031266928
1718098472.031850,173.708007813,16217.000000000,1718098472.031849861,,,,
1718098472.032274,,,,-2.139073849,-2.143260717,79531.000000000,1718098472.032274008
1718098472.033281,,,,-2.138160229,-2.138284445,79532.000000000,1718098472.033281088
1718098472.034288,,,,-2.040796041,-2.044718504,79533.000000000,1718098472.034288168
1718098472.035295,,,,-1.937614083,-1.939877748,79534.000000000,1718098472.035295248
1718098472.036302,,,,-1.917155623,-1.917832613,79535.000000000,1718098472.036302328
1718098472.036850,176.711685181,16218.000000000,1718098472.036849976,,,,
1718098472.037309,,,,-1.965741515,-1.965913653,79536.000000000,1718098472.037309408
1718098472.038316,,,,-2.012788773,-2.012888908,79537.000000000,1718098472.038316488
1718098472.039324,,,,-2.025770664,-2.026688099,79538.000000000,1718098472.039323568
1718098472.040331,,,,-2.071928501,-2.070970774,79539.000000000,1718098472.040330648
1718098472.041338,,,,-2.159267902,-2.159079552,79540.000000000,1718098472.041337729
1718098472.041850,179.483993530,16219.000000000,1718098472.041849852,,,,
1718098472.042345,,,,-2.206675768,-2.207304716,79541.000000000,1718098472.042344809
1718098472.043352,,,,-2.145324469,-2.148117065,79542.000000000,1718098472.043351889
1718098472.044359,,,,-2.115922689,-2.117801905,79543.000000000,1718098472.044358969
1718098472.045366,,,,-2.117677689,-2.121311665,79544.000000000,1718098472.045366049
1718098472.046373,,,,-2.083395958,-2.085683584,79545.000000000,1718098472.046373129
1718098472.046850,182.155990601,16220.000000000,1718098472.046849966,,,,
1718098472.047380,,,,-2.064235687,-2.066739798,79546.000000000,1718098472.047380209
1718098472.048387,,,,-2.066663742,-2.068879366,79547.000000000,1718098472.048387289
1718098472.049394,,,,-2.062576771,-2.064503908,79548.000000000,1718098472.049394369
1718098472.050401,,,,-1.982089162,-1.983775854,79549.000000000,1718098472.050401449
1718098472.051409,,,,-1.786976099,-1.785946131,79550.000000000,1718098472.051408529
1718098472.052416,,,,-1.645064712,-1.644371390,79551.000000000,1718098472.052415609
1718098472.053423,,,,-1.595517159,-1.596290350,79552.000000000,1718098472.053422689
1718098472.054430,,,,-1.531304836,-1.532150149,79553.000000000,1718098472.054429770
1718098472.055437,,,,-1.552268267,-1.552945256,79554.000000000,1718098472.055436850
1718098472.056444,,,,-1.685476899,-1.686514497,79555.000000000,1718098472.056443930
1718098472.057451,,,,-1.875589490,-1.879439831,79556.000000000,1718098472.057451010
1718098472.058458,,,,-2.005288124,-2.010460854,79557.000000000,1718098472.058458090
1718098472.060472,,,,-2.164003849,-2.165858984,79559.000000000,1718098472.060472250
1718098472.061479,,,,-2.149771929,-2.151362419,79560.000000000,1718098472.061479330
1718098472.062486,,,,-2.053249121,-2.052291393,79561.000000000,1718098472.062486410
1718098472.063493,,,,-2.019159555,-2.021327019,79562.000000000,1718098472.063493490
1718098472.064501,,,,-2.102051497,-2.103786230,79563.000000000,1718098472.064500570
1718098472.065508,,,,-2.135395765,-2.135159016,79564.000000000,1718098472.065507650
1718098472.066515,,,,-2.003533363,-2.001998425,79565.000000000,1718098472.066514730
1718098472.067522,,,,-1.962616324,-1.964567423,79566.000000000,1718098472.067521811
1718098472.068529,,,,-2.014014959,-2.014523745,79567.000000000,1718098472.068528891
1718098472.069536,,,,-1.999037743,-2.000604153,79568.000000000,1718098472.069535971
1718098472.070543,,,,-1.956221461,-1.957475424,79569.000000000,1718098472.070543051
1718098472.071550,,,,-1.983411312,-1.982910395,79570.000000000,1718098472.071550131
1718098472.072557,,,,-2.061567068,-2.061330557,79571.000000000,1718098472.072557211
1718098472.073564,,,,-2.052984715,-2.054142475,79572.000000000,1718098472.073564291
1718098472.074571,,,,-1.982858419,-1.986035585,79573.000000000,1718098472.074571371
1718098472.075578,,,,-1.890422463,-1.890762925,79574.000000000,1718098472.075578451
1718098472.076586,,,,-1.774474978,-1.773781657,79575.000000000,1718098472.076585531
1718098472.077593,,,,-1.689155102,-1.690913916,79576.000000000,1718098472.077592611
1718098472.078600,,,,-1.689924359,-1.688798308,79577.000000000,1718098472.078599691
1718098472.079607,,,,-1.808876991,-1.808400035,79578.000000000,1718098472.079606771
1718098472.080614,,,,-1.967760921,-1.966274261,79579.000000000,1718098472.080613852
1718098472.081621,,,,-2.011634827,-2.009451151,79580.000000000,1718098472.081620932
1718098472.082628,,,,-1.863569260,-1.866097331,79581.000000000,1718098472.082628012
1718098472.083635,,,,-1.736490965,-1.739211321,79582.000000000,1718098472.083635092
1718098472.084642,,,,-1.814502478,-1.815948725,79583.000000000,1718098472.084642172
1718098472.085649,,,,-2.016346931,-2.016591072,79584.000000000,1718098472.085649252
1718098472.086656,,,,-2.168787956,-2.167854309,79585.000000000,1718098472.086656332
1718098472.087663,,,,-2.219417334,-2.219060659,79586.000000000,1718098472.087663412
1718098472.088670,,,,-2.291899681,-2.294259310,79587.000000000,1718098472.088670492
1718098472.089678,,,,-2.291707277,-2.292432308,79588.000000000,1718098472.089677572
1718098472.090685,,,,-2.145516634,-2.147395849,79589.000000000,1718098472.090684652
1718098472.091692,,,,-1.955091596,-1.957379341,79590.000000000,1718098472.091691732
1718098472.092699,,,,-1.803515911,-1.802534103,79591.000000000,1718098472.092698812
1718098472.093706,,,,-1.736394763,-1.736014009,79592.000000000,1718098472.093705893
1718098472.094713,,,,-1.777504086,-1.777411819,79593.000000000,1718098472.094712973
1718098472.095720,,,,-1.860203505,-1.859438062,79594.000000000,1718098472.095720053
1718098472.096727,,,,-2.033656120,-2.036063910,79595.000000000,1718098472.096727133
1718098472.097734,,,,-2.206603765,-2.209372282,79596.000000000,1718098472.097734213
1718098472.098741,,,,-2.278316736,-2.282647848,79597.000000000,1718098472.098741293
1718098472.099748,,,,-2.316493034,-2.319766521,79598.000000000,1718098472.099748373
1718098472.100755,,,,-2.277138710,-2.279089928,79599.000000000,1718098472.100755453
1718098472.101763,,,,-2.269061089,-2.269617796,79600.000000000,1718098472.101762533
1718098472.102770,,,,-2.220402956,-2.221080065,79601.000000000,1718098472.102769613
1718098472.103777,,,,-2.049763203,-2.051786423,79602.000000000,1718098472.103776693
1718098472.104784,,,,-1.868449450,-1.869222641,79603.000000000,1718098472.104783773
1718098472.105791,,,,-1.818132639,-1.817343116,79604.000000000,1718098472.105790854
1718098472.106798,,,,-1.772143006,-1.770151496,79605.000000000,1718098472.106797934
1718098472.106863,203.515197754,16231.000000000,1718098472.106863499,,,,
1718098472.107805,,,,-1.692520738,-1.689399362,79606.000000000,1718098472.107805014
1718098472.108812,,,,-1.571692944,-1.570759296,79607.000000000,1718098472.108812094
1718098472.109819,,,,-1.589386821,-1.590472579,79608.000000000,1718098472.109819174
1718098472.110826,,,,-1.693458319,-1.694856524,79609.000000000,1718098472.110826254
1718098472.111833,,,,-1.763175964,-1.762506604,79610.000000000,1718098472.111833334
1718098472.111864,205.245986938,16232.000000000,1718098472.111863613,,,,
1718098472.112840,,,,-1.863304734,-1.860375643,79611.000000000,1718098472.112840414
1718098472.113847,,,,-1.976487637,-1.978102207,79612.000000000,1718098472.113847494
1718098472.114855,,,,-2.096642256,-2.099579096,79613.000000000,1718098472.114854574
1718098472.115862,,,,-2.152464390,-2.153574228,79614.000000000,1718098472.115861654
1718098472.116863,206.911315918,16233.000000000,1718098472.116863489,,,,
1718098472.116869,,,,-2.175543308,-2.175883770,79615.000000000,1718098472.116868734
1718098472.117876,,,,-2.212733984,-2.214372635,79616.000000000,1718098472.117875814
1718098472.118883,,,,-2.107532740,-2.107512474,79617.000000000,1718098472.118882895
1718098472.119890,,,,-1.886047125,-1.884007573,79618.000000000,1718098472.119889975
1718098472.120897,,,,-1.728821993,-1.730003834,79619.000000000,1718098472.120897055
1718098472.121864,208.527496338,16234.000000000,1718098472.121863604,,,,
1718098472.121904,,,,-1.734735966,-1.737360239,79620.000000000,1718098472.121904135
1718098472.122911,,,,-1.764930844,-1.766545415,79621.000000000,1718098472.122911215
1718098472.123918,,,,-1.750145912,-1.751688361,79622.000000000,1718098472.123918295
1718098472.124925,,,,-1.879772544,-1.881771803,79623.000000000,1718098472.124925375
1718098472.125932,,,,-1.965068460,-1.967716694,79624.000000000,1718098472.125932455
1718098472.126863,210.046051025,16235.000000000,1718098472.126863480,,,,
1718098472.126940,,,,-1.972088218,-1.970409274,79625.000000000,1718098472.126939535
1718098472.127947,,,,-2.055773258,-2.056474447,79626.000000000,1718098472.127946615
1718098472.128954,,,,-2.144699335,-2.145328283,79627.000000000,1718098472.128953695
1718098472.129961,,,,-2.124168634,-2.125134230,79628.000000000,1718098472.129960775
1718098472.130968,,,,-2.108758688,-2.108930826,79629.000000000,1718098472.130967855
1718098472.131864,211.499465942,16236.000000000,1718098472.131863594,,,,
1718098472.131975,,,,-2.125226498,-2.124773502,79630.000000000,1718098472.131974936
1718098472.132982,,,,-2.120009661,-2.121936798,79631.000000000,1718098472.132982016
1718098472.133989,,,,-2.112965822,-2.116239309,79632.000000000,1718098472.133989096
1718098472.134996,,,,-2.056085825,-2.054695368,79633.000000000,1718098472.134996176
1718098472.136003,,,,-1.982617974,-1.986083746,79634.000000000,1718098472.136003256
1718098472.136863,212.936187744,16237.000000000,1718098472.136863470,,,,
1718098472.137010,,,,-1.934512854,-1.938050747,79635.000000000,1718098472.137010336
1718098472.138017,,,,-1.833037734,-1.831454873,79636.000000000,1718098472.138017416
1718098472.139024,,,,-1.770989060,-1.770055413,79637.000000000,1718098472.139024496
1718098472.140032,,,,-1.704853535,-1.705169916,79638.000000000,1718098472.140031576
1718098472.141039,,,,-1.552989483,-1.556238770,79639.000000000,1718098472.141038656
1718098472.141864,214.388580322,16238.000000000,1718098472.141863585,,,,
1718098472.142046,,,,-1.337321758,-1.340883613,79640.000000000,1718098472.142045736
1718098472.143053,,,,-1.070471764,-1.069513917,79641.000000000,1718098472.143052816
1718098472.144060,,,,-1.221398234,-1.224310994,79642.000000000,1718098472.144059896
1718098472.145067,,,,-1.525390863,-1.528207541,79643.000000000,1718098472.145066977
1718098472.146074,,,,-1.864122152,-1.866626263,79644.000000000,1718098472.146074057
1718098472.146863,215.759826660,16239.000000000,1718098472.146863461,,,,
1718098472.147081,,,,-2.105248690,-2.106983662,79645.000000000,1718098472.147081137
1718098472.148088,,,,-2.229274035,-2.230431795,79646.000000000,1718098472.148088217
1718098472.149095,,,,-2.252208710,-2.252597094,79647.000000000,1718098472.149095297
1718098472.150102,,,,-2.122942686,-2.122898340,79648.000000000,1718098472.150102377
1718098472.151109,,,,-1.972088218,-1.970601559,79649.000000000,1718098472.151109457
1718098472.151864,217.066146851,16240.000000000,1718098472.151863575,,,,
1718098472.152117,,,,-1.949081421,-1.948484302,79650.000000000,1718098472.152116537
1718098472.152761,218.291458130,16241.000000000,1718098472.152761221,,,,
1718098472.153124,,,,-1.997210622,-1.995555639,79651.000000000,1718098472.153123617
1718098472.154131,,,,-2.043152094,-2.042843342,79652.000000000,1718098472.154130697
1718098472.155138,,,,-1.942999125,-1.947065949,79653.000000000,1718098472.155137777
1718098472.156145,,,,-1.883955598,-1.886579871,79654.000000000,1718098472.156144857
1718098472.157152,,,,-1.887465477,-1.889512777,79655.000000000,1718098472.157151937
1718098472.157761,219.435867310,16242.000000000,1718098472.157761335,,,,
1718098472.158159,,,,-1.909486651,-1.911125302,79656.000000000,1718098472.158159018
1718098472.159166,,,,-2.008485556,-2.009402990,79657.000000000,1718098472.159166098
1718098472.160173,,,,-2.084069014,-2.085707664,79658.000000000,1718098472.160173178
1718098472.161180,,,,-2.055196285,-2.055897474,79659.000000000,1718098472.161180258
1718098472.162187,,,,-1.955716610,-1.958028436,79660.000000000,1718098472.162187338
1718098472.162761,220.596130371,16243.000000000,1718098472.162761211,,,,
1718098472.163194,,,,-1.947206259,-1.948484302,79661.000000000,1718098472.163194418
1718098472.164201,,,,-1.987882853,-1.990122557,79662.000000000,1718098472.164201498
1718098472.165209,,,,-1.950644016,-1.953052044,79663.000000000,1718098472.165208578
1718098472.166216,,,,-1.914054394,-1.915981531,79664.000000000,1718098472.166215658
1718098472.167223,,,,-1.863304734,-1.862707615,79665.000000000,1718098472.167222738
1718098472.167761,221.675521851,16244.000000000,1718098472.167761326,,,,
1718098472.168230,,,,-1.838927627,-1.836046696,79666.000000000,1718098472.168229818
1718098472.169237,,,,-1.895639300,-1.892638087,79667.000000000,1718098472.169236898
1718098472.170244,,,,-1.944585800,-1.944517612,79668.000000000,1718098472.170243979
1718098472.171251,,,,-2.038536310,-2.036953449,79669.000000000,1718098472.171251059
1718098472.172258,,,,-2.097772121,-2.097487688,79670.000000000,1718098472.172258139
1718098472.172761,222.674163818,16245.000000000,1718098472.172761202,,,,
1718098472.173265,,,,-2.048537254,-2.051257610,79671.000000000,1718098472.173265219
1718098472.174272,,,,-1.994205594,-1.994473815,79672.000000000,1718098472.174272299
1718098472.175279,,,,-1.945379138,-1.946801424,79673.000000000,1718098472.175279379
1718098472.176286,,,,-1.769041777,-1.770295739,79674.000000000,1718098472.176286459
1718098472.177294,,,,-1.581068754,-1.580832243,79675.000000000,1718098472.177293539
1718098472.177761,223.511596680,16246.000000000,1718098472.177761316,,,,
1718098472.182761,224.332733154,16247.000000000,1718098472.182761192,,,,
1718098472.186357,,,,-1.900231004,-1.901196480,79684.000000000,1718098472.186357260
1718098472.187364,,,,-1.863088369,-1.864198089,79685.000000000,1718098472.187364340
1718098472.187761,225.008911133,16248.000000000,1718098472.187761307,,,,
1718098472.188371,,,,-1.849938273,-1.851600885,79686.000000000,1718098472.188371420
1718098472.189378,,,,-1.837004423,-1.836647630,79687.000000000,1718098472.189378500
1718098472.190386,,,,-1.854121327,-1.853211641,79688.000000000,1718098472.190385580
1718098472.191393,,,,-1.848856449,-1.851552844,79689.000000000,1718098472.191392660
1718098472.192400,,,,-1.785197020,-1.785825968,79690.000000000,1718098472.192399740
1718098472.192761,225.620590210,16249.000000000,1718098472.192761183,,,,
1718098472.193407,,,,-1.756083965,-1.755005956,79691.000000000,1718098472.193406820
1718098472.194414,,,,-1.878618598,-1.878694534,79692.000000000,1718098472.194413900
1718098472.195421,,,,-1.931195259,-1.932353139,79693.000000000,1718098472.195420980
1718098472.196428,,,,-1.952038407,-1.953629017,79694.000000000,1718098472.196428061
1718098472.197435,,,,-1.969395757,-1.969327450,79695.000000000,1718098472.197435141
1718098472.198442,,,,-2.005288124,-2.003008127,79696.000000000,1718098472.198442221
1718098472.199449,,,,-1.947326422,-1.945912004,79697.000000000,1718098472.199449301
1718098472.200456,,,,-1.865708828,-1.868044615,79698.000000000,1718098472.200456381
1718098472.201463,,,,-1.887345314,-1.888310790,79699.000000000,1718098472.201463461
1718098472.202471,,,,-1.879123449,-1.881531358,79700.000000000,1718098472.202470541
1718098472.202761,226.908096313,16251.000000000,1718098472.202761173,,,,
1718098472.203478,,,,-1.866478086,-1.868525386,79701.000000000,1718098472.203477621
1718098472.204485,,,,-1.885494232,-1.884368181,79702.000000000,1718098472.204484701
1718098472.205492,,,,-1.904678583,-1.906605721,79703.000000000,1718098472.205491781
1718098472.206499,,,,-1.877320409,-1.879223466,79704.000000000,1718098472.206498861
1718098472.207506,,,,-1.896192193,-1.897830844,79705.000000000,1718098472.207505941
1718098472.207761,227.455215454,16252.000000000,1718098472.207761288,,,,
1718098472.208513,,,,-2.004831553,-2.005965233,79706.000000000,1718098472.208513021
1718098472.209520,,,,-2.064716339,-2.062220097,79707.000000000,1718098472.209520102
1718098472.210527,,,,-2.000407934,-1.999402165,79708.000000000,1718098472.210527182
1718098472.211534,,,,-1.942951083,-1.941224098,79709.000000000,1718098472.211534262
1718098472.212541,,,,-1.886744261,-1.890258074,79710.000000000,1718098472.212541342
1718098472.212761,227.986175537,16253.000000000,1718098472.212761164,,,,
1718098472.213548,,,,-1.843663692,-1.846720695,79711.000000000,1718098472.213548422
1718098472.214556,,,,-1.800751328,-1.800586820,79712.000000000,1718098472.214555502
1718098472.215563,,,,-1.812603235,-1.814145684,79713.000000000,1718098472.215562582
1718098472.216570,,,,-1.727235317,-1.728056550,79714.000000000,1718098472.216569662
1718098472.217577,,,,-1.527626634,-1.527342081,79715.000000000,1718098472.217576742
1718098472.217761,228.565338135,16254.000000000,1718098472.217761278,,,,
1718098472.218584,,,,-1.399033785,-1.396994233,79716.000000000,1718098472.218583822
1718098472.219591,,,,-1.340278745,-1.340018153,79717.000000000,1718098472.219590902
1718098472.220598,,,,-1.426776648,-1.425963044,79718.000000000,1718098472.220597982
1718098472.221605,,,,-1.566884875,-1.567105055,79719.000000000,1718098472.221605062
1718098472.222612,,,,-1.745650411,-1.745870590,79720.000000000,1718098472.222612143
1718098472.222761,229.112258911,16255.000000000,1718098472.222761154,,,,
1718098472.223619,,,,-1.997042298,-1.995988369,79721.000000000,1718098472.223619223
1718098472.224626,,,,-2.152536631,-2.150929689,79722.000000000,1718098472.224626303
1718098472.225633,,,,-2.194703579,-2.194298744,79723.000000000,1718098472.225633383
1718098472.226640,,,,-1.952278852,-1.952042341,79724.000000000,1718098472.226640463
1718098472.227648,,,,-1.608138442,-1.608815432,79725.000000000,1718098472.227647543
1718098472.227761,229.659133911,16256.000000000,1718098472.227761269,,,,
1718098472.228655,,,,-1.373430610,-1.373530626,79726.000000000,1718098472.228654623
1718098472.229662,,,,-1.455553174,-1.455100179,79727.000000000,1718098472.229661703
1718098472.230669,,,,-1.688890696,-1.689014673,79728.000000000,1718098472.230668783
1718098472.231676,,,,-1.839745045,-1.840470076,79729.000000000,1718098472.231675863
1718098472.232683,,,,-1.873978734,-1.872083426,79730.000000000,1718098472.232682943
1718098472.232761,230.318527222,16257.000000000,1718098472.232761145,,,,
1718098472.233690,,,,-1.910664678,-1.911894560,79731.000000000,1718098472.233690023
1718098472.234697,,,,-1.945234895,-1.949614167,79732.000000000,1718098472.234697104
1718098472.235704,,,,-1.876791477,-1.877949357,79733.000000000,1718098472.235704184
1718098472.236711,,,,-1.751155615,-1.749572873,79734.000000000,1718098472.236711264
1718098472.237718,,,,-1.741371155,-1.740774035,79735.000000000,1718098472.237718344
1718098472.237761,230.897445679,16258.000000000,1718098472.237761259,,,,
1718098472.238725,,,,-1.728148818,-1.729955792,79736.000000000,1718098472.238725424
1718098472.239733,,,,-1.786206722,-1.787172198,79737.000000000,1718098472.239732504
1718098472.240740,,,,-1.963409662,-1.964303017,79738.000000000,1718098472.240739584
1718098472.241747,,,,-2.154916525,-2.155473471,79739.000000000,1718098472.241746664
1718098472.242754,,,,-2.171985388,-2.174225092,79740.000000000,1718098472.242753744
1718098472.242761,231.556732178,16259.000000000,1718098472.242761135,,,,
1718098472.243761,,,,-2.101186037,-2.100901365,79741.000000000,1718098472.243760824
1718098472.244768,,,,-2.024232149,-2.022529125,79742.000000000,1718098472.244767904
1718098472.245775,,,,-2.023607016,-2.022841692,79743.000000000,1718098472.245774984
1718098472.246782,,,,-2.086016417,-2.085611582,79744.000000000,1718098472.246782064
1718098472.247761,232.183746338,16260.000000000,1718098472.247761250,,,,
1718098472.247789,,,,-2.068346500,-2.067989826,79745.000000000,1718098472.247789145
1718098472.248796,,,,-2.009831905,-2.008056641,79746.000000000,1718098472.248796225
1718098472.249803,,,,-1.926122665,-1.925237060,79747.000000000,1718098472.249803305
1718098472.250810,,,,-1.886864543,-1.886267304,79748.000000000,1718098472.250810385
1718098472.251817,,,,-1.839913368,-1.840109468,79749.000000000,1718098472.251817465
1718098472.252825,,,,-1.815031409,-1.814722657,79750.000000000,1718098472.252824545
1718098472.253832,,,,-1.781639099,-1.779695630,79751.000000000,1718098472.253831625
1718098472.254839,,,,-1.744832993,-1.744812846,79752.000000000,1718098472.254838705
1718098472.255846,,,,-1.742981911,-1.744139671,79753.000000000,1718098472.255845785
1718098472.256853,,,,-1.708026886,-1.708391428,79754.000000000,1718098472.256852865
1718098472.257860,,,,-1.714061141,-1.715916038,79755.000000000,1718098472.257859945
1718098472.258867,,,,-1.742477059,-1.743129969,79756.000000000,1718098472.258867025
1718098472.259874,,,,-1.763488412,-1.765944481,79757.000000000,1718098472.259874105
1718098472.260881,,,,-1.789836884,-1.792845845,79758.000000000,1718098472.260881186
1718098472.261888,,,,-1.859314084,-1.861529589,79759.000000000,1718098472.261888266
1718098472.262895,,,,-1.936772704,-1.938459396,79760.000000000,1718098472.262895346
1718098472.263902,,,,-1.969491839,-1.968798518,79761.000000000,1718098472.263902426
1718098472.264910,,,,-1.986608744,-1.985674977,79762.000000000,1718098472.264909506
1718098472.265917,,,,-1.856044531,-1.854245305,79763.000000000,1718098472.265916586
1718098472.266924,,,,-1.687472224,-1.688317537,79764.000000000,1718098472.266923666
1718098472.267931,,,,-1.624389887,-1.624201417,79765.000000000,1718098472.267930746
1718098472.268938,,,,-1.645329237,-1.642640471,79766.000000000,1718098472.268937826
1718098472.269945,,,,-1.771181464,-1.768853307,79767.000000000,1718098472.269944906
1718098472.270952,,,,-1.896480680,-1.899417520,79768.000000000,1718098472.270951986
1718098472.271959,,,,-1.847317815,-1.846263885,79769.000000000,1718098472.271959066
1718098472.272966,,,,-1.596647024,-1.595593214,79770.000000000,1718098472.272966146
1718098472.273973,,,,-1.492551565,-1.492651582,79771.000000000,1718098472.273973227
1718098472.274980,,,,-1.541714430,-1.542439461,79772.000000000,1718098472.274980307
1718098472.275987,,,,-1.615639091,-1.615811229,79773.000000000,1718098472.275987387
1718098472.276994,,,,-1.566235781,-1.569533229,79774.000000000,1718098472.276994467
1718098472.278002,,,,-1.542772174,-1.542679906,79775.000000000,1718098472.278001547
1718098472.279009,,,,-1.594002604,-1.593958378,79776.000000000,1718098472.279008627
1718098472.280016,,,,-1.556667686,-1.556238770,79777.000000000,1718098472.280015707
1718098472.281023,,,,-1.589963794,-1.591578364,79778.000000000,1718098472.281022787
1718098472.282030,,,,-1.712955236,-1.713824511,79779.000000000,1718098472.282029867
1718098472.283037,,,,-1.884484529,-1.886868358,79780.000000000,1718098472.283036947
1718098472.284044,,,,-2.014279366,-2.014114857,79781.000000000,1718098472.284044027
1718098472.285051,,,,-2.058321714,-2.056498528,79782.000000000,1718098472.285051107
1718098472.286058,,,,-2.087434769,-2.090107203,79783.000000000,1718098472.286058187
1718098472.287065,,,,-2.081857443,-2.083447933,79784.000000000,1718098472.287065268
1718098472.288072,,,,-1.983098865,-1.984833598,79785.000000000,1718098472.288072348
1718098472.289079,,,,-1.816930532,-1.818232656,79786.000000000,1718098472.289079428
1718098472.290087,,,,-1.713580251,-1.714233279,79787.000000000,1718098472.290086508
1718098472.291094,,,,-1.703387141,-1.702381253,79788.000000000,1718098472.291093588
1718098472.292101,,,,-1.725768805,-1.726181388,79789.000000000,1718098472.292100668
1718098472.293108,,,,-1.712594628,-1.710771441,79790.000000000,1718098472.293107748
1718098472.294115,,,,-1.652276874,-1.650405645,79791.000000000,1718098472.294114828
1718098472.295122,,,,-1.734784007,-1.734884024,79792.000000000,1718098472.295121908
1718098472.296129,,,,-1.712690830,-1.714016914,79793.000000000,1718098472.296128988
1718098472.297136,,,,-1.718532681,-1.719209671,79794.000000000,1718098472.297136068
1718098472.298143,,,,-1.819070220,-1.819795251,79795.000000000,1718098472.298143148
1718098472.299150,,,,-1.976848245,-1.977645516,79796.000000000,1718098472.299150229
1718098472.300157,,,,-2.013870716,-2.013634205,79797.000000000,1718098472.300157309
1718098472.301164,,,,-1.955764651,-1.954422355,79798.000000000,1718098472.301164389
1718098472.302171,,,,-1.975742459,-1.976443410,79799.000000000,1718098472.302171469
1718098472.303179,,,,-1.965621352,-1.965384841,79800.000000000,1718098472.303178549
1718098472.304186,,,,-1.848976612,-1.851120114,79801.000000000,1718098472.304185629
1718098472.305193,,,,-1.757502317,-1.760246873,79802.000000000,1718098472.305192709
1718098472.306200,,,,-1.662638426,-1.659949660,79803.000000000,1718098472.306199789
1718098472.307207,,,,-1.448990107,-1.447815895,79804.000000000,1718098472.307206869
1718098472.308056,237.406539917,16271.000000000,1718098472.308055878,,,,
1718098472.308214,,,,-1.330758691,-1.334560990,79805.000000000,1718098472.308213949
1718098472.309221,,,,-1.322897434,-1.321747303,79806.000000000,1718098472.309221029
1718098472.310228,,,,-1.373214245,-1.373626828,79807.000000000,1718098472.310228109
1718098472.311235,,,,-1.452163458,-1.453176975,79808.000000000,1718098472.311235189
1718098472.312242,,,,-1.603065848,-1.604175687,79809.000000000,1718098472.312242270
1718098472.313056,237.775985718,16272.000000000,1718098472.313055992,,,,
1718098472.313249,,,,-1.615446806,-1.615522742,79810.000000000,1718098472.313249350
1718098472.314256,,,,-1.526328444,-1.523423433,79811.000000000,1718098472.314256430
1718098472.315264,,,,-1.579530239,-1.578933120,79812.000000000,1718098472.315263510
1718098472.316271,,,,-1.707522035,-1.707790375,79813.000000000,1718098472.316270590
1718098472.317278,,,,-1.948913097,-1.952811599,79814.000000000,1718098472.317277670
1718098472.318056,238.177536011,16273.000000000,1718098472.318055868,,,,
1718098472.318285,,,,-1.953432798,-1.955023289,79815.000000000,1718098472.318284750
1718098472.319292,,,,-1.973626852,-1.976659775,79816.000000000,1718098472.319291830
1718098472.320299,,,,-2.014471769,-2.012504339,79817.000000000,1718098472.320298910
1718098472.321306,,,,-2.028463364,-2.026375532,79818.000000000,1718098472.321305990
1718098472.322313,,,,-1.960861325,-1.962115288,79819.000000000,1718098472.322313070
1718098472.323056,238.659378052,16274.000000000,1718098472.323055983,,,,
1718098472.323320,,,,-1.872945070,-1.875136614,79820.000000000,1718098472.323320150
1718098472.324327,,,,-1.896793246,-1.897878885,79821.000000000,1718098472.324327230
1718098472.325334,,,,-1.957135081,-1.957619667,79822.000000000,1718098472.325334311
1718098472.326341,,,,-2.016443014,-2.017576694,79823.000000000,1718098472.326341391
1718098472.327348,,,,-1.994157434,-1.994570017,79824.000000000,1718098472.327348471
1718098472.328056,239.044830322,16275.000000000,1718098472.328055859,,,,
1718098472.328356,,,,-1.836932302,-1.837825656,79825.000000000,1718098472.328355551
1718098472.329363,,,,-1.749472857,-1.748178482,79826.000000000,1718098472.329362631
1718098472.330370,,,,-1.784355640,-1.784984589,79827.000000000,1718098472.330369711
1718098472.331377,,,,-1.812050343,-1.813688993,79828.000000000,1718098472.331376791
1718098472.332384,,,,-1.842317343,-1.845686913,79829.000000000,1718098472.332383871
1718098472.333056,239.398147583,16276.000000000,1718098472.333055973,,,,
1718098472.333391,,,,-1.883330584,-1.883863330,79830.000000000,1718098472.333390951
1718098472.334398,,,,-1.877729058,-1.877324224,79831.000000000,1718098472.334398031
1718098472.335405,,,,-1.881936193,-1.882156372,79832.000000000,1718098472.335405111
1718098472.336412,,,,-1.924680233,-1.923602343,79833.000000000,1718098472.336412191
1718098472.337419,,,,-1.942830920,-1.942834735,79834.000000000,1718098472.337419271
1718098472.338056,239.751419067,16277.000000000,1718098472.338055849,,,,
1718098472.338426,,,,-1.934993625,-1.936752558,79835.000000000,1718098472.338426352
1718098472.339433,,,,-1.898764610,-1.901292682,79836.000000000,1718098472.339433432
1718098472.340441,,,,-1.894557476,-1.894657493,79837.000000000,1718098472.340440512
1718098472.341448,,,,-1.840850949,-1.840710521,79838.000000000,1718098472.341447592
1718098472.342455,,,,-1.788707018,-1.785850048,79839.000000000,1718098472.342454672
1718098472.343056,240.040481567,16278.000000000,1718098472.343055964,,,,
1718098472.343462,,,,-1.746443748,-1.747938037,79840.000000000,1718098472.343461752
1718098472.344469,,,,-1.778249383,-1.778613806,79841.000000000,1718098472.344468832
1718098472.345476,,,,-1.831763625,-1.833161831,79842.000000000,1718098472.345475912
1718098472.346483,,,,-1.842221260,-1.844388723,79843.000000000,1718098472.346482992
1718098472.347490,,,,-1.789404154,-1.789287806,79844.000000000,1718098472.347490072
1718098472.348056,240.201049805,16279.000000000,1718098472.348055840,,,,
1718098472.348497,,,,-1.787577033,-1.788782954,79845.000000000,1718098472.348497152
1718098472.349504,,,,-1.801953316,-1.804986238,79846.000000000,1718098472.349504232
1718098472.350511,,,,-1.765002966,-1.764526010,79847.000000000,1718098472.350511312
1718098472.351518,,,,-1.711969614,-1.710891604,79848.000000000,1718098472.351518393
1718098472.352525,,,,-1.609340429,-1.608839512,79849.000000000,1718098472.352525473
1718098472.353056,240.393753052,16280.000000000,1718098472.353055954,,,,
1718098472.353533,,,,-1.389994621,-1.389685869,79850.000000000,1718098472.353532553
1718098472.354540,,,,-1.342899203,-1.343239546,79851.000000000,1718098472.354539633
1718098472.355547,,,,-1.488464594,-1.487386703,79852.000000000,1718098472.355546713
1718098472.356554,,,,-1.646819711,-1.644467592,79853.000000000,1718098472.356553793
1718098472.357561,,,,-1.800342560,-1.802582264,79854.000000000,1718098472.357560873
1718098472.358568,,,,-2.003148556,-2.004306316,79855.000000000,1718098472.358567953
1718098472.359575,,,,-2.169244766,-2.169008255,79856.000000000,1718098472.359575033
1718098472.360582,,,,-2.183332443,-2.184153795,79857.000000000,1718098472.360582113
1718098472.361589,,,,-2.049835443,-2.054358721,79858.000000000,1718098472.361589193
1718098472.362596,,,,-1.871262193,-1.873790264,79859.000000000,1718098472.362596273
1718098472.363603,,,,-1.767214775,-1.768228292,79860.000000000,1718098472.363603354
1718098472.364610,,,,-1.716248751,-1.717406631,79861.000000000,1718098472.364610434
1718098472.365618,,,,-1.629967332,-1.632904053,79862.000000000,1718098472.365617514
1718098472.366625,,,,-1.541305780,-1.543208838,79863.000000000,1718098472.366624594
1718098472.367632,,,,-1.430238485,-1.429112434,79864.000000000,1718098472.367631674
1718098472.368639,,,,-1.438195825,-1.438031435,79865.000000000,1718098472.368638754
1718098472.369646,,,,-1.584458470,-1.586001039,79866.000000000,1718098472.369645834
1718098472.370653,,,,-1.728461385,-1.729378819,79867.000000000,1718098472.370652914
1718098472.371660,,,,-1.830633640,-1.832656980,79868.000000000,1718098472.371659994
1718098472.372667,,,,-1.988099217,-1.989930153,79869.000000000,1718098472.372667074
1718098472.373674,,,,-2.113037825,-2.112488985,79870.000000000,1718098472.373674154
1718098472.374681,,,,-2.082266092,-2.084000826,79871.000000000,1718098472.374681234
1718098472.375688,,,,-2.008028746,-2.010340691,79872.000000000,1718098472.375688314
1718098472.376695,,,,-1.958385110,-1.958268762,79873.000000000,1718098472.376695395
1718098472.377384,240.249206543,16286.000000000,1718098472.377383947,,,,
1718098472.377702,,,,-1.884773016,-1.886507750,79874.000000000,1718098472.377702475
1718098472.378710,,,,-1.845490694,-1.847009182,79875.000000000,1718098472.378709555
1718098472.379717,,,,-1.833494544,-1.836118817,79876.000000000,1718098472.379716635
1718098472.380724,,,,-1.794596910,-1.794817090,79877.000000000,1718098472.380723715
1718098472.381731,,,,-1.719181776,-1.718248010,79878.000000000,1718098472.381730795
1718098472.382384,240.265274048,16287.000000000,1718098472.382383823,,,,
1718098472.382738,,,,-1.614292860,-1.613407254,79879.000000000,1718098472.382737875
1718098472.383745,,,,-1.447307229,-1.445796490,79880.000000000,1718098472.383744955
1718098472.384752,,,,-1.243563652,-1.240658641,79881.000000000,1718098472.384752035
1718098472.385759,,,,-1.142881870,-1.143630981,79882.000000000,1718098472.385759115
1718098472.386766,,,,-1.172331452,-1.171469927,79883.000000000,1718098472.386766195
1718098472.387384,240.217102051,16288.000000000,1718098472.387383938,,,,
1718098472.387773,,,,-1.263373017,-1.264001966,79884.000000000,1718098472.387773275
1718098472.388780,,,,-1.403168797,-1.404663205,79885.000000000,1718098472.388780355
1718098472.389787,,,,-1.557557106,-1.558546662,79886.000000000,1718098472.389787436
1718098472.390795,,,,-1.763849020,-1.764646292,79887.000000000,1718098472.390794516
1718098472.391802,,,,-1.948167920,-1.945503235,79888.000000000,1718098472.391801596
1718098472.392384,240.249206543,16289.000000000,1718098472.392383814,,,,
1718098472.392809,,,,-2.139819145,-2.141361475,79889.000000000,1718098472.392808676
1718098472.393816,,,,-2.229634523,-2.233028173,79890.000000000,1718098472.393815756
1718098472.394823,,,,-2.216364145,-2.216440201,79891.000000000,1718098472.394822836
1718098472.395830,,,,-2.123904228,-2.121672392,79892.000000000,1718098472.395829916
1718098472.396837,,,,-2.052936554,-2.049502611,79893.000000000,1718098472.396836996
1718098472.397384,240.184982300,16290.000000000,1718098472.397383928,,,,
1718098472.397844,,,,-2.031901121,-2.029693127,79894.000000000,1718098472.397844076
1718098472.398851,,,,-2.018342257,-2.019788504,79895.000000000,1718098472.398851156
1718098472.399858,,,,-2.033391714,-2.033179045,79896.000000000,1718098472.399858236
1718098472.400865,,,,-2.046036959,-2.046401501,79897.000000000,1718098472.400865316
1718098472.401872,,,,-1.974780798,-1.975169301,79898.000000000,1718098472.401872396
1718098472.402384,240.168930054,16291.000000000,1718098472.402383804,,,,
1718098472.402879,,,,-1.840850949,-1.838450670,79899.000000000,1718098472.402879477
1718098472.403887,,,,-1.831475139,-1.827872872,79900.000000000,1718098472.403886557
1718098472.404894,,,,-1.852799058,-1.854557872,79901.000000000,1718098472.404893637
1718098472.405901,,,,-1.865300179,-1.866914749,79902.000000000,1718098472.405900717
1718098472.406908,,,,-1.909318328,-1.909971356,79903.000000000,1718098472.406907797
1718098472.407384,240.072586060,16292.000000000,1718098472.407383919,,,,
1718098472.407915,,,,-1.880373597,-1.880497575,79904.000000000,1718098472.407914877
1718098472.408922,,,,-1.833157897,-1.834291697,79905.000000000,1718098472.408921957
1718098472.409929,,,,-1.798755884,-1.800658941,79906.000000000,1718098472.409929037
1718098472.410936,,,,-1.654969454,-1.652497172,79907.000000000,1718098472.410936117
1718098472.411943,,,,-1.474400878,-1.471471786,79908.000000000,1718098472.411943197
1718098472.412384,239.960189819,16293.000000000,1718098472.412383795,,,,
1718098472.412950,,,,-1.385739446,-1.385695219,79909.000000000,1718098472.412950277
1718098472.413957,,,,-1.463294148,-1.464716434,79910.000000000,1718098472.413957357
1718098472.414964,,,,-1.616143942,-1.617614269,79911.000000000,1718098472.414964437
1718098472.415972,,,,-1.755194426,-1.756159902,79912.000000000,1718098472.415971518
1718098472.416979,,,,-1.894605517,-1.895474911,79913.000000000,1718098472.416978598
1718098472.417384,239.703247070,16294.000000000,1718098472.417383909,,,,
1718098472.417986,,,,-2.029232502,-2.030943394,79914.000000000,1718098472.417985678
1718098472.418993,,,,-2.045219660,-2.044405937,79915.000000000,1718098472.418992758
1718098472.420000,,,,-1.969059110,-1.971731544,79916.000000000,1718098472.419999838
1718098472.421007,,,,-1.895350814,-1.894585371,79917.000000000,1718098472.421006918
1718098472.422014,,,,-1.843038559,-1.841071129,79918.000000000,1718098472.422013998
1718098472.422384,239.446319580,16295.000000000,1718098472.422383785,,,,
1718098472.423021,,,,-1.822075248,-1.821574211,79919.000000000,1718098472.423021078
1718098472.424028,,,,-1.799741626,-1.799288630,79920.000000000,1718098472.424028158
1718098472.425035,,,,-1.834191680,-1.834532142,79921.000000000,1718098472.425035238
1718098472.426042,,,,-1.819623113,-1.820756912,79922.000000000,1718098472.426042318
1718098472.427049,,,,-1.714277506,-1.713415861,79923.000000000,1718098472.427049398
1718098472.427384,239.221481323,16296.000000000,1718098472.427383900,,,,
1718098472.428056,,,,-1.611768603,-1.611796498,79924.000000000,1718098472.428056479
1718098472.429064,,,,-1.513274431,-1.515297771,79925.000000000,1718098472.429063559
1718098472.430071,,,,-1.439373851,-1.438199759,79926.000000000,1718098472.430070639
1718098472.431078,,,,-1.385883689,-1.385743260,79927.000000000,1718098472.431077719
1718098472.432085,,,,-1.388960838,-1.394301653,79928.000000000,1718098472.432084799
1718098472.432384,239.012710571,16297.000000000,1718098472.432383776,,,,
1718098472.433092,,,,-1.530126929,-1.534001231,79929.000000000,1718098472.433091879
1718098472.434099,,,,-1.666412711,-1.667979240,79930.000000000,1718098472.434098959
1718098472.435106,,,,-1.736394763,-1.736566901,79931.000000000,1718098472.435106039
1718098472.436113,,,,-1.765676141,-1.766737819,79932.000000000,1718098472.436113119
1718098472.437120,,,,-1.850755572,-1.852754831,79933.000000000,1718098472.437120199
1718098472.437384,238.884246826,16298.000000000,1718098472.437383890,,,,
1718098472.438127,,,,-1.933406949,-1.934468627,79934.000000000,1718098472.438127279
1718098472.439134,,,,-1.963722110,-1.964928031,79935.000000000,1718098472.439134359
1718098472.440141,,,,-1.984300852,-1.986516476,79936.000000000,1718098472.440141439
1718098472.441149,,,,-1.923358083,-1.923410058,79937.000000000,1718098472.441148520
1718098472.442156,,,,-1.788202167,-1.789984941,79938.000000000,1718098472.442155600
1718098472.442384,238.771804810,16299.000000000,1718098472.442383766,,,,
1718098472.443163,,,,-1.754785776,-1.754068375,79939.000000000,1718098472.443162680
1718098472.444170,,,,-1.792048573,-1.789528251,79940.000000000,1718098472.444169760
1718098472.445177,,,,-1.789163709,-1.792052507,79941.000000000,1718098472.445176840
1718098472.446184,,,,-1.779162884,-1.778445482,79942.000000000,1718098472.446183920
1718098472.446431,238.755737305,16301.000000000,1718098472.446430683,,,,
1718098472.447191,,,,-1.845009923,-1.844749331,79943.000000000,1718098472.447191000
1718098472.447384,238.787857056,16300.000000000,1718098472.447383881,,,,
1718098472.448198,,,,-1.856357098,-1.858139873,79944.000000000,1718098472.448198080
1718098472.449205,,,,-1.812579274,-1.816261292,79945.000000000,1718098472.449205160
1718098472.450212,,,,-1.776542425,-1.779022455,79946.000000000,1718098472.450212240
1718098472.451219,,,,-1.593473673,-1.594246864,79947.000000000,1718098472.451219320
1718098472.451431,238.707565308,16302.000000000,1718098472.451430798,,,,
1718098472.452226,,,,-1.336408257,-1.335714936,79948.000000000,1718098472.452226400
1718098472.453233,,,,-1.231807828,-1.231523156,79949.000000000,1718098472.453233480
1718098472.454241,,,,-1.255704045,-1.255659938,79950.000000000,1718098472.454240561
1718098472.455248,,,,-1.329340339,-1.330089450,79951.000000000,1718098472.455247641
1718098472.456255,,,,-1.514596701,-1.515898705,79952.000000000,1718098472.456254721
1718098472.456431,238.611206055,16303.000000000,1718098472.456430674,,,,
1718098472.457262,,,,-1.779355168,-1.779118657,79953.000000000,1718098472.457261801
1718098472.458269,,,,-1.892417908,-1.893792033,79954.000000000,1718098472.458268881
1718098472.459276,,,,-1.958072662,-1.957018733,79955.000000000,1718098472.459275961
1718098472.460283,,,,-2.039521933,-2.038323879,79956.000000000,1718098472.460283041
1718098472.461290,,,,-2.095849037,-2.097151041,79957.000000000,1718098472.461290121
1718098472.461431,238.611206055,16304.000000000,1718098472.461430788,,,,
1718098472.462297,,,,-2.104094744,-2.103978634,79958.000000000,1718098472.462297201
1718098472.463304,,,,-2.047647715,-2.044670582,79959.000000000,1718098472.463304281
1718098472.464311,,,,-1.950595975,-1.948772788,79960.000000000,1718098472.464311361
1718098472.465318,,,,-1.810607910,-1.810924292,79961.000000000,1718098472.465318441
1718098472.466326,,,,-1.673264265,-1.674325943,79962.000000000,1718098472.466325521
1718098472.467333,,,,-1.568880200,-1.568235040,79963.000000000,1718098472.467332602
1718098472.468340,,,,-1.581741929,-1.584774971,79964.000000000,1718098472.468339682
1718098472.469347,,,,-1.647588968,-1.650309443,79965.000000000,1718098472.469346762
1718098472.470354,,,,-1.663672090,-1.661921024,79966.000000000,1718098472.470353842
1718098472.471361,,,,-1.603859186,-1.602035999,79967.000000000,1718098472.471360922
1718098472.472368,,,,-1.646098495,-1.644731998,79968.000000000,1718098472.472368002
1718098472.473375,,,,-1.698386669,-1.699304104,79969.000000000,1718098472.473375082
1718098472.474382,,,,-1.678096414,-1.680432200,79970.000000000,1718098472.474382162
1718098472.475389,,,,-1.646579266,-1.647785187,79971.000000000,1718098472.475389242
1718098472.476396,,,,-1.719374061,-1.719137549,79972.000000000,1718098472.476396322
1718098472.477403,,,,-1.869314909,-1.868188858,79973.000000000,1718098472.477403402
1718098472.478410,,,,-1.984421015,-1.984352827,79974.000000000,1718098472.478410482
1718098472.479418,,,,-2.018125772,-2.018947124,79975.000000000,1718098472.479417562
1718098472.480425,,,,-2.016250610,-2.017769098,79976.000000000,1718098472.480424643
1718098472.481432,,,,-1.963986635,-1.964831829,79977.000000000,1718098472.481431723
1718098472.482439,,,,-1.886263490,-1.887060642,79978.000000000,1718098472.482438803
1718098472.483446,,,,-1.729639411,-1.729162455,79979.000000000,1718098472.483445883
1718098472.484453,,,,-1.550729632,-1.550132513,79980.000000000,1718098472.484452963
1718098472.485460,,,,-1.501879215,-1.505008340,79981.000000000,1718098472.485460043
1718098472.486467,,,,-1.525679350,-1.527702689,79982.000000000,1718098472.486467123
1718098472.487474,,,,-1.587824225,-1.587900162,79983.000000000,1718098472.487474203
1718098472.488481,,,,-1.673336387,-1.671753645,79984.000000000,1718098472.488481283
1718098472.489488,,,,-1.794933438,-1.794288278,79985.000000000,1718098472.489488363
1718098472.490495,,,,-1.879916787,-1.879559994,79986.000000000,1718098472.490495443
1718098472.491503,,,,-1.970092893,-1.967524409,79987.000000000,1718098472.491502523
1718098472.492510,,,,-1.942590475,-1.941464424,79988.000000000,1718098472.492509604
1718098472.493517,,,,-1.848591924,-1.848956466,79989.000000000,1718098472.493516684
1718098472.494524,,,,-1.779547572,-1.779359102,79990.000000000,1718098472.494523764
1718098472.495531,,,,-1.751179695,-1.750895023,79991.000000000,1718098472.495530844
1718098472.496431,237.358322144,16311.000000000,1718098472.496430635,,,,
1718098472.496538,,,,-1.728076696,-1.729787469,79992.000000000,1718098472.496537924
1718098472.497545,,,,-1.716056466,-1.718464375,79993.000000000,1718098472.497545004
1718098472.498552,,,,-1.751275897,-1.754717469,79994.000000000,1718098472.498552084
1718098472.499559,,,,-1.840177774,-1.844388723,79995.000000000,1718098472.499559164
1718098472.500566,,,,-1.886455774,-1.889512777,79996.000000000,1718098472.500566244
1718098472.501431,237.197692871,16312.000000000,1718098472.501430750,,,,
1718098472.501573,,,,-1.856333017,-1.856120467,79997.000000000,1718098472.501573324
1718098472.502580,,,,-1.858929396,-1.857346535,79998.000000000,1718098472.502580404
1718098472.503587,,,,-1.875445247,-1.877732992,79999.000000000,1718098472.503587484
1718098472.504595,,,,-1.776133776,-1.778397441,80000.000000000,1718098472.504594564
1718098472.505602,,,,-1.644006968,-1.643554091,80001.000000000,1718098472.505601645
1718098472.506431,237.085250854,16313.000000000,1718098472.506430626,,,,
1718098472.506609,,,,-1.519957781,-1.519649029,80002.000000000,1718098472.506608725
1718098472.507616,,,,-1.455697417,-1.455172300,80003.000000000,1718098472.507615805
1718098472.508623,,,,-1.501446486,-1.500633001,80004.000000000,1718098472.508622885
1718098472.509630,,,,-1.598329902,-1.598021269,80005.000000000,1718098472.509629965
1718098472.510637,,,,-1.656171441,-1.657040834,80006.000000000,1718098472.510637045
1718098472.511431,237.053131104,16314.000000000,1718098472.511430740,,,,
1718098472.511644,,,,-1.682063103,-1.683124781,80007.000000000,1718098472.511644125
1718098472.512651,,,,-1.812843680,-1.812438846,80008.000000000,1718098472.512651205
1718098472.513658,,,,-1.929079652,-1.931367397,80009.000000000,1718098472.513658285
1718098472.514665,,,,-1.986272216,-1.988031030,80010.000000000,1718098472.514665365
1718098472.515672,,,,-1.949201584,-1.951297045,80011.000000000,1718098472.515672445
1718098472.516431,236.924621582,16315.000000000,1718098472.516430616,,,,
1718098472.516680,,,,-1.675235629,-1.678917646,80012.000000000,1718098472.516679525
1718098472.517687,,,,-1.406077743,-1.411370516,80013.000000000,1718098472.517686605
1718098472.518694,,,,-1.386003852,-1.389397383,80014.000000000,1718098472.518693686
1718098472.519701,,,,-1.482526660,-1.483443975,80015.000000000,1718098472.519700766
1718098472.520708,,,,-1.535031199,-1.533352137,80016.000000000,1718098472.520707846
1718098472.521431,236.876434326,16316.000000000,1718098472.521430731,,,,
1718098472.521715,,,,-1.641674995,-1.642880917,80017.000000000,1718098472.521714926
1718098472.522722,,,,-1.768104196,-1.771016955,80018.000000000,1718098472.522722006
1718098472.523729,,,,-1.871574759,-1.874703884,80019.000000000,1718098472.523729086
1718098472.524736,,,,-1.905664206,-1.906245112,80020.000000000,1718098472.524736166
1718098472.525743,,,,-1.882561207,-1.883478642,80021.000000000,1718098472.525743246
1718098472.526431,236.908554077,16317.000000000,1718098472.526430607,,,,
1718098472.526750,,,,-1.786327004,-1.789143562,80022.000000000,1718098472.526750326
1718098472.527757,,,,-1.590636969,-1.590712905,80023.000000000,1718098472.527757406
1718098472.528764,,,,-1.488801241,-1.486400962,80024.000000000,1718098472.528764486
1718098472.529772,,,,-1.546859145,-1.546935081,80025.000000000,1718098472.529771566
1718098472.530779,,,,-1.640184522,-1.642183781,80026.000000000,1718098472.530778646
1718098472.531431,236.860336304,16318.000000000,1718098472.531430721,,,,
1718098472.531786,,,,-1.754040480,-1.755679131,80027.000000000,1718098472.531785727
1718098472.532793,,,,-1.847966909,-1.848788142,80028.000000000,1718098472.532792807
1718098472.533800,,,,-1.859650612,-1.858500481,80029.000000000,1718098472.533799887
1718098472.534807,,,,-1.816257477,-1.816165090,80030.000000000,1718098472.534806967
1718098472.535814,,,,-1.696848035,-1.697020173,80031.000000000,1718098472.535814047
1718098472.536431,236.763946533,16319.000000000,1718098472.536430597,,,,
1718098472.536821,,,,-1.589819551,-1.589583039,80032.000000000,1718098472.536821127
1718098472.537828,,,,-1.554984808,-1.553450108,80033.000000000,1718098472.537828207
1718098472.538835,,,,-1.596190333,-1.593141079,80034.000000000,1718098472.538835287
1718098472.539842,,,,-1.671725750,-1.669421673,80035.000000000,1718098472.539842367
1718098472.540849,,,,-1.759930491,-1.759621739,80036.000000000,1718098472.540849447
1718098472.541431,236.747879028,16320.000000000,1718098472.541430712,,,,
1718098472.541857,,,,-1.886215448,-1.887998223,80037.000000000,1718098472.541856527
1718098472.542864,,,,-1.927733421,-1.928674936,80038.000000000,1718098472.542863607
1718098472.543871,,,,-1.914583206,-1.916534424,80039.000000000,1718098472.543870687
1718098472.544878,,,,-1.883739233,-1.885377884,80040.000000000,1718098472.544877768
1718098472.545885,,,,-1.836259127,-1.838787317,80041.000000000,1718098472.545884848
1718098472.546892,,,,-1.825633287,-1.827800751,80042.000000000,1718098472.546891928
1718098472.547899,,,,-1.772599816,-1.777075171,80043.000000000,1718098472.547899008
1718098472.548906,,,,-1.629630685,-1.631846309,80044.000000000,1718098472.548906088
1718098472.549913,,,,-1.615374684,-1.616460323,80045.000000000,1718098472.549913168
1718098472.550920,,,,-1.722499371,-1.724186063,80046.000000000,1718098472.550920248
1718098472.551927,,,,-1.768585086,-1.767603278,80047.000000000,1718098472.551927328
1718098472.552934,,,,-1.774787545,-1.775103927,80048.000000000,1718098472.552934408
1718098472.553941,,,,-1.789115667,-1.793951631,80049.000000000,1718098472.553941488
1718098472.554949,,,,-1.857655287,-1.859966993,80050.000000000,1718098472.554948568
1718098472.555956,,,,-1.900110841,-1.901124358,80051.000000000,1718098472.555955648
1718098472.556963,,,,-1.887008786,-1.889224291,80052.000000000,1718098472.556962729
1718098472.557970,,,,-1.824503303,-1.823713899,80053.000000000,1718098472.557969809
1718098472.558977,,,,-1.746587992,-1.746880293,80054.000000000,1718098472.558976889
1718098472.559984,,,,-1.692641020,-1.693005443,80055.000000000,1718098472.559983969
1718098472.560991,,,,-1.648286223,-1.648169875,80056.000000000,1718098472.560991049
1718098472.561998,,,,-1.608619213,-1.607565403,80057.000000000,1718098472.561998129
1718098472.563005,,,,-1.588232875,-1.590809107,80058.000000000,1718098472.563005209
1718098472.564012,,,,-1.652950048,-1.653218389,80059.000000000,1718098472.564012289
1718098472.565019,,,,-1.678817630,-1.679662943,80060.000000000,1718098472.565019369
1718098472.566026,,,,-1.664056778,-1.666705132,80061.000000000,1718098472.566026449
1718098472.567034,,,,-1.730937600,-1.733609915,80062.000000000,1718098472.567033529
1718098472.568041,,,,-1.824118733,-1.824988008,80063.000000000,1718098472.568040609
1718098472.569048,,,,-1.876887679,-1.877444506,80064.000000000,1718098472.569047689
1718098472.570055,,,,-1.910424232,-1.909730911,80065.000000000,1718098472.570054770
1718098472.571062,,,,-1.909534693,-1.909009695,80066.000000000,1718098472.571061850
1718098472.572069,,,,-1.879003286,-1.880233169,80067.000000000,1718098472.572068930
1718098472.573076,,,,-1.853424072,-1.855615616,80068.000000000,1718098472.573076010
1718098472.574083,,,,-1.791543722,-1.791066766,80069.000000000,1718098472.574083090
1718098472.575090,,,,-1.691126466,-1.692019820,80070.000000000,1718098472.575090170
1718098472.576097,,,,-1.638189197,-1.641174078,80071.000000000,1718098472.576097250
1718098472.576251,235.478622437,16326.000000000,1718098472.576250792,,,,
1718098472.577104,,,,-1.598257780,-1.599391580,80072.000000000,1718098472.577104330
1718098472.578111,,,,-1.564432740,-1.563402891,80073.000000000,1718098472.578111410
1718098472.579118,,,,-1.580972672,-1.578452229,80074.000000000,1718098472.579118490
1718098472.580126,,,,-1.593617916,-1.592756391,80075.000000000,1718098472.580125570
1718098472.581133,,,,-1.637275577,-1.641895294,80076.000000000,1718098472.581132650
1718098472.581251,235.398284912,16327.000000000,1718098472.581250668,,,,
1718098472.582140,,,,-1.761445045,-1.764766455,80077.000000000,1718098472.582139730
1718098472.583147,,,,-1.859794855,-1.861553669,80078.000000000,1718098472.583146811
1718098472.584154,,,,-1.777984858,-1.780056238,80079.000000000,1718098472.584153891
1718098472.585161,,,,-1.705767155,-1.705674767,80080.000000000,1718098472.585160971
1718098472.586168,,,,-1.692761183,-1.693943024,80081.000000000,1718098472.586168051
1718098472.586251,235.205444336,16328.000000000,1718098472.586250782,,,,
1718098472.587175,,,,-1.704468966,-1.703270793,80082.000000000,1718098472.587175131
1718098472.588182,,,,-1.764402032,-1.762626886,80083.000000000,1718098472.588182211
1718098472.589189,,,,-1.730769277,-1.729474902,80084.000000000,1718098472.589189291
1718098472.590196,,,,-1.657878399,-1.657112956,80085.000000000,1718098472.590196371
1718098472.591203,,,,-1.639078617,-1.637063146,80086.000000000,1718098472.591203451
1718098472.591251,235.189376831,16329.000000000,1718098472.591250658,,,,
1718098472.592211,,,,-1.679298520,-1.676537633,80087.000000000,1718098472.592210531
1718098472.593218,,,,-1.666436791,-1.666656971,80088.000000000,1718098472.593217611
1718098472.594225,,,,-1.589290619,-1.590232134,80089.000000000,1718098472.594224691
1718098472.595232,,,,-1.551378727,-1.550421000,80090.000000000,1718098472.595231771
1718098472.596239,,,,-1.684996128,-1.685264349,80091.000000000,1718098472.596238852
1718098472.596251,235.125106812,16330.000000000,1718098472.596250772,,,,
1718098472.597246,,,,-1.826066017,-1.826189995,80092.000000000,1718098472.597245932
1718098472.598253,,,,-1.929151773,-1.929324031,80093.000000000,1718098472.598253012
1718098472.599260,,,,-1.977377176,-1.978126287,80094.000000000,1718098472.599260092
1718098472.600267,,,,-1.922348380,-1.922520518,80095.000000000,1718098472.600267172
1718098472.601251,235.125106812,16331.000000000,1718098472.601250648,,,,
1718098472.601274,,,,-1.777936816,-1.780272603,80096.000000000,1718098472.601274252
1718098472.602281,,,,-1.538348794,-1.540660501,80097.000000000,1718098472.602281332
1718098472.603288,,,,-1.348933339,-1.350788355,80098.000000000,1718098472.603288412
1718098472.604295,,,,-1.319026947,-1.318742275,80099.000000000,1718098472.604295492
1718098472.605303,,,,-1.433700323,-1.435242772,80100.000000000,1718098472.605302572
1718098472.606251,235.157241821,16332.000000000,1718098472.606250763,,,,
1718098472.606310,,,,-1.522217512,-1.524721622,80101.000000000,1718098472.606309652
1718098472.607317,,,,-1.572366118,-1.573283553,80102.000000000,1718098472.607316732
1718098472.608324,,,,-1.671533346,-1.672138214,80103.000000000,1718098472.608323812
1718098472.609331,,,,-1.797794342,-1.798519373,80104.000000000,1718098472.609330893
1718098472.610338,,,,-1.786182761,-1.785753846,80105.000000000,1718098472.610337973
1718098472.611251,235.109039307,16333.000000000,1718098472.611250639,,,,
1718098472.611345,,,,-1.752790451,-1.754885793,80106.000000000,1718098472.611345053
1718098472.612352,,,,-1.804549694,-1.806380630,80107.000000000,1718098472.612352133
1718098472.613359,,,,-1.863809586,-1.864943385,80108.000000000,1718098472.613359213
1718098472.614366,,,,-1.884628773,-1.884776831,80109.000000000,1718098472.614366293
1718098472.615373,,,,-1.900158882,-1.899730086,80110.000000000,1718098472.615373373
1718098472.616251,235.109039307,16334.000000000,1718098472.616250753,,,,
1718098472.616380,,,,-1.915905476,-1.914899707,80111.000000000,1718098472.616380453
1718098472.617388,,,,-1.903861165,-1.906196952,80112.000000000,1718098472.617387533
1718098472.618395,,,,-1.881527543,-1.884488344,80113.000000000,1718098472.618394613
1718098472.619402,,,,-1.890302300,-1.892061114,80114.000000000,1718098472.619401693
1718098472.620409,,,,-1.793539166,-1.789504170,80115.000000000,1718098472.620408773
1718098472.621251,234.996566772,16335.000000000,1718098472.621250629,,,,
1718098472.621416,,,,-1.637684345,-1.635572553,80116.000000000,1718098472.621415854
1718098472.622423,,,,-1.592007279,-1.593285322,80117.000000000,1718098472.622422934
1718098472.623430,,,,-1.666172385,-1.668363929,80118.000000000,1718098472.623430014
1718098472.624437,,,,-1.748751640,-1.751279712,80119.000000000,1718098472.624437094
1718098472.625444,,,,-1.840850949,-1.839484453,80120.000000000,1718098472.625444174
1718098472.626251,234.932281494,16336.000000000,1718098472.626250744,,,,
1718098472.626451,,,,-1.888210773,-1.886964560,80121.000000000,1718098472.626451254
1718098472.627458,,,,-1.910688639,-1.911029100,80122.000000000,1718098472.627458334
1718098472.628465,,,,-1.903332233,-1.904490113,80123.000000000,1718098472.628465414
1718098472.629472,,,,-1.851669192,-1.852802873,80124.000000000,1718098472.629472494
1718098472.630480,,,,-1.803636193,-1.803399563,80125.000000000,1718098472.630479574
1718098472.631251,234.835845947,16337.000000000,1718098472.631250620,,,,
1718098472.631487,,,,-1.774979830,-1.776570320,80126.000000000,1718098472.631486654
1718098472.632494,,,,-1.750506520,-1.750510454,80127.000000000,1718098472.632493734
1718098472.633501,,,,-1.676702142,-1.678749442,80128.000000000,1718098472.633500814
1718098472.634508,,,,-1.650041103,-1.652136564,80129.000000000,1718098472.634507895
1718098472.635515,,,,-1.678024292,-1.680768847,80130.000000000,1718098472.635514975
1718098472.636251,234.675155640,16338.000000000,1718098472.636250734,,,,
1718098472.636522,,,,-1.703218818,-1.705218077,80131.000000000,1718098472.636522055
1718098472.637529,,,,-1.714301467,-1.714930415,80132.000000000,1718098472.637529135
1718098472.638536,,,,-1.728509426,-1.729667306,80133.000000000,1718098472.638536215
1718098472.639543,,,,-1.746275425,-1.746471643,80134.000000000,1718098472.639543295
1718098472.640550,,,,-1.717042089,-1.715194821,80135.000000000,1718098472.640550375
1718098472.641251,234.498382568,16339.000000000,1718098472.641250610,,,,
1718098472.641557,,,,-1.720720291,-1.719570279,80136.000000000,1718098472.641557455
1718098472.642565,,,,-1.764522195,-1.764502048,80137.000000000,1718098472.642564535
1718098472.643572,,,,-1.765171289,-1.763203859,80138.000000000,1718098472.643571615
1718098472.644579,,,,-1.722451210,-1.720531821,80139.000000000,1718098472.644578695
1718098472.645586,,,,-1.688073277,-1.686370254,80140.000000000,1718098472.645585775
1718098472.646251,234.369796753,16340.000000000,1718098472.646250725,,,,
1718098472.646276,234.225158691,16341.000000000,1718098472.646276236,,,,
1718098472.646593,,,,-1.583977699,-1.581673741,80141.000000000,1718098472.646592855
1718098472.647600,,,,-1.506831646,-1.505032420,80142.000000000,1718098472.647599936
1718098472.648607,,,,-1.541353822,-1.539722919,80143.000000000,1718098472.648607016
1718098472.649614,,,,-1.639343143,-1.638649821,80144.000000000,1718098472.649614096
1718098472.650621,,,,-1.704276562,-1.705362320,80145.000000000,1718098472.650621176
1718098472.651276,234.144805908,16342.000000000,1718098472.651276350,,,,
1718098472.651628,,,,-1.763151884,-1.764261603,80146.000000000,1718098472.651628256
1718098472.652635,,,,-1.850419044,-1.848547697,80147.000000000,1718098472.652635336
1718098472.653642,,,,-1.906481624,-1.907158613,80148.000000000,1718098472.653642416
1718098472.654649,,,,-1.856837869,-1.856913805,80149.000000000,1718098472.654649496
1718098472.655657,,,,-1.836860180,-1.835133076,80150.000000000,1718098472.655656576
1718098472.656276,234.000167847,16343.000000000,1718098472.656276226,,,,
1718098472.656664,,,,-1.900856137,-1.901172519,80151.000000000,1718098472.656663656
1718098472.657671,,,,-1.831042409,-1.832512736,80152.000000000,1718098472.657670736
1718098472.658678,,,,-1.596334577,-1.597901106,80153.000000000,1718098472.658677816
1718098472.659685,,,,-1.485940337,-1.487482786,80154.000000000,1718098472.659684896
1718098472.660692,,,,-1.466828108,-1.467697501,80155.000000000,1718098472.660691977
1718098472.661276,234.016250610,16344.000000000,1718098472.661276340,,,,
1718098472.661699,,,,-1.437306404,-1.440291286,80156.000000000,1718098472.661699057
1718098472.662706,,,,-1.540127754,-1.542968392,80157.000000000,1718098472.662706137
1718098472.663713,,,,-1.709084749,-1.712117672,80158.000000000,1718098472.663713217
1718098472.664720,,,,-1.876406908,-1.876675129,80159.000000000,1718098472.664720297
1718098472.665727,,,,-1.899846435,-1.898431897,80160.000000000,1718098472.665727377
1718098472.666276,233.984100342,16345.000000000,1718098472.666276217,,,,
1718098472.666734,,,,-1.898764610,-1.899297357,80161.000000000,1718098472.666734457
1718098472.667742,,,,-1.842365503,-1.841816425,80162.000000000,1718098472.667741537
1718098472.668749,,,,-1.802866817,-1.803712130,80163.000000000,1718098472.668748617
1718098472.669756,,,,-1.764281750,-1.766281009,80164.000000000,1718098472.669755697
1718098472.670763,,,,-1.683072805,-1.684302807,80165.000000000,1718098472.670762777
1718098472.671770,,,,-1.662229657,-1.664084673,80166.000000000,1718098472.671769857
1718098472.672777,,,,-1.620976090,-1.620859742,80167.000000000,1718098472.672776937
1718098472.673784,,,,-1.595589280,-1.595160484,80168.000000000,1718098472.673784018
1718098472.674791,,,,-1.601960063,-1.601579309,80169.000000000,1718098472.674791098
1718098472.675798,,,,-1.466058850,-1.467913866,80170.000000000,1718098472.675798178
1718098472.676805,,,,-1.372901797,-1.378170490,80171.000000000,1718098472.676805258
1718098472.677812,,,,-1.470626593,-1.473082542,80172.000000000,1718098472.677812338
1718098472.678819,,,,-1.704757452,-1.703679442,80173.000000000,1718098472.678819418
1718098472.679826,,,,-1.986849189,-1.988583922,80174.000000000,1718098472.679826498
1718098472.680834,,,,-2.149266958,-2.150256634,80175.000000000,1718098472.680833578
1718098472.681841,,,,-2.179558039,-2.179513931,80176.000000000,1718098472.681840658
1718098472.682848,,,,-2.100849390,-2.102680445,80177.000000000,1718098472.682847738
1718098472.683855,,,,-1.963866353,-1.964062572,80178.000000000,1718098472.683854818
1718098472.684862,,,,-1.890494585,-1.888671398,80179.000000000,1718098472.684861898
1718098472.685869,,,,-1.789620519,-1.789504170,80180.000000000,1718098472.685868979
1718098472.686876,,,,-1.702689886,-1.704953551,80181.000000000,1718098472.686876059
1718098472.687883,,,,-1.715479493,-1.715699673,80182.000000000,1718098472.687883139
1718098472.688890,,,,-1.745650411,-1.745558023,80183.000000000,1718098472.688890219
1718098472.689897,,,,-1.763199925,-1.761328697,80184.000000000,1718098472.689897299
1718098472.690904,,,,-1.699420452,-1.698871374,80185.000000000,1718098472.690904379
1718098472.691911,,,,-1.621288657,-1.622422457,80186.000000000,1718098472.691911459
1718098472.692919,,,,-1.642396212,-1.646222591,80187.000000000,1718098472.692918539
1718098472.693926,,,,-1.632347345,-1.632351160,80188.000000000,1718098472.693925619
1718098472.694933,,,,-1.618836522,-1.618239403,80189.000000000,1718098472.694932699
1718098472.695940,,,,-1.695285439,-1.697837591,80190.000000000,1718098472.695939779
1718098472.696276,233.260803223,16351.000000000,1718098472.696276188,,,,
1718098472.696947,,,,-1.784259439,-1.784792185,80191.000000000,1718098472.696946859
1718098472.697954,,,,-1.860227585,-1.860495925,80192.000000000,1718098472.697953939
1718098472.698961,,,,-1.865420341,-1.868116736,80193.000000000,1718098472.698961020
1718098472.699968,,,,-1.854914665,-1.855255008,80194.000000000,1718098472.699968100
1718098472.700975,,,,-1.847269773,-1.845903277,80195.000000000,1718098472.700975180
1718098472.701276,233.003631592,16352.000000000,1718098472.701276302,,,,
1718098472.701982,,,,-1.774667263,-1.772796035,80196.000000000,1718098472.701982260
1718098472.702989,,,,-1.631289482,-1.629706740,80197.000000000,1718098472.702989340
1718098472.703996,,,,-1.548157334,-1.548714042,80198.000000000,1718098472.703996420
1718098472.705003,,,,-1.578304172,-1.579510093,80199.000000000,1718098472.705003500
1718098472.706011,,,,-1.614364982,-1.616075754,80200.000000000,1718098472.706010580
1718098472.706276,232.730331421,16353.000000000,1718098472.706276178,,,,
1718098472.707018,,,,-1.655690670,-1.654684782,80201.000000000,1718098472.707017660
1718098472.708025,,,,-1.751684546,-1.752241373,80202.000000000,1718098472.708024740
1718098472.709032,,,,-1.796159506,-1.798495293,80203.000000000,1718098472.709031820
1718098472.710039,,,,-1.811954141,-1.814578414,80204.000000000,1718098472.710038900
1718098472.711046,,,,-1.835586071,-1.837609291,80205.000000000,1718098472.711045980
1718098472.711276,232.424911499,16354.000000000,1718098472.711276293,,,,
1718098472.712053,,,,-1.819815397,-1.820300102,80206.000000000,1718098472.712053061
1718098472.713060,,,,-1.792721748,-1.795514345,80207.000000000,1718098472.713060141
1718098472.714067,,,,-1.823349357,-1.825300574,80208.000000000,1718098472.714067221
1718098472.715074,,,,-1.849457383,-1.852298021,80209.000000000,1718098472.715074301
1718098472.716081,,,,-1.833927274,-1.834556103,80210.000000000,1718098472.716081381
1718098472.716276,232.199829102,16355.000000000,1718098472.716276169,,,,
1718098472.717088,,,,-1.806689262,-1.807366252,80211.000000000,1718098472.717088461
1718098472.718096,,,,-1.791952491,-1.794552684,80212.000000000,1718098472.718095541
1718098472.719103,,,,-1.794741154,-1.793855548,80213.000000000,1718098472.719102621
1718098472.720110,,,,-1.763320208,-1.765006900,80214.000000000,1718098472.720109701
1718098472.721117,,,,-1.686775088,-1.688101172,80215.000000000,1718098472.721116781
1718098472.721276,231.910446167,16356.000000000,1718098472.721276283,,,,
1718098472.722124,,,,-1.552532673,-1.554147243,80216.000000000,1718098472.722123861
1718098472.723131,,,,-1.456779242,-1.459018826,80217.000000000,1718098472.723130941
1718098472.724138,,,,-1.489426255,-1.492074609,80218.000000000,1718098472.724138021
1718098472.725145,,,,-1.557172537,-1.557585001,80219.000000000,1718098472.725145102
1718098472.726152,,,,-1.621577144,-1.619585633,80220.000000000,1718098472.726152182
1718098472.726276,231.781814575,16357.000000000,1718098472.726276159,,,,
1718098472.727159,,,,-1.681053400,-1.683461308,80221.000000000,1718098472.727159262
1718098472.728166,,,,-1.661989331,-1.664637566,80222.000000000,1718098472.728166342
1718098472.729173,,,,-1.568615794,-1.568475366,80223.000000000,1718098472.729173422
1718098472.730181,,,,-1.332850218,-1.333527207,80224.000000000,1718098472.730180502
1718098472.731188,,,,-1.173124790,-1.176758766,80225.000000000,1718098472.731187582
1718098472.731276,231.508499146,16358.000000000,1718098472.731276274,,,,
1718098472.732195,,,,-1.254477978,-1.253977060,80226.000000000,1718098472.732194662
1718098472.733202,,,,-1.424036026,-1.424256206,80227.000000000,1718098472.733201742
1718098472.734209,,,,-1.637179494,-1.638072848,80228.000000000,1718098472.734208822
1718098472.735216,,,,-1.787048221,-1.785417318,80229.000000000,1718098472.735215902
1718098472.736223,,,,-1.868713856,-1.869174480,80230.000000000,1718098472.736222982
1718098472.736276,231.331604004,16359.000000000,1718098472.736276150,,,,
1718098472.737230,,,,-1.975718379,-1.977982044,80231.000000000,1718098472.737230062
1718098472.738237,,,,-2.000768661,-2.001060963,80232.000000000,1718098472.738237143
1718098472.739244,,,,-2.066038609,-2.064215422,80233.000000000,1718098472.739244223
1718098472.740251,,,,-2.024160147,-2.023010015,80234.000000000,1718098472.740251303
1718098472.741258,,,,-1.878907084,-1.878165722,80235.000000000,1718098472.741258383
1718098472.741276,231.058273315,16360.000000000,1718098472.741276264,,,,
1718098472.742265,,,,-1.793491006,-1.793711305,80236.000000000,1718098472.742265463
1718098472.743273,,,,-1.747405291,-1.748442888,80237.000000000,1718098472.743272543
1718098472.744280,,,,-1.696126819,-1.694808483,80238.000000000,1718098472.744279623
1718098472.745287,,,,-1.690789819,-1.692284226,80239.000000000,1718098472.745286703
1718098472.746294,,,,-1.728701830,-1.728393078,80240.000000000,1718098472.746293783
1718098472.747301,,,,-1.704396844,-1.703799605,80241.000000000,1718098472.747300863
1718098472.748308,,,,-1.709277034,-1.710458875,80242.000000000,1718098472.748307943
1718098472.749315,,,,-1.769065857,-1.771666050,80243.000000000,1718098472.749315023
1718098472.750322,,,,-1.802794695,-1.804457426,80244.000000000,1718098472.750322104
1718098472.751131,230.881362915,16361.000000000,1718098472.751131058,,,,
1718098472.751329,,,,-1.780990005,-1.782748818,80245.000000000,1718098472.751329184
1718098472.752336,,,,-1.785245180,-1.785200953,80246.000000000,1718098472.752336264
1718098472.753343,,,,-1.830633640,-1.829603791,80247.000000000,1718098472.753343344
1718098472.754350,,,,-1.805006504,-1.805298805,80248.000000000,1718098472.754350424
1718098472.755358,,,,-1.756300330,-1.756520510,80249.000000000,1718098472.755357504
1718098472.756131,230.543685913,16362.000000000,1718098472.756131172,,,,
1718098472.756365,,,,-1.707377791,-1.706804752,80250.000000000,1718098472.756364584
1718098472.757372,,,,-1.703747749,-1.701708078,80251.000000000,1718098472.757371664
1718098472.758379,,,,-1.715551615,-1.714016914,80252.000000000,1718098472.758378744
1718098472.759386,,,,-1.692088008,-1.692139983,80253.000000000,1718098472.759385824
1718098472.760393,,,,-1.620615482,-1.622783065,80254.000000000,1718098472.760392904
1718098472.761131,230.350692749,16363.000000000,1718098472.761131048,,,,
1718098472.761400,,,,-1.519909620,-1.517749906,80255.000000000,1718098472.761399984
1718098472.762407,,,,-1.439133406,-1.438344002,80256.000000000,1718098472.762407064
1718098472.763414,,,,-1.529694200,-1.533784866,80257.000000000,1718098472.763414145
1718098472.764421,,,,-1.645281076,-1.650670052,80258.000000000,1718098472.764421225
1718098472.765428,,,,-1.677783966,-1.678388834,80259.000000000,1718098472.765428305
1718098472.766131,230.141632080,16364.000000000,1718098472.766131163,,,,
1718098472.766435,,,,-1.733485818,-1.733537793,80260.000000000,1718098472.766435385
1718098472.767442,,,,-1.783273816,-1.783998847,80261.000000000,1718098472.767442465
1718098472.768450,,,,-1.823109031,-1.822992682,80262.000000000,1718098472.768449545
1718098472.769457,,,,-1.823686004,-1.824675441,80263.000000000,1718098472.769456625
1718098472.770464,,,,-1.820055842,-1.818304777,80264.000000000,1718098472.770463705
1718098472.771131,229.852127075,16365.000000000,1718098472.771131039,,,,
1718098472.771471,,,,-1.850587368,-1.848499656,80265.000000000,1718098472.771470785
1718098472.772478,,,,-1.860419869,-1.862515330,80266.000000000,1718098472.772477865
1718098472.773485,,,,-1.873425841,-1.876170278,80267.000000000,1718098472.773484945
1718098472.774492,,,,-1.866454124,-1.868741751,80268.000000000,1718098472.774492025
1718098472.775499,,,,-1.876190543,-1.878910899,80269.000000000,1718098472.775499105
1718098472.776506,,,,-1.887008786,-1.889296412,80270.000000000,1718098472.776506186
1718098472.777513,,,,-1.816906571,-1.818352818,80271.000000000,1718098472.777513266
1718098472.778520,,,,-1.685164332,-1.685697079,80272.000000000,1718098472.778520346
1718098472.779527,,,,-1.561475754,-1.562441230,80273.000000000,1718098472.779527426
1718098472.780535,,,,-1.565803051,-1.566648364,80274.000000000,1718098472.780534506
1718098472.781542,,,,-1.587872267,-1.586313486,80275.000000000,1718098472.781541586
1718098472.782549,,,,-1.613932252,-1.613551497,80276.000000000,1718098472.782548666
1718098472.783556,,,,-1.639150739,-1.640212417,80277.000000000,1718098472.783555746
1718098472.784563,,,,-1.705911398,-1.707021117,80278.000000000,1718098472.784562826
1718098472.785570,,,,-1.727259398,-1.728345037,80279.000000000,1718098472.785569906
1718098472.786577,,,,-1.751540303,-1.752385616,80280.000000000,1718098472.786576986
1718098472.787584,,,,-1.852510571,-1.855471373,80281.000000000,1718098472.787584066
1718098472.788591,,,,-1.857438922,-1.860880494,80282.000000000,1718098472.788591146
1718098472.789598,,,,-1.863689423,-1.863573074,80283.000000000,1718098472.789598227
1718098472.790605,,,,-1.921627164,-1.921270370,80284.000000000,1718098472.790605307
1718098472.791612,,,,-1.960524797,-1.960071802,80285.000000000,1718098472.791612387
1718098472.792619,,,,-1.962760568,-1.964952111,80286.000000000,1718098472.792619467
1718098472.793627,,,,-1.920978069,-1.921198249,80287.000000000,1718098472.793626547
1718098472.794634,,,,-1.861333489,-1.863500953,80288.000000000,1718098472.794633627
1718098472.795641,,,,-1.769498587,-1.771930575,80289.000000000,1718098472.795640707
1718098472.796648,,,,-1.611143470,-1.611483932,80290.000000000,1718098472.796647787
1718098472.797655,,,,-1.484041214,-1.482818961,80291.000000000,1718098472.797654867
1718098472.798662,,,,-1.463222027,-1.461639285,80292.000000000,1718098472.798661947
1718098472.799669,,,,-1.511591673,-1.511835933,80293.000000000,1718098472.799669027
1718098472.800676,,,,-1.586141348,-1.586722255,80294.000000000,1718098472.800676107
1718098472.801131,228.838790894,16371.000000000,1718098472.801131010,,,,
1718098472.801683,,,,-1.704468966,-1.705193996,80295.000000000,1718098472.801683187
1718098472.802690,,,,-1.807482600,-1.809842467,80296.000000000,1718098472.802690268
1718098472.803697,,,,-1.833206058,-1.834123373,80297.000000000,1718098472.803697348
1718098472.804704,,,,-1.777744532,-1.776065469,80298.000000000,1718098472.804704428
1718098472.805712,,,,-1.738678575,-1.738321900,80299.000000000,1718098472.805711508
1718098472.806131,228.710113525,16372.000000000,1718098472.806131124,,,,
1718098472.806719,,,,-1.741178870,-1.742552996,80300.000000000,1718098472.806718588
1718098472.807726,,,,-1.748391032,-1.748875618,80301.000000000,1718098472.807725668
1718098472.808733,,,,-1.789259911,-1.789239764,80302.000000000,1718098472.808732748
1718098472.809740,,,,-1.812170506,-1.813015819,80303.000000000,1718098472.809739828
1718098472.810747,,,,-1.753631830,-1.754645348,80304.000000000,1718098472.810746908
1718098472.811131,228.629684448,16373.000000000,1718098472.811131001,,,,
1718098472.811754,,,,-1.636386156,-1.636029363,80305.000000000,1718098472.811753988
1718098472.812761,,,,-1.578905106,-1.580014944,80306.000000000,1718098472.812761068
1718098472.813768,,,,-1.535632133,-1.538256407,80307.000000000,1718098472.813768148
1718098472.814775,,,,-1.538829565,-1.541021109,80308.000000000,1718098472.814775229
1718098472.815782,,,,-1.591694713,-1.593285322,80309.000000000,1718098472.815782309
1718098472.816131,228.565338135,16374.000000000,1718098472.816131115,,,,
1718098472.816789,,,,-1.689395547,-1.691202402,80310.000000000,1718098472.816789389
1718098472.817796,,,,-1.780725479,-1.783133388,80311.000000000,1718098472.817796469
1718098472.818804,,,,-1.752646208,-1.756616712,80312.000000000,1718098472.818803549
1718098472.819811,,,,-1.730072141,-1.729667306,80313.000000000,1718098472.819810629
1718098472.820818,,,,-1.702569723,-1.702405334,80314.000000000,1718098472.820817709
1718098472.821131,228.517074585,16375.000000000,1718098472.821130991,,,,
1718098472.821825,,,,-1.645978332,-1.647616863,80315.000000000,1718098472.821824789
1718098472.822832,,,,-1.642732859,-1.644347429,80316.000000000,1718098472.822831869
1718098472.823839,,,,-1.675620317,-1.677475214,80317.000000000,1718098472.823838949
1718098472.824846,,,,-1.619125009,-1.620955944,80318.000000000,1718098472.824846029
1718098472.825853,,,,-1.608955860,-1.608502984,80319.000000000,1718098472.825853109
1718098472.826131,228.549240112,16376.000000000,1718098472.826131105,,,,
1718098472.826860,,,,-1.633140683,-1.633721471,80320.000000000,1718098472.826860189
1718098472.827867,,,,-1.660354495,-1.663724065,80321.000000000,1718098472.827867270
1718098472.828874,,,,-1.709926128,-1.709905982,80322.000000000,1718098472.828874350
1718098472.829881,,,,-1.723388791,-1.723008037,80323.000000000,1718098472.829881430
1718098472.830889,,,,-1.838831544,-1.838282466,80324.000000000,1718098472.830888510
1718098472.831131,228.597503662,16377.000000000,1718098472.831130981,,,,
1718098472.831896,,,,-1.885542274,-1.883743048,80325.000000000,1718098472.831895590
1718098472.832903,,,,-1.873065233,-1.871554494,80326.000000000,1718098472.832902670
1718098472.833910,,,,-1.844480991,-1.843258858,80327.000000000,1718098472.833909750
1718098472.834917,,,,-1.819454789,-1.819218278,80328.000000000,1718098472.834916830
1718098472.835924,,,,-1.802914977,-1.805202603,80329.000000000,1718098472.835923910
1718098472.836131,228.565338135,16378.000000000,1718098472.836131096,,,,
1718098472.836931,,,,-1.721441507,-1.722046375,80330.000000000,1718098472.836930990
1718098472.837938,,,,-1.656075358,-1.653314471,80331.000000000,1718098472.837938070
1718098472.838945,,,,-1.703675628,-1.703078389,80332.000000000,1718098472.838945150
1718098472.839952,,,,-1.853760719,-1.853884697,80333.000000000,1718098472.839952230
1718098472.840959,,,,-1.817050815,-1.819699049,80334.000000000,1718098472.840959311
1718098472.841131,228.677932739,16379.000000000,1718098472.841130972,,,,
1718098472.841966,,,,-1.810247302,-1.810323238,80335.000000000,1718098472.841966391
1718098472.842973,,,,-1.836667895,-1.837440968,80336.000000000,1718098472.842973471
1718098472.843981,,,,-1.858520746,-1.858139873,80337.000000000,1718098472.843980551
1718098472.844988,,,,-1.828686357,-1.829195142,80338.000000000,1718098472.844987631
1718098472.845995,,,,-1.819863558,-1.821165562,80339.000000000,1718098472.845994711
1718098472.846131,228.710113525,16380.000000000,1718098472.846131086,,,,
1718098472.847002,,,,-1.823998451,-1.826646805,80340.000000000,1718098472.847001791
1718098472.848009,,,,-1.789283991,-1.792533278,80341.000000000,1718098472.848008871
1718098472.849016,,,,-1.728004575,-1.731398225,80342.000000000,1718098472.849015951
1718098472.850023,,,,-1.711080074,-1.711348414,80343.000000000,1718098472.850023031
1718098472.851030,,,,-1.722859979,-1.721349239,80344.000000000,1718098472.851030111
1718098472.852037,,,,-1.720648170,-1.718392253,80345.000000000,1718098472.852037191
1718098472.853044,,,,-1.724398494,-1.724306226,80346.000000000,1718098472.853044271
1718098472.854051,,,,-1.739760399,-1.739692211,80347.000000000,1718098472.854051352
1718098472.855058,,,,-1.693362236,-1.694784403,80348.000000000,1718098472.855058432
1718098472.856066,,,,-1.693025589,-1.694808483,80349.000000000,1718098472.856065512
1718098472.856258,228.774444580,16381.000000000,1718098472.856258392,,,,
1718098472.857073,,,,-1.736130357,-1.735869765,80350.000000000,1718098472.857072592
1718098472.858080,,,,-1.719542384,-1.718151808,80351.000000000,1718098472.858079672
1718098472.859087,,,,-1.627899766,-1.628312349,80352.000000000,1718098472.859086752
1718098472.860094,,,,-1.634775400,-1.634634972,80353.000000000,1718098472.860093832
1718098472.861101,,,,-1.702858210,-1.702237010,80354.000000000,1718098472.861100912
1718098472.861259,228.854873657,16382.000000000,1718098472.861258507,,,,
1718098472.862108,,,,-1.766205072,-1.765127063,80355.000000000,1718098472.862107992
1718098472.863115,,,,-1.846957207,-1.846840858,80356.000000000,1718098472.863115072
1718098472.864122,,,,-1.889364719,-1.891027331,80357.000000000,1718098472.864122152
1718098472.865129,,,,-1.866574287,-1.867539763,80358.000000000,1718098472.865129232
1718098472.866136,,,,-1.778682113,-1.780248523,80359.000000000,1718098472.866136312
1718098472.866258,228.790527344,16383.000000000,1718098472.866258383,,,,
1718098472.867143,,,,-1.763175964,-1.764237523,80360.000000000,1718098472.867143393
1718098472.868150,,,,-1.795943141,-1.795658588,80361.000000000,1718098472.868150473
1718098472.869158,,,,-1.768392682,-1.768420577,80362.000000000,1718098472.869157553
1718098472.870165,,,,-1.734808087,-1.733922482,80363.000000000,1718098472.870164633
1718098472.871172,,,,-1.737043858,-1.735004306,80364.000000000,1718098472.871171713
1718098472.871258,228.806625366,16384.000000000,1718098472.871258497,,,,
1718098472.872179,,,,-1.735937953,-1.737408280,80365.000000000,1718098472.872178793
1718098472.873186,,,,-1.717402697,-1.720075130,80366.000000000,1718098472.873185873
1718098472.874193,,,,-1.666316628,-1.670022726,80367.000000000,1718098472.874192953
1718098472.875200,,,,-1.654584765,-1.658867836,80368.000000000,1718098472.875200033
1718098472.876207,,,,-1.687231898,-1.687355876,80369.000000000,1718098472.876207113
1718098472.876258,228.710113525,16385.000000000,1718098472.876258373,,,,
1718098472.877214,,,,-1.716994047,-1.716973901,80370.000000000,1718098472.877214193
1718098472.878221,,,,-1.673264265,-1.674157619,80371.000000000,1718098472.878221273
1718098472.879228,,,,-1.598618388,-1.599944472,80372.000000000,1718098472.879228354
1718098472.880235,,,,-1.570899606,-1.568355203,80373.000000000,1718098472.880235434
1718098472.881243,,,,-1.544599295,-1.545324326,80374.000000000,1718098472.881242514
1718098472.882250,,,,-1.559143782,-1.560638189,80375.000000000,1718098472.882249594
1718098472.883257,,,,-1.606671929,-1.606074810,80376.000000000,1718098472.883256674
1718098472.884264,,,,-1.642732859,-1.643650174,80377.000000000,1718098472.884263754
1718098472.885271,,,,-1.709517479,-1.709954023,80378.000000000,1718098472.885270834
1718098472.886278,,,,-1.683625817,-1.686562538,80379.000000000,1718098472.886277914
1718098472.887285,,,,-1.659032345,-1.662041187,80380.000000000,1718098472.887284994
1718098472.888292,,,,-1.734687924,-1.735196590,80381.000000000,1718098472.888292074
1718098472.889299,,,,-1.753824115,-1.752265334,80382.000000000,1718098472.889299154
1718098472.890306,,,,-1.697905898,-1.696611524,80383.000000000,1718098472.890306234
1718098472.891313,,,,-1.657301426,-1.656343579,80384.000000000,1718098472.891313314
1718098472.892320,,,,-1.673985481,-1.673027754,80385.000000000,1718098472.892320395
1718098472.893327,,,,-1.700069547,-1.698582888,80386.000000000,1718098472.893327475
1718098472.894335,,,,-1.730721235,-1.728080630,80387.000000000,1718098472.894334555
1718098472.895342,,,,-1.729831696,-1.725460172,80388.000000000,1718098472.895341635
1718098472.896349,,,,-1.699228048,-1.697669268,80389.000000000,1718098472.896348715
1718098472.897356,,,,-1.721633911,-1.722406983,80390.000000000,1718098472.897355795
1718098472.898363,,,,-1.717931628,-1.720171213,80391.000000000,1718098472.898362875
1718098472.899370,,,,-1.664297223,-1.667642713,80392.000000000,1718098472.899369955
1718098472.900377,,,,-1.632804036,-1.635163903,80393.000000000,1718098472.900377035
1718098472.901384,,,,-1.619990468,-1.618359566,80394.000000000,1718098472.901384115
1718098472.902391,,,,-1.685044169,-1.684831619,80395.000000000,1718098472.902391195
1718098472.903398,,,,-1.813925505,-1.813232183,80396.000000000,1718098472.903398275
1718098472.904405,,,,-1.931964517,-1.931127071,80397.000000000,1718098472.904405355
1718098472.905412,,,,-1.985454798,-1.984761477,80398.000000000,1718098472.905412436
1718098472.906258,228.098785400,16391.000000000,1718098472.906258345,,,,
1718098472.906420,,,,-1.929175854,-1.928867221,80399.000000000,1718098472.906419516
1718098472.907427,,,,-1.873041153,-1.875064492,80400.000000000,1718098472.907426596
1718098472.908434,,,,-1.842077017,-1.841816425,80401.000000000,1718098472.908433676
1718098472.909441,,,,-1.721729994,-1.721373320,80402.000000000,1718098472.909440756
1718098472.910448,,,,-1.593040943,-1.596290350,80403.000000000,1718098472.910447836
1718098472.911258,228.018356323,16392.000000000,1718098472.911258459,,,,
1718098472.911455,,,,-1.534141660,-1.536910176,80404.000000000,1718098472.911454916
1718098472.912462,,,,-1.586862564,-1.587395310,80405.000000000,1718098472.912461996
1718098472.913469,,,,-1.652685642,-1.653074145,80406.000000000,1718098472.913469076
1718098472.914476,,,,-1.626649737,-1.626581430,80407.000000000,1718098472.914476156
1718098472.915483,,,,-1.587054849,-1.586674094,80408.000000000,1718098472.915483236
1718098472.916258,227.970092773,16393.000000000,1718098472.916258335,,,,
1718098472.916490,,,,-1.602729321,-1.603141904,80409.000000000,1718098472.916490316
1718098472.917497,,,,-1.668071508,-1.670142889,80410.000000000,1718098472.917497396
1718098472.918504,,,,-1.794717073,-1.796115279,80411.000000000,1718098472.918504477
1718098472.919512,,,,-1.882441044,-1.882060289,80412.000000000,1718098472.919511557
1718098472.920519,,,,-1.830152869,-1.830613494,80413.000000000,1718098472.920518637
1718098472.921258,227.953994751,16394.000000000,1718098472.921258450,,,,
1718098472.921526,,,,-1.788899302,-1.791451454,80414.000000000,1718098472.921525717
1718098472.922533,,,,-1.802434087,-1.801861048,80415.000000000,1718098472.922532797
1718098472.923540,,,,-1.772311330,-1.772435427,80416.000000000,1718098472.923539877
1718098472.924547,,,,-1.804189086,-1.805443048,80417.000000000,1718098472.924546957
1718098472.925554,,,,-1.838975787,-1.837729454,80418.000000000,1718098472.925554037
1718098472.926258,227.841354370,16395.000000000,1718098472.926258326,,,,
1718098472.926561,,,,-1.826498747,-1.824483156,80419.000000000,1718098472.926561117
1718098472.927568,,,,-1.780244708,-1.779335022,80420.000000000,1718098472.927568197
1718098472.928575,,,,-1.745650411,-1.747240901,80421.000000000,1718098472.928575277
1718098472.929582,,,,-1.745626330,-1.745654225,80422.000000000,1718098472.929582357
1718098472.930589,,,,-1.758728385,-1.760367036,80423.000000000,1718098472.930589437
1718098472.931258,227.873535156,16396.000000000,1718098472.931258440,,,,
1718098472.931597,,,,-1.785148978,-1.787701130,80424.000000000,1718098472.931596518
1718098472.932604,,,,-1.822339654,-1.822968602,80425.000000000,1718098472.932603598
1718098472.933611,,,,-1.836259127,-1.838234305,80426.000000000,1718098472.933610678
1718098472.934618,,,,-1.821714640,-1.821406007,80427.000000000,1718098472.934617758
1718098472.935625,,,,-1.794596910,-1.795682549,80428.000000000,1718098472.935624838
1718098472.936258,227.825256348,16397.000000000,1718098472.936258316,,,,
1718098472.936632,,,,-1.744424343,-1.747313023,80429.000000000,1718098472.936631918
1718098472.937639,,,,-1.704036236,-1.706083536,80430.000000000,1718098472.937638998
1718098472.938646,,,,-1.625135183,-1.627182484,80431.000000000,1718098472.938646078
1718098472.939653,,,,-1.551763415,-1.553786635,80432.000000000,1718098472.939653158
1718098472.940660,,,,-1.551787376,-1.552103758,80433.000000000,1718098472.940660238
1718098472.941258,227.712646484,16398.000000000,1718098472.941258430,,,,
1718098472.941667,,,,-1.576933861,-1.574894309,80434.000000000,1718098472.941667318
1718098472.942674,,,,-1.602368712,-1.599704146,80435.000000000,1718098472.942674398
1718098472.943681,,,,-1.624966860,-1.625042796,80436.000000000,1718098472.943681479
1718098472.944689,,,,-1.754593492,-1.754525185,80437.000000000,1718098472.944688559
1718098472.945696,,,,-1.858208179,-1.858765006,80438.000000000,1718098472.945695639
1718098472.946258,227.535659790,16399.000000000,1718098472.946258307,,,,
1718098472.946703,,,,-1.910111666,-1.910211802,80439.000000000,1718098472.946702719
