__time,/gdx/grip_force_stream/grip_force,/gdx/grip_force_stream/header/seq,/gdx/grip_force_stream/header/stamp,/shimmer0/emg_stream/emg_ch1,/shimmer0/emg_stream/emg_ch2,/shimmer0/emg_stream/header/seq,/shimmer0/emg_stream/header/stamp
1718098737.717356,,,,-4.356968403,-4.358510971,11543.000000000,1718098737.717355728
1718098737.718363,,,,-4.362714291,-4.364569187,11544.000000000,1718098737.718362808
1718098737.719370,,,,-4.352713108,-4.355385303,11545.000000000,1718098737.719369888
1718098737.720377,,,,-4.341823101,-4.343701839,11546.000000000,1718098737.720376968
1718098737.721384,,,,-4.330499649,-4.332306385,11547.000000000,1718098737.721384048
1718098737.722391,,,,-4.322206020,-4.322522163,11548.000000000,1718098737.722391129
1718098737.723398,,,,-4.321821213,-4.320334435,11549.000000000,1718098737.723398209
1718098737.723575,-0.074552685,2809.000000000,1718098737.723574638,,,,
1718098737.724405,,,,-4.331100941,-4.333701134,11550.000000000,1718098737.724405289
1718098737.725412,,,,-4.346654892,-4.352236271,11551.000000000,1718098737.725412369
1718098737.726419,,,,-4.363579750,-4.365939140,11552.000000000,1718098737.726419449
1718098737.727427,,,,-4.358843803,-4.357164383,11553.000000000,1718098737.727426529
1718098737.728434,,,,-4.355189323,-4.354952812,11554.000000000,1718098737.728433609
1718098737.728575,-0.039195392,2810.000000000,1718098737.728574753,,,,
1718098737.729441,,,,-4.349227428,-4.350937843,11555.000000000,1718098737.729440689
1718098737.730448,,,,-4.343337536,-4.347812653,11556.000000000,1718098737.730447769
1718098737.731455,,,,-4.342400074,-4.346706867,11557.000000000,1718098737.731454849
1718098737.732462,,,,-4.342928886,-4.345576763,11558.000000000,1718098737.732461929
1718098737.733469,,,,-4.342568398,-4.344783783,11559.000000000,1718098737.733469009
1718098737.733575,-0.074552685,2811.000000000,1718098737.733574629,,,,
1718098737.734476,,,,-4.339515209,-4.339109898,11560.000000000,1718098737.734476089
1718098737.735483,,,,-4.332254887,-4.334542274,11561.000000000,1718098737.735483170
1718098737.736490,,,,-4.334081650,-4.335407734,11562.000000000,1718098737.736490250
1718098737.737497,,,,-4.336990833,-4.339518547,11563.000000000,1718098737.737497330
1718098737.738504,,,,-4.328865051,-4.335263729,11564.000000000,1718098737.738504410
1718098737.738575,-0.127597794,2812.000000000,1718098737.738574743,,,,
1718098737.739511,,,,-4.314969540,-4.320646763,11565.000000000,1718098737.739511490
1718098737.740519,,,,-4.316291809,-4.319372654,11566.000000000,1718098737.740518570
1718098737.741526,,,,-4.327614784,-4.327498436,11567.000000000,1718098737.741525650
1718098737.742533,,,,-4.353819370,-4.355121136,11568.000000000,1718098737.742532730
1718098737.743540,,,,-4.363892078,-4.364400864,11569.000000000,1718098737.743539810
1718098737.743575,-0.056873966,2813.000000000,1718098737.743574619,,,,
1718098737.744547,,,,-4.358122349,-4.358991623,11570.000000000,1718098737.744546890
1718098737.745554,,,,-4.353506565,-4.355601788,11571.000000000,1718098737.745553970
1718098737.746561,,,,-4.355213642,-4.354784489,11572.000000000,1718098737.746561050
1718098737.747568,,,,-4.351703644,-4.352548599,11573.000000000,1718098737.747568130
1718098737.748575,-0.074552685,2814.000000000,1718098737.748574734,,,,
1718098737.748575,,,,-4.343722343,-4.344326973,11574.000000000,1718098737.748575211
1718098737.749582,,,,-4.337591648,-4.340696812,11575.000000000,1718098737.749582291
1718098737.750589,,,,-4.332375050,-4.334830761,11576.000000000,1718098737.750589371
1718098737.751596,,,,-4.325355053,-4.323748112,11577.000000000,1718098737.751596451
1718098737.752604,,,,-4.323768616,-4.325335026,11578.000000000,1718098737.752603531
1718098737.753575,-0.056873966,2815.000000000,1718098737.753574610,,,,
1718098737.753611,,,,-4.318768024,-4.321488380,11579.000000000,1718098737.753610611
1718098737.754618,,,,-4.323624134,-4.325262547,11580.000000000,1718098737.754617691
1718098737.755625,,,,-4.344803810,-4.344543457,11581.000000000,1718098737.755624771
1718098737.756632,,,,-4.355429649,-4.357717514,11582.000000000,1718098737.756631851
1718098737.757639,,,,-4.350092888,-4.352716923,11583.000000000,1718098737.757638931
1718098737.758575,0.031525578,2816.000000000,1718098737.758574724,,,,
1718098737.758646,,,,-4.346414566,-4.348557949,11584.000000000,1718098737.758646011
1718098737.759653,,,,-4.339731216,-4.340648651,11585.000000000,1718098737.759653091
1718098737.760660,,,,-4.338721752,-4.339999676,11586.000000000,1718098737.760660172
1718098737.761667,,,,-4.351390839,-4.353221893,11587.000000000,1718098737.761667252
1718098737.762674,,,,-4.358362675,-4.358991623,11588.000000000,1718098737.762674332
1718098737.763575,0.084558718,2817.000000000,1718098737.763574600,,,,
1718098737.763681,,,,-4.359276295,-4.359352112,11589.000000000,1718098737.763681412
1718098737.764688,,,,-4.361320019,-4.359159946,11590.000000000,1718098737.764688492
1718098737.765696,,,,-4.346318722,-4.347067356,11591.000000000,1718098737.765695572
1718098737.766703,,,,-4.344563484,-4.344759464,11592.000000000,1718098737.766702652
1718098737.767710,,,,-4.358242512,-4.358054161,11593.000000000,1718098737.767709732
1718098737.768575,0.084558718,2818.000000000,1718098737.768574715,,,,
1718098737.768717,,,,-4.346414566,-4.345721245,11594.000000000,1718098737.768716812
1718098737.769724,,,,-4.327037811,-4.326080322,11595.000000000,1718098737.769723892
1718098737.770731,,,,-4.314440727,-4.313627243,11596.000000000,1718098737.770730972
1718098737.771738,,,,-4.331317425,-4.332162380,11597.000000000,1718098737.771738052
1718098737.772745,,,,-4.343529701,-4.343725681,11598.000000000,1718098737.772745132
1718098737.773575,0.049203437,2819.000000000,1718098737.773574591,,,,
1718098737.773752,,,,-4.327278614,-4.328267574,11599.000000000,1718098737.773752213
1718098737.774759,,,,-4.317854404,-4.319685459,11600.000000000,1718098737.774759293
1718098737.775766,,,,-4.321412563,-4.323219299,11601.000000000,1718098737.775766373
1718098737.776773,,,,-4.338793755,-4.340720654,11602.000000000,1718098737.776773453
1718098737.777769,0.102236152,2821.000000000,1718098737.777768850,,,,
1718098737.777781,,,,-4.359420776,-4.360169411,11603.000000000,1718098737.777780533
1718098737.778575,0.031525578,2820.000000000,1718098737.778574705,,,,
1718098737.778788,,,,-4.372138023,-4.370987892,11604.000000000,1718098737.778787613
1718098737.779795,,,,-4.376056671,-4.377815247,11605.000000000,1718098737.779794693
1718098737.780802,,,,-4.383557320,-4.386349678,11606.000000000,1718098737.780801773
1718098737.781809,,,,-4.365286350,-4.368583679,11607.000000000,1718098737.781808853
1718098737.782769,0.049203437,2822.000000000,1718098737.782768965,,,,
1718098737.782816,,,,-4.348698616,-4.348774433,11608.000000000,1718098737.782815933
1718098737.783823,,,,-4.335019588,-4.336489677,11609.000000000,1718098737.783823013
1718098737.784830,,,,-4.318239212,-4.318723679,11610.000000000,1718098737.784830093
1718098737.785837,,,,-4.323071480,-4.323531628,11611.000000000,1718098737.785837173
1718098737.786844,,,,-4.335812569,-4.336681843,11612.000000000,1718098737.786844254
1718098737.787851,,,,-4.330427647,-4.330960274,11613.000000000,1718098737.787851334
1718098737.788858,,,,-4.327783108,-4.329950809,11614.000000000,1718098737.788858414
1718098737.789865,,,,-4.374566078,-4.376997948,11615.000000000,1718098737.789865494
1718098737.790873,,,,-4.372714996,-4.375531673,11616.000000000,1718098737.790872574
1718098737.791880,,,,-4.378460884,-4.381685734,11617.000000000,1718098737.791879654
1718098737.792887,,,,-4.389062405,-4.391518593,11618.000000000,1718098737.792886734
1718098737.793894,,,,-4.377330780,-4.376949787,11619.000000000,1718098737.793893814
1718098737.794901,,,,-4.357882023,-4.360434055,11620.000000000,1718098737.794900894
1718098737.795908,,,,-4.333552837,-4.334350109,11621.000000000,1718098737.795907974
1718098737.796915,,,,-4.313070297,-4.314733028,11622.000000000,1718098737.796915054
1718098737.797922,,,,-4.320090294,-4.323555946,11623.000000000,1718098737.797922134
1718098737.798929,,,,-4.318479538,-4.320286274,11624.000000000,1718098737.798929214
1718098737.799936,,,,-4.309464455,-4.308049679,11625.000000000,1718098737.799936295
1718098737.800943,,,,-4.328985214,-4.331561565,11626.000000000,1718098737.800943375
1718098737.801950,,,,-4.345092297,-4.348365784,11627.000000000,1718098737.801950455
1718098737.802958,,,,-4.362209320,-4.365314484,11628.000000000,1718098737.802957535
1718098737.803965,,,,-4.370887756,-4.372069836,11629.000000000,1718098737.803964615
1718098737.804972,,,,-4.351415157,-4.352500439,11630.000000000,1718098737.804971695
1718098737.805979,,,,-4.325283051,-4.329253674,11631.000000000,1718098737.805978775
1718098737.806986,,,,-4.322662830,-4.326056004,11632.000000000,1718098737.806985855
1718098737.807993,,,,-4.317830563,-4.322594166,11633.000000000,1718098737.807992935
1718098737.809000,,,,-4.309536457,-4.313915730,11634.000000000,1718098737.809000015
1718098737.810007,,,,-4.305281162,-4.307977676,11635.000000000,1718098737.810007095
1718098737.811014,,,,-4.298718452,-4.299346924,11636.000000000,1718098737.811014175
1718098737.812021,,,,-4.296338081,-4.297784328,11637.000000000,1718098737.812021255
1718098737.813028,,,,-4.306723595,-4.308650494,11638.000000000,1718098737.813028336
1718098737.814035,,,,-4.313767433,-4.316007137,11639.000000000,1718098737.814035416
1718098737.815042,,,,-4.297492027,-4.298938274,11640.000000000,1718098737.815042496
1718098737.816050,,,,-4.297323704,-4.298313141,11641.000000000,1718098737.816049576
1718098737.817057,,,,-4.302829266,-4.304275513,11642.000000000,1718098737.817056656
1718098737.818064,,,,-4.332735538,-4.333460331,11643.000000000,1718098737.818063736
1718098737.819071,,,,-4.344828129,-4.343581676,11644.000000000,1718098737.819070816
1718098737.820078,,,,-4.333120346,-4.331705570,11645.000000000,1718098737.820077896
1718098737.821085,,,,-4.330980778,-4.334470272,11646.000000000,1718098737.821084976
1718098737.822092,,,,-4.352400780,-4.354039192,11647.000000000,1718098737.822092056
1718098737.822769,0.667870641,2830.000000000,1718098737.822768927,,,,
1718098737.823099,,,,-4.347544670,-4.348341465,11648.000000000,1718098737.823099136
1718098737.824106,,,,-4.324994564,-4.325599194,11649.000000000,1718098737.824106216
1718098737.825113,,,,-4.320691109,-4.321512222,11650.000000000,1718098737.825113297
1718098737.826120,,,,-4.333913803,-4.335191250,11651.000000000,1718098737.826120377
1718098737.827127,,,,-4.370503426,-4.371444702,11652.000000000,1718098737.827127457
1718098737.827769,0.703215897,2831.000000000,1718098737.827768803,,,,
1718098737.828135,,,,-4.419257641,-4.419910431,11653.000000000,1718098737.828134537
1718098737.829142,,,,-4.500442505,-4.503234863,11654.000000000,1718098737.829141617
1718098737.830149,,,,-4.544460773,-4.548599243,11655.000000000,1718098737.830148697
1718098737.831156,,,,-4.511525154,-4.513908863,11656.000000000,1718098737.831155777
1718098737.832163,,,,-4.453971863,-4.455249786,11657.000000000,1718098737.832162857
1718098737.832769,0.862278700,2832.000000000,1718098737.832768917,,,,
1718098737.833170,,,,-4.392380238,-4.394090652,11658.000000000,1718098737.833169937
1718098737.834177,,,,-4.337591648,-4.338965893,11659.000000000,1718098737.834177017
1718098737.835184,,,,-4.296819210,-4.298577785,11660.000000000,1718098737.835184097
1718098737.836191,,,,-4.244603157,-4.246241570,11661.000000000,1718098737.836191177
1718098737.837198,,,,-4.224048138,-4.224364758,11662.000000000,1718098737.837198257
1718098737.837769,1.074330807,2833.000000000,1718098737.837768793,,,,
1718098737.838205,,,,-4.269773483,-4.272998333,11663.000000000,1718098737.838205338
1718098737.839212,,,,-4.303478241,-4.307400703,11664.000000000,1718098737.839212418
1718098737.840219,,,,-4.282947540,-4.283263683,11665.000000000,1718098737.840219498
1718098737.841227,,,,-4.291217804,-4.290572166,11666.000000000,1718098737.841226578
1718098737.842234,,,,-4.321652889,-4.323940277,11667.000000000,1718098737.842233658
1718098737.842769,1.321705699,2834.000000000,1718098737.842768908,,,,
1718098737.843241,,,,-4.342159271,-4.342331409,11668.000000000,1718098737.843240738
1718098737.844248,,,,-4.357184887,-4.357957840,11669.000000000,1718098737.844247818
1718098737.845255,,,,-4.360959053,-4.359208107,11670.000000000,1718098737.845254898
1718098737.846262,,,,-4.329610348,-4.327474594,11671.000000000,1718098737.846261978
1718098737.847269,,,,-4.294535160,-4.296462059,11672.000000000,1718098737.847269058
1718098737.847769,1.675050616,2835.000000000,1718098737.847768784,,,,
1718098737.848276,,,,-4.298862457,-4.302472115,11673.000000000,1718098737.848276138
1718098737.849283,,,,-4.306314945,-4.310165405,11674.000000000,1718098737.849283218
1718098737.850290,,,,-4.291361809,-4.296341896,11675.000000000,1718098737.850290298
1718098737.851297,,,,-4.294799805,-4.297423840,11676.000000000,1718098737.851297379
1718098737.852304,,,,-4.312589645,-4.316391945,11677.000000000,1718098737.852304459
1718098737.852769,2.010668516,2836.000000000,1718098737.852768898,,,,
1718098737.853312,,,,-4.320787430,-4.324421406,11678.000000000,1718098737.853311539
1718098737.854319,,,,-4.325763702,-4.326368809,11679.000000000,1718098737.854318619
1718098737.855326,,,,-4.336750507,-4.338941574,11680.000000000,1718098737.855325699
1718098737.856333,,,,-4.398991585,-4.402120113,11681.000000000,1718098737.856332779
1718098737.857340,,,,-4.446952343,-4.448302269,11682.000000000,1718098737.857339859
1718098737.857769,2.469852924,2837.000000000,1718098737.857768774,,,,
1718098737.858347,,,,-4.428633213,-4.431401730,11683.000000000,1718098737.858346939
1718098737.859354,,,,-4.370094776,-4.371949673,11684.000000000,1718098737.859354019
1718098737.860361,,,,-4.313719749,-4.316944599,11685.000000000,1718098737.860361099
1718098737.861368,,,,-4.290304184,-4.290884495,11686.000000000,1718098737.861368179
1718098737.862375,,,,-4.287707806,-4.287615299,11687.000000000,1718098737.862375259
1718098737.862769,2.893639565,2838.000000000,1718098737.862768888,,,,
1718098737.863382,,,,-4.280856133,-4.281773567,11688.000000000,1718098737.863382339
1718098737.864389,,,,-4.359228134,-4.359111786,11689.000000000,1718098737.864389420
1718098737.865396,,,,-4.438754559,-4.440104485,11690.000000000,1718098737.865396500
1718098737.866404,,,,-4.424426079,-4.428396702,11691.000000000,1718098737.866403580
1718098737.867411,,,,-4.419209480,-4.421256542,11692.000000000,1718098737.867410660
1718098737.867769,3.599753141,2839.000000000,1718098737.867768764,,,,
1718098737.868418,,,,-4.421180725,-4.422915459,11693.000000000,1718098737.868417740
1718098737.869425,,,,-4.378340721,-4.379426003,11694.000000000,1718098737.869424820
1718098737.870432,,,,-4.302588940,-4.305549622,11695.000000000,1718098737.870431900
1718098737.871439,,,,-4.277851105,-4.280378819,11696.000000000,1718098737.871438980
1718098737.872446,,,,-4.265398026,-4.269176006,11697.000000000,1718098737.872446060
1718098737.872769,4.358565807,2840.000000000,1718098737.872768879,,,,
1718098737.873453,,,,-4.195175648,-4.193208218,11698.000000000,1718098737.873453140
1718098737.874460,,,,-4.206450462,-4.208257198,11699.000000000,1718098737.874460220
1718098737.875467,,,,-4.352232456,-4.353149891,11700.000000000,1718098737.875467300
1718098737.876474,,,,-4.452553749,-4.452341080,11701.000000000,1718098737.876474380
1718098737.877481,,,,-4.454140186,-4.457077026,11702.000000000,1718098737.877481461
1718098737.878489,,,,-4.484335423,-4.488666058,11703.000000000,1718098737.878488541
1718098737.879496,,,,-4.512799263,-4.516817570,11704.000000000,1718098737.879495621
1718098737.880503,,,,-4.422839642,-4.424237728,11705.000000000,1718098737.880502701
1718098737.881510,,,,-4.305809975,-4.308650494,11706.000000000,1718098737.881509781
1718098737.882517,,,,-4.253546238,-4.256578922,11707.000000000,1718098737.882516861
1718098737.883524,,,,-4.219168186,-4.221287251,11708.000000000,1718098737.883523941
1718098737.884531,,,,-4.136059761,-4.137506008,11709.000000000,1718098737.884531021
1718098737.885538,,,,-4.057904243,-4.060095310,11710.000000000,1718098737.885538101
1718098737.886545,,,,-4.141949654,-4.142746925,11711.000000000,1718098737.886545181
1718098737.887552,,,,-4.226740837,-4.230110168,11712.000000000,1718098737.887552261
1718098737.888559,,,,-4.293693542,-4.294755459,11713.000000000,1718098737.888559341
1718098737.889566,,,,-4.397332668,-4.396086216,11714.000000000,1718098737.889566422
1718098737.890574,,,,-4.485561371,-4.484194756,11715.000000000,1718098737.890573502
1718098737.891581,,,,-4.391418457,-4.391061783,11716.000000000,1718098737.891580582
1718098737.892588,,,,-4.178924084,-4.177365303,11717.000000000,1718098737.892587662
1718098737.893595,,,,-4.110312462,-4.109282494,11718.000000000,1718098737.893594742
1718098737.894602,,,,-4.189261436,-4.189673901,11719.000000000,1718098737.894601822
1718098737.895609,,,,-4.299607754,-4.301510811,11720.000000000,1718098737.895608902
1718098737.896616,,,,-4.322326183,-4.323459625,11721.000000000,1718098737.896615982
1718098737.897623,,,,-4.343121052,-4.346899033,11722.000000000,1718098737.897623062
1718098737.898630,,,,-4.327446461,-4.330696106,11723.000000000,1718098737.898630142
1718098737.899637,,,,-4.306819916,-4.307160378,11724.000000000,1718098737.899637222
1718098737.900644,,,,-4.293766022,-4.294610977,11725.000000000,1718098737.900644302
1718098737.901651,,,,-4.318599701,-4.320022106,11726.000000000,1718098737.901651382
1718098737.902658,,,,-4.323528290,-4.326464653,11727.000000000,1718098737.902658463
1718098737.903666,,,,-4.363002777,-4.367501736,11728.000000000,1718098737.903665543
1718098737.904673,,,,-4.474334240,-4.477896214,11729.000000000,1718098737.904672623
1718098737.905680,,,,-4.500779152,-4.502898216,11730.000000000,1718098737.905679703
1718098737.906687,,,,-4.445413589,-4.448061943,11731.000000000,1718098737.906686783
1718098737.907694,,,,-4.359877586,-4.361323357,11732.000000000,1718098737.907693863
1718098737.908701,,,,-4.327831268,-4.326801300,11733.000000000,1718098737.908700943
1718098737.909708,,,,-4.347953320,-4.351539135,11734.000000000,1718098737.909708023
1718098737.910715,,,,-4.297131538,-4.300525188,11735.000000000,1718098737.910715103
1718098737.911722,,,,-4.295232296,-4.296774864,11736.000000000,1718098737.911722183
1718098737.912729,,,,-4.318214893,-4.318387032,11737.000000000,1718098737.912729263
1718098737.913736,,,,-4.310185432,-4.310646057,11738.000000000,1718098737.913736343
1718098737.914743,,,,-4.318768024,-4.320526600,11739.000000000,1718098737.914743423
1718098737.915751,,,,-4.355165482,-4.358871460,11740.000000000,1718098737.915750504
1718098737.916758,,,,-4.325908184,-4.329061031,11741.000000000,1718098737.916757584
1718098737.917765,,,,-4.273283482,-4.274104595,11742.000000000,1718098737.917764664
1718098737.918772,,,,-4.300016403,-4.301630974,11743.000000000,1718098737.918771744
1718098737.919779,,,,-4.325980186,-4.329277515,11744.000000000,1718098737.919778824
1718098737.920786,,,,-4.278933048,-4.279201031,11745.000000000,1718098737.920785904
1718098737.921793,,,,-4.232005596,-4.232995033,11746.000000000,1718098737.921792984
1718098737.922519,28.621746063,2851.000000000,1718098737.922518730,,,,
1718098737.922800,,,,-4.278019428,-4.281580925,11747.000000000,1718098737.922800064
1718098737.923807,,,,-4.345453262,-4.349783897,11748.000000000,1718098737.923807144
1718098737.924814,,,,-4.458155155,-4.463183403,11749.000000000,1718098737.924814224
1718098737.925821,,,,-4.481714725,-4.483641624,11750.000000000,1718098737.925821304
1718098737.926828,,,,-4.480969429,-4.481646538,11751.000000000,1718098737.926828384
1718098737.927519,32.403572083,2852.000000000,1718098737.927518845,,,,
1718098737.927835,,,,-4.492773533,-4.493666649,11752.000000000,1718098737.927835464
1718098737.928843,,,,-4.502870560,-4.504485130,11753.000000000,1718098737.928842545
1718098737.929850,,,,-4.495418072,-4.495085239,11754.000000000,1718098737.929849625
1718098737.930857,,,,-4.441302776,-4.444335461,11755.000000000,1718098737.930856705
1718098737.931864,,,,-4.358338833,-4.359953403,11756.000000000,1718098737.931863785
1718098737.932519,36.491382599,2853.000000000,1718098737.932518721,,,,
1718098737.932871,,,,-4.199214458,-4.199482441,11757.000000000,1718098737.932870865
1718098737.933878,,,,-4.115769863,-4.115653038,11758.000000000,1718098737.933877945
1718098737.934885,,,,-4.173034191,-4.174047470,11759.000000000,1718098737.934885025
1718098737.935892,,,,-4.207724571,-4.209170818,11760.000000000,1718098737.935892105
1718098737.936899,,,,-4.145748138,-4.145848274,11761.000000000,1718098737.936899185
1718098737.937519,40.744586945,2854.000000000,1718098737.937518835,,,,
1718098737.937906,,,,-4.055884838,-4.057739735,11762.000000000,1718098737.937906265
1718098737.938913,,,,-4.025617599,-4.028145790,11763.000000000,1718098737.938913345
1718098737.939920,,,,-4.094662189,-4.096829414,11764.000000000,1718098737.939920425
1718098737.940928,,,,-4.087473869,-4.090699196,11765.000000000,1718098737.940927505
1718098737.941935,,,,-4.205729485,-4.208570004,11766.000000000,1718098737.941934586
1718098737.942519,45.023693085,2855.000000000,1718098737.942518711,,,,
1718098737.942942,,,,-4.352064133,-4.353678703,11767.000000000,1718098737.942941666
1718098737.943949,,,,-4.394134998,-4.395581245,11768.000000000,1718098737.943948746
1718098737.944956,,,,-4.418969154,-4.419140816,11769.000000000,1718098737.944955826
1718098737.945963,,,,-4.471016884,-4.472342968,11770.000000000,1718098737.945962906
1718098737.946970,,,,-4.473011971,-4.476573944,11771.000000000,1718098737.946969986
1718098737.947519,49.570270538,2856.000000000,1718098737.947518826,,,,
1718098737.947977,,,,-4.466473103,-4.468351841,11772.000000000,1718098737.947977066
1718098737.948984,,,,-4.443730831,-4.446186543,11773.000000000,1718098737.948984146
1718098737.949991,,,,-4.411252022,-4.414765835,11774.000000000,1718098737.949991226
1718098737.950998,,,,-4.326869488,-4.329950809,11775.000000000,1718098737.950998306
1718098737.952005,,,,-4.301218510,-4.307184219,11776.000000000,1718098737.952005386
1718098737.952519,54.175758362,2857.000000000,1718098737.952518702,,,,
1718098737.953012,,,,-4.400650024,-4.403755188,11777.000000000,1718098737.953012466
1718098737.954020,,,,-4.432912350,-4.434214592,11778.000000000,1718098737.954019547
1718098737.955027,,,,-4.374181271,-4.377262592,11779.000000000,1718098737.955026627
1718098737.956034,,,,-4.426373482,-4.429358482,11780.000000000,1718098737.956033707
1718098737.957041,,,,-4.574895859,-4.576919079,11781.000000000,1718098737.957040787
1718098737.957519,58.891311646,2858.000000000,1718098737.957518816,,,,
1718098737.958048,,,,-4.627568722,-4.631106377,11782.000000000,1718098737.958047867
1718098737.959055,,,,-4.537055969,-4.539992809,11783.000000000,1718098737.959054947
1718098737.960062,,,,-4.509794235,-4.514750481,11784.000000000,1718098737.960062027
1718098737.961069,,,,-4.522463799,-4.526073456,11785.000000000,1718098737.961069107
1718098737.962076,,,,-4.465655804,-4.467751026,11786.000000000,1718098737.962076187
1718098737.962519,63.613235474,2859.000000000,1718098737.962518692,,,,
1718098737.963083,,,,-4.346727371,-4.351034164,11787.000000000,1718098737.963083267
1718098737.964090,,,,-4.276504993,-4.278503895,11788.000000000,1718098737.964090347
1718098737.965097,,,,-4.329874992,-4.329758167,11789.000000000,1718098737.965097427
1718098737.966105,,,,-4.329922676,-4.329662323,11790.000000000,1718098737.966104507
1718098737.967112,,,,-4.305281162,-4.305453300,11791.000000000,1718098737.967111588
1718098737.967519,68.358566284,2860.000000000,1718098737.967518806,,,,
1718098737.968119,,,,-4.148176193,-4.150175571,11792.000000000,1718098737.968118668
1718098737.969126,,,,-4.018573761,-4.019779682,11793.000000000,1718098737.969125748
1718098737.970133,,,,-4.056005001,-4.059013844,11794.000000000,1718098737.970132828
1718098737.971140,,,,-4.247824192,-4.251698494,11795.000000000,1718098737.971139908
1718098737.972147,,,,-4.208854675,-4.212560654,11796.000000000,1718098737.972146988
1718098737.973154,,,,-4.214384079,-4.216238976,11797.000000000,1718098737.973154068
1718098737.974161,,,,-4.267080784,-4.269488811,11798.000000000,1718098737.974161148
1718098737.975168,,,,-4.255613327,-4.258237839,11799.000000000,1718098737.975168228
1718098737.976175,,,,-4.264941216,-4.266675949,11800.000000000,1718098737.976175308
1718098737.977182,,,,-4.314801216,-4.316704273,11801.000000000,1718098737.977182388
1718098737.978189,,,,-4.327783108,-4.329878330,11802.000000000,1718098737.978189468
1718098737.979197,,,,-4.368507862,-4.367189407,11803.000000000,1718098737.979196548
1718098737.980204,,,,-4.340044022,-4.338773727,11804.000000000,1718098737.980203629
1718098737.981211,,,,-4.310834885,-4.313242435,11805.000000000,1718098737.981210709
1718098737.982218,,,,-4.403727531,-4.406183243,11806.000000000,1718098737.982217789
1718098737.983225,,,,-4.451327801,-4.453014374,11807.000000000,1718098737.983224869
1718098737.984232,,,,-4.336918831,-4.338076115,11808.000000000,1718098737.984231949
1718098737.985239,,,,-4.301314831,-4.304515839,11809.000000000,1718098737.985239029
1718098737.986246,,,,-4.332783699,-4.334878922,11810.000000000,1718098737.986246109
1718098737.987253,,,,-4.268282890,-4.271147251,11811.000000000,1718098737.987253189
1718098737.988260,,,,-4.129280567,-4.133827686,11812.000000000,1718098737.988260269
1718098737.989267,,,,-4.117139816,-4.120196819,11813.000000000,1718098737.989267349
1718098737.990274,,,,-4.187819004,-4.186356544,11814.000000000,1718098737.990274429
1718098737.991282,,,,-4.318984509,-4.320214272,11815.000000000,1718098737.991281509
1718098737.992289,,,,-4.438249588,-4.439503193,11816.000000000,1718098737.992288589
1718098737.993296,,,,-4.475944996,-4.477102757,11817.000000000,1718098737.993295670
1718098737.994303,,,,-4.455005646,-4.455057621,11818.000000000,1718098737.994302750
1718098737.995310,,,,-4.369204998,-4.370170593,11819.000000000,1718098737.995309830
1718098737.996317,,,,-4.253906727,-4.255761623,11820.000000000,1718098737.996316910
1718098737.997324,,,,-4.223158836,-4.223739624,11821.000000000,1718098737.997323990
1718098737.998331,,,,-4.203253269,-4.205083847,11822.000000000,1718098737.998331070
1718098737.999338,,,,-4.177962780,-4.180730820,11823.000000000,1718098737.999338150
1718098738.000345,,,,-4.232510567,-4.231480598,11824.000000000,1718098738.000345230
1718098738.001352,,,,-4.261503696,-4.259776115,11825.000000000,1718098738.001352310
1718098738.002359,,,,-4.318119049,-4.320069790,11826.000000000,1718098738.002359390
1718098738.003366,,,,-4.375191212,-4.377454758,11827.000000000,1718098738.003366470
1718098738.004374,,,,-4.222053051,-4.225085735,11828.000000000,1718098738.004373550
1718098738.005381,,,,-4.086536407,-4.090915680,11829.000000000,1718098738.005380630
1718098738.006388,,,,-4.069035053,-4.071202278,11830.000000000,1718098738.006387711
1718098738.007395,,,,-4.143801212,-4.144958496,11831.000000000,1718098738.007394791
1718098738.008402,,,,-4.285448074,-4.289201736,11832.000000000,1718098738.008401871
1718098738.009409,,,,-4.281817913,-4.284273624,11833.000000000,1718098738.009408951
1718098738.010416,,,,-4.221404076,-4.224989414,11834.000000000,1718098738.010416031
1718098738.011423,,,,-4.194045544,-4.196597576,11835.000000000,1718098738.011423111
1718098738.012430,,,,-4.209623814,-4.210132599,11836.000000000,1718098738.012430191
1718098738.013437,,,,-4.399111748,-4.402312756,11837.000000000,1718098738.013437271
1718098738.014444,,,,-4.520299911,-4.521938324,11838.000000000,1718098738.014444351
1718098738.015451,,,,-4.413631916,-4.415174484,11839.000000000,1718098738.015451431
1718098738.016459,,,,-4.371440887,-4.374666214,11840.000000000,1718098738.016458511
1718098738.017466,,,,-4.316868782,-4.318820000,11841.000000000,1718098738.017465591
1718098738.018473,,,,-4.137286186,-4.138082981,11842.000000000,1718098738.018472672
1718098738.019480,,,,-4.069756031,-4.070961952,11843.000000000,1718098738.019479752
1718098738.020487,,,,-4.247319698,-4.247996330,11844.000000000,1718098738.020486832
1718098738.021494,,,,-4.171808243,-4.171739578,11845.000000000,1718098738.021493912
1718098738.022501,,,,-4.107572079,-4.109306335,11846.000000000,1718098738.022500992
1718098738.023508,,,,-4.244795322,-4.245928764,11847.000000000,1718098738.023508072
1718098738.024515,,,,-4.257729053,-4.260641575,11848.000000000,1718098738.024515152
1718098738.025522,,,,-4.140771866,-4.142963409,11849.000000000,1718098738.025522232
1718098738.026529,,,,-4.145748138,-4.147026062,11850.000000000,1718098738.026529312
1718098738.027086,119.622589111,2871.000000000,1718098738.027086020,,,,
1718098738.027536,,,,-4.259820461,-4.257179737,11851.000000000,1718098738.027536392
1718098738.028543,,,,-4.413175106,-4.412673950,11852.000000000,1718098738.028543472
1718098738.029551,,,,-4.414305210,-4.414501190,11853.000000000,1718098738.029550552
1718098738.030558,,,,-4.405458450,-4.408683300,11854.000000000,1718098738.030557632
1718098738.031565,,,,-4.424690723,-4.427146435,11855.000000000,1718098738.031564713
1718098738.032086,124.243827820,2872.000000000,1718098738.032086134,,,,
1718098738.032572,,,,-4.391803265,-4.392143726,11856.000000000,1718098738.032571793
1718098738.033579,,,,-4.407477856,-4.408803463,11857.000000000,1718098738.033578873
1718098738.034586,,,,-4.367546082,-4.369112492,11858.000000000,1718098738.034585953
1718098738.035593,,,,-4.283187866,-4.283936977,11859.000000000,1718098738.035593033
1718098738.036600,,,,-4.279269218,-4.279537678,11860.000000000,1718098738.036600113
1718098738.037086,128.838882446,2873.000000000,1718098738.037086010,,,,
1718098738.037607,,,,-4.296073914,-4.297832489,11861.000000000,1718098738.037607193
1718098738.038614,,,,-4.367065430,-4.367982864,11862.000000000,1718098738.038614273
1718098738.039621,,,,-4.518713474,-4.520015240,11863.000000000,1718098738.039621353
1718098738.040628,,,,-4.585569859,-4.588362217,11864.000000000,1718098738.040628433
1718098738.041636,,,,-4.464285374,-4.467438698,11865.000000000,1718098738.041635513
1718098738.042086,133.225418091,2874.000000000,1718098738.042086124,,,,
1718098738.042643,,,,-4.263570786,-4.266916275,11866.000000000,1718098738.042642593
1718098738.043650,,,,-4.087161541,-4.088823795,11867.000000000,1718098738.043649673
1718098738.045664,,,,-4.104807377,-4.105964661,11869.000000000,1718098738.045663834
1718098738.046671,,,,-4.248040676,-4.248861790,11870.000000000,1718098738.046670914
1718098738.047086,137.570449829,2875.000000000,1718098738.047086000,,,,
1718098738.047678,,,,-4.205777645,-4.208113194,11871.000000000,1718098738.047677994
1718098738.048685,,,,-4.209143162,-4.211503029,11872.000000000,1718098738.048685074
1718098738.049692,,,,-4.271215916,-4.269464493,11873.000000000,1718098738.049692154
1718098738.050699,,,,-4.320258617,-4.322257519,11874.000000000,1718098738.050699234
1718098738.051706,,,,-4.304944515,-4.309203625,11875.000000000,1718098738.051706314
1718098738.052086,141.725448608,2876.000000000,1718098738.052086115,,,,
1718098738.052713,,,,-4.282947540,-4.283528328,11876.000000000,1718098738.052713394
1718098738.053720,,,,-4.275374889,-4.276340008,11877.000000000,1718098738.053720474
1718098738.054728,,,,-4.441326618,-4.446354866,11878.000000000,1718098738.054727554
1718098738.055735,,,,-4.735847473,-4.739505291,11879.000000000,1718098738.055734634
1718098738.056742,,,,-4.635550499,-4.636660099,11880.000000000,1718098738.056741714
1718098738.057086,145.724563599,2877.000000000,1718098738.057085991,,,,
1718098738.057749,,,,-4.526117802,-4.528453350,11881.000000000,1718098738.057748795
1718098738.058756,,,,-4.596171856,-4.600887299,11882.000000000,1718098738.058755875
1718098738.059763,,,,-4.643195152,-4.643727779,11883.000000000,1718098738.059762955
1718098738.060770,,,,-4.594032288,-4.594853401,11884.000000000,1718098738.060770035
1718098738.061777,,,,-4.423633099,-4.423780918,11885.000000000,1718098738.061777115
1718098738.062086,149.585159302,2878.000000000,1718098738.062086105,,,,
1718098738.062784,,,,-4.245203972,-4.248164654,11886.000000000,1718098738.062784195
1718098738.063791,,,,-4.084420681,-4.086227417,11887.000000000,1718098738.063791275
1718098738.064798,,,,-3.971454382,-3.969967604,11888.000000000,1718098738.064798355
1718098738.065805,,,,-3.978281736,-3.979415417,11889.000000000,1718098738.065805435
1718098738.066813,,,,-4.166423321,-4.167556763,11890.000000000,1718098738.066812515
1718098738.067086,153.324447632,2879.000000000,1718098738.067085981,,,,
1718098738.067820,,,,-4.376489162,-4.377887249,11891.000000000,1718098738.067819595
1718098738.068827,,,,-4.389976025,-4.391951084,11892.000000000,1718098738.068826675
1718098738.069834,,,,-4.355477810,-4.354928970,11893.000000000,1718098738.069833755
1718098738.070841,,,,-4.429907322,-4.429718971,11894.000000000,1718098738.070840836
1718098738.071848,,,,-4.527488232,-4.531025887,11895.000000000,1718098738.071847916
1718098738.072086,156.844451904,2880.000000000,1718098738.072086096,,,,
1718098738.072855,,,,-4.537344456,-4.540641785,11896.000000000,1718098738.072854996
1718098738.073862,,,,-4.458804131,-4.462678432,11897.000000000,1718098738.073862076
1718098738.074869,,,,-4.362882614,-4.365025997,11898.000000000,1718098738.074869156
1718098738.075876,,,,-4.347929001,-4.349062920,11899.000000000,1718098738.075876236
1718098738.076883,,,,-4.356391430,-4.359159946,11900.000000000,1718098738.076883316
1718098738.077890,,,,-4.507486343,-4.511336327,11901.000000000,1718098738.077890396
1718098738.078897,,,,-4.551432610,-4.551532269,11902.000000000,1718098738.078897476
1718098738.079905,,,,-4.408583641,-4.412241459,11903.000000000,1718098738.079904556
1718098738.080742,160.211822510,2881.000000000,1718098738.080742121,,,,
1718098738.080912,,,,-4.220922947,-4.222441196,11904.000000000,1718098738.080911636
1718098738.081919,,,,-4.244915485,-4.246457577,11905.000000000,1718098738.081918716
1718098738.082926,,,,-4.193444729,-4.194530010,11906.000000000,1718098738.082925797
1718098738.083933,,,,-4.058865547,-4.059614658,11907.000000000,1718098738.083932877
1718098738.084940,,,,-4.042902946,-4.042738438,11908.000000000,1718098738.084939957
1718098738.085947,,,,-4.160965919,-4.163157463,11909.000000000,1718098738.085947037
1718098738.086954,,,,-4.257103920,-4.259583950,11910.000000000,1718098738.086954117
1718098738.087961,,,,-4.341774940,-4.343365192,11911.000000000,1718098738.087961197
1718098738.088968,,,,-4.405073643,-4.404115677,11912.000000000,1718098738.088968277
1718098738.089975,,,,-4.406492233,-4.408803463,11913.000000000,1718098738.089975357
1718098738.090982,,,,-4.524891853,-4.528958321,11914.000000000,1718098738.090982437
1718098738.091990,,,,-4.664519310,-4.665965080,11915.000000000,1718098738.091989517
1718098738.092997,,,,-4.643651962,-4.645506859,11916.000000000,1718098738.092996597
1718098738.094004,,,,-4.589104176,-4.591054916,11917.000000000,1718098738.094003677
1718098738.095011,,,,-4.423993587,-4.424790382,11918.000000000,1718098738.095010757
1718098738.096018,,,,-4.220827103,-4.223018169,11919.000000000,1718098738.096017838
1718098738.097025,,,,-4.091753006,-4.092814922,11920.000000000,1718098738.097024918
1718098738.098032,,,,-4.132670403,-4.131904602,11921.000000000,1718098738.098031998
1718098738.099039,,,,-4.264436245,-4.266435623,11922.000000000,1718098738.099039078
1718098738.100046,,,,-4.383148670,-4.385147572,11923.000000000,1718098738.100046158
1718098738.101053,,,,-4.449885368,-4.450970650,11924.000000000,1718098738.101053238
1718098738.102060,,,,-4.368051052,-4.365891457,11925.000000000,1718098738.102060318
1718098738.103067,,,,-4.182530403,-4.181259632,11926.000000000,1718098738.103067398
1718098738.104074,,,,-4.119760513,-4.118105412,11927.000000000,1718098738.104074478
1718098738.105082,,,,-4.303742886,-4.304900169,11928.000000000,1718098738.105081558
1718098738.106089,,,,-4.462578773,-4.465899944,11929.000000000,1718098738.106088638
1718098738.107096,,,,-4.414353371,-4.415583134,11930.000000000,1718098738.107095718
1718098738.108103,,,,-4.310401917,-4.310333729,11931.000000000,1718098738.108102798
1718098738.109110,,,,-4.211547375,-4.214291573,11932.000000000,1718098738.109109879
1718098738.110117,,,,-4.158129215,-4.160032272,11933.000000000,1718098738.110116959
1718098738.111124,,,,-4.200223923,-4.201574326,11934.000000000,1718098738.111124039
1718098738.112131,,,,-4.254868507,-4.257684708,11935.000000000,1718098738.112131119
1718098738.113138,,,,-4.386201859,-4.390604973,11936.000000000,1718098738.113138199
1718098738.114145,,,,-4.398919106,-4.400125027,11937.000000000,1718098738.114145279
1718098738.115152,,,,-4.377306938,-4.380916595,11938.000000000,1718098738.115152359
1718098738.116159,,,,-4.437504292,-4.438662052,11939.000000000,1718098738.116159439
1718098738.117167,,,,-4.416276455,-4.415294647,11940.000000000,1718098738.117166519
1718098738.118174,,,,-4.360935211,-4.363246918,11941.000000000,1718098738.118173599
1718098738.119181,,,,-4.372955322,-4.374641895,11942.000000000,1718098738.119180679
1718098738.120188,,,,-4.368339539,-4.370675087,11943.000000000,1718098738.120187759
1718098738.121195,,,,-4.364565372,-4.365482330,11944.000000000,1718098738.121194839
1718098738.122202,,,,-4.401539803,-4.399596214,11945.000000000,1718098738.122201920
1718098738.123209,,,,-4.373315811,-4.372213840,11946.000000000,1718098738.123209000
1718098738.124216,,,,-4.294126511,-4.295741081,11947.000000000,1718098738.124216080
1718098738.125223,,,,-4.333985806,-4.335984707,11948.000000000,1718098738.125223160
1718098738.126230,,,,-4.302660942,-4.303505898,11949.000000000,1718098738.126230240
1718098738.127237,,,,-4.269605160,-4.271099567,11950.000000000,1718098738.127237320
1718098738.128244,,,,-4.288789272,-4.289538383,11951.000000000,1718098738.128244400
1718098738.129251,,,,-4.355742455,-4.354832649,11952.000000000,1718098738.129251480
1718098738.130259,,,,-4.291337967,-4.294106007,11953.000000000,1718098738.130258560
1718098738.130742,186.545425415,2891.000000000,1718098738.130742073,,,,
1718098738.131266,,,,-4.224360943,-4.226840496,11954.000000000,1718098738.131265640
1718098738.132273,,,,-4.271768570,-4.273503304,11955.000000000,1718098738.132272720
1718098738.133280,,,,-4.284197807,-4.285884380,11956.000000000,1718098738.133279800
1718098738.134287,,,,-4.307468891,-4.307208061,11957.000000000,1718098738.134286880
1718098738.135294,,,,-4.288885593,-4.290548325,11958.000000000,1718098738.135293961
1718098738.135742,188.431213379,2892.000000000,1718098738.135742188,,,,
1718098738.136301,,,,-4.230875969,-4.234702110,11959.000000000,1718098738.136301041
1718098738.137308,,,,-4.171808243,-4.172845840,11960.000000000,1718098738.137308121
1718098738.138315,,,,-4.239842892,-4.241914272,11961.000000000,1718098738.138315201
1718098738.139322,,,,-4.317542076,-4.319781303,11962.000000000,1718098738.139322281
1718098738.140329,,,,-4.370503426,-4.373896599,11963.000000000,1718098738.140329361
1718098738.140742,190.250885010,2893.000000000,1718098738.140742064,,,,
1718098738.141336,,,,-4.288645267,-4.291365623,11964.000000000,1718098738.141336441
1718098738.142344,,,,-4.199887753,-4.202415466,11965.000000000,1718098738.142343521
1718098738.143351,,,,-4.314921379,-4.319612980,11966.000000000,1718098738.143350601
1718098738.144358,,,,-4.391755104,-4.395052433,11967.000000000,1718098738.144357681
1718098738.145365,,,,-4.475464344,-4.476645947,11968.000000000,1718098738.145364761
1718098738.145742,191.809799194,2894.000000000,1718098738.145742178,,,,
1718098738.146372,,,,-4.632665634,-4.632981777,11969.000000000,1718098738.146371841
1718098738.147379,,,,-4.659254074,-4.656949997,11970.000000000,1718098738.147378922
1718098738.148386,,,,-4.584944725,-4.584227562,11971.000000000,1718098738.148386002
1718098738.149393,,,,-4.647570610,-4.647526264,11972.000000000,1718098738.149393082
1718098738.150400,,,,-4.580016613,-4.581294537,11973.000000000,1718098738.150400162
1718098738.150742,193.400405884,2895.000000000,1718098738.150742054,,,,
1718098738.151407,,,,-4.622520447,-4.622211456,11974.000000000,1718098738.151407242
1718098738.152414,,,,-4.640502453,-4.644641399,11975.000000000,1718098738.152414322
1718098738.153421,,,,-4.357545376,-4.357981682,11976.000000000,1718098738.153421402
1718098738.154428,,,,-4.088652134,-4.088150978,11977.000000000,1718098738.154428482
1718098738.155436,,,,-4.144906998,-4.147002220,11978.000000000,1718098738.155435562
1718098738.155742,194.795578003,2896.000000000,1718098738.155742168,,,,
1718098738.156443,,,,-4.239746571,-4.240952492,11979.000000000,1718098738.156442642
1718098738.157450,,,,-4.199238300,-4.199939251,11980.000000000,1718098738.157449722
1718098738.158457,,,,-4.239386082,-4.241144657,11981.000000000,1718098738.158456802
1718098738.159464,,,,-4.434643269,-4.434647083,11982.000000000,1718098738.159463882
1718098738.160471,,,,-4.478709698,-4.479314327,11983.000000000,1718098738.160470963
1718098738.160742,196.190216064,2897.000000000,1718098738.160742044,,,,
1718098738.161478,,,,-4.381153107,-4.384041786,11984.000000000,1718098738.161478043
1718098738.162485,,,,-4.348626614,-4.352188110,11985.000000000,1718098738.162485123
1718098738.163492,,,,-4.281096458,-4.280475140,11986.000000000,1718098738.163492203
1718098738.164499,,,,-4.165101051,-4.165320873,11987.000000000,1718098738.164499283
1718098738.165506,,,,-4.134040356,-4.132770061,11988.000000000,1718098738.165506363
1718098738.165742,197.519439697,2898.000000000,1718098738.165742159,,,,
1718098738.166513,,,,-4.143993378,-4.147554874,11989.000000000,1718098738.166513443
1718098738.167521,,,,-4.200728893,-4.205060005,11990.000000000,1718098738.167520523
1718098738.168528,,,,-4.283837318,-4.282278061,11991.000000000,1718098738.168527603
1718098738.169535,,,,-4.334442616,-4.337234974,11992.000000000,1718098738.169534683
1718098738.170542,,,,-4.411564350,-4.412986755,11993.000000000,1718098738.170541763
1718098738.170742,198.815734863,2899.000000000,1718098738.170742035,,,,
1718098738.171549,,,,-4.368964672,-4.370459080,11994.000000000,1718098738.171548843
1718098738.172556,,,,-4.329995155,-4.332210541,11995.000000000,1718098738.172555923
1718098738.173563,,,,-4.350982189,-4.353005409,11996.000000000,1718098738.173563004
1718098738.174570,,,,-4.335356236,-4.338364601,11997.000000000,1718098738.174570084
1718098738.175577,,,,-4.305954456,-4.307761192,11998.000000000,1718098738.175577164
1718098738.175742,200.095367432,2900.000000000,1718098738.175742149,,,,
1718098738.176584,,,,-4.260108948,-4.260569572,11999.000000000,1718098738.176584244
1718098738.177591,,,,-4.186785698,-4.188231468,12000.000000000,1718098738.177591324
1718098738.178598,,,,-4.225899220,-4.227249622,12001.000000000,1718098738.178598404
1718098738.179605,,,,-4.331990242,-4.329301357,12002.000000000,1718098738.179605484
1718098738.180613,,,,-4.395168781,-4.397336483,12003.000000000,1718098738.180612564
1718098738.181620,,,,-4.468060017,-4.471020699,12004.000000000,1718098738.181619644
1718098738.182627,,,,-4.499745369,-4.500998974,12005.000000000,1718098738.182626724
1718098738.183634,,,,-4.455847263,-4.459408760,12006.000000000,1718098738.183633804
1718098738.184641,,,,-4.454044342,-4.456668377,12007.000000000,1718098738.184640884
1718098738.185648,,,,-4.421132565,-4.420631409,12008.000000000,1718098738.185647964
1718098738.186655,,,,-4.359684944,-4.359039783,12009.000000000,1718098738.186655045
1718098738.187662,,,,-4.387836456,-4.390292168,12010.000000000,1718098738.187662125
1718098738.188669,,,,-4.371320724,-4.372935295,12011.000000000,1718098738.188669205
1718098738.189676,,,,-4.456784725,-4.456788540,12012.000000000,1718098738.189676285
1718098738.190683,,,,-4.545181751,-4.546531677,12013.000000000,1718098738.190683365
1718098738.191690,,,,-4.462530613,-4.463856220,12014.000000000,1718098738.191690445
1718098738.192698,,,,-4.128847599,-4.130029678,12015.000000000,1718098738.192697525
1718098738.193705,,,,-3.936571598,-3.940085173,12016.000000000,1718098738.193704605
1718098738.194712,,,,-3.955515385,-3.959365606,12017.000000000,1718098738.194711685
1718098738.195719,,,,-4.378220081,-4.378800869,12018.000000000,1718098738.195718765
1718098738.196726,,,,-4.656610012,-4.659017563,12019.000000000,1718098738.196725845
1718098738.197733,,,,-4.583478451,-4.585886002,12020.000000000,1718098738.197732925
1718098738.198740,,,,-4.408679485,-4.410558701,12021.000000000,1718098738.198740005
1718098738.199747,,,,-4.190559864,-4.191549301,12022.000000000,1718098738.199747086
1718098738.200754,,,,-4.059346676,-4.060215950,12023.000000000,1718098738.200754166
1718098738.201761,,,,-4.017251492,-4.021534443,12024.000000000,1718098738.201761246
1718098738.202768,,,,-4.119664192,-4.125557899,12025.000000000,1718098738.202768326
1718098738.203775,,,,-4.286481380,-4.287951946,12026.000000000,1718098738.203775406
1718098738.204782,,,,-4.420651913,-4.420342922,12027.000000000,1718098738.204782486
1718098738.205790,,,,-4.484744072,-4.486983299,12028.000000000,1718098738.205789566
1718098738.206797,,,,-4.445173264,-4.447556973,12029.000000000,1718098738.206796646
1718098738.207804,,,,-4.409713268,-4.412361622,12030.000000000,1718098738.207803726
1718098738.208811,,,,-4.358603001,-4.360313892,12031.000000000,1718098738.208810806
1718098738.209818,,,,-4.337087154,-4.339446545,12032.000000000,1718098738.209817886
1718098738.210825,,,,-4.336317539,-4.336513519,12033.000000000,1718098738.210824966
1718098738.211832,,,,-4.340716839,-4.339591026,12034.000000000,1718098738.211832047
1718098738.212839,,,,-4.301747322,-4.305982113,12035.000000000,1718098738.212839127
1718098738.213846,,,,-4.313406944,-4.314131737,12036.000000000,1718098738.213846207
1718098738.214853,,,,-4.297492027,-4.296486378,12037.000000000,1718098738.214853287
1718098738.215860,,,,-4.332903862,-4.333604813,12038.000000000,1718098738.215860367
1718098738.216867,,,,-4.438682079,-4.441498756,12039.000000000,1718098738.216867447
1718098738.217875,,,,-4.513520718,-4.516072273,12040.000000000,1718098738.217874527
1718098738.218882,,,,-4.671322823,-4.675244808,12041.000000000,1718098738.218881607
1718098738.219889,,,,-4.698776722,-4.703059673,12042.000000000,1718098738.219888687
1718098738.220896,,,,-4.524194717,-4.528116703,12043.000000000,1718098738.220895767
1718098738.221903,,,,-4.230971813,-4.233668327,12044.000000000,1718098738.221902847
1718098738.222910,,,,-4.040498734,-4.040742874,12045.000000000,1718098738.222909927
1718098738.223917,,,,-4.116466999,-4.118682384,12046.000000000,1718098738.223917007
1718098738.224924,,,,-4.305112839,-4.310574055,12047.000000000,1718098738.224924088
1718098738.225785,213.335388184,2911.000000000,1718098738.225785494,,,,
1718098738.225931,,,,-4.463011265,-4.465106487,12048.000000000,1718098738.225931168
1718098738.226938,,,,-4.467699051,-4.468351841,12049.000000000,1718098738.226938248
1718098738.227945,,,,-4.353194237,-4.353342056,12050.000000000,1718098738.227945328
1718098738.228952,,,,-4.241453648,-4.241745949,12051.000000000,1718098738.228952408
1718098738.229959,,,,-4.104999542,-4.105628490,12052.000000000,1718098738.229959488
1718098738.230786,214.206771851,2912.000000000,1718098738.230785608,,,,
1718098738.230967,,,,-4.145483971,-4.146593571,12053.000000000,1718098738.230966568
1718098738.231974,,,,-4.213951111,-4.215637684,12054.000000000,1718098738.231973648
1718098738.232981,,,,-4.303598404,-4.306703568,12055.000000000,1718098738.232980728
1718098738.233988,,,,-4.418079376,-4.420847893,12056.000000000,1718098738.233987808
1718098738.234995,,,,-4.395938396,-4.395989895,12057.000000000,1718098738.234994888
1718098738.235785,215.029617310,2913.000000000,1718098738.235785484,,,,
1718098738.236002,,,,-4.279221535,-4.277590275,12058.000000000,1718098738.236001968
1718098738.237009,,,,-4.311796188,-4.312328815,12059.000000000,1718098738.237009048
1718098738.238016,,,,-4.457770348,-4.459913731,12060.000000000,1718098738.238016129
1718098738.239023,,,,-4.458083153,-4.459120274,12061.000000000,1718098738.239023209
1718098738.240030,,,,-4.238592625,-4.240567684,12062.000000000,1718098738.240030289
1718098738.240786,215.803878784,2914.000000000,1718098738.240785599,,,,
1718098738.241037,,,,-4.084997654,-4.088174820,12063.000000000,1718098738.241037369
1718098738.242044,,,,-4.218927860,-4.223162651,12064.000000000,1718098738.242044449
1718098738.243052,,,,-4.357449055,-4.360434055,12065.000000000,1718098738.243051529
1718098738.244059,,,,-4.375071049,-4.380748272,12066.000000000,1718098738.244058609
1718098738.245066,,,,-4.459405422,-4.460803509,12067.000000000,1718098738.245065689
1718098738.245785,216.497421265,2915.000000000,1718098738.245785475,,,,
1718098738.246073,,,,-4.446735859,-4.447052002,12068.000000000,1718098738.246072769
1718098738.247080,,,,-4.364565372,-4.364208221,12069.000000000,1718098738.247079849
1718098738.248087,,,,-4.222822189,-4.222441196,12070.000000000,1718098738.248086929
1718098738.249094,,,,-4.118269920,-4.120437145,12071.000000000,1718098738.249094009
1718098738.250101,,,,-4.073145866,-4.072404385,12072.000000000,1718098738.250101089
1718098738.250786,217.126312256,2916.000000000,1718098738.250785589,,,,
1718098738.251108,,,,-4.104975700,-4.104763031,12073.000000000,1718098738.251108170
1718098738.252115,,,,-4.102787971,-4.105820656,12074.000000000,1718098738.252115250
1718098738.253122,,,,-4.234674454,-4.236793518,12075.000000000,1718098738.253122330
1718098738.254129,,,,-4.580978394,-4.584011078,12076.000000000,1718098738.254129410
1718098738.255136,,,,-4.645526886,-4.647694588,12077.000000000,1718098738.255136490
1718098738.255785,217.739013672,2917.000000000,1718098738.255785465,,,,
1718098738.256144,,,,-4.508183479,-4.507658482,12078.000000000,1718098738.256143570
1718098738.257151,,,,-4.315594673,-4.316319466,12079.000000000,1718098738.257150650
1718098738.258158,,,,-4.263979435,-4.265930653,12080.000000000,1718098738.258157730
1718098738.260786,218.351638794,2918.000000000,1718098738.260785580,,,,
1718098738.261179,,,,-4.493855476,-4.495060921,12083.000000000,1718098738.261178970
1718098738.262186,,,,-4.428946018,-4.429502487,12084.000000000,1718098738.262186050
1718098738.263193,,,,-4.167552948,-4.172196388,12085.000000000,1718098738.263193130
1718098738.264200,,,,-4.034512520,-4.037016392,12086.000000000,1718098738.264200211
1718098738.265207,,,,-4.235876083,-4.239389896,12087.000000000,1718098738.265207291
1718098738.265785,218.899688721,2919.000000000,1718098738.265785456,,,,
1718098738.266214,,,,-4.490970612,-4.493113995,12088.000000000,1718098738.266214371
1718098738.267221,,,,-4.463059425,-4.465106487,12089.000000000,1718098738.267221451
1718098738.268229,,,,-4.293717861,-4.294947624,12090.000000000,1718098738.268228531
1718098738.269236,,,,-4.253449917,-4.256987572,12091.000000000,1718098738.269235611
1718098738.270243,,,,-4.252608299,-4.256482601,12092.000000000,1718098738.270242691
1718098738.270786,219.496032715,2920.000000000,1718098738.270785570,,,,
1718098738.271250,,,,-4.180029869,-4.180466652,12093.000000000,1718098738.271249771
1718098738.272257,,,,-4.168803215,-4.168807030,12094.000000000,1718098738.272256851
1718098738.273264,,,,-4.159018517,-4.163109303,12095.000000000,1718098738.273263931
1718098738.274271,,,,-4.190872192,-4.194842815,12096.000000000,1718098738.274271011
1718098738.275278,,,,-4.280062675,-4.281172276,12097.000000000,1718098738.275278091
1718098738.276285,,,,-4.407693863,-4.408346653,12098.000000000,1718098738.276285172
1718098738.277292,,,,-4.580810070,-4.582424164,12099.000000000,1718098738.277292252
1718098738.278299,,,,-4.646921635,-4.646636486,12100.000000000,1718098738.278299332
1718098738.279306,,,,-4.509097099,-4.509870052,12101.000000000,1718098738.279306412
1718098738.280313,,,,-4.328311920,-4.331345081,12102.000000000,1718098738.280313492
1718098738.281321,,,,-4.198829651,-4.201742172,12103.000000000,1718098738.281320572
1718098738.282328,,,,-4.141228676,-4.143780708,12104.000000000,1718098738.282327652
1718098738.283335,,,,-4.129208565,-4.128779411,12105.000000000,1718098738.283334732
1718098738.284342,,,,-4.277851105,-4.278575897,12106.000000000,1718098738.284341812
1718098738.285349,,,,-4.519843102,-4.523356915,12107.000000000,1718098738.285348892
1718098738.286356,,,,-4.525444508,-4.526866913,12108.000000000,1718098738.286355972
1718098738.287363,,,,-4.467194557,-4.467654705,12109.000000000,1718098738.287363052
1718098738.288370,,,,-4.418848991,-4.419116974,12110.000000000,1718098738.288370132
1718098738.289377,,,,-4.280711651,-4.279874325,12111.000000000,1718098738.289377213
1718098738.290384,,,,-4.185295105,-4.185635090,12112.000000000,1718098738.290384293
1718098738.291391,,,,-4.194790840,-4.194866657,12113.000000000,1718098738.291391373
1718098738.292398,,,,-4.141877651,-4.140919685,12114.000000000,1718098738.292398453
1718098738.293406,,,,-4.119231701,-4.120148659,12115.000000000,1718098738.293405533
1718098738.294413,,,,-4.118101597,-4.120316982,12116.000000000,1718098738.294412613
1718098738.295420,,,,-4.161302567,-4.163373470,12117.000000000,1718098738.295419693
1718098738.296427,,,,-4.231260300,-4.234485626,12118.000000000,1718098738.296426773
1718098738.297434,,,,-4.350982189,-4.355433464,12119.000000000,1718098738.297433853
1718098738.298441,,,,-4.524002075,-4.528261185,12120.000000000,1718098738.298440933
1718098738.299448,,,,-4.569991589,-4.571582317,12121.000000000,1718098738.299448013
1718098738.300455,,,,-4.437360287,-4.439647675,12122.000000000,1718098738.300455093
1718098738.301462,,,,-4.361632347,-4.364328384,12123.000000000,1718098738.301462173
1718098738.302469,,,,-4.260830402,-4.264512062,12124.000000000,1718098738.302469254
1718098738.303476,,,,-4.309199810,-4.314204216,12125.000000000,1718098738.303476334
1718098738.304483,,,,-4.464381695,-4.467342377,12126.000000000,1718098738.304483414
1718098738.305490,,,,-4.383340836,-4.386614323,12127.000000000,1718098738.305490494
1718098738.306498,,,,-4.305593967,-4.307592869,12128.000000000,1718098738.306497574
1718098738.307505,,,,-4.217966080,-4.219964981,12129.000000000,1718098738.307504654
1718098738.308512,,,,-4.109663486,-4.113922119,12130.000000000,1718098738.308511734
1718098738.309519,,,,-4.086344242,-4.090915680,12131.000000000,1718098738.309518814
1718098738.310526,,,,-4.225250244,-4.227297306,12132.000000000,1718098738.310525894
1718098738.311533,,,,-4.662740231,-4.664162159,12133.000000000,1718098738.311532974
1718098738.312540,,,,-4.648844719,-4.649641991,12134.000000000,1718098738.312540054
1718098738.313547,,,,-4.449140072,-4.447917461,12135.000000000,1718098738.313547134
1718098738.314554,,,,-4.238977432,-4.239125252,12136.000000000,1718098738.314554214
1718098738.315561,,,,-4.054706573,-4.055840492,12137.000000000,1718098738.315561295
1718098738.316568,,,,-4.053985596,-4.056513309,12138.000000000,1718098738.316568375
1718098738.317575,,,,-4.264749050,-4.265834332,12139.000000000,1718098738.317575455
1718098738.318583,,,,-4.373436451,-4.374473572,12140.000000000,1718098738.318582535
1718098738.319590,,,,-4.354203701,-4.352548599,12141.000000000,1718098738.319589615
1718098738.320597,,,,-4.296891212,-4.297207355,12142.000000000,1718098738.320596695
1718098738.321604,,,,-4.133728027,-4.136255741,12143.000000000,1718098738.321603775
1718098738.322611,,,,-4.067832947,-4.068389416,12144.000000000,1718098738.322610855
1718098738.323618,,,,-4.146853924,-4.147482872,12145.000000000,1718098738.323617935
1718098738.324625,,,,-4.294054508,-4.295476437,12146.000000000,1718098738.324625015
1718098738.325632,,,,-4.342087269,-4.347019196,12147.000000000,1718098738.325632095
1718098738.326639,,,,-4.283260345,-4.285283089,12148.000000000,1718098738.326639175
1718098738.327646,,,,-4.278307915,-4.282831192,12149.000000000,1718098738.327646255
1718098738.328653,,,,-4.358747482,-4.364160538,12150.000000000,1718098738.328653336
1718098738.329660,,,,-4.349323750,-4.351827621,12151.000000000,1718098738.329660416
1718098738.330280,224.441131592,2931.000000000,1718098738.330279589,,,,
1718098738.330667,,,,-4.363387108,-4.364833355,12152.000000000,1718098738.330667496
1718098738.331675,,,,-4.413896561,-4.417819023,12153.000000000,1718098738.331674576
1718098738.332682,,,,-4.414521694,-4.417121410,12154.000000000,1718098738.332681656
1718098738.333689,,,,-4.411684990,-4.415174484,12155.000000000,1718098738.333688736
1718098738.334696,,,,-4.469622612,-4.472030163,12156.000000000,1718098738.334695816
1718098738.335280,224.875808716,2932.000000000,1718098738.335279703,,,,
1718098738.335703,,,,-4.512053967,-4.513428211,12157.000000000,1718098738.335702896
1718098738.336710,,,,-4.524771690,-4.525664806,12158.000000000,1718098738.336709976
1718098738.337717,,,,-4.654302120,-4.655243397,12159.000000000,1718098738.337717056
1718098738.338724,,,,-4.548956394,-4.550041676,12160.000000000,1718098738.338724136
1718098738.339731,,,,-4.176616192,-4.177148819,12161.000000000,1718098738.339731216
1718098738.340280,225.358749390,2933.000000000,1718098738.340279579,,,,
1718098738.340738,,,,-3.940297842,-3.943594933,12162.000000000,1718098738.340738297
1718098738.341745,,,,-3.946980953,-3.949677229,12163.000000000,1718098738.341745377
1718098738.342752,,,,-4.098412514,-4.098175526,12164.000000000,1718098738.342752457
1718098738.343760,,,,-4.189598083,-4.192895412,12165.000000000,1718098738.343759537
1718098738.344767,,,,-4.315209866,-4.315958977,12166.000000000,1718098738.344766617
1718098738.345280,225.745025635,2934.000000000,1718098738.345279694,,,,
1718098738.345774,,,,-4.359589100,-4.362116814,12167.000000000,1718098738.345773697
1718098738.346781,,,,-4.411083698,-4.413491726,12168.000000000,1718098738.346780777
1718098738.347788,,,,-4.379903316,-4.381637573,12169.000000000,1718098738.347787857
1718098738.348795,,,,-4.373580456,-4.374161243,12170.000000000,1718098738.348794937
1718098738.349802,,,,-4.267393589,-4.268094063,12171.000000000,1718098738.349802017
1718098738.350280,226.179595947,2935.000000000,1718098738.350279570,,,,
1718098738.350809,,,,-4.105744839,-4.107407093,12172.000000000,1718098738.350809097
1718098738.351816,,,,-4.115697384,-4.119042873,12173.000000000,1718098738.351816177
1718098738.352823,,,,-4.192507267,-4.193712711,12174.000000000,1718098738.352823257
1718098738.353830,,,,-4.256310940,-4.258670330,12175.000000000,1718098738.353830338
1718098738.354837,,,,-4.363940239,-4.366251945,12176.000000000,1718098738.354837418
1718098738.355280,226.565841675,2936.000000000,1718098738.355279684,,,,
1718098738.355844,,,,-4.455150127,-4.457798004,12177.000000000,1718098738.355844498
1718098738.356852,,,,-4.510828018,-4.514101028,12178.000000000,1718098738.356851578
1718098738.357859,,,,-4.522319317,-4.526602268,12179.000000000,1718098738.357858658
1718098738.358866,,,,-4.401876450,-4.407577515,12180.000000000,1718098738.358865738
1718098738.359873,,,,-4.300088406,-4.304275513,12181.000000000,1718098738.359872818
1718098738.360280,227.000350952,2937.000000000,1718098738.360279560,,,,
1718098738.360880,,,,-4.214071274,-4.217031956,12182.000000000,1718098738.360879898
1718098738.361887,,,,-4.279341698,-4.282662868,12183.000000000,1718098738.361886978
1718098738.362894,,,,-4.442793369,-4.446835518,12184.000000000,1718098738.362894058
1718098738.363901,,,,-4.381441593,-4.385027409,12185.000000000,1718098738.363901138
1718098738.364908,,,,-4.242391109,-4.247058868,12186.000000000,1718098738.364908218
1718098738.365280,227.338272095,2938.000000000,1718098738.365279675,,,,
1718098738.365915,,,,-4.168586731,-4.171884060,12187.000000000,1718098738.365915298
1718098738.366922,,,,-4.117092133,-4.116254330,12188.000000000,1718098738.366922379
1718098738.367929,,,,-4.068097115,-4.069303036,12189.000000000,1718098738.367929459
1718098738.368937,,,,-4.096753597,-4.099113464,12190.000000000,1718098738.368936539
1718098738.369944,,,,-4.096248627,-4.100483418,12191.000000000,1718098738.369943619
1718098738.370280,227.660049438,2939.000000000,1718098738.370279551,,,,
1718098738.370951,,,,-4.191425323,-4.193352222,12192.000000000,1718098738.370950699
1718098738.371958,,,,-4.327302456,-4.327186108,12193.000000000,1718098738.371957779
1718098738.372965,,,,-4.309560299,-4.311006546,12194.000000000,1718098738.372964859
1718098738.373972,,,,-4.227918625,-4.229436874,12195.000000000,1718098738.373971939
1718098738.374979,,,,-4.250204563,-4.253501892,12196.000000000,1718098738.374979019
1718098738.375280,228.014022827,2940.000000000,1718098738.375279665,,,,
1718098738.375986,,,,-4.447577477,-4.452269077,12197.000000000,1718098738.375986099
1718098738.376993,,,,-4.542201042,-4.542180538,12198.000000000,1718098738.376993179
1718098738.378000,,,,-4.556721210,-4.555763245,12199.000000000,1718098738.378000259
1718098738.379007,,,,-4.531527042,-4.530448914,12200.000000000,1718098738.379007339
1718098738.380014,,,,-4.367690563,-4.368223190,12201.000000000,1718098738.380014420
1718098738.381021,,,,-4.144089699,-4.145126820,12202.000000000,1718098738.381021500
1718098738.382029,,,,-4.309175968,-4.308338165,12203.000000000,1718098738.382028580
1718098738.383036,,,,-4.342015266,-4.340672493,12204.000000000,1718098738.383035660
1718098738.384043,,,,-4.286674023,-4.286990166,12205.000000000,1718098738.384042740
1718098738.385050,,,,-4.274509430,-4.276027679,12206.000000000,1718098738.385049820
1718098738.386057,,,,-4.339995861,-4.343052864,12207.000000000,1718098738.386056900
1718098738.387064,,,,-4.403534889,-4.406111240,12208.000000000,1718098738.387063980
1718098738.388071,,,,-4.288164616,-4.289634705,12209.000000000,1718098738.388071060
1718098738.389078,,,,-4.195704460,-4.200372219,12210.000000000,1718098738.389078140
1718098738.390085,,,,-4.201522350,-4.203545570,12211.000000000,1718098738.390085220
1718098738.391092,,,,-4.251887321,-4.252251625,12212.000000000,1718098738.391092300
1718098738.392099,,,,-4.317277431,-4.319252491,12213.000000000,1718098738.392099380
1718098738.393106,,,,-4.326052189,-4.330912113,12214.000000000,1718098738.393106461
1718098738.394114,,,,-4.238905430,-4.240327358,12215.000000000,1718098738.394113541
1718098738.395121,,,,-4.213037968,-4.215229034,12216.000000000,1718098738.395120621
1718098738.396128,,,,-4.362329483,-4.363895893,12217.000000000,1718098738.396127701
1718098738.397135,,,,-4.590474129,-4.590766430,12218.000000000,1718098738.397134781
1718098738.398142,,,,-4.669255257,-4.670364857,12219.000000000,1718098738.398141861
1718098738.399149,,,,-4.480993748,-4.483714104,12220.000000000,1718098738.399148941
1718098738.400156,,,,-4.213374138,-4.217416763,12221.000000000,1718098738.400156021
1718098738.401163,,,,-4.081031322,-4.082501411,12222.000000000,1718098738.401163101
1718098738.402170,,,,-4.202411652,-4.205108166,12223.000000000,1718098738.402170181
1718098738.403177,,,,-4.378797054,-4.379041195,12224.000000000,1718098738.403177261
1718098738.404184,,,,-4.421517372,-4.423780918,12225.000000000,1718098738.404184341
1718098738.405191,,,,-4.438105106,-4.443037510,12226.000000000,1718098738.405191422
1718098738.406199,,,,-4.250829697,-4.253766060,12227.000000000,1718098738.406198502
1718098738.407206,,,,-4.087642193,-4.089136600,12228.000000000,1718098738.407205582
1718098738.408213,,,,-4.181760788,-4.182702065,12229.000000000,1718098738.408212662
1718098738.409220,,,,-4.278500080,-4.279393196,12230.000000000,1718098738.409219742
1718098738.410227,,,,-4.283717155,-4.286389351,12231.000000000,1718098738.410226822
1718098738.411234,,,,-4.220201969,-4.220590115,12232.000000000,1718098738.411233902
1718098738.412241,,,,-4.243376732,-4.245231628,12233.000000000,1718098738.412240982
1718098738.413248,,,,-4.306963921,-4.309540272,12234.000000000,1718098738.413248062
1718098738.414255,,,,-4.312998295,-4.312328815,12235.000000000,1718098738.414255142
1718098738.415262,,,,-4.393293858,-4.390460491,12236.000000000,1718098738.415262222
1718098738.416269,,,,-4.326460838,-4.325959682,12237.000000000,1718098738.416269302
1718098738.417276,,,,-4.174621105,-4.176019192,12238.000000000,1718098738.417276382
1718098738.418283,,,,-4.166182518,-4.165609360,12239.000000000,1718098738.418283463
1718098738.419291,,,,-4.374806404,-4.375844002,12240.000000000,1718098738.419290543
1718098738.420298,,,,-4.557057858,-4.558287621,12241.000000000,1718098738.420297623
1718098738.421305,,,,-4.523425102,-4.524559021,12242.000000000,1718098738.421304703
1718098738.422312,,,,-4.276697159,-4.277349949,12243.000000000,1718098738.422311783
1718098738.423319,,,,-4.100263596,-4.100604057,12244.000000000,1718098738.423318863
1718098738.424326,,,,-4.058889866,-4.058244228,12245.000000000,1718098738.424325943
1718098738.424421,230.780609131,2951.000000000,1718098738.424420834,,,,
1718098738.425333,,,,-4.256695271,-4.256699085,12246.000000000,1718098738.425333023
1718098738.426340,,,,-4.410771370,-4.412409782,12247.000000000,1718098738.426340103
1718098738.427347,,,,-4.399832726,-4.399956703,12248.000000000,1718098738.427347183
1718098738.428354,,,,-4.264027596,-4.264007568,12249.000000000,1718098738.428354263
1718098738.429361,,,,-4.136252403,-4.136664867,12250.000000000,1718098738.429361343
1718098738.429421,230.925323486,2952.000000000,1718098738.429420948,,,,
1718098738.430368,,,,-4.026002407,-4.027472496,12251.000000000,1718098738.430368423
1718098738.431376,,,,-4.106586456,-4.109763145,12252.000000000,1718098738.431375504
1718098738.432383,,,,-4.233159542,-4.235302925,12253.000000000,1718098738.432382584
1718098738.433390,,,,-4.426974773,-4.428588867,12254.000000000,1718098738.433389664
1718098738.434397,,,,-4.468925476,-4.467991352,12255.000000000,1718098738.434396744
1718098738.434421,231.182586670,2953.000000000,1718098738.434420824,,,,
1718098738.435404,,,,-4.554605961,-4.557878971,12256.000000000,1718098738.435403824
1718098738.436411,,,,-4.505731583,-4.507562160,12257.000000000,1718098738.436410904
1718098738.437418,,,,-4.377859592,-4.379233837,12258.000000000,1718098738.437417984
1718098738.438425,,,,-4.306699753,-4.307857513,12259.000000000,1718098738.438425064
1718098738.439421,231.343399048,2954.000000000,1718098738.439420938,,,,
1718098738.439432,,,,-4.348025322,-4.348269463,12260.000000000,1718098738.439432144
1718098738.440439,,,,-4.407646179,-4.407553673,12261.000000000,1718098738.440439224
1718098738.441446,,,,-4.409160614,-4.410077572,12262.000000000,1718098738.441446304
1718098738.442453,,,,-4.332158566,-4.332691193,12263.000000000,1718098738.442453384
1718098738.443460,,,,-4.220225811,-4.220229626,12264.000000000,1718098738.443460464
1718098738.444421,231.423782349,2955.000000000,1718098738.444420815,,,,
1718098738.444468,,,,-4.208566189,-4.212152004,12265.000000000,1718098738.444467545
1718098738.445475,,,,-4.317637920,-4.322281837,12266.000000000,1718098738.445474625
1718098738.446482,,,,-4.385360241,-4.387816429,12267.000000000,1718098738.446481705
1718098738.447489,,,,-4.293597698,-4.295139790,12268.000000000,1718098738.447488785
1718098738.448496,,,,-4.236260891,-4.238524437,12269.000000000,1718098738.448495865
1718098738.449421,231.472015381,2956.000000000,1718098738.449420929,,,,
1718098738.449503,,,,-4.312757969,-4.314973354,12270.000000000,1718098738.449502945
1718098738.450510,,,,-4.403462887,-4.403947353,12271.000000000,1718098738.450510025
1718098738.451517,,,,-4.426229477,-4.428156376,12272.000000000,1718098738.451517105
1718098738.452524,,,,-4.309344292,-4.310477734,12273.000000000,1718098738.452524185
1718098738.453531,,,,-4.144425869,-4.145631790,12274.000000000,1718098738.453531265
1718098738.454421,231.472015381,2957.000000000,1718098738.454420805,,,,
1718098738.454538,,,,-4.076583862,-4.080000877,12275.000000000,1718098738.454538345
1718098738.455545,,,,-4.193805218,-4.197439194,12276.000000000,1718098738.455545425
1718098738.456553,,,,-4.228303432,-4.231192112,12277.000000000,1718098738.456552505
1718098738.457560,,,,-4.344851971,-4.348750114,12278.000000000,1718098738.457559586
1718098738.458567,,,,-4.373772621,-4.377623081,12279.000000000,1718098738.458566666
1718098738.459421,231.423782349,2958.000000000,1718098738.459420919,,,,
1718098738.459574,,,,-4.304175377,-4.303626060,12280.000000000,1718098738.459573746
1718098738.460581,,,,-4.202772617,-4.206045628,12281.000000000,1718098738.460580826
1718098738.461588,,,,-4.188372135,-4.192366600,12282.000000000,1718098738.461587906
1718098738.462595,,,,-4.374349594,-4.378560543,12283.000000000,1718098738.462594986
1718098738.463602,,,,-4.574631691,-4.574250698,12284.000000000,1718098738.463602066
1718098738.464421,231.536331177,2959.000000000,1718098738.464420795,,,,
1718098738.464609,,,,-4.421541214,-4.420896053,12285.000000000,1718098738.464609146
1718098738.465616,,,,-4.130626678,-4.130606651,12286.000000000,1718098738.465616226
1718098738.466623,,,,-4.048359871,-4.052546978,12287.000000000,1718098738.466623306
1718098738.467630,,,,-4.224769592,-4.229004383,12288.000000000,1718098738.467630386
1718098738.468637,,,,-4.261888027,-4.263189793,12289.000000000,1718098738.468637466
1718098738.469421,231.472015381,2960.000000000,1718098738.469420910,,,,
1718098738.469645,,,,-4.340837479,-4.341754436,12290.000000000,1718098738.469644547
1718098738.470652,,,,-4.431061268,-4.430872917,12291.000000000,1718098738.470651627
1718098738.471659,,,,-4.333072186,-4.333556652,12292.000000000,1718098738.471658707
1718098738.472666,,,,-4.376657486,-4.378151894,12293.000000000,1718098738.472665787
1718098738.473673,,,,-4.467026234,-4.467751026,12294.000000000,1718098738.473672867
1718098738.474680,,,,-4.441014290,-4.444912434,12295.000000000,1718098738.474679947
1718098738.475687,,,,-4.336870670,-4.340768814,12296.000000000,1718098738.475687027
1718098738.476694,,,,-4.313070297,-4.313795567,12297.000000000,1718098738.476694107
1718098738.477701,,,,-4.349852562,-4.350937843,12298.000000000,1718098738.477701187
1718098738.478708,,,,-4.424282074,-4.425920486,12299.000000000,1718098738.478708267
1718098738.479715,,,,-4.315017700,-4.316968918,12300.000000000,1718098738.479715347
1718098738.480722,,,,-4.315522671,-4.321055412,12301.000000000,1718098738.480722427
1718098738.481730,,,,-4.467651367,-4.470563889,12302.000000000,1718098738.481729507
1718098738.482737,,,,-4.499552727,-4.500878811,12303.000000000,1718098738.482736588
1718098738.483744,,,,-4.440412998,-4.441306591,12304.000000000,1718098738.483743668
1718098738.484751,,,,-4.255709648,-4.256170273,12305.000000000,1718098738.484750748
1718098738.485758,,,,-4.155965328,-4.158180714,12306.000000000,1718098738.485757828
1718098738.486765,,,,-4.138127327,-4.141039848,12307.000000000,1718098738.486764908
1718098738.487772,,,,-4.106009483,-4.107286930,12308.000000000,1718098738.487771988
1718098738.488779,,,,-4.176952839,-4.178182602,12309.000000000,1718098738.488779068
1718098738.489786,,,,-4.291409969,-4.291942596,12310.000000000,1718098738.489786148
1718098738.490793,,,,-4.355189323,-4.357477188,12311.000000000,1718098738.490793228
1718098738.491800,,,,-4.382355213,-4.386301517,12312.000000000,1718098738.491800308
1718098738.492807,,,,-4.427960396,-4.431113243,12313.000000000,1718098738.492807388
1718098738.493814,,,,-4.398654938,-4.399860382,12314.000000000,1718098738.493814468
1718098738.494822,,,,-4.282635212,-4.285162926,12315.000000000,1718098738.494821548
1718098738.495829,,,,-4.156206131,-4.156979084,12316.000000000,1718098738.495828629
1718098738.496836,,,,-4.216547489,-4.218234062,12317.000000000,1718098738.496835709
1718098738.497843,,,,-4.348530293,-4.350649357,12318.000000000,1718098738.497842789
1718098738.498850,,,,-4.443225861,-4.443157673,12319.000000000,1718098738.498849869
1718098738.499857,,,,-4.446062565,-4.447436810,12320.000000000,1718098738.499856949
1718098738.500864,,,,-4.353266239,-4.355024815,12321.000000000,1718098738.500864029
1718098738.501871,,,,-4.313671589,-4.313050270,12322.000000000,1718098738.501871109
1718098738.502878,,,,-4.299127102,-4.300885677,12323.000000000,1718098738.502878189
1718098738.503885,,,,-4.250396729,-4.251794815,12324.000000000,1718098738.503885269
1718098738.504892,,,,-4.243641376,-4.245953083,12325.000000000,1718098738.504892349
1718098738.505899,,,,-4.273884296,-4.276821136,12326.000000000,1718098738.505899429
1718098738.506907,,,,-4.354780674,-4.355914593,12327.000000000,1718098738.506906509
1718098738.507914,,,,-4.425364017,-4.425031185,12328.000000000,1718098738.507913589
1718098738.508921,,,,-4.397572994,-4.399812222,12329.000000000,1718098738.508920670
1718098738.509928,,,,-4.389423370,-4.391855240,12330.000000000,1718098738.509927750
1718098738.510935,,,,-4.297299862,-4.297567844,12331.000000000,1718098738.510934830
1718098738.511942,,,,-4.233304024,-4.232466221,12332.000000000,1718098738.511941910
1718098738.512949,,,,-4.183948517,-4.185394764,12333.000000000,1718098738.512948990
1718098738.513956,,,,-4.193588734,-4.195395470,12334.000000000,1718098738.513956070
1718098738.514963,,,,-4.258618832,-4.260906219,12335.000000000,1718098738.514963150
1718098738.515970,,,,-4.281505108,-4.284345627,12336.000000000,1718098738.515970230
1718098738.516977,,,,-4.417430401,-4.420054436,12337.000000000,1718098738.516977310
1718098738.517984,,,,-4.491331100,-4.490589619,12338.000000000,1718098738.517984390
1718098738.518991,,,,-4.373676777,-4.373752594,12339.000000000,1718098738.518991470
1718098738.519999,,,,-4.170005322,-4.169888496,12340.000000000,1718098738.519998550
1718098738.521006,,,,-4.142454624,-4.144910336,12341.000000000,1718098738.521005630
1718098738.522013,,,,-4.306988239,-4.309468269,12342.000000000,1718098738.522012711
1718098738.523020,,,,-4.302901268,-4.302207947,12343.000000000,1718098738.523019791
1718098738.524027,,,,-4.326268673,-4.329638004,12344.000000000,1718098738.524026871
1718098738.525034,,,,-4.304223537,-4.305645466,12345.000000000,1718098738.525033951
1718098738.526041,,,,-4.088387489,-4.091901302,12346.000000000,1718098738.526041031
1718098738.527048,,,,-4.018934250,-4.022592068,12347.000000000,1718098738.527048111
1718098738.528055,,,,-4.087089539,-4.086972713,12348.000000000,1718098738.528055191
1718098738.528326,230.957473755,2971.000000000,1718098738.528326035,,,,
1718098738.529062,,,,-4.168683052,-4.169335842,12349.000000000,1718098738.529062271
1718098738.530069,,,,-4.179573536,-4.181909084,12350.000000000,1718098738.530069351
1718098738.531076,,,,-4.283717155,-4.287975788,12351.000000000,1718098738.531076431
1718098738.532084,,,,-4.436254025,-4.437964916,12352.000000000,1718098738.532083511
1718098738.533091,,,,-4.348289967,-4.348389626,12353.000000000,1718098738.533090591
1718098738.533326,230.651931763,2972.000000000,1718098738.533326149,,,,
1718098738.534098,,,,-4.321893215,-4.321800709,12354.000000000,1718098738.534097672
1718098738.535105,,,,-4.552802563,-4.555883408,12355.000000000,1718098738.535104752
1718098738.536112,,,,-4.546864510,-4.552566051,12356.000000000,1718098738.536111832
1718098738.537119,,,,-4.487244129,-4.491575241,12357.000000000,1718098738.537118912
1718098738.538126,,,,-4.487172127,-4.490541458,12358.000000000,1718098738.538125992
1718098738.538326,230.362487793,2973.000000000,1718098738.538326025,,,,
1718098738.539133,,,,-4.339250565,-4.342283249,12359.000000000,1718098738.539133072
1718098738.540140,,,,-4.267561913,-4.269657135,12360.000000000,1718098738.540140152
1718098738.541147,,,,-4.296289921,-4.294731140,12361.000000000,1718098738.541147232
1718098738.542154,,,,-4.302180290,-4.301726818,12362.000000000,1718098738.542154312
1718098738.543161,,,,-4.250781536,-4.251866817,12363.000000000,1718098738.543161392
1718098738.543326,230.040832520,2974.000000000,1718098738.543326139,,,,
1718098738.544168,,,,-4.338433266,-4.337932110,12364.000000000,1718098738.544168472
1718098738.545176,,,,-4.411997318,-4.411832809,12365.000000000,1718098738.545175552
1718098738.546183,,,,-4.283260345,-4.284441948,12366.000000000,1718098738.546182632
1718098738.547190,,,,-4.005928516,-4.009321690,12367.000000000,1718098738.547189713
1718098738.548197,,,,-3.939336061,-3.940782309,12368.000000000,1718098738.548196793
1718098738.548326,229.799591064,2975.000000000,1718098738.548326015,,,,
1718098738.549204,,,,-4.016866684,-4.020572662,12369.000000000,1718098738.549203873
1718098738.550211,,,,-4.134713650,-4.135510921,12370.000000000,1718098738.550210953
1718098738.551218,,,,-4.276817322,-4.278696060,12371.000000000,1718098738.551218033
1718098738.552225,,,,-4.436061859,-4.437267780,12372.000000000,1718098738.552225113
1718098738.553232,,,,-4.429907322,-4.431666374,12373.000000000,1718098738.553232193
1718098738.553326,229.654815674,2976.000000000,1718098738.553326130,,,,
1718098738.554239,,,,-4.373772621,-4.376252651,12374.000000000,1718098738.554239273
1718098738.555246,,,,-4.274004459,-4.277373791,12375.000000000,1718098738.555246353
1718098738.556253,,,,-4.253426075,-4.255617142,12376.000000000,1718098738.556253433
1718098738.558326,229.526153564,2977.000000000,1718098738.558326006,,,,
1718098738.561289,,,,-4.293741703,-4.296293736,12381.000000000,1718098738.561288834
1718098738.562296,,,,-4.323624134,-4.325262547,12382.000000000,1718098738.562295914
1718098738.563303,,,,-4.368002892,-4.368920326,12383.000000000,1718098738.563302994
1718098738.563326,229.397491455,2978.000000000,1718098738.563326120,,,,
1718098738.564310,,,,-4.448178291,-4.449071407,12384.000000000,1718098738.564310074
1718098738.565317,,,,-4.472026348,-4.471717834,12385.000000000,1718098738.565317154
1718098738.566324,,,,-4.420579910,-4.424478054,12386.000000000,1718098738.566324234
1718098738.567331,,,,-4.346654892,-4.348221302,12387.000000000,1718098738.567331314
1718098738.568326,229.300979614,2979.000000000,1718098738.568325996,,,,
1718098738.568338,,,,-4.241549969,-4.240327358,12388.000000000,1718098738.568338394
1718098738.569345,,,,-4.262777805,-4.264584541,12389.000000000,1718098738.569345474
1718098738.570353,,,,-4.303381920,-4.304732323,12390.000000000,1718098738.570352554
1718098738.571360,,,,-4.215441704,-4.216166496,12391.000000000,1718098738.571359634
1718098738.572367,,,,-4.120890141,-4.122841358,12392.000000000,1718098738.572366714
1718098738.573326,229.204452515,2980.000000000,1718098738.573326111,,,,
1718098738.573374,,,,-3.967824221,-3.968308687,12393.000000000,1718098738.573373795
1718098738.574381,,,,-4.075573921,-4.075794220,12394.000000000,1718098738.574380875
1718098738.575388,,,,-4.524146557,-4.528549671,12395.000000000,1718098738.575387955
1718098738.576395,,,,-4.628842831,-4.629183292,12396.000000000,1718098738.576395035
1718098738.577402,,,,-4.477796078,-4.478929996,12397.000000000,1718098738.577402115
1718098738.578409,,,,-4.353987217,-4.354928970,12398.000000000,1718098738.578409195
1718098738.579416,,,,-4.236381054,-4.237033844,12399.000000000,1718098738.579416275
1718098738.580423,,,,-4.206835270,-4.208834171,12400.000000000,1718098738.580423355
1718098738.581430,,,,-4.190415382,-4.192006111,12401.000000000,1718098738.581430435
1718098738.582438,,,,-4.122645378,-4.122624874,12402.000000000,1718098738.582437515
1718098738.583445,,,,-4.136492729,-4.137986660,12403.000000000,1718098738.583444595
1718098738.584452,,,,-4.255084515,-4.257588387,12404.000000000,1718098738.584451675
1718098738.585459,,,,-4.335139751,-4.335527897,12405.000000000,1718098738.585458755
1718098738.586466,,,,-4.350381374,-4.348894596,12406.000000000,1718098738.586465836
1718098738.587473,,,,-4.331341267,-4.331345081,12407.000000000,1718098738.587472916
1718098738.588480,,,,-4.349131107,-4.347908974,12408.000000000,1718098738.588479996
1718098738.589487,,,,-4.319248676,-4.317930222,12409.000000000,1718098738.589487076
1718098738.590494,,,,-4.290256023,-4.289898872,12410.000000000,1718098738.590494156
1718098738.591501,,,,-4.289943218,-4.291846275,12411.000000000,1718098738.591501236
1718098738.592508,,,,-4.270446777,-4.273166656,12412.000000000,1718098738.592508316
1718098738.593515,,,,-4.191833973,-4.195083141,12413.000000000,1718098738.593515396
1718098738.594522,,,,-4.111105919,-4.112239361,12414.000000000,1718098738.594522476
1718098738.595530,,,,-3.937869787,-3.939988852,12415.000000000,1718098738.595529556
1718098738.596537,,,,-3.766580820,-3.769228935,12416.000000000,1718098738.596536636
1718098738.597544,,,,-3.929263115,-3.931791067,12417.000000000,1718098738.597543716
1718098738.598551,,,,-4.313960075,-4.314564705,12418.000000000,1718098738.598550797
1718098738.599558,,,,-4.544580936,-4.546868324,12419.000000000,1718098738.599557877
1718098738.600565,,,,-4.598335743,-4.601128101,12420.000000000,1718098738.600564957
1718098738.601572,,,,-4.484095097,-4.485757351,12421.000000000,1718098738.601572037
1718098738.602579,,,,-4.397644997,-4.400197029,12422.000000000,1718098738.602579117
1718098738.603586,,,,-4.336654186,-4.341081619,12423.000000000,1718098738.603586197
1718098738.604593,,,,-4.441759586,-4.445729733,12424.000000000,1718098738.604593277
1718098738.605600,,,,-4.545422077,-4.548935890,12425.000000000,1718098738.605600357
1718098738.606607,,,,-4.573116779,-4.577399731,12426.000000000,1718098738.606607437
1718098738.607615,,,,-4.503567696,-4.505302429,12427.000000000,1718098738.607614517
1718098738.608622,,,,-4.411997318,-4.413010597,12428.000000000,1718098738.608621597
1718098738.609629,,,,-4.377859592,-4.379906654,12429.000000000,1718098738.609628677
1718098738.610636,,,,-4.373460293,-4.374738216,12430.000000000,1718098738.610635757
1718098738.611643,,,,-4.426012993,-4.425968647,12431.000000000,1718098738.611642838
1718098738.612650,,,,-4.352665424,-4.354063511,12432.000000000,1718098738.612649918
1718098738.613657,,,,-4.154955864,-4.156161308,12433.000000000,1718098738.613656998
1718098738.614664,,,,-4.191449165,-4.192631245,12434.000000000,1718098738.614664078
1718098738.615671,,,,-4.192242622,-4.193544388,12435.000000000,1718098738.615671158
1718098738.616678,,,,-4.144882679,-4.146905899,12436.000000000,1718098738.616678238
1718098738.617685,,,,-4.194790840,-4.197463036,12437.000000000,1718098738.617685318
1718098738.618692,,,,-4.327975750,-4.331200600,12438.000000000,1718098738.618692398
1718098738.619699,,,,-4.328432560,-4.329012871,12439.000000000,1718098738.619699478
1718098738.620707,,,,-4.422983646,-4.422218323,12440.000000000,1718098738.620706558
1718098738.621714,,,,-4.419185638,-4.422675133,12441.000000000,1718098738.621713638
1718098738.622721,,,,-4.352232456,-4.354519844,12442.000000000,1718098738.622720718
1718098738.623728,,,,-4.371417046,-4.373512268,12443.000000000,1718098738.623727798
1718098738.624735,,,,-4.336798668,-4.338244438,12444.000000000,1718098738.624734879
1718098738.625742,,,,-4.236669540,-4.237562656,12445.000000000,1718098738.625741959
1718098738.626749,,,,-4.363122940,-4.364881516,12446.000000000,1718098738.626749039
1718098738.627756,,,,-4.538883209,-4.543262482,12447.000000000,1718098738.627756119
1718098738.628763,,,,-4.257224083,-4.256554604,12448.000000000,1718098738.628763199
1718098738.629770,,,,-3.875268221,-3.872459173,12449.000000000,1718098738.629770279
1718098738.630777,,,,-3.835240602,-3.835268259,12450.000000000,1718098738.630777359
1718098738.631784,,,,-3.812017441,-3.811636448,12451.000000000,1718098738.631784439
1718098738.632792,,,,-4.018381596,-4.018841743,12452.000000000,1718098738.632791519
1718098738.633228,229.365325928,2991.000000000,1718098738.633227587,,,,
1718098738.633799,,,,-4.286842346,-4.289634705,12453.000000000,1718098738.633798599
1718098738.634806,,,,-4.473901749,-4.478929996,12454.000000000,1718098738.634805679
1718098738.635813,,,,-4.672548771,-4.673922539,12455.000000000,1718098738.635812759
1718098738.636820,,,,-4.663605690,-4.664883614,12456.000000000,1718098738.636819839
1718098738.637827,,,,-4.339298725,-4.338364601,12457.000000000,1718098738.637826920
1718098738.638228,229.510070801,2992.000000000,1718098738.638227701,,,,
1718098738.638834,,,,-3.992609978,-3.992469549,12458.000000000,1718098738.638834000
1718098738.639841,,,,-3.881542683,-3.881546497,12459.000000000,1718098738.639841080
1718098738.640848,,,,-3.928541899,-3.929314852,12460.000000000,1718098738.640848160
1718098738.641855,,,,-4.045739651,-4.045695305,12461.000000000,1718098738.641855240
1718098738.642862,,,,-4.222293377,-4.224725246,12462.000000000,1718098738.642862320
1718098738.643228,229.670898438,2993.000000000,1718098738.643227577,,,,
1718098738.643869,,,,-4.404328346,-4.404187679,12463.000000000,1718098738.643869400
1718098738.644876,,,,-4.362281322,-4.365843296,12464.000000000,1718098738.644876480
1718098738.645884,,,,-4.273379326,-4.277493954,12465.000000000,1718098738.645883560
1718098738.646891,,,,-4.429306507,-4.432796001,12466.000000000,1718098738.646890640
1718098738.647898,,,,-4.361320019,-4.362261295,12467.000000000,1718098738.647897720
1718098738.648228,229.815673828,2994.000000000,1718098738.648227692,,,,
1718098738.648905,,,,-4.291938782,-4.293457031,12468.000000000,1718098738.648904800
1718098738.649912,,,,-4.314128399,-4.314997196,12469.000000000,1718098738.649911880
1718098738.650919,,,,-4.396779537,-4.398874760,12470.000000000,1718098738.650918961
1718098738.651926,,,,-4.364156723,-4.365723133,12471.000000000,1718098738.651926041
1718098738.652933,,,,-4.260902405,-4.261146545,12472.000000000,1718098738.652933121
1718098738.653228,229.912170410,2995.000000000,1718098738.653227568,,,,
1718098738.653940,,,,-4.230539322,-4.232538223,12473.000000000,1718098738.653940201
1718098738.654947,,,,-4.297299862,-4.299346924,12474.000000000,1718098738.654947281
1718098738.655954,,,,-4.397019863,-4.398490429,12475.000000000,1718098738.655954361
1718098738.656961,,,,-4.441302776,-4.443734646,12476.000000000,1718098738.656961441
1718098738.657969,,,,-4.413920403,-4.417530537,12477.000000000,1718098738.657968521
1718098738.658228,230.072982788,2996.000000000,1718098738.658227682,,,,
1718098738.658976,,,,-4.336846352,-4.336994648,12478.000000000,1718098738.658975601
1718098738.659983,,,,-4.330115318,-4.333748817,12479.000000000,1718098738.659982681
1718098738.660990,,,,-4.333480835,-4.333388329,12480.000000000,1718098738.660989761
1718098738.661997,,,,-4.357833862,-4.359352112,12481.000000000,1718098738.661996841
1718098738.663004,,,,-4.374806404,-4.377863407,12482.000000000,1718098738.663003922
1718098738.663228,230.249908447,2997.000000000,1718098738.663227558,,,,
1718098738.664011,,,,-4.357401371,-4.359664917,12483.000000000,1718098738.664011002
1718098738.665018,,,,-4.293237209,-4.297375679,12484.000000000,1718098738.665018082
1718098738.666025,,,,-4.220370293,-4.223619461,12485.000000000,1718098738.666025162
1718098738.667032,,,,-4.154234409,-4.158685684,12486.000000000,1718098738.667032242
1718098738.668039,,,,-4.179068565,-4.181380272,12487.000000000,1718098738.668039322
1718098738.668228,230.298156738,2998.000000000,1718098738.668227673,,,,
1718098738.669046,,,,-4.233664513,-4.233956814,12488.000000000,1718098738.669046402
1718098738.670053,,,,-4.233640671,-4.235254765,12489.000000000,1718098738.670053482
1718098738.671061,,,,-4.325138569,-4.325094223,12490.000000000,1718098738.671060562
1718098738.672068,,,,-4.459332943,-4.457677841,12491.000000000,1718098738.672067642
1718098738.673075,,,,-4.363675594,-4.364449024,12492.000000000,1718098738.673074722
1718098738.673228,230.346405029,2999.000000000,1718098738.673227549,,,,
1718098738.674082,,,,-4.325908184,-4.327786922,12493.000000000,1718098738.674081802
1718098738.675089,,,,-4.354035378,-4.355457783,12494.000000000,1718098738.675088882
1718098738.676096,,,,-4.294487000,-4.295236111,12495.000000000,1718098738.676095963
1718098738.677103,,,,-4.236188889,-4.237490654,12496.000000000,1718098738.677103043
1718098738.677323,230.185562134,3001.000000000,1718098738.677323341,,,,
1718098738.678110,,,,-4.332591534,-4.334446430,12497.000000000,1718098738.678110123
1718098738.678228,230.233810425,3000.000000000,1718098738.678227663,,,,
1718098738.679117,,,,-4.465463638,-4.467318058,12498.000000000,1718098738.679117203
1718098738.680124,,,,-4.551095963,-4.553094864,12499.000000000,1718098738.680124283
1718098738.681131,,,,-4.504312992,-4.504749298,12500.000000000,1718098738.681131363
1718098738.682138,,,,-4.401708126,-4.404884815,12501.000000000,1718098738.682138443
1718098738.682323,230.008666992,3002.000000000,1718098738.682323456,,,,
1718098738.683146,,,,-4.400698185,-4.401711464,12502.000000000,1718098738.683145523
1718098738.684153,,,,-4.154450893,-4.152243137,12503.000000000,1718098738.684152603
1718098738.685160,,,,-4.054369926,-4.054878712,12504.000000000,1718098738.685159683
1718098738.686167,,,,-4.019102573,-4.019515038,12505.000000000,1718098738.686166763
1718098738.687174,,,,-3.911665440,-3.912270308,12506.000000000,1718098738.687173843
1718098738.687323,229.863922119,3003.000000000,1718098738.687323332,,,,
1718098738.688181,,,,-4.108653545,-4.107142925,12507.000000000,1718098738.688180923
1718098738.689188,,,,-4.307757378,-4.308843136,12508.000000000,1718098738.689188004
1718098738.690195,,,,-4.240468025,-4.242058277,12509.000000000,1718098738.690195084
1718098738.691202,,,,-4.173202515,-4.175562382,12510.000000000,1718098738.691202164
1718098738.692209,,,,-4.292035103,-4.292976379,12511.000000000,1718098738.692209244
1718098738.692323,229.670898438,3004.000000000,1718098738.692323446,,,,
1718098738.693216,,,,-4.239842892,-4.242971897,12512.000000000,1718098738.693216324
1718098738.694223,,,,-4.340837479,-4.344543457,12513.000000000,1718098738.694223404
1718098738.695230,,,,-4.373989105,-4.375555515,12514.000000000,1718098738.695230484
1718098738.696238,,,,-4.250973701,-4.253261089,12515.000000000,1718098738.696237564
1718098738.697245,,,,-4.189045429,-4.190948009,12516.000000000,1718098738.697244644
1718098738.698252,,,,-4.267200947,-4.269440651,12517.000000000,1718098738.698251724
1718098738.699259,,,,-4.233015537,-4.233596325,12518.000000000,1718098738.699258804
1718098738.700266,,,,-4.205537319,-4.205083847,12519.000000000,1718098738.700265884
1718098738.701273,,,,-4.139545918,-4.141352654,12520.000000000,1718098738.701272964
1718098738.702280,,,,-4.159258842,-4.161690712,12521.000000000,1718098738.702280045
1718098738.703287,,,,-4.349251270,-4.348822594,12522.000000000,1718098738.703287125
1718098738.704294,,,,-4.607254505,-4.610575676,12523.000000000,1718098738.704294205
1718098738.705301,,,,-4.797150612,-4.799822807,12524.000000000,1718098738.705301285
1718098738.706308,,,,-4.805060387,-4.807828426,12525.000000000,1718098738.706308365
1718098738.707315,,,,-4.585449696,-4.586511135,12526.000000000,1718098738.707315445
1718098738.708323,,,,-4.247632027,-4.249366760,12527.000000000,1718098738.708322525
1718098738.709330,,,,-4.046003819,-4.048123360,12528.000000000,1718098738.709329605
1718098738.710337,,,,-4.035570621,-4.039660931,12529.000000000,1718098738.710336685
1718098738.711344,,,,-4.114375591,-4.115388870,12530.000000000,1718098738.711343765
1718098738.712351,,,,-4.155701160,-4.153541088,12531.000000000,1718098738.712350845
1718098738.713358,,,,-4.295400620,-4.294659138,12532.000000000,1718098738.713357925
1718098738.714365,,,,-4.323191643,-4.326729298,12533.000000000,1718098738.714365005
1718098738.715372,,,,-4.265326023,-4.268094063,12534.000000000,1718098738.715372086
1718098738.716379,,,,-4.279870510,-4.280667305,12535.000000000,1718098738.716379166
1718098738.717386,,,,-4.302011967,-4.304299355,12536.000000000,1718098738.717386246
1718098738.718393,,,,-4.210320950,-4.213858604,12537.000000000,1718098738.718393326
1718098738.719400,,,,-4.196017265,-4.198400974,12538.000000000,1718098738.719400406
1718098738.720407,,,,-4.274124622,-4.275691032,12539.000000000,1718098738.720407486
1718098738.721415,,,,-4.300881863,-4.303337574,12540.000000000,1718098738.721414566
1718098738.722422,,,,-4.224769592,-4.224292278,12541.000000000,1718098738.722421646
1718098738.723429,,,,-4.194118023,-4.195034981,12542.000000000,1718098738.723428726
1718098738.724436,,,,-4.264075756,-4.267445087,12543.000000000,1718098738.724435806
1718098738.725443,,,,-4.248930454,-4.252924919,12544.000000000,1718098738.725442886
1718098738.726450,,,,-4.307012081,-4.311006546,12545.000000000,1718098738.726449966
1718098738.727323,229.542236328,3011.000000000,1718098738.727323294,,,,
1718098738.727457,,,,-4.418800831,-4.423059464,12546.000000000,1718098738.727457047
1718098738.728464,,,,-4.361367702,-4.363174438,12547.000000000,1718098738.728464127
1718098738.729471,,,,-4.240900517,-4.242010117,12548.000000000,1718098738.729471207
1718098738.730478,,,,-4.217557430,-4.219844818,12549.000000000,1718098738.730478287
1718098738.731485,,,,-4.227125645,-4.229244709,12550.000000000,1718098738.731485367
1718098738.732323,229.606567383,3012.000000000,1718098738.732323408,,,,
1718098738.732492,,,,-4.251045704,-4.255328655,12551.000000000,1718098738.732492447
1718098738.733500,,,,-4.290039539,-4.292206764,12552.000000000,1718098738.733499527
1718098738.734507,,,,-4.330716133,-4.332787514,12553.000000000,1718098738.734506607
1718098738.735514,,,,-4.346703053,-4.348822594,12554.000000000,1718098738.735513687
1718098738.736521,,,,-4.359156132,-4.362141132,12555.000000000,1718098738.736520767
1718098738.737323,229.670898438,3013.000000000,1718098738.737323284,,,,
1718098738.737528,,,,-4.348626614,-4.348149300,12556.000000000,1718098738.737527847
1718098738.738535,,,,-4.373412132,-4.373656273,12557.000000000,1718098738.738534927
1718098738.739542,,,,-4.485296726,-4.486382484,12558.000000000,1718098738.739542007
1718098738.740549,,,,-4.482964993,-4.483665943,12559.000000000,1718098738.740549088
1718098738.741556,,,,-4.340356350,-4.338677406,12560.000000000,1718098738.741556168
1718098738.742323,229.686981201,3014.000000000,1718098738.742323399,,,,
1718098738.742563,,,,-4.219985485,-4.222177029,12561.000000000,1718098738.742563248
1718098738.743570,,,,-4.007082462,-4.011317253,12562.000000000,1718098738.743570328
1718098738.744577,,,,-3.990085840,-3.991676092,12563.000000000,1718098738.744577408
1718098738.745584,,,,-4.096056461,-4.095314980,12564.000000000,1718098738.745584488
1718098738.746592,,,,-4.208325863,-4.210805893,12565.000000000,1718098738.746591568
1718098738.747323,229.542236328,3015.000000000,1718098738.747323275,,,,
1718098738.747599,,,,-4.362209320,-4.365602970,12566.000000000,1718098738.747598648
1718098738.748606,,,,-4.452385426,-4.454624653,12567.000000000,1718098738.748605728
1718098738.749613,,,,-4.417358398,-4.415967464,12568.000000000,1718098738.749612808
1718098738.750620,,,,-4.370623589,-4.368367195,12569.000000000,1718098738.750619888
1718098738.751627,,,,-4.352592945,-4.355024815,12570.000000000,1718098738.751626968
1718098738.752323,229.542236328,3016.000000000,1718098738.752323389,,,,
1718098738.752634,,,,-4.240083218,-4.242755413,12571.000000000,1718098738.752634048
1718098738.753641,,,,-4.006313324,-4.009321690,12572.000000000,1718098738.753641129
1718098738.754648,,,,-3.962799788,-3.966169119,12573.000000000,1718098738.754648209
1718098738.755655,,,,-4.246886730,-4.249102116,12574.000000000,1718098738.755655289
1718098738.756662,,,,-4.400938511,-4.405245781,12575.000000000,1718098738.756662369
1718098738.757323,229.429656982,3017.000000000,1718098738.757323265,,,,
1718098738.757669,,,,-4.357978344,-4.361828327,12576.000000000,1718098738.757669449
1718098738.758677,,,,-4.350429535,-4.354255676,12577.000000000,1718098738.758676529
1718098738.759684,,,,-4.335067749,-4.337619781,12578.000000000,1718098738.759683609
1718098738.760691,,,,-4.262561321,-4.266531467,12579.000000000,1718098738.760690689
1718098738.761698,,,,-4.355622292,-4.358390808,12580.000000000,1718098738.761697769
1718098738.762323,229.397491455,3018.000000000,1718098738.762323380,,,,
1718098738.762705,,,,-4.493422508,-4.496142864,12581.000000000,1718098738.762704849
1718098738.763712,,,,-4.292515755,-4.292808056,12582.000000000,1718098738.763711929
1718098738.764719,,,,-4.110288620,-4.113224983,12583.000000000,1718098738.764719009
1718098738.765726,,,,-4.169644356,-4.172172546,12584.000000000,1718098738.765726089
1718098738.766733,,,,-4.346895695,-4.347163677,12585.000000000,1718098738.766733170
1718098738.767323,229.397491455,3019.000000000,1718098738.767323256,,,,
1718098738.767740,,,,-4.365526676,-4.364857674,12586.000000000,1718098738.767740250
1718098738.768747,,,,-4.153970242,-4.154094219,12587.000000000,1718098738.768747330
1718098738.769754,,,,-4.040330410,-4.040791035,12588.000000000,1718098738.769754410
1718098738.770674,229.558319092,3021.000000000,1718098738.770674229,,,,
1718098738.770761,,,,-4.277370453,-4.277349949,12589.000000000,1718098738.770761490
1718098738.771769,,,,-4.365430832,-4.367141247,12590.000000000,1718098738.771768570
1718098738.772323,229.445739746,3020.000000000,1718098738.772323370,,,,
1718098738.772776,,,,-4.325667858,-4.326248169,12591.000000000,1718098738.772775650
1718098738.773783,,,,-4.333312511,-4.335624218,12592.000000000,1718098738.773782730
1718098738.774790,,,,-4.291842461,-4.294707298,12593.000000000,1718098738.774789810
1718098738.775674,229.767425537,3022.000000000,1718098738.775674343,,,,
1718098738.775797,,,,-4.266359806,-4.266772270,12594.000000000,1718098738.775796890
1718098738.776804,,,,-4.292732239,-4.295813084,12595.000000000,1718098738.776803970
1718098738.777811,,,,-4.263618946,-4.266074657,12596.000000000,1718098738.777811050
1718098738.778818,,,,-4.152744293,-4.156209469,12597.000000000,1718098738.778818130
1718098738.779825,,,,-4.168009758,-4.169792652,12598.000000000,1718098738.779825211
1718098738.780832,,,,-4.327639103,-4.329614162,12599.000000000,1718098738.780832291
1718098738.781839,,,,-4.513424397,-4.515134811,12600.000000000,1718098738.781839371
1718098738.782846,,,,-4.416949749,-4.418203354,12601.000000000,1718098738.782846451
1718098738.783854,,,,-4.188203812,-4.189842224,12602.000000000,1718098738.783853531
1718098738.784861,,,,-4.107499599,-4.108825684,12603.000000000,1718098738.784860611
1718098738.785868,,,,-4.095479488,-4.095819950,12604.000000000,1718098738.785867691
1718098738.786875,,,,-4.178154945,-4.177942276,12605.000000000,1718098738.786874771
1718098738.787882,,,,-4.435893536,-4.436474323,12606.000000000,1718098738.787881851
1718098738.788889,,,,-4.427551746,-4.427506924,12607.000000000,1718098738.788888931
1718098738.789896,,,,-4.187819004,-4.187894821,12608.000000000,1718098738.789896011
1718098738.790903,,,,-4.158177376,-4.160705090,12609.000000000,1718098738.790903091
1718098738.791910,,,,-4.227173805,-4.231480598,12610.000000000,1718098738.791910172
1718098738.792917,,,,-4.261070728,-4.264512062,12611.000000000,1718098738.792917252
1718098738.793924,,,,-4.366199970,-4.367045403,12612.000000000,1718098738.793924332
1718098738.794931,,,,-4.498903751,-4.500830650,12613.000000000,1718098738.794931412
1718098738.795938,,,,-4.545278072,-4.547469616,12614.000000000,1718098738.795938492
1718098738.796946,,,,-4.571073532,-4.572832108,12615.000000000,1718098738.796945572
1718098738.797953,,,,-4.491691589,-4.491070271,12616.000000000,1718098738.797952652
1718098738.798960,,,,-4.354636669,-4.354303837,12617.000000000,1718098738.798959732
1718098738.799967,,,,-4.260613918,-4.264368057,12618.000000000,1718098738.799966812
1718098738.800974,,,,-4.258209705,-4.262516975,12619.000000000,1718098738.800973892
1718098738.801981,,,,-4.248930454,-4.251049519,12620.000000000,1718098738.801980972
1718098738.802988,,,,-4.249483109,-4.250929356,12621.000000000,1718098738.802988052
1718098738.803995,,,,-4.199767590,-4.203617573,12622.000000000,1718098738.803995132
1718098738.805002,,,,-4.171471596,-4.175369740,12623.000000000,1718098738.805002213
1718098738.806009,,,,-4.185775757,-4.187726974,12624.000000000,1718098738.806009293
1718098738.807016,,,,-4.349852562,-4.350745678,12625.000000000,1718098738.807016373
1718098738.808023,,,,-4.368940830,-4.370290756,12626.000000000,1718098738.808023453
1718098738.809031,,,,-4.299655914,-4.302616596,12627.000000000,1718098738.809030533
1718098738.810038,,,,-4.239939213,-4.241673946,12628.000000000,1718098738.810037613
1718098738.811045,,,,-4.299054623,-4.298625946,12629.000000000,1718098738.811044693
1718098738.812052,,,,-4.444932938,-4.445056915,12630.000000000,1718098738.812051773
1718098738.813059,,,,-4.420940399,-4.422578812,12631.000000000,1718098738.813058853
1718098738.814066,,,,-4.181977272,-4.183591843,12632.000000000,1718098738.814065933
1718098738.815073,,,,-4.029247761,-4.030213356,12633.000000000,1718098738.815073013
1718098738.816080,,,,-4.038887978,-4.039709091,12634.000000000,1718098738.816080093
1718098738.817087,,,,-3.964795113,-3.967106819,12635.000000000,1718098738.817087173
1718098738.818094,,,,-3.909838438,-3.911356688,12636.000000000,1718098738.818094254
1718098738.819101,,,,-4.139425755,-4.142241955,12637.000000000,1718098738.819101334
1718098738.820108,,,,-4.402260780,-4.402961731,12638.000000000,1718098738.820108414
1718098738.820674,232.822494507,3031.000000000,1718098738.820674181,,,,
1718098738.821115,,,,-4.303550243,-4.304395676,12639.000000000,1718098738.821115494
1718098738.822123,,,,-4.151301861,-4.154815197,12640.000000000,1718098738.822122574
1718098738.823130,,,,-4.111129761,-4.114355087,12641.000000000,1718098738.823129654
1718098738.824137,,,,-4.108365059,-4.110196114,12642.000000000,1718098738.824136734
1718098738.825144,,,,-4.150291920,-4.154190063,12643.000000000,1718098738.825143814
1718098738.825674,233.111816406,3032.000000000,1718098738.825674295,,,,
1718098738.826151,,,,-4.404761314,-4.411207676,12644.000000000,1718098738.826150894
1718098738.827158,,,,-4.613168716,-4.616465569,12645.000000000,1718098738.827157974
1718098738.828165,,,,-4.575881481,-4.577856541,12646.000000000,1718098738.828165054
1718098738.829172,,,,-4.450197697,-4.451932430,12647.000000000,1718098738.829172134
1718098738.830179,,,,-4.434787750,-4.437483788,12648.000000000,1718098738.830179214
1718098738.830674,233.288650513,3033.000000000,1718098738.830674171,,,,
1718098738.831186,,,,-4.487821102,-4.489315510,12649.000000000,1718098738.831186295
1718098738.832193,,,,-4.328456402,-4.331681728,12650.000000000,1718098738.832193375
1718098738.833200,,,,-4.209623814,-4.209555626,12651.000000000,1718098738.833200455
1718098738.834208,,,,-4.348674297,-4.346057892,12652.000000000,1718098738.834207535
1718098738.835215,,,,-4.552490234,-4.553143024,12653.000000000,1718098738.835214615
1718098738.835674,233.529739380,3034.000000000,1718098738.835674286,,,,
1718098738.836222,,,,-4.557322502,-4.559081078,12654.000000000,1718098738.836221695
1718098738.837229,,,,-4.338288784,-4.339494705,12655.000000000,1718098738.837228775
1718098738.838236,,,,-4.130074024,-4.134669304,12656.000000000,1718098738.838235855
1718098738.839243,,,,-4.135579109,-4.136808872,12657.000000000,1718098738.839242935
1718098738.840250,,,,-4.217220783,-4.219484329,12658.000000000,1718098738.840250015
1718098738.840674,233.674392700,3035.000000000,1718098738.840674162,,,,
1718098738.841257,,,,-4.253834724,-4.255496979,12659.000000000,1718098738.841257095
1718098738.842264,,,,-4.157984734,-4.160272598,12660.000000000,1718098738.842264175
1718098738.843271,,,,-4.001697540,-4.005187035,12661.000000000,1718098738.843271255
1718098738.844278,,,,-3.801463604,-3.803631067,12662.000000000,1718098738.844278336
1718098738.845285,,,,-3.812065601,-3.812766314,12663.000000000,1718098738.845285416
1718098738.845674,233.835144043,3036.000000000,1718098738.845674276,,,,
1718098738.846292,,,,-4.167216301,-4.168085575,12664.000000000,1718098738.846292496
1718098738.847300,,,,-4.308839321,-4.310958385,12665.000000000,1718098738.847299576
1718098738.848307,,,,-4.317782402,-4.318771839,12666.000000000,1718098738.848306656
1718098738.849314,,,,-4.380287647,-4.381373405,12667.000000000,1718098738.849313736
1718098738.850321,,,,-4.481859207,-4.484483242,12668.000000000,1718098738.850320816
1718098738.850674,233.995849609,3037.000000000,1718098738.850674152,,,,
1718098738.851328,,,,-4.699329853,-4.703684807,12669.000000000,1718098738.851327896
1718098738.852335,,,,-4.578526020,-4.581029892,12670.000000000,1718098738.852334976
1718098738.853342,,,,-4.168947220,-4.170225143,12671.000000000,1718098738.853342056
1718098738.854349,,,,-3.819830656,-3.822310448,12672.000000000,1718098738.854349136
1718098738.855356,,,,-3.924118519,-3.925444365,12673.000000000,1718098738.855356216
1718098738.855674,234.204772949,3038.000000000,1718098738.855674267,,,,
1718098738.856363,,,,-4.218278408,-4.220710278,12674.000000000,1718098738.856363297
1718098738.857370,,,,-4.493542671,-4.493546486,12675.000000000,1718098738.857370377
1718098738.858377,,,,-4.652210236,-4.652093887,12676.000000000,1718098738.858377457
1718098738.859385,,,,-4.605091095,-4.606128216,12677.000000000,1718098738.859384537
1718098738.860392,,,,-4.291049480,-4.292687893,12678.000000000,1718098738.860391617
1718098738.860674,234.413726807,3039.000000000,1718098738.860674143,,,,
1718098738.861399,,,,-4.239987373,-4.241794109,12679.000000000,1718098738.861398697
1718098738.862406,,,,-4.154475212,-4.156738281,12680.000000000,1718098738.862405777
1718098738.863413,,,,-3.996071815,-3.998647928,12681.000000000,1718098738.863412857
1718098738.864420,,,,-4.004654408,-4.007350445,12682.000000000,1718098738.864419937
1718098738.865427,,,,-4.042614460,-4.044396877,12683.000000000,1718098738.865427017
1718098738.865674,234.670837402,3040.000000000,1718098738.865674257,,,,
1718098738.866434,,,,-4.114856243,-4.117528439,12684.000000000,1718098738.866434097
1718098738.867441,,,,-4.301026344,-4.302231789,12685.000000000,1718098738.867441177
1718098738.868448,,,,-4.611317635,-4.612547398,12686.000000000,1718098738.868448257
1718098738.869455,,,,-4.593647480,-4.593747616,12687.000000000,1718098738.869455338
1718098738.870462,,,,-4.382547379,-4.384282112,12688.000000000,1718098738.870462418
1718098738.871469,,,,-4.329826832,-4.331104755,12689.000000000,1718098738.871469498
1718098738.872477,,,,-4.284173489,-4.287831783,12690.000000000,1718098738.872476578
1718098738.873484,,,,-4.277490616,-4.280908108,12691.000000000,1718098738.873483658
1718098738.874491,,,,-4.259099483,-4.261122704,12692.000000000,1718098738.874490738
1718098738.875498,,,,-4.221355915,-4.222537518,12693.000000000,1718098738.875497818
1718098738.876505,,,,-4.144330025,-4.146352768,12694.000000000,1718098738.876504898
1718098738.877512,,,,-4.136468410,-4.136712551,12695.000000000,1718098738.877511978
1718098738.878519,,,,-4.159667969,-4.160464764,12696.000000000,1718098738.878519058
1718098738.879526,,,,-4.199526787,-4.201141357,12697.000000000,1718098738.879526138
1718098738.880533,,,,-4.341678619,-4.343653679,12698.000000000,1718098738.880533218
1718098738.881540,,,,-4.405939102,-4.409332275,12699.000000000,1718098738.881540298
1718098738.882547,,,,-4.361992836,-4.365170002,12700.000000000,1718098738.882547379
1718098738.883554,,,,-4.329345703,-4.332090378,12701.000000000,1718098738.883554459
1718098738.884562,,,,-4.315690994,-4.319612980,12702.000000000,1718098738.884561539
1718098738.885569,,,,-4.166735649,-4.167099953,12703.000000000,1718098738.885568619
1718098738.885807,234.863693237,3041.000000000,1718098738.885806799,,,,
1718098738.886576,,,,-4.097042084,-4.099954605,12704.000000000,1718098738.886575699
1718098738.887583,,,,-4.225947380,-4.226936817,12705.000000000,1718098738.887582779
1718098738.888590,,,,-4.329057217,-4.330816269,12706.000000000,1718098738.888589859
1718098738.889597,,,,-4.406948566,-4.407697678,12707.000000000,1718098738.889596939
1718098738.890604,,,,-4.509000778,-4.507922649,12708.000000000,1718098738.890604019
1718098738.891611,,,,-4.478036880,-4.478737354,12709.000000000,1718098738.891611099
1718098738.892618,,,,-4.415194511,-4.417169571,12710.000000000,1718098738.892618179
1718098738.893625,,,,-4.308382511,-4.309997082,12711.000000000,1718098738.893625259
1718098738.894632,,,,-4.186809540,-4.188784599,12712.000000000,1718098738.894632339
1718098738.895639,,,,-4.194694996,-4.195924759,12713.000000000,1718098738.895639420
1718098738.896646,,,,-4.215393543,-4.214748383,12714.000000000,1718098738.896646500
1718098738.897654,,,,-4.159427166,-4.162628651,12715.000000000,1718098738.897653580
1718098738.898661,,,,-4.118029594,-4.119451523,12716.000000000,1718098738.898660660
1718098738.899668,,,,-4.263907433,-4.264440060,12717.000000000,1718098738.899667740
1718098738.900675,,,,-4.422526836,-4.424574375,12718.000000000,1718098738.900674820
1718098738.901682,,,,-4.343265533,-4.344350815,12719.000000000,1718098738.901681900
1718098738.902689,,,,-4.311868191,-4.313074112,12720.000000000,1718098738.902688980
1718098738.903696,,,,-4.295135975,-4.297327518,12721.000000000,1718098738.903696060
1718098738.904703,,,,-4.208109379,-4.206862926,12722.000000000,1718098738.904703140
1718098738.905710,,,,-4.055956841,-4.053508282,12723.000000000,1718098738.905710220
1718098738.906717,,,,-4.114495754,-4.115653038,12724.000000000,1718098738.906717300
1718098738.907724,,,,-4.229577541,-4.230735302,12725.000000000,1718098738.907724380
1718098738.908731,,,,-4.250252724,-4.251818657,12726.000000000,1718098738.908731461
1718098738.909739,,,,-4.523401260,-4.525424480,12727.000000000,1718098738.909738541
1718098738.910746,,,,-4.683414936,-4.686231613,12728.000000000,1718098738.910745621
1718098738.911753,,,,-4.585041046,-4.587400913,12729.000000000,1718098738.911752701
1718098738.912760,,,,-4.540590286,-4.541915894,12730.000000000,1718098738.912759781
1718098738.913767,,,,-4.415098667,-4.418804646,12731.000000000,1718098738.913766861
1718098738.914774,,,,-4.149234295,-4.152218819,12732.000000000,1718098738.914773941
1718098738.915781,,,,-3.982921600,-3.983334064,12733.000000000,1718098738.915781021
1718098738.915807,236.197326660,3047.000000000,1718098738.915806770,,,,
1718098738.916788,,,,-3.940273762,-3.942681551,12734.000000000,1718098738.916788101
1718098738.917795,,,,-3.898683548,-3.900947094,12735.000000000,1718098738.917795181
1718098738.918802,,,,-4.061534405,-4.062451363,12736.000000000,1718098738.918802261
1718098738.919809,,,,-4.320859432,-4.324132919,12737.000000000,1718098738.919809341
1718098738.920807,236.341949463,3048.000000000,1718098738.920806885,,,,
1718098738.920816,,,,-4.293237209,-4.294394493,12738.000000000,1718098738.920816422
1718098738.921824,,,,-4.275446892,-4.277061462,12739.000000000,1718098738.921823502
1718098738.922831,,,,-4.356271267,-4.358775139,12740.000000000,1718098738.922830582
1718098738.923838,,,,-4.456159592,-4.456812382,12741.000000000,1718098738.923837662
1718098738.924845,,,,-4.598792076,-4.600478649,12742.000000000,1718098738.924844742
1718098738.925807,236.438339233,3049.000000000,1718098738.925806761,,,,
1718098738.925852,,,,-4.423656940,-4.423756599,12743.000000000,1718098738.925851822
1718098738.926859,,,,-4.224288940,-4.223546982,12744.000000000,1718098738.926858902
1718098738.927866,,,,-4.245997429,-4.249486923,12745.000000000,1718098738.927865982
1718098738.928873,,,,-4.370094776,-4.369689465,12746.000000000,1718098738.928873062
1718098738.929880,,,,-4.363483429,-4.363727570,12747.000000000,1718098738.929880142
1718098738.930807,236.550796509,3050.000000000,1718098738.930806875,,,,
1718098738.930887,,,,-4.283740997,-4.283720493,12748.000000000,1718098738.930887222
1718098738.931894,,,,-4.181785107,-4.181091785,12749.000000000,1718098738.931894302
1718098738.932901,,,,-4.123077869,-4.124283791,12750.000000000,1718098738.932901382
1718098738.933908,,,,-4.103124619,-4.104498386,12751.000000000,1718098738.933908463
1718098738.934916,,,,-4.078699112,-4.081515789,12752.000000000,1718098738.934915543
1718098738.935807,236.598983765,3051.000000000,1718098738.935806751,,,,
1718098738.935923,,,,-4.204215050,-4.206069469,12753.000000000,1718098738.935922623
1718098738.936930,,,,-4.419618130,-4.422819138,12754.000000000,1718098738.936929703
1718098738.937937,,,,-4.392812729,-4.393922329,12755.000000000,1718098738.937936783
1718098738.938944,,,,-4.257128239,-4.258550167,12756.000000000,1718098738.938943863
1718098738.939951,,,,-4.325932026,-4.327498436,12757.000000000,1718098738.939950943
1718098738.940807,236.647186279,3052.000000000,1718098738.940806866,,,,
1718098738.940958,,,,-4.251815319,-4.254174709,12758.000000000,1718098738.940958023
1718098738.941965,,,,-4.238520622,-4.240375519,12759.000000000,1718098738.941965103
1718098738.942972,,,,-4.310642242,-4.311728001,12760.000000000,1718098738.942972183
1718098738.943979,,,,-4.321965218,-4.324926376,12761.000000000,1718098738.943979263
1718098738.944986,,,,-4.253089428,-4.256650925,12762.000000000,1718098738.944986343
1718098738.945807,236.727539063,3053.000000000,1718098738.945806742,,,,
1718098738.945993,,,,-4.228255272,-4.230711460,12763.000000000,1718098738.945993423
1718098738.947001,,,,-4.186833382,-4.187438488,12764.000000000,1718098738.947000504
1718098738.948008,,,,-4.023406029,-4.023145199,12765.000000000,1718098738.948007584
1718098738.949015,,,,-4.089565754,-4.091011524,12766.000000000,1718098738.949014664
1718098738.950022,,,,-4.220682621,-4.222008705,12767.000000000,1718098738.950021744
1718098738.950807,236.631118774,3054.000000000,1718098738.950806856,,,,
1718098738.951029,,,,-4.186472893,-4.185996056,12768.000000000,1718098738.951028824
1718098738.952036,,,,-3.991576195,-3.992036819,12769.000000000,1718098738.952035904
1718098738.953043,,,,-4.005399704,-4.007975578,12770.000000000,1718098738.953042984
1718098738.954050,,,,-4.304704189,-4.306895733,12771.000000000,1718098738.954050064
1718098738.955057,,,,-4.432720184,-4.435729027,12772.000000000,1718098738.955057144
1718098738.955807,236.550796509,3055.000000000,1718098738.955806732,,,,
1718098738.956064,,,,-4.560544014,-4.559586048,12773.000000000,1718098738.956064224
1718098738.957071,,,,-4.576651096,-4.577568054,12774.000000000,1718098738.957071304
1718098738.958078,,,,-4.439860344,-4.442460537,12775.000000000,1718098738.958078384
1718098738.959085,,,,-4.254796028,-4.255184650,12776.000000000,1718098738.959085464
1718098738.960093,,,,-4.126035213,-4.128010273,12777.000000000,1718098738.960092545
1718098738.960807,236.518661499,3056.000000000,1718098738.960806847,,,,
1718098738.961100,,,,-4.033214569,-4.036583900,12778.000000000,1718098738.961099625
1718098738.962107,,,,-4.079564571,-4.082405090,12779.000000000,1718098738.962106705
1718098738.963114,,,,-4.265229702,-4.271483898,12780.000000000,1718098738.963113785
1718098738.964121,,,,-4.392740726,-4.395533085,12781.000000000,1718098738.964120865
1718098738.965128,,,,-4.385119915,-4.387166977,12782.000000000,1718098738.965127945
1718098738.965807,236.374084473,3057.000000000,1718098738.965806723,,,,
1718098738.966135,,,,-4.414425373,-4.417314053,12783.000000000,1718098738.966135025
1718098738.967142,,,,-4.412814617,-4.415823460,12784.000000000,1718098738.967142105
1718098738.968149,,,,-4.370214939,-4.372887135,12785.000000000,1718098738.968149185
1718098738.969156,,,,-4.324609756,-4.327955246,12786.000000000,1718098738.969156265
1718098738.970163,,,,-4.379855156,-4.383921623,12787.000000000,1718098738.970163345
1718098738.970807,236.181274414,3058.000000000,1718098738.970806837,,,,
1718098738.971170,,,,-4.590065479,-4.594636917,12788.000000000,1718098738.971170425
1718098738.972178,,,,-4.754238605,-4.758184910,12789.000000000,1718098738.972177505
1718098738.973185,,,,-4.621750832,-4.623653889,12790.000000000,1718098738.973184586
1718098738.974192,,,,-4.417406559,-4.419910431,12791.000000000,1718098738.974191666
1718098738.975199,,,,-4.204022408,-4.207055569,12792.000000000,1718098738.975198746
1718098738.975807,235.940277100,3059.000000000,1718098738.975806713,,,,
1718098738.976206,,,,-4.075934410,-4.077332497,12793.000000000,1718098738.976205826
1718098738.977213,,,,-4.116154194,-4.116662979,12794.000000000,1718098738.977212906
1718098738.978220,,,,-4.076679707,-4.075289249,12795.000000000,1718098738.978219986
1718098738.979227,,,,-4.133535862,-4.134404659,12796.000000000,1718098738.979227066
1718098738.979781,235.506454468,3061.000000000,1718098738.979780912,,,,
1718098738.980234,,,,-4.232534409,-4.233860493,12797.000000000,1718098738.980234146
1718098738.980807,235.763549805,3060.000000000,1718098738.980806828,,,,
1718098738.981241,,,,-4.242752075,-4.243957520,12798.000000000,1718098738.981241226
1718098738.982248,,,,-4.139161110,-4.140823841,12799.000000000,1718098738.982248306
1718098738.983255,,,,-4.181208134,-4.184216976,12800.000000000,1718098738.983255386
1718098738.984262,,,,-4.217894077,-4.220325947,12801.000000000,1718098738.984262466
1718098738.985270,,,,-4.182890892,-4.185034275,12802.000000000,1718098738.985269547
1718098738.986277,,,,-4.172361374,-4.174384117,12803.000000000,1718098738.986276627
1718098738.987284,,,,-4.165485382,-4.164960384,12804.000000000,1718098738.987283707
1718098738.988291,,,,-4.204503536,-4.208858490,12805.000000000,1718098738.988290787
1718098738.989298,,,,-4.213470459,-4.216310978,12806.000000000,1718098738.989297867
1718098738.990305,,,,-4.233255863,-4.232321739,12807.000000000,1718098738.990304947
1718098738.991312,,,,-4.410026073,-4.410678864,12808.000000000,1718098738.991312027
1718098738.992319,,,,-4.449620724,-4.451884270,12809.000000000,1718098738.992319107
1718098738.993326,,,,-4.245083809,-4.246722221,12810.000000000,1718098738.993326187
1718098738.994333,,,,-4.108317375,-4.108585358,12811.000000000,1718098738.994333267
1718098738.995340,,,,-4.230779648,-4.233211517,12812.000000000,1718098738.995340347
1718098738.996347,,,,-4.458034992,-4.463207245,12813.000000000,1718098738.996347427
1718098738.997355,,,,-4.453924179,-4.457005024,12814.000000000,1718098738.997354507
1718098738.998362,,,,-4.476041317,-4.477102757,12815.000000000,1718098738.998361588
1718098738.999369,,,,-4.499961853,-4.500109673,12816.000000000,1718098738.999368668
1718098739.000376,,,,-4.460463047,-4.460731030,12817.000000000,1718098739.000375748
1718098739.001383,,,,-4.518184185,-4.517034054,12818.000000000,1718098739.001382828
1718098739.002390,,,,-4.661105156,-4.662070751,12819.000000000,1718098739.002389908
1718098739.003397,,,,-4.541047096,-4.539560318,12820.000000000,1718098739.003396988
1718098739.004404,,,,-4.391370296,-4.390340328,12821.000000000,1718098739.004404068
1718098739.005411,,,,-4.276168346,-4.277710438,12822.000000000,1718098739.005411148
1718098739.006418,,,,-4.104350567,-4.104786873,12823.000000000,1718098739.006418228
1718098739.007425,,,,-3.889163494,-3.891595364,12824.000000000,1718098739.007425308
1718098739.008432,,,,-3.753719091,-3.756030798,12825.000000000,1718098739.008432388
1718098739.009439,,,,-3.776341200,-3.777498960,12826.000000000,1718098739.009439468
1718098739.010447,,,,-3.810887575,-3.810698986,12827.000000000,1718098739.010446548
1718098739.011454,,,,-3.954986572,-3.958139658,12828.000000000,1718098739.011453629
1718098739.012461,,,,-4.147743702,-4.149117470,12829.000000000,1718098739.012460709
1718098739.013468,,,,-4.285038948,-4.286749840,12830.000000000,1718098739.013467789
1718098739.014475,,,,-4.257296562,-4.259078979,12831.000000000,1718098739.014474869
1718098739.015482,,,,-4.332303047,-4.335792542,12832.000000000,1718098739.015481949
1718098739.016489,,,,-4.514866829,-4.515182972,12833.000000000,1718098739.016489029
1718098739.017496,,,,-4.575953960,-4.576798916,12834.000000000,1718098739.017496109
1718098739.018503,,,,-4.521165371,-4.524126053,12835.000000000,1718098739.018503189
1718098739.019510,,,,-4.335740566,-4.339374542,12836.000000000,1718098739.019510269
1718098739.020517,,,,-4.237318516,-4.239894867,12837.000000000,1718098739.020517349
1718098739.021524,,,,-4.182290077,-4.184048653,12838.000000000,1718098739.021524429
1718098739.022532,,,,-4.185367107,-4.187294006,12839.000000000,1718098739.022531509
1718098739.023539,,,,-4.195560455,-4.199170113,12840.000000000,1718098739.023538589
1718098739.024546,,,,-4.123390675,-4.127769470,12841.000000000,1718098739.024545670
1718098739.025553,,,,-4.116755486,-4.121062279,12842.000000000,1718098739.025552750
1718098739.026560,,,,-4.325547695,-4.329782486,12843.000000000,1718098739.026559830
1718098739.027567,,,,-4.453058720,-4.456596375,12844.000000000,1718098739.027566910
1718098739.028574,,,,-4.390504837,-4.391542435,12845.000000000,1718098739.028573990
1718098739.029581,,,,-4.362233162,-4.361900330,12846.000000000,1718098739.029581070
1718098739.029781,235.538589478,3071.000000000,1718098739.029780865,,,,
1718098739.030588,,,,-4.340548992,-4.342427731,12847.000000000,1718098739.030588150
