__time,/gdx/grip_force_stream/grip_force,/gdx/grip_force_stream/header/seq,/gdx/grip_force_stream/header/stamp,/shimmer0/emg_stream/emg_ch1,/shimmer0/emg_stream/emg_ch2,/shimmer0/emg_stream/header/seq,/shimmer0/emg_stream/header/stamp
1718099330.788739,0.182757095,15663.000000000,1718099330.788739443,,,,
1718099330.788816,,,,3.524421930,3.525144339,77719.000000000,1718099330.788816214
1718099330.789823,,,,3.520383120,3.522331476,77720.000000000,1718099330.789823294
1718099330.790830,,,,3.524806499,3.524831772,77721.000000000,1718099330.790830374
1718099330.791837,,,,3.525551796,3.529014826,77722.000000000,1718099330.791837454
1718099330.792845,,,,3.529855013,3.533582449,77723.000000000,1718099330.792844534
1718099330.793852,,,,3.531513691,3.531683445,77724.000000000,1718099330.793851614
1718099330.794859,,,,3.524542093,3.523822069,77725.000000000,1718099330.794858694
1718099330.795866,,,,3.519253016,3.522740364,77726.000000000,1718099330.795865774
1718099330.796873,,,,3.521416664,3.525769472,77727.000000000,1718099330.796872854
1718099330.797880,,,,3.527907610,3.530673742,77728.000000000,1718099330.797879934
1718099330.798887,,,,3.530335903,3.532596827,77729.000000000,1718099330.798887014
1718099330.799894,,,,3.527619123,3.528413773,77730.000000000,1718099330.799894094
1718099330.800901,,,,3.526849985,3.529856205,77731.000000000,1718099330.800901175
1718099330.801908,,,,3.528196096,3.533870935,77732.000000000,1718099330.801908255
1718099330.802915,,,,3.530576229,3.536683798,77733.000000000,1718099330.802915335
1718099330.803922,,,,3.529614687,3.534015179,77734.000000000,1718099330.803922415
1718099330.804929,,,,3.529614687,3.530216932,77735.000000000,1718099330.804929495
1718099330.805937,,,,3.526729822,3.527187824,77736.000000000,1718099330.805936575
1718099330.806944,,,,3.520839691,3.522932529,77737.000000000,1718099330.806943655
1718099330.807951,,,,3.519998312,3.521057367,77738.000000000,1718099330.807950735
1718099330.808958,,,,3.524758339,3.525216341,77739.000000000,1718099330.808957815
1718099330.809965,,,,3.528989553,3.529303312,77740.000000000,1718099330.809964895
1718099330.810972,,,,3.522570610,3.522042990,77741.000000000,1718099330.810971975
1718099330.811979,,,,3.520479202,3.520913124,77742.000000000,1718099330.811979055
1718099330.812986,,,,3.521200418,3.523269176,77743.000000000,1718099330.812986135
1718099330.813993,,,,3.517882824,3.520889044,77744.000000000,1718099330.813993216
1718099330.815000,,,,3.522402525,3.523846149,77745.000000000,1718099330.815000296
1718099330.816007,,,,3.527643204,3.531322718,77746.000000000,1718099330.816007376
1718099330.817014,,,,3.542644501,3.543126583,77747.000000000,1718099330.817014456
1718099330.818022,,,,3.553871393,3.553848743,77748.000000000,1718099330.818021536
1718099330.819029,,,,3.546346903,3.546732664,77749.000000000,1718099330.819028616
1718099330.820036,,,,3.539447069,3.541371584,77750.000000000,1718099330.820035696
1718099330.821043,,,,3.534110069,3.538871527,77751.000000000,1718099330.821042776
1718099330.822050,,,,3.532211065,3.534640312,77752.000000000,1718099330.822049856
1718099330.823057,,,,3.533821583,3.532813311,77753.000000000,1718099330.823056936
1718099330.824064,,,,3.534975529,3.533197880,77754.000000000,1718099330.824064016
1718099330.825071,,,,3.532355309,3.530745745,77755.000000000,1718099330.825071096
1718099330.826078,,,,3.527186394,3.530385256,77756.000000000,1718099330.826078176
1718099330.827085,,,,3.527907610,3.531346798,77757.000000000,1718099330.827085257
1718099330.828092,,,,3.529734850,3.535818338,77758.000000000,1718099330.828092337
1718099330.828739,0.218118325,15671.000000000,1718099330.828739405,,,,
1718099330.829099,,,,3.528100014,3.530793905,77759.000000000,1718099330.829099417
1718099330.830106,,,,3.526897907,3.528125286,77760.000000000,1718099330.830106497
1718099330.831114,,,,3.529013634,3.530673742,77761.000000000,1718099330.831113577
1718099330.832121,,,,3.527739525,3.530938148,77762.000000000,1718099330.832120657
1718099330.833128,,,,3.526561499,3.531202555,77763.000000000,1718099330.833127737
1718099330.833740,0.235794663,15672.000000000,1718099330.833739519,,,,
1718099330.834135,,,,3.529133797,3.531298637,77764.000000000,1718099330.834134817
1718099330.835142,,,,3.533461094,3.534496069,77765.000000000,1718099330.835141897
1718099330.836149,,,,3.535456419,3.537549257,77766.000000000,1718099330.836148977
1718099330.837156,,,,3.541514635,3.541131258,77767.000000000,1718099330.837156057
1718099330.838163,,,,3.544591904,3.545698881,77768.000000000,1718099330.838163137
1718099330.838739,0.165080309,15673.000000000,1718099330.838739395,,,,
1718099330.839170,,,,3.546250582,3.550098419,77769.000000000,1718099330.839170218
1718099330.840177,,,,3.549976826,3.551612854,77770.000000000,1718099330.840177298
1718099330.841184,,,,3.552501202,3.553464174,77771.000000000,1718099330.841184378
1718099330.842191,,,,3.555001497,3.554425716,77772.000000000,1718099330.842191458
1718099330.843199,,,,3.551900148,3.554185390,77773.000000000,1718099330.843198538
1718099330.843740,0.235794663,15674.000000000,1718099330.843739510,,,,
1718099330.844206,,,,3.559761524,3.559426069,77774.000000000,1718099330.844205618
1718099330.845213,,,,3.572094202,3.571566582,77775.000000000,1718099330.845212698
1718099330.846220,,,,3.571252823,3.573057175,77776.000000000,1718099330.846219778
1718099330.847227,,,,3.567382336,3.569763660,77777.000000000,1718099330.847226858
1718099330.848234,,,,3.565723419,3.565460205,77778.000000000,1718099330.848233938
1718099330.848739,0.235794663,15675.000000000,1718099330.848739386,,,,
1718099330.849241,,,,3.558631420,3.556324959,77779.000000000,1718099330.849241018
1718099330.850248,,,,3.547212362,3.547574043,77780.000000000,1718099330.850248098
1718099330.851255,,,,3.542043447,3.540890932,77781.000000000,1718099330.851255178
1718099330.853740,0.271146923,15676.000000000,1718099330.853739500,,,,
1718099330.855283,,,,3.530648232,3.530577421,77785.000000000,1718099330.855283499
1718099330.856291,,,,3.524421930,3.524855852,77786.000000000,1718099330.856290579
1718099330.857298,,,,3.522738934,3.523533583,77787.000000000,1718099330.857297659
1718099330.858305,,,,3.524662256,3.525601149,77788.000000000,1718099330.858304739
1718099330.858739,0.306498617,15677.000000000,1718099330.858739376,,,,
1718099330.859312,,,,3.525623798,3.527692556,77789.000000000,1718099330.859311819
1718099330.860319,,,,3.528148174,3.532116175,77790.000000000,1718099330.860318899
1718099330.861326,,,,3.533677340,3.535313368,77791.000000000,1718099330.861325979
1718099330.862333,,,,3.532258987,3.535361528,77792.000000000,1718099330.862333059
1718099330.863340,,,,3.533316851,3.534784555,77793.000000000,1718099330.863340139
1718099330.863739,0.235794663,15678.000000000,1718099330.863739491,,,,
1718099330.864347,,,,3.534278393,3.534568310,77794.000000000,1718099330.864347219
1718099330.865354,,,,3.532667637,3.536659718,77795.000000000,1718099330.865354300
1718099330.866361,,,,3.526946068,3.531418800,77796.000000000,1718099330.866361380
1718099330.867368,,,,3.525984526,3.529664040,77797.000000000,1718099330.867368460
1718099330.868376,,,,3.529782772,3.530144691,77798.000000000,1718099330.868375540
1718099330.868739,0.306498617,15679.000000000,1718099330.868739367,,,,
1718099330.869383,,,,3.531634092,3.532669067,77799.000000000,1718099330.869382620
1718099330.870390,,,,3.529975176,3.530024529,77800.000000000,1718099330.870389700
1718099330.871397,,,,3.544471741,3.542838097,77801.000000000,1718099330.871396780
1718099330.872404,,,,3.561925173,3.563080311,77802.000000000,1718099330.872403860
1718099330.873411,,,,3.569906473,3.571975231,77803.000000000,1718099330.873410940
1718099330.873739,0.341857851,15680.000000000,1718099330.873739481,,,,
1718099330.874418,,,,3.570507526,3.573129177,77804.000000000,1718099330.874418020
1718099330.875425,,,,3.570170879,3.569499016,77805.000000000,1718099330.875425100
1718099330.876432,,,,3.602793932,3.600655556,77806.000000000,1718099330.876432180
1718099330.877439,,,,3.655947685,3.655612230,77807.000000000,1718099330.877439260
1718099330.878446,,,,3.686166525,3.688163280,77808.000000000,1718099330.878446341
1718099330.879453,,,,3.692898035,3.693500280,77809.000000000,1718099330.879453421
1718099330.880461,,,,3.686984062,3.685638905,77810.000000000,1718099330.880460501
1718099330.881468,,,,3.666068792,3.665973902,77811.000000000,1718099330.881467581
1718099330.882475,,,,3.633734226,3.635971308,77812.000000000,1718099330.882474661
1718099330.883176,0.394883454,15681.000000000,1718099330.883176327,,,,
1718099330.883482,,,,3.610679388,3.612435579,77813.000000000,1718099330.883481741
1718099330.884489,,,,3.572214365,3.572095394,77814.000000000,1718099330.884488821
1718099330.885496,,,,3.515430689,3.514734745,77815.000000000,1718099330.885495901
1718099330.886503,,,,3.434462070,3.434343100,77816.000000000,1718099330.886502981
1718099330.887510,,,,3.405661583,3.404797316,77817.000000000,1718099330.887510061
1718099330.888176,0.465582222,15682.000000000,1718099330.888176441,,,,
1718099330.888517,,,,3.434510231,3.435352802,77818.000000000,1718099330.888517141
1718099330.893176,0.536286831,15683.000000000,1718099330.893176317,,,,
1718099330.893553,,,,3.476004124,3.478962421,77823.000000000,1718099330.893552542
1718099330.894560,,,,3.495525122,3.496055365,77824.000000000,1718099330.894559622
1718099330.895567,,,,3.503410339,3.504974365,77825.000000000,1718099330.895566702
1718099330.896574,,,,3.506824255,3.507618666,77826.000000000,1718099330.896573782
1718099330.897581,,,,3.533076525,3.534880638,77827.000000000,1718099330.897580862
1718099330.898176,0.606989145,15684.000000000,1718099330.898176432,,,,
1718099330.898588,,,,3.605823040,3.606665850,77828.000000000,1718099330.898587942
1718099330.899595,,,,3.669338226,3.670036554,77829.000000000,1718099330.899595022
1718099330.900602,,,,3.702586174,3.701818228,77830.000000000,1718099330.900602102
1718099330.901609,,,,3.726698875,3.727589846,77831.000000000,1718099330.901609182
1718099330.902616,,,,3.759321928,3.758241415,77832.000000000,1718099330.902616262
1718099330.903176,0.660008311,15685.000000000,1718099330.903176308,,,,
1718099330.903623,,,,3.807090521,3.809567928,77833.000000000,1718099330.903623343
1718099330.904630,,,,3.814831495,3.817501307,77834.000000000,1718099330.904630423
1718099330.905638,,,,3.766413927,3.767641306,77835.000000000,1718099330.905637503
1718099330.906645,,,,3.716698170,3.717300415,77836.000000000,1718099330.906644583
1718099330.907652,,,,3.654962063,3.655275822,77837.000000000,1718099330.907651663
1718099330.908176,0.836737633,15686.000000000,1718099330.908176422,,,,
1718099330.908659,,,,3.571877956,3.570364475,77838.000000000,1718099330.908658743
1718099330.909666,,,,3.510718822,3.509181499,77839.000000000,1718099330.909665823
1718099330.910673,,,,3.493601799,3.492377043,77840.000000000,1718099330.910672903
1718099330.911680,,,,3.446722746,3.445954800,77841.000000000,1718099330.911679983
1718099330.912687,,,,3.387823343,3.387969017,77842.000000000,1718099330.912687063
1718099330.913176,0.907430172,15687.000000000,1718099330.913176298,,,,
1718099330.913694,,,,3.394025803,3.395205259,77843.000000000,1718099330.913694143
1718099330.914701,,,,3.419244528,3.419317961,77844.000000000,1718099330.914701223
1718099330.915708,,,,3.425735474,3.426698208,77845.000000000,1718099330.915708303
1718099330.916715,,,,3.446434259,3.448478937,77846.000000000,1718099330.916715384
1718099330.917722,,,,3.482831717,3.486559153,77847.000000000,1718099330.917722464
1718099330.918176,1.048800349,15688.000000000,1718099330.918176413,,,,
1718099330.918730,,,,3.515791178,3.520768881,77848.000000000,1718099330.918729544
1718099330.919737,,,,3.541803122,3.544040203,77849.000000000,1718099330.919736624
1718099330.920744,,,,3.526441336,3.528389692,77850.000000000,1718099330.920743704
1718099330.921751,,,,3.514420986,3.514422178,77851.000000000,1718099330.921750784
1718099330.922758,,,,3.510694742,3.512426853,77852.000000000,1718099330.922757864
1718099330.923765,,,,3.521296501,3.522812366,77853.000000000,1718099330.923764944
1718099330.924772,,,,3.561107635,3.562359095,77854.000000000,1718099330.924772024
1718099330.925779,,,,3.597120523,3.595126390,77855.000000000,1718099330.925779104
1718099330.926786,,,,3.669290066,3.666695118,77856.000000000,1718099330.926786184
1718099330.927793,,,,3.747133493,3.748865604,77857.000000000,1718099330.927793264
1718099330.928800,,,,3.906618357,3.908951521,77858.000000000,1718099330.928800344
1718099330.929807,,,,4.096178055,4.095842838,77859.000000000,1718099330.929807425
1718099330.930815,,,,4.208807945,4.208520889,77860.000000000,1718099330.930814505
1718099330.931822,,,,4.190369129,4.189937592,77861.000000000,1718099330.931821585
1718099330.932829,,,,4.055717945,4.055046082,77862.000000000,1718099330.932828665
1718099330.933176,1.720185280,15691.000000000,1718099330.933176279,,,,
1718099330.933836,,,,3.977345705,3.982395411,77863.000000000,1718099330.933835745
1718099330.934843,,,,3.988043785,3.989944220,77864.000000000,1718099330.934842825
1718099330.935850,,,,3.949723005,3.950902224,77865.000000000,1718099330.935849905
1718099330.936857,,,,3.838752031,3.840484142,77866.000000000,1718099330.936856985
1718099330.937864,,,,3.625271797,3.626066446,77867.000000000,1718099330.937864065
1718099330.938176,2.232412100,15692.000000000,1718099330.938176394,,,,
1718099330.938871,,,,3.475403070,3.476366043,77868.000000000,1718099330.938871145
1718099330.939878,,,,3.340800047,3.341666937,77869.000000000,1718099330.939878225
1718099330.940885,,,,3.202230453,3.200765371,77870.000000000,1718099330.940885305
1718099330.941892,,,,3.064454079,3.063541889,77871.000000000,1718099330.941892385
1718099330.942899,,,,3.074286699,3.073903322,77872.000000000,1718099330.942899466
1718099330.943176,2.726870298,15693.000000000,1718099330.943176270,,,,
1718099330.943907,,,,3.166241884,3.167853832,77873.000000000,1718099330.943906546
1718099330.944914,,,,3.243363857,3.243773699,77874.000000000,1718099330.944913626
1718099330.945921,,,,3.287814856,3.287719965,77875.000000000,1718099330.945920706
1718099330.946928,,,,3.311422586,3.308466911,77876.000000000,1718099330.946927786
1718099330.947935,,,,3.312672615,3.314188480,77877.000000000,1718099330.947934866
1718099330.948176,3.362435818,15694.000000000,1718099330.948176384,,,,
1718099330.948942,,,,3.354190826,3.356451750,77878.000000000,1718099330.948941946
1718099330.949949,,,,3.452420473,3.453215122,77879.000000000,1718099330.949949026
1718099330.950956,,,,3.531129122,3.532356501,77880.000000000,1718099330.950956106
1718099330.951963,,,,3.596423149,3.598972797,77881.000000000,1718099330.951963186
1718099330.952970,,,,3.671550035,3.672585011,77882.000000000,1718099330.952970266
1718099330.953176,4.156628609,15695.000000000,1718099330.953176260,,,,
1718099330.953977,,,,3.716914415,3.717204332,77883.000000000,1718099330.953977346
1718099330.954984,,,,3.765788794,3.765886307,77884.000000000,1718099330.954984426
1718099330.955992,,,,3.797570467,3.798533440,77885.000000000,1718099330.955991507
1718099330.956999,,,,3.794878006,3.795624495,77886.000000000,1718099330.956998587
1718099330.958006,,,,3.752710819,3.752880335,77887.000000000,1718099330.958005667
1718099330.958176,5.021081448,15696.000000000,1718099330.958176374,,,,
1718099330.959013,,,,3.760211468,3.759106874,77888.000000000,1718099330.959012747
1718099330.960020,,,,3.997611761,3.998767138,77889.000000000,1718099330.960019827
1718099330.961027,,,,4.145989895,4.147698402,77890.000000000,1718099330.961026907
1718099330.962034,,,,4.086537838,4.090650082,77891.000000000,1718099330.962033987
1718099330.963041,,,,3.982706785,3.986891031,77892.000000000,1718099330.963041067
1718099330.963176,6.149643421,15697.000000000,1718099330.963176250,,,,
1718099330.964048,,,,3.841660738,3.842936277,77893.000000000,1718099330.964048147
1718099330.965055,,,,3.753528118,3.752038956,77894.000000000,1718099330.965055227
1718099330.966062,,,,3.710880280,3.710040092,77895.000000000,1718099330.966062307
1718099330.967069,,,,3.721313953,3.723839521,77896.000000000,1718099330.967069387
1718099330.968076,,,,3.621762037,3.623782635,77897.000000000,1718099330.968076468
1718099330.968176,7.418570518,15698.000000000,1718099330.968176365,,,,
1718099330.969084,,,,3.500886202,3.501801014,77898.000000000,1718099330.969083548
1718099330.970091,,,,3.376307964,3.375612020,77899.000000000,1718099330.970090628
1718099330.971098,,,,3.257018805,3.257068157,77900.000000000,1718099330.971097708
1718099330.972105,,,,3.222616911,3.225070238,77901.000000000,1718099330.972104788
1718099330.973112,,,,3.310701370,3.313755751,77902.000000000,1718099330.973111868
1718099330.973176,8.950869560,15699.000000000,1718099330.973176241,,,,
1718099330.974119,,,,3.473648310,3.476558447,77903.000000000,1718099330.974118948
1718099330.975126,,,,3.715303659,3.719632387,77904.000000000,1718099330.975126028
1718099330.976133,,,,3.834424734,3.837815523,77905.000000000,1718099330.976133108
1718099330.977140,,,,3.727997065,3.731652498,77906.000000000,1718099330.977140188
1718099330.977805,12.978919029,15701.000000000,1718099330.977805376,,,,
1718099330.978147,,,,3.727444172,3.730570793,77907.000000000,1718099330.978147268
1718099330.978176,10.833917618,15700.000000000,1718099330.978176355,,,,
1718099330.979154,,,,3.889357328,3.891402006,77908.000000000,1718099330.979154348
1718099330.980161,,,,4.022205353,4.022927761,77909.000000000,1718099330.980161428
1718099330.981169,,,,4.009824276,4.012398243,77910.000000000,1718099330.981168509
1718099330.982176,,,,3.881351709,3.881737709,77911.000000000,1718099330.982175589
1718099330.982805,15.332435608,15702.000000000,1718099330.982805490,,,,
1718099330.983183,,,,3.716048956,3.716459036,77912.000000000,1718099330.983182669
1718099330.984190,,,,3.620055199,3.620849609,77913.000000000,1718099330.984189749
1718099330.985197,,,,3.594091415,3.595270634,77914.000000000,1718099330.985196829
1718099330.986204,,,,3.481269121,3.482592583,77915.000000000,1718099330.986203909
1718099330.987211,,,,3.341305017,3.342628479,77916.000000000,1718099330.987210989
1718099330.987805,18.121654510,15703.000000000,1718099330.987805367,,,,
1718099330.988218,,,,3.286708832,3.288008451,77917.000000000,1718099330.988218069
1718099330.989225,,,,3.387294531,3.388834476,77918.000000000,1718099330.989225149
1718099330.990232,,,,3.608731985,3.610488176,77919.000000000,1718099330.990232229
1718099330.991239,,,,3.847214222,3.847287655,77920.000000000,1718099330.991239309
1718099330.992246,,,,3.963426113,3.964244843,77921.000000000,1718099330.992246389
1718099330.992805,21.152311325,15704.000000000,1718099330.992805481,,,,
1718099330.993253,,,,3.887842655,3.888637304,77922.000000000,1718099330.993253469
1718099330.994261,,,,3.791103601,3.793701172,77923.000000000,1718099330.994260550
1718099330.995268,,,,3.745522738,3.748961687,77924.000000000,1718099330.995267630
1718099330.996275,,,,3.712274551,3.714030743,77925.000000000,1718099330.996274710
1718099330.997282,,,,3.701360226,3.700327635,77926.000000000,1718099330.997281790
1718099330.997805,24.720441818,15705.000000000,1718099330.997805357,,,,
1718099330.998289,,,,4.012588978,4.014706135,77927.000000000,1718099330.998288870
1718099330.999296,,,,4.353652477,4.355624676,77928.000000000,1718099330.999295950
1718099331.000303,,,,4.298046589,4.299899101,77929.000000000,1718099331.000303030
1718099331.001310,,,,4.121348381,4.123369217,77930.000000000,1718099331.001310110
1718099331.002317,,,,4.098005295,4.097453594,77931.000000000,1718099331.002317190
1718099331.003324,,,,4.040211678,4.041006088,77932.000000000,1718099331.003324270
1718099331.004331,,,,3.934818029,3.936381817,77933.000000000,1718099331.004331350
1718099331.005338,,,,3.765740871,3.767424822,77934.000000000,1718099331.005338430
1718099331.006346,,,,3.350007772,3.351403236,77935.000000000,1718099331.006345510
1718099331.007353,,,,2.962642431,2.964398623,77936.000000000,1718099331.007352591
1718099331.008360,,,,2.944780350,2.947882891,77937.000000000,1718099331.008359671
1718099331.009367,,,,3.027936459,3.030341864,77938.000000000,1718099331.009366751
1718099331.010374,,,,3.231151342,3.233700752,77939.000000000,1718099331.010373831
1718099331.011381,,,,3.423115015,3.424534559,77940.000000000,1718099331.011380911
1718099331.012388,,,,3.433212042,3.434150934,77941.000000000,1718099331.012387991
1718099331.013395,,,,3.482903719,3.484227419,77942.000000000,1718099331.013395071
1718099331.014402,,,,3.624646902,3.624455690,77943.000000000,1718099331.014402151
1718099331.015409,,,,3.783939600,3.782907009,77944.000000000,1718099331.015409231
1718099331.016416,,,,3.746243954,3.744634390,77945.000000000,1718099331.016416311
1718099331.017423,,,,3.543413877,3.544376850,77946.000000000,1718099331.017423391
1718099331.018430,,,,3.381212234,3.383882046,77947.000000000,1718099331.018430471
1718099331.019438,,,,3.674867630,3.678667307,77948.000000000,1718099331.019437551
1718099331.020445,,,,4.284439564,4.287758350,77949.000000000,1718099331.020444632
1718099331.021452,,,,4.492125988,4.493088722,77950.000000000,1718099331.021451712
1718099331.022459,,,,4.318624973,4.318145752,77951.000000000,1718099331.022458792
1718099331.023466,,,,3.931933165,3.933376789,77952.000000000,1718099331.023465872
1718099331.024473,,,,3.569473743,3.572119474,77953.000000000,1718099331.024472952
1718099331.025480,,,,3.300748587,3.304980993,77954.000000000,1718099331.025480032
1718099331.027805,53.857940674,15711.000000000,1718099331.027805328,,,,
1718099331.032805,60.052280426,15712.000000000,1718099331.032805443,,,,
1718099331.037805,66.639091492,15713.000000000,1718099331.037805319,,,,
1718099331.039579,,,,3.908613682,3.909769058,77968.000000000,1718099331.039579153
1718099331.040586,,,,3.638998985,3.641909122,77969.000000000,1718099331.040586233
1718099331.041593,,,,3.397800207,3.399147749,77970.000000000,1718099331.041593313
1718099331.042600,,,,2.992669106,2.995242596,77971.000000000,1718099331.042600393
1718099331.042805,73.375602722,15714.000000000,1718099331.042805433,,,,
1718099331.043607,,,,2.828183651,2.831622839,77972.000000000,1718099331.043607473
1718099331.044615,,,,2.877827406,2.880569220,77973.000000000,1718099331.044614553
1718099331.045622,,,,2.967306376,2.968221188,77974.000000000,1718099331.045621634
1718099331.046629,,,,3.408402205,3.411745071,77975.000000000,1718099331.046628714
1718099331.047636,,,,3.960541248,3.962081194,77976.000000000,1718099331.047635794
1718099331.047805,80.328392029,15715.000000000,1718099331.047805309,,,,
1718099331.048643,,,,4.143658161,4.142361164,77977.000000000,1718099331.048642874
1718099331.049650,,,,3.876784086,3.876136303,77978.000000000,1718099331.049649954
1718099331.050657,,,,3.796272278,3.797764063,77979.000000000,1718099331.050657034
1718099331.051664,,,,4.133801460,4.135918140,77980.000000000,1718099331.051664114
1718099331.052671,,,,4.356849670,4.359856129,77981.000000000,1718099331.052671194
1718099331.052805,87.444419861,15716.000000000,1718099331.052805424,,,,
1718099331.053678,,,,4.244772434,4.246072292,77982.000000000,1718099331.053678274
1718099331.054685,,,,3.825842142,3.826684952,77983.000000000,1718099331.054685354
1718099331.055692,,,,3.355993748,3.354119778,77984.000000000,1718099331.055692434
1718099331.056700,,,,3.347122908,3.348710775,77985.000000000,1718099331.056699514
1718099331.057707,,,,3.930130005,3.934626818,77986.000000000,1718099331.057706594
1718099331.057805,94.586929321,15717.000000000,1718099331.057805300,,,,
1718099331.058714,,,,4.129402161,4.133778572,77987.000000000,1718099331.058713675
1718099331.059721,,,,3.751845360,3.754851818,77988.000000000,1718099331.059720755
1718099331.060728,,,,3.521801472,3.521754503,77989.000000000,1718099331.060727835
1718099331.061735,,,,3.787617683,3.789229631,77990.000000000,1718099331.061734915
1718099331.062742,,,,4.201475620,4.201572895,77991.000000000,1718099331.062741995
1718099331.062805,101.688415527,15718.000000000,1718099331.062805414,,,,
1718099331.063749,,,,3.951646328,3.953811169,77992.000000000,1718099331.063749075
1718099331.064756,,,,3.312336206,3.311856508,77993.000000000,1718099331.064756155
1718099331.065763,,,,3.166193724,3.167661428,77994.000000000,1718099331.065763235
1718099331.066770,,,,3.180762291,3.182133913,77995.000000000,1718099331.066770315
1718099331.067777,,,,3.159486294,3.156987429,77996.000000000,1718099331.067777395
1718099331.067805,108.900505066,15719.000000000,1718099331.067805290,,,,
1718099331.068784,,,,2.871240377,2.871217489,77997.000000000,1718099331.068784475
1718099331.069792,,,,2.804696083,2.805634975,77998.000000000,1718099331.069791555
1718099331.070799,,,,2.842824459,2.845085382,77999.000000000,1718099331.070798635
1718099331.071806,,,,3.165448427,3.168767214,78000.000000000,1718099331.071805716
1718099331.072805,115.988121033,15720.000000000,1718099331.072805405,,,,
1718099331.072813,,,,3.544255257,3.544905663,78001.000000000,1718099331.072812796
1718099331.073820,,,,3.942150354,3.942415953,78002.000000000,1718099331.073819876
1718099331.074827,,,,4.079301357,4.080192566,78003.000000000,1718099331.074826956
1718099331.075834,,,,3.718621254,3.721747875,78004.000000000,1718099331.075834036
1718099331.076841,,,,3.263005018,3.266419888,78005.000000000,1718099331.076841116
1718099331.077848,,,,3.095562696,3.095996618,78006.000000000,1718099331.077848196
1718099331.078855,,,,3.425687313,3.427371502,78007.000000000,1718099331.078855276
1718099331.079862,,,,3.797233820,3.799038172,78008.000000000,1718099331.079862356
1718099331.080869,,,,3.786656141,3.788292170,78009.000000000,1718099331.080869436
1718099331.081877,,,,3.770044088,3.769299984,78010.000000000,1718099331.081876516
1718099331.082884,,,,3.774683952,3.774829388,78011.000000000,1718099331.082883596
1718099331.083891,,,,3.766750574,3.766847849,78012.000000000,1718099331.083890676
1718099331.084898,,,,3.557261229,3.558560610,78013.000000000,1718099331.084897757
1718099331.085905,,,,3.003535271,3.005099297,78014.000000000,1718099331.085904837
1718099331.086912,,,,2.513060331,2.512869120,78015.000000000,1718099331.086911917
1718099331.087919,,,,2.507458687,2.508157253,78016.000000000,1718099331.087918997
1718099331.089933,,,,3.504997015,3.507594824,78018.000000000,1718099331.089933157
1718099331.090940,,,,3.852767467,3.854139090,78019.000000000,1718099331.090940237
1718099331.091947,,,,3.920754194,3.921741247,78020.000000000,1718099331.091947317
1718099331.092954,,,,3.788170576,3.787763119,78021.000000000,1718099331.092954397
1718099331.093961,,,,3.551948309,3.554185390,78022.000000000,1718099331.093961477
1718099331.094969,,,,3.374552965,3.375588179,78023.000000000,1718099331.094968557
1718099331.095976,,,,3.190378428,3.194130182,78024.000000000,1718099331.095975637
1718099331.096983,,,,2.974879026,2.976370811,78025.000000000,1718099331.096982718
1718099331.097990,,,,2.804768085,2.806187868,78026.000000000,1718099331.097989798
1718099331.098997,,,,2.832991838,2.836166382,78027.000000000,1718099331.098996878
1718099331.100004,,,,2.971898079,2.973966837,78028.000000000,1718099331.100003958
1718099331.101011,,,,3.099865913,3.098400593,78029.000000000,1718099331.101011038
1718099331.102018,,,,3.263461828,3.266179562,78030.000000000,1718099331.102018118
1718099331.103025,,,,3.409219503,3.409509420,78031.000000000,1718099331.103025198
1718099331.104032,,,,3.552597284,3.548559904,78032.000000000,1718099331.104032278
1718099331.105039,,,,3.594139338,3.595823526,78033.000000000,1718099331.105039358
1718099331.106046,,,,3.568920851,3.572672367,78034.000000000,1718099331.106046438
1718099331.107054,,,,3.082869053,3.082245350,78035.000000000,1718099331.107053518
1718099331.108061,,,,2.962834835,2.966153622,78036.000000000,1718099331.108060598
1718099331.109068,,,,3.028609753,3.029500484,78037.000000000,1718099331.109067678
1718099331.110075,,,,3.124627590,3.128066778,78038.000000000,1718099331.110074759
1718099331.111082,,,,3.361018181,3.365154505,78039.000000000,1718099331.111081839
1718099331.112089,,,,3.852527142,3.855629683,78040.000000000,1718099331.112088919
1718099331.113096,,,,4.363028049,4.363990784,78041.000000000,1718099331.113095999
1718099331.114103,,,,4.458877563,4.461787701,78042.000000000,1718099331.114103079
1718099331.115110,,,,4.462940693,4.467052937,78043.000000000,1718099331.115110159
1718099331.116117,,,,4.659543991,4.663680553,78044.000000000,1718099331.116117239
1718099331.117124,,,,4.594346046,4.594732285,78045.000000000,1718099331.117124319
1718099331.118131,,,,4.361008644,4.361947536,78046.000000000,1718099331.118131399
1718099331.119138,,,,3.880462170,3.880559683,78047.000000000,1718099331.119138479
1718099331.120146,,,,3.616617203,3.617604256,78048.000000000,1718099331.120145559
1718099331.121153,,,,3.538581610,3.540650368,78049.000000000,1718099331.121152639
1718099331.122160,,,,3.094600916,3.096020699,78050.000000000,1718099331.122159719
1718099331.122167,183.805007935,15731.000000000,1718099331.122167349,,,,
1718099331.123167,,,,2.919273376,2.920067787,78051.000000000,1718099331.123166800
1718099331.124174,,,,2.798589706,2.800273895,78052.000000000,1718099331.124173880
1718099331.125181,,,,2.878476381,2.880929947,78053.000000000,1718099331.125180960
1718099331.126188,,,,2.983750105,2.984184027,78054.000000000,1718099331.126188040
1718099331.127167,188.472747803,15732.000000000,1718099331.127167463,,,,
1718099331.127195,,,,2.716058493,2.714713573,78055.000000000,1718099331.127195120
1718099331.128202,,,,2.507987738,2.507988930,78056.000000000,1718099331.128202200
1718099331.129209,,,,2.449232578,2.445555687,78057.000000000,1718099331.129209280
1718099331.130216,,,,2.765125275,2.766184330,78058.000000000,1718099331.130216360
1718099331.131223,,,,2.868908405,2.869558811,78059.000000000,1718099331.131223440
1718099331.132167,192.955001831,15733.000000000,1718099331.132167339,,,,
1718099331.132231,,,,2.779092789,2.780248165,78060.000000000,1718099331.132230520
1718099331.133238,,,,2.911964893,2.916341543,78061.000000000,1718099331.133237600
1718099331.134245,,,,3.139580727,3.140760183,78062.000000000,1718099331.134244680
1718099331.135252,,,,3.222184181,3.224877834,78063.000000000,1718099331.135251760
1718099331.136259,,,,3.294858694,3.296254396,78064.000000000,1718099331.136258841
1718099331.137167,197.058410645,15734.000000000,1718099331.137167454,,,,
1718099331.137266,,,,3.280650616,3.281445265,78065.000000000,1718099331.137265921
1718099331.138273,,,,3.187493563,3.189730644,78066.000000000,1718099331.138273001
1718099331.139280,,,,3.124290943,3.124701023,78067.000000000,1718099331.139280081
1718099331.140287,,,,3.175713778,3.177397966,78068.000000000,1718099331.140287161
1718099331.141294,,,,3.239300966,3.239206076,78069.000000000,1718099331.141294241
1718099331.142167,200.784469604,15735.000000000,1718099331.142167330,,,,
1718099331.142301,,,,3.478023529,3.480116367,78070.000000000,1718099331.142301321
1718099331.143308,,,,4.332785130,4.334877968,78071.000000000,1718099331.143308401
1718099331.144315,,,,4.987649441,4.990150928,78072.000000000,1718099331.144315481
1718099331.145323,,,,5.034240246,5.036933899,78073.000000000,1718099331.145322561
1718099331.146330,,,,4.807297230,4.809077740,78074.000000000,1718099331.146329641
1718099331.147167,204.361068726,15736.000000000,1718099331.147167444,,,,
1718099331.147337,,,,4.398271561,4.398320675,78075.000000000,1718099331.147336721
1718099331.148344,,,,3.939962626,3.938232899,78076.000000000,1718099331.148343801
1718099331.149351,,,,3.427706718,3.429126501,78077.000000000,1718099331.149350882
1718099331.150358,,,,3.081715107,3.082293510,78078.000000000,1718099331.150357962
1718099331.151365,,,,2.879438162,2.882997274,78079.000000000,1718099331.151365042
1718099331.152167,207.772613525,15737.000000000,1718099331.152167320,,,,
1718099331.152372,,,,2.840324163,2.841695786,78080.000000000,1718099331.152372122
1718099331.153379,,,,3.064045429,3.063229322,78081.000000000,1718099331.153379202
1718099331.154386,,,,3.597577095,3.599357367,78082.000000000,1718099331.154386282
1718099331.155393,,,,3.961022139,3.961816788,78083.000000000,1718099331.155393362
1718099331.156400,,,,3.773145199,3.773723602,78084.000000000,1718099331.156400442
1718099331.157167,210.938919067,15738.000000000,1718099331.157167435,,,,
1718099331.157408,,,,3.671261549,3.672392607,78085.000000000,1718099331.157407522
1718099331.158415,,,,3.671910524,3.672849417,78086.000000000,1718099331.158414602
1718099331.159422,,,,3.742060900,3.743696928,78087.000000000,1718099331.159421682
1718099331.160429,,,,3.585484743,3.586904526,78088.000000000,1718099331.160428762
1718099331.161436,,,,3.186051130,3.188841105,78089.000000000,1718099331.161435843
1718099331.162167,214.199600220,15739.000000000,1718099331.162167311,,,,
1718099331.162443,,,,3.135205507,3.140255213,78090.000000000,1718099331.162442923
1718099331.163450,,,,3.816273928,3.820602655,78091.000000000,1718099331.163450003
1718099331.164457,,,,4.372524261,4.375241756,78092.000000000,1718099331.164457083
1718099331.165464,,,,4.343338966,4.343628407,78093.000000000,1718099331.165464163
1718099331.166471,,,,3.905127764,3.907052279,78094.000000000,1718099331.166471243
1718099331.167167,217.409362793,15740.000000000,1718099331.167167425,,,,
1718099331.167478,,,,3.615848064,3.617123365,78095.000000000,1718099331.167478323
1718099331.168485,,,,3.325077534,3.324886560,78096.000000000,1718099331.168485403
1718099331.169492,,,,3.312552452,3.310750723,78097.000000000,1718099331.169492483
1718099331.170500,,,,3.360489368,3.359096289,78098.000000000,1718099331.170499563
1718099331.171507,,,,2.978340864,2.977308512,78099.000000000,1718099331.171506643
1718099331.172514,,,,2.509646416,2.509142876,78100.000000000,1718099331.172513723
1718099331.173521,,,,2.556333303,2.560878038,78101.000000000,1718099331.173520803
1718099331.174528,,,,2.993486404,2.994641542,78102.000000000,1718099331.174527884
1718099331.175535,,,,2.929730892,2.930453300,78103.000000000,1718099331.175534964
1718099331.176542,,,,2.650620222,2.651919603,78104.000000000,1718099331.176542044
1718099331.177549,,,,2.554698467,2.554916143,78105.000000000,1718099331.177549124
1718099331.178556,,,,2.695936680,2.700818062,78106.000000000,1718099331.178556204
1718099331.179563,,,,2.939419270,2.940646648,78107.000000000,1718099331.179563284
1718099331.180570,,,,3.086884022,3.088856459,78108.000000000,1718099331.180570364
1718099331.181577,,,,3.355416775,3.359216452,78109.000000000,1718099331.181577444
1718099331.182585,,,,3.682512522,3.683331013,78110.000000000,1718099331.182584524
1718099331.183592,,,,3.759538412,3.758409739,78111.000000000,1718099331.183591604
1718099331.184599,,,,3.977537870,3.979150057,78112.000000000,1718099331.184598684
1718099331.185606,,,,4.114497185,4.115459919,78113.000000000,1718099331.185605764
1718099331.186613,,,,4.009319782,4.009080410,78114.000000000,1718099331.186612844
1718099331.187620,,,,3.663977146,3.662920713,78115.000000000,1718099331.187619925
1718099331.188627,,,,3.577238798,3.577456474,78116.000000000,1718099331.188627005
1718099331.189634,,,,3.669242144,3.671911716,78117.000000000,1718099331.189634085
1718099331.190641,,,,3.536682606,3.539328337,78118.000000000,1718099331.190641165
1718099331.191648,,,,3.768890142,3.772184849,78119.000000000,1718099331.191648245
1718099331.192655,,,,3.685469389,3.685302496,78120.000000000,1718099331.192655325
1718099331.193662,,,,3.455401421,3.457157612,78121.000000000,1718099331.193662405
1718099331.194669,,,,3.968715191,3.970399141,78122.000000000,1718099331.194669485
1718099331.195677,,,,4.350574970,4.351922512,78123.000000000,1718099331.195676565
1718099331.196684,,,,4.309730053,4.309491158,78124.000000000,1718099331.196683645
1718099331.197691,,,,4.125723839,4.126927376,78125.000000000,1718099331.197690725
1718099331.198698,,,,3.427418232,3.426289558,78126.000000000,1718099331.198697805
1718099331.199705,,,,2.778515816,2.777843952,78127.000000000,1718099331.199704885
1718099331.200712,,,,2.568641901,2.570085764,78128.000000000,1718099331.200711966
1718099331.201719,,,,2.657712221,2.660237789,78129.000000000,1718099331.201719046
1718099331.202726,,,,2.683723927,2.685119629,78130.000000000,1718099331.202726126
1718099331.203733,,,,2.824769974,2.824867249,78131.000000000,1718099331.203733206
1718099331.204740,,,,3.021036863,3.019090891,78132.000000000,1718099331.204740286
1718099331.205747,,,,3.248580694,3.248942614,78133.000000000,1718099331.205747366
1718099331.206754,,,,3.447083473,3.447132826,78134.000000000,1718099331.206754446
1718099331.207762,,,,3.564112663,3.563344717,78135.000000000,1718099331.207761526
1718099331.208769,,,,3.469994068,3.470115423,78136.000000000,1718099331.208768606
1718099331.209776,,,,3.281011343,3.280483723,78137.000000000,1718099331.209775686
1718099331.210783,,,,3.223338127,3.223868132,78138.000000000,1718099331.210782766
1718099331.211790,,,,3.281516075,3.282695532,78139.000000000,1718099331.211789846
1718099331.212797,,,,3.538028717,3.541756392,78140.000000000,1718099331.212796926
1718099331.213804,,,,3.613972902,3.611161470,78141.000000000,1718099331.213804007
1718099331.214811,,,,3.526441336,3.525024176,78142.000000000,1718099331.214811087
1718099331.215818,,,,3.354623556,3.356884480,78143.000000000,1718099331.215818167
1718099331.216825,,,,3.136551619,3.138355970,78144.000000000,1718099331.216825247
1718099331.217832,,,,3.031542540,3.034140348,78145.000000000,1718099331.217832327
1718099331.218839,,,,2.947641134,2.948099136,78146.000000000,1718099331.218839407
1718099331.219846,,,,2.866312027,2.865255356,78147.000000000,1718099331.219846487
1718099331.220854,,,,3.122488022,3.124220133,78148.000000000,1718099331.220853567
1718099331.221861,,,,3.616713524,3.618349552,78149.000000000,1718099331.221860647
1718099331.222868,,,,4.296483994,4.300115108,78150.000000000,1718099331.222867727
1718099331.223875,,,,5.246061325,5.250485897,78151.000000000,1718099331.223874807
1718099331.224882,,,,5.705812454,5.706294537,78152.000000000,1718099331.224881887
1718099331.225811,246.545761108,15751.000000000,1718099331.225810528,,,,
1718099331.225889,,,,5.877991199,5.878953934,78153.000000000,1718099331.225888968
1718099331.226896,,,,5.769952774,5.768968582,78154.000000000,1718099331.226896048
1718099331.227903,,,,5.048231602,5.049122334,78155.000000000,1718099331.227903128
1718099331.228910,,,,3.967729330,3.967057467,78156.000000000,1718099331.228910208
1718099331.229917,,,,3.028393269,3.025774240,78157.000000000,1718099331.229917288
1718099331.230811,248.390762329,15752.000000000,1718099331.230810642,,,,
1718099331.230924,,,,2.281501770,2.278449774,78158.000000000,1718099331.230924368
1718099331.231931,,,,1.509415627,1.509633303,78159.000000000,1718099331.231931448
1718099331.232939,,,,1.444770575,1.445060372,78160.000000000,1718099331.232938528
1718099331.233946,,,,1.950992346,1.953373671,78161.000000000,1718099331.233945608
1718099331.234953,,,,2.612756252,2.614921331,78162.000000000,1718099331.234952688
1718099331.235811,250.155197144,15753.000000000,1718099331.235810518,,,,
1718099331.235960,,,,3.214779615,3.217377186,78163.000000000,1718099331.235959768
1718099331.236967,,,,3.282213449,3.285412073,78164.000000000,1718099331.236966848
1718099331.237974,,,,3.206894398,3.210694075,78165.000000000,1718099331.237973928
1718099331.238981,,,,3.340151072,3.339743614,78166.000000000,1718099331.238981009
1718099331.239988,,,,3.202999830,3.204828024,78167.000000000,1718099331.239988089
1718099331.240811,251.759017944,15754.000000000,1718099331.240810633,,,,
1718099331.240995,,,,3.151456833,3.152588129,78168.000000000,1718099331.240995169
1718099331.242002,,,,3.145350456,3.146529913,78169.000000000,1718099331.242002249
1718099331.243009,,,,3.286949396,3.290700912,78170.000000000,1718099331.243009329
1718099331.244016,,,,3.571805716,3.573249340,78171.000000000,1718099331.244016409
1718099331.245023,,,,3.563199282,3.564811230,78172.000000000,1718099331.245023489
1718099331.245811,253.266387939,15755.000000000,1718099331.245810509,,,,
1718099331.246031,,,,3.427177906,3.429631233,78173.000000000,1718099331.246030569
1718099331.247038,,,,3.484370232,3.487833500,78174.000000000,1718099331.247037649
1718099331.248045,,,,3.559136391,3.562647581,78175.000000000,1718099331.248044729
1718099331.249052,,,,3.535312176,3.538222313,78176.000000000,1718099331.249051809
1718099331.250059,,,,3.360345125,3.361572504,78177.000000000,1718099331.250058889
1718099331.250811,254.645294189,15756.000000000,1718099331.250810623,,,,
1718099331.251066,,,,3.125541210,3.127585888,78178.000000000,1718099331.251065969
1718099331.252073,,,,3.001780510,3.004089594,78179.000000000,1718099331.252073050
1718099331.253080,,,,2.849675894,2.849581003,78180.000000000,1718099331.253080130
1718099331.254087,,,,2.908406973,2.908889055,78181.000000000,1718099331.254087210
1718099331.255094,,,,3.075945377,3.075610161,78182.000000000,1718099331.255094290
1718099331.255810,255.847747803,15757.000000000,1718099331.255810499,,,,
1718099331.256101,,,,3.168838263,3.169007778,78183.000000000,1718099331.256101370
1718099331.257108,,,,3.417705774,3.417779207,78184.000000000,1718099331.257108450
1718099331.258116,,,,3.839473248,3.841421604,78185.000000000,1718099331.258115530
1718099331.259123,,,,4.221597672,4.225565434,78186.000000000,1718099331.259122610
1718099331.260130,,,,4.540206909,4.544824123,78187.000000000,1718099331.260129690
1718099331.260811,256.825653076,15758.000000000,1718099331.260810614,,,,
1718099331.261137,,,,4.595644474,4.597664833,78188.000000000,1718099331.261136770
1718099331.262144,,,,4.585282803,4.591246128,78189.000000000,1718099331.262143850
1718099331.263151,,,,5.006761551,5.012580872,78190.000000000,1718099331.263150930
1718099331.264158,,,,4.955266953,4.958008766,78191.000000000,1718099331.264158010
1718099331.265165,,,,4.725030422,4.728517532,78192.000000000,1718099331.265165091
1718099331.265810,257.755462646,15759.000000000,1718099331.265810490,,,,
1718099331.266172,,,,4.412215233,4.415269375,78193.000000000,1718099331.266172171
1718099331.267179,,,,4.082547188,4.085000515,78194.000000000,1718099331.267179251
1718099331.268186,,,,3.179151535,3.177518129,78195.000000000,1718099331.268186331
1718099331.269193,,,,2.382976770,2.381872177,78196.000000000,1718099331.269193411
1718099331.270200,,,,2.463296413,2.465869904,78197.000000000,1718099331.270200491
1718099331.270811,258.556884766,15760.000000000,1718099331.270810604,,,,
1718099331.271208,,,,2.384010553,2.388098717,78198.000000000,1718099331.271207571
1718099331.272215,,,,2.550323009,2.555228710,78199.000000000,1718099331.272214651
1718099331.273222,,,,2.680550575,2.681585789,78200.000000000,1718099331.273221731
1718099331.274229,,,,2.728655815,2.729642868,78201.000000000,1718099331.274228811
1718099331.275236,,,,2.855589867,2.856721163,78202.000000000,1718099331.275235891
1718099331.276243,,,,2.935620785,2.934684515,78203.000000000,1718099331.276242971
1718099331.277250,,,,2.889919758,2.889608622,78204.000000000,1718099331.277250051
1718099331.278257,,,,2.875687838,2.876169920,78205.000000000,1718099331.278257132
1718099331.279264,,,,3.250239372,3.250649452,78206.000000000,1718099331.279264212
1718099331.280271,,,,3.707105875,3.708790064,78207.000000000,1718099331.280271292
1718099331.280589,259.342346191,15761.000000000,1718099331.280588627,,,,
1718099331.281278,,,,3.975903273,3.979774952,78208.000000000,1718099331.281278372
1718099331.282285,,,,3.937149763,3.939987898,78209.000000000,1718099331.282285452
1718099331.283293,,,,4.010641575,4.010931492,78210.000000000,1718099331.283292532
1718099331.284300,,,,3.959868193,3.958643436,78211.000000000,1718099331.284299612
1718099331.285307,,,,3.588105202,3.589452744,78212.000000000,1718099331.285306692
1718099331.285589,260.095672607,15762.000000000,1718099331.285588741,,,,
1718099331.286314,,,,3.393833637,3.395709991,78213.000000000,1718099331.286313772
1718099331.287321,,,,3.821610928,3.825290442,78214.000000000,1718099331.287320852
1718099331.288328,,,,3.819567680,3.821756601,78215.000000000,1718099331.288327932
1718099331.289335,,,,3.447323799,3.447878122,78216.000000000,1718099331.289335012
1718099331.290342,,,,3.382774830,3.381093502,78217.000000000,1718099331.290342093
1718099331.290589,260.800903320,15763.000000000,1718099331.290588617,,,,
1718099331.291349,,,,3.360537529,3.360394478,78218.000000000,1718099331.291349173
1718099331.292356,,,,3.239685535,3.239927292,78219.000000000,1718099331.292356253
1718099331.293363,,,,2.840059757,2.841840029,78220.000000000,1718099331.293363333
1718099331.294370,,,,2.719111681,2.720098734,78221.000000000,1718099331.294370413
1718099331.295377,,,,2.867537975,2.868789434,78222.000000000,1718099331.295377493
1718099331.295589,261.474029541,15764.000000000,1718099331.295588732,,,,
1718099331.296385,,,,3.514060259,3.517715693,78223.000000000,1718099331.296384573
1718099331.297392,,,,4.014055729,4.013912678,78224.000000000,1718099331.297391653
1718099331.298399,,,,4.358532429,4.357788563,78225.000000000,1718099331.298398733
1718099331.299406,,,,5.050347328,5.051430225,78226.000000000,1718099331.299405813
1718099331.300413,,,,5.523008347,5.526855946,78227.000000000,1718099331.300412893
1718099331.300589,262.115112305,15765.000000000,1718099331.300588608,,,,
1718099331.301420,,,,5.458363533,5.462139130,78228.000000000,1718099331.301419973
1718099331.302427,,,,5.044529438,5.045708656,78229.000000000,1718099331.302427053
1718099331.303434,,,,3.936188221,3.934458494,78230.000000000,1718099331.303434134
1718099331.304441,,,,3.137873888,3.137490511,78231.000000000,1718099331.304441214
1718099331.305448,,,,2.671583652,2.674685955,78232.000000000,1718099331.305448294
1718099331.305589,262.788238525,15766.000000000,1718099331.305588722,,,,
1718099331.306455,,,,2.231689692,2.232844830,78233.000000000,1718099331.306455374
1718099331.307462,,,,2.099611044,2.099804640,78234.000000000,1718099331.307462454
1718099331.308470,,,,2.411585093,2.413894176,78235.000000000,1718099331.308469534
1718099331.309477,,,,2.813470840,2.814097166,78236.000000000,1718099331.309476614
1718099331.310484,,,,2.896338701,2.895017624,78237.000000000,1718099331.310483694
1718099331.310589,263.333099365,15767.000000000,1718099331.310588598,,,,
1718099331.311491,,,,2.674011707,2.672185898,78238.000000000,1718099331.311490774
1718099331.312498,,,,2.666414738,2.668171167,78239.000000000,1718099331.312497854
1718099331.313505,,,,2.756446600,2.761472464,78240.000000000,1718099331.313504934
1718099331.314512,,,,3.019089699,3.023298025,78241.000000000,1718099331.314512014
1718099331.315519,,,,3.277597666,3.279810667,78242.000000000,1718099331.315519094
1718099331.316526,,,,3.531634092,3.533149719,78243.000000000,1718099331.316526175
1718099331.317533,,,,3.625271797,3.624864578,78244.000000000,1718099331.317533255
1718099331.318540,,,,3.571300983,3.572167635,78245.000000000,1718099331.318540335
1718099331.319547,,,,3.712611198,3.713405848,78246.000000000,1718099331.319547415
1718099331.320554,,,,3.614934444,3.613397121,78247.000000000,1718099331.320554495
1718099331.321562,,,,3.463935852,3.462350368,78248.000000000,1718099331.321561575
1718099331.322569,,,,3.418787718,3.422154665,78249.000000000,1718099331.322568655
1718099331.323576,,,,3.379168749,3.379458666,78250.000000000,1718099331.323575735
1718099331.324583,,,,3.442227125,3.443502665,78251.000000000,1718099331.324582815
1718099331.325590,,,,3.606929064,3.609719038,78252.000000000,1718099331.325589895
1718099331.326597,,,,3.677944660,3.680638552,78253.000000000,1718099331.326596975
1718099331.327604,,,,3.601495743,3.606353283,78254.000000000,1718099331.327604055
1718099331.328611,,,,4.051751137,4.056945324,78255.000000000,1718099331.328611135
1718099331.329618,,,,4.638652802,4.638702393,78256.000000000,1718099331.329618216
1718099331.330589,265.079895020,15771.000000000,1718099331.330588579,,,,
1718099331.330625,,,,4.905382633,4.907186985,78257.000000000,1718099331.330625296
1718099331.331632,,,,5.447713375,5.452835083,78258.000000000,1718099331.331632376
1718099331.332639,,,,5.711390018,5.713747025,78259.000000000,1718099331.332639456
1718099331.333647,,,,5.212645054,5.212309837,78260.000000000,1718099331.333646536
1718099331.334654,,,,4.114881516,4.116060734,78261.000000000,1718099331.334653616
1718099331.335589,265.432495117,15772.000000000,1718099331.335588694,,,,
1718099331.335661,,,,3.009281158,3.012696028,78262.000000000,1718099331.335660696
1718099331.336668,,,,2.014026642,2.013931751,78263.000000000,1718099331.336667776
1718099331.337675,,,,1.527373910,1.526702046,78264.000000000,1718099331.337674856
1718099331.338682,,,,1.666159987,1.665728569,78265.000000000,1718099331.338681936
1718099331.339689,,,,2.011502266,2.011407375,78266.000000000,1718099331.339689016
1718099331.340589,265.833129883,15773.000000000,1718099331.340588570,,,,
1718099331.340696,,,,2.476013660,2.476904631,78267.000000000,1718099331.340696096
1718099331.341703,,,,2.769861221,2.769454002,78268.000000000,1718099331.341703176
1718099331.342710,,,,3.058516026,3.060152054,78269.000000000,1718099331.342710257
1718099331.343717,,,,3.220068455,3.223507643,78270.000000000,1718099331.343717337
1718099331.344724,,,,3.245335102,3.248990536,78271.000000000,1718099331.344724417
1718099331.345589,266.153594971,15774.000000000,1718099331.345588684,,,,
1718099331.345731,,,,3.267500639,3.269352913,78272.000000000,1718099331.345731497
1718099331.346739,,,,3.316543341,3.318588018,78273.000000000,1718099331.346738577
1718099331.347746,,,,3.493481636,3.497040987,78274.000000000,1718099331.347745657
1718099331.348753,,,,3.868345737,3.870751143,78275.000000000,1718099331.348752737
1718099331.349760,,,,4.080888271,4.082259655,78276.000000000,1718099331.349759817
1718099331.350589,266.281799316,15775.000000000,1718099331.350588560,,,,
1718099331.350767,,,,3.993645191,3.992131948,78277.000000000,1718099331.350766897
1718099331.351774,,,,3.961863518,3.962393761,78278.000000000,1718099331.351773977
1718099331.352781,,,,4.420244694,4.420654774,78279.000000000,1718099331.352781057
1718099331.353788,,,,5.147759438,5.148842812,78280.000000000,1718099331.353788137
1718099331.354795,,,,5.260894299,5.263347626,78281.000000000,1718099331.354795218
1718099331.355589,266.522186279,15776.000000000,1718099331.355588675,,,,
1718099331.355802,,,,4.883794308,4.883434772,78282.000000000,1718099331.355802298
1718099331.356809,,,,4.425052643,4.425246239,78283.000000000,1718099331.356809378
1718099331.357816,,,,4.080840111,4.081899166,78284.000000000,1718099331.357816458
1718099331.358824,,,,3.539158583,3.537885904,78285.000000000,1718099331.358823538
1718099331.359831,,,,2.920547485,2.916678190,78286.000000000,1718099331.359830618
1718099331.360589,266.730529785,15777.000000000,1718099331.360588551,,,,
1718099331.360838,,,,2.584821224,2.582899332,78287.000000000,1718099331.360837698
1718099331.361845,,,,2.593812466,2.595280170,78288.000000000,1718099331.361844778
1718099331.362852,,,,2.795127869,2.797196627,78289.000000000,1718099331.362851858
1718099331.363859,,,,2.936390162,2.936703920,78290.000000000,1718099331.363858938
1718099331.364866,,,,2.740531921,2.743538141,78291.000000000,1718099331.364866018
1718099331.365589,266.922790527,15778.000000000,1718099331.365588665,,,,
1718099331.365873,,,,2.665284872,2.665117979,78292.000000000,1718099331.365873098
1718099331.366880,,,,2.785151005,2.786931276,78293.000000000,1718099331.366880178
1718099331.367887,,,,3.478312016,3.481967449,78294.000000000,1718099331.367887259
1718099331.368894,,,,4.561771393,4.566580772,78295.000000000,1718099331.368894339
1718099331.369901,,,,4.669857502,4.671445370,78296.000000000,1718099331.369901419
1718099331.370589,267.195251465,15779.000000000,1718099331.370588541,,,,
1718099331.370908,,,,4.229987621,4.231070995,78297.000000000,1718099331.370908499
1718099331.371916,,,,3.779371738,3.780262470,78298.000000000,1718099331.371915579
1718099331.372923,,,,3.638109446,3.639096498,78299.000000000,1718099331.372922659
1718099331.373930,,,,3.231584072,3.230335236,78300.000000000,1718099331.373929739
1718099331.374937,,,,2.629512548,2.629610062,78301.000000000,1718099331.374936819
1718099331.375589,267.499664307,15780.000000000,1718099331.375588655,,,,
1718099331.375944,,,,2.457863092,2.458585739,78302.000000000,1718099331.375943899
1718099331.376951,,,,2.594653845,2.594655037,78303.000000000,1718099331.376950979
1718099331.377958,,,,3.370225668,3.372486830,78304.000000000,1718099331.377958059
1718099331.378965,,,,4.661202908,4.665218830,78305.000000000,1718099331.378965139
1718099331.379972,,,,5.410330296,5.415331841,78306.000000000,1718099331.379972219
1718099331.380979,,,,5.189109325,5.190456867,78307.000000000,1718099331.380979300
1718099331.381986,,,,4.639085770,4.640240669,78308.000000000,1718099331.381986380
1718099331.382993,,,,3.966166735,3.967442274,78309.000000000,1718099331.382993460
1718099331.384001,,,,3.268798828,3.268824100,78310.000000000,1718099331.384000540
1718099331.385008,,,,2.620353222,2.621027470,78311.000000000,1718099331.385007620
1718099331.386015,,,,2.263230801,2.262198448,78312.000000000,1718099331.386014700
1718099331.387022,,,,2.436274767,2.435963392,78313.000000000,1718099331.387021780
1718099331.388029,,,,3.346377611,3.349239588,78314.000000000,1718099331.388028860
1718099331.389036,,,,3.931019545,3.934434652,78315.000000000,1718099331.389035940
1718099331.390043,,,,3.977898598,3.977707624,78316.000000000,1718099331.390043020
1718099331.391050,,,,3.911546707,3.913471222,78317.000000000,1718099331.391050100
1718099331.392057,,,,3.683546066,3.684557199,78318.000000000,1718099331.392057180
1718099331.393064,,,,3.722107172,3.723430634,78319.000000000,1718099331.393064260
1718099331.394071,,,,3.429533720,3.429342747,78320.000000000,1718099331.394071341
1718099331.395078,,,,2.765486002,2.764765978,78321.000000000,1718099331.395078421
1718099331.396086,,,,2.666126251,2.667257547,78322.000000000,1718099331.396085501
1718099331.397093,,,,2.650812626,2.652496576,78323.000000000,1718099331.397092581
1718099331.398100,,,,2.718510628,2.718463898,78324.000000000,1718099331.398099661
1718099331.399107,,,,2.901507378,2.901797056,78325.000000000,1718099331.399106741
1718099331.400114,,,,2.938097000,2.937833786,78326.000000000,1718099331.400113821
1718099331.401121,,,,2.997284889,2.997526407,78327.000000000,1718099331.401120901
1718099331.402128,,,,3.060872078,3.066162348,78328.000000000,1718099331.402127981
1718099331.403135,,,,3.284977913,3.289691210,78329.000000000,1718099331.403135061
1718099331.404142,,,,3.533100367,3.535553932,78330.000000000,1718099331.404142141
1718099331.405149,,,,3.619261742,3.621378660,78331.000000000,1718099331.405149221
1718099331.406156,,,,3.586758852,3.588250637,78332.000000000,1718099331.406156301
1718099331.407163,,,,3.581782579,3.581903934,78333.000000000,1718099331.407163382
1718099331.408170,,,,3.711168766,3.710112333,78334.000000000,1718099331.408170462
1718099331.409178,,,,3.859739304,3.861062765,78335.000000000,1718099331.409177542
1718099331.410185,,,,3.981071949,3.983693600,78336.000000000,1718099331.410184622
1718099331.411192,,,,4.408176422,4.409211159,78337.000000000,1718099331.411191702
1718099331.412199,,,,4.991760254,4.993468761,78338.000000000,1718099331.412198782
1718099331.413206,,,,4.941876411,4.944137573,78339.000000000,1718099331.413205862
1718099331.414213,,,,4.354301453,4.355288506,78340.000000000,1718099331.414212942
1718099331.415220,,,,3.485668421,3.485501528,78341.000000000,1718099331.415220022
1718099331.416227,,,,3.126021862,3.125782728,78342.000000000,1718099331.416227102
1718099331.417234,,,,3.043658972,3.044044971,78343.000000000,1718099331.417234182
1718099331.418241,,,,3.081498861,3.082918644,78344.000000000,1718099331.418241262
1718099331.419248,,,,3.381452799,3.384699583,78345.000000000,1718099331.419248343
1718099331.420255,,,,3.532138824,3.536755800,78346.000000000,1718099331.420255423
1718099331.421263,,,,4.089639187,4.092885971,78347.000000000,1718099331.421262503
1718099331.422270,,,,4.412984371,4.414355755,78348.000000000,1718099331.422269583
1718099331.423277,,,,4.061271191,4.064806461,78349.000000000,1718099331.423276663
1718099331.424284,,,,3.467253447,3.467759609,78350.000000000,1718099331.424283743
1718099331.425145,270.864837646,15791.000000000,1718099331.425144911,,,,
1718099331.425291,,,,3.001780510,3.000820160,78351.000000000,1718099331.425290823
1718099331.426298,,,,2.764452219,2.765198708,78352.000000000,1718099331.426297903
1718099331.427305,,,,2.825515270,2.827103138,78353.000000000,1718099331.427304983
1718099331.428312,,,,2.989063025,2.993127108,78354.000000000,1718099331.428312063
1718099331.429319,,,,3.306806803,3.309644938,78355.000000000,1718099331.429319143
1718099331.430145,271.009033203,15792.000000000,1718099331.430145025,,,,
1718099331.430326,,,,3.631642580,3.633711338,78356.000000000,1718099331.430326223
1718099331.431333,,,,3.806802034,3.811635494,78357.000000000,1718099331.431333303
1718099331.432340,,,,3.801368952,3.803557873,78358.000000000,1718099331.432340384
1718099331.433347,,,,3.773938656,3.775045872,78359.000000000,1718099331.433347464
1718099331.434355,,,,3.913758516,3.910682440,78360.000000000,1718099331.434354544
1718099331.435145,271.233398438,15793.000000000,1718099331.435144901,,,,
1718099331.435362,,,,3.717419386,3.716386795,78361.000000000,1718099331.435361624
1718099331.436369,,,,3.472181797,3.474202394,78362.000000000,1718099331.436368704
1718099331.437376,,,,3.530311823,3.531250715,78363.000000000,1718099331.437375784
1718099331.438383,,,,3.607169390,3.607314825,78364.000000000,1718099331.438382864
1718099331.439390,,,,3.582960606,3.584668636,78365.000000000,1718099331.439389944
1718099331.440145,271.505767822,15794.000000000,1718099331.440145016,,,,
1718099331.440397,,,,3.724751711,3.728960037,78366.000000000,1718099331.440397024
1718099331.441404,,,,3.929697275,3.932631493,78367.000000000,1718099331.441404104
1718099331.442411,,,,4.068243027,4.067282677,78368.000000000,1718099331.442411184
1718099331.443418,,,,3.661621094,3.659194469,78369.000000000,1718099331.443418264
1718099331.444425,,,,3.328683615,3.328973532,78370.000000000,1718099331.444425344
1718099331.445145,271.938446045,15795.000000000,1718099331.445144892,,,,
1718099331.445432,,,,3.306494236,3.309861183,78371.000000000,1718099331.445432425
1718099331.446440,,,,3.367100477,3.372534990,78372.000000000,1718099331.446439505
1718099331.447447,,,,3.873826981,3.878083467,78373.000000000,1718099331.447446585
1718099331.448454,,,,4.313264370,4.314227104,78374.000000000,1718099331.448453665
1718099331.449461,,,,3.638181686,3.637437582,78375.000000000,1718099331.449460745
1718099331.450145,272.387176514,15796.000000000,1718099331.450145006,,,,
1718099331.450468,,,,3.060222864,3.060801268,78376.000000000,1718099331.450467825
1718099331.451475,,,,3.149437428,3.151890755,78377.000000000,1718099331.451474905
1718099331.452482,,,,3.108352184,3.107271671,78378.000000000,1718099331.452481985
1718099331.453489,,,,3.462565422,3.463215828,78379.000000000,1718099331.453489065
1718099331.454496,,,,3.851613522,3.856254816,78380.000000000,1718099331.454496145
1718099331.455145,272.867889404,15797.000000000,1718099331.455144882,,,,
1718099331.455503,,,,4.436448097,4.440632343,78381.000000000,1718099331.455503225
1718099331.456510,,,,4.963272572,4.965774059,78382.000000000,1718099331.456510305
1718099331.457517,,,,5.153865814,5.156078815,78383.000000000,1718099331.457517385
1718099331.458524,,,,4.846555710,4.846749306,78384.000000000,1718099331.458524466
1718099331.459532,,,,3.994895220,3.995761871,78385.000000000,1718099331.459531546
1718099331.460145,273.460784912,15798.000000000,1718099331.460144997,,,,
1718099331.460539,,,,3.220669508,3.221584320,78386.000000000,1718099331.460538626
1718099331.461546,,,,3.108376265,3.112560511,78387.000000000,1718099331.461545706
1718099331.462553,,,,2.817629814,2.820636272,78388.000000000,1718099331.462552786
1718099331.463560,,,,2.052467346,2.050930262,78389.000000000,1718099331.463559866
1718099331.464567,,,,1.728977919,1.728570461,78390.000000000,1718099331.464566946
1718099331.465145,274.005676270,15799.000000000,1718099331.465144873,,,,
1718099331.465574,,,,1.896275997,1.896926403,78391.000000000,1718099331.465574026
1718099331.466581,,,,2.373745203,2.375741959,78392.000000000,1718099331.466581106
1718099331.467588,,,,2.852416515,2.855951786,78393.000000000,1718099331.467588186
1718099331.468595,,,,3.103351831,3.107487917,78394.000000000,1718099331.468595266
1718099331.469602,,,,3.178261995,3.180547237,78395.000000000,1718099331.469602346
1718099331.470145,274.550567627,15800.000000000,1718099331.470144987,,,,
1718099331.470609,,,,3.357243776,3.358375072,78396.000000000,1718099331.470609426
1718099331.471617,,,,3.489178419,3.491199017,78397.000000000,1718099331.471616507
1718099331.472624,,,,3.590557337,3.592313528,78398.000000000,1718099331.472623587
1718099331.473631,,,,3.813196898,3.812909603,78399.000000000,1718099331.473630667
1718099331.474638,,,,3.708355904,3.708790064,78400.000000000,1718099331.474637747
1718099331.475645,,,,3.601447821,3.602266312,78401.000000000,1718099331.475644827
1718099331.476652,,,,3.749152899,3.750740767,78402.000000000,1718099331.476651907
1718099331.477659,,,,3.979172707,3.982515574,78403.000000000,1718099331.477658987
1718099331.478666,,,,4.770875931,4.774266720,78404.000000000,1718099331.478666067
1718099331.479673,,,,5.270149708,5.274213791,78405.000000000,1718099331.479673147
1718099331.480680,,,,4.648197174,4.649785042,78406.000000000,1718099331.480680227
1718099331.481687,,,,4.161352158,4.161881924,78407.000000000,1718099331.481687307
1718099331.482694,,,,3.988308191,3.989511490,78408.000000000,1718099331.482694387
1718099331.483701,,,,4.087138653,4.089279652,78409.000000000,1718099331.483701468
1718099331.484709,,,,3.725208521,3.728527308,78410.000000000,1718099331.484708548
1718099331.485716,,,,3.116766453,3.119580269,78411.000000000,1718099331.485715628
1718099331.486723,,,,2.585879087,2.586288929,78412.000000000,1718099331.486722708
1718099331.487730,,,,2.452478170,2.452695608,78413.000000000,1718099331.487729788
1718099331.488737,,,,2.714688301,2.714785814,78414.000000000,1718099331.488736868
1718099331.489744,,,,2.844098568,2.844099760,78415.000000000,1718099331.489743948
1718099331.490751,,,,2.996130943,2.996396542,78416.000000000,1718099331.490751028
1718099331.491758,,,,3.046712160,3.049285889,78417.000000000,1718099331.491758108
1718099331.492765,,,,3.335775614,3.338253021,78418.000000000,1718099331.492765188
1718099331.493772,,,,3.774275303,3.777041197,78419.000000000,1718099331.493772268
1718099331.494779,,,,4.111011028,4.111613274,78420.000000000,1718099331.494779348
1718099331.495786,,,,4.370576859,4.371707916,78421.000000000,1718099331.495786428
1718099331.496794,,,,4.240781784,4.241937160,78422.000000000,1718099331.496793509
1718099331.497801,,,,3.844161034,3.845484495,78423.000000000,1718099331.497800589
1718099331.498808,,,,3.692945957,3.694990635,78424.000000000,1718099331.498807669
1718099331.499815,,,,3.488481283,3.487280369,78425.000000000,1718099331.499814749
1718099331.500822,,,,3.281900883,3.281685829,78426.000000000,1718099331.500821829
1718099331.501829,,,,3.162395239,3.161146402,78427.000000000,1718099331.501828909
1718099331.502836,,,,3.058540106,3.061570644,78428.000000000,1718099331.502835989
1718099331.503843,,,,3.121574402,3.124797106,78429.000000000,1718099331.503843069
1718099331.504850,,,,3.433933258,3.437997341,78430.000000000,1718099331.504850149
1718099331.505857,,,,3.476412773,3.478048801,78431.000000000,1718099331.505857229
1718099331.506864,,,,3.728237629,3.729969740,78432.000000000,1718099331.506864309
1718099331.507871,,,,3.987586975,3.989487410,78433.000000000,1718099331.507871389
1718099331.508878,,,,3.777688980,3.778243065,78434.000000000,1718099331.508878469
1718099331.509886,,,,4.246984482,4.250928402,78435.000000000,1718099331.509885550
1718099331.510893,,,,5.032148361,5.037077904,78436.000000000,1718099331.510892630
1718099331.511900,,,,5.231444836,5.236903191,78437.000000000,1718099331.511899710
1718099331.512907,,,,4.874490738,4.879348278,78438.000000000,1718099331.512906790
1718099331.513914,,,,4.861845493,4.867279530,78439.000000000,1718099331.513913870
1718099331.514921,,,,4.847493172,4.850691795,78440.000000000,1718099331.514920950
1718099331.515928,,,,3.906979084,3.908110142,78441.000000000,1718099331.515928030
1718099331.516935,,,,2.507338524,2.505921364,78442.000000000,1718099331.516935110
1718099331.517942,,,,1.708038568,1.711670041,78443.000000000,1718099331.517942190
1718099331.518949,,,,1.935606360,1.939093590,78444.000000000,1718099331.518949270
1718099331.519956,,,,2.329871178,2.330738068,78445.000000000,1718099331.519956350
1718099331.520963,,,,2.327924013,2.325232744,78446.000000000,1718099331.520963430
1718099331.521971,,,,2.564362764,2.565253496,78447.000000000,1718099331.521970510
1718099331.522978,,,,3.082628727,3.082630157,78448.000000000,1718099331.522977591
1718099331.523985,,,,3.213986397,3.214444399,78449.000000000,1718099331.523984671
1718099331.524992,,,,3.238339424,3.241610050,78450.000000000,1718099331.524991751
1718099331.525999,,,,3.414027691,3.419798613,78451.000000000,1718099331.525998831
1718099331.527006,,,,3.367773533,3.371885777,78452.000000000,1718099331.527005911
1718099331.528013,,,,3.214419127,3.215117455,78453.000000000,1718099331.528012991
1718099331.529020,,,,3.274039507,3.275531292,78454.000000000,1718099331.529020071
1718099331.530027,,,,3.055102348,3.054093838,78455.000000000,1718099331.530027151
1718099331.530162,277.066619873,15811.000000000,1718099331.530161619,,,,
1718099331.531034,,,,3.041471243,3.042770863,78456.000000000,1718099331.531034231
1718099331.532041,,,,3.709606171,3.715906143,78457.000000000,1718099331.532041311
1718099331.533048,,,,4.870043278,4.876006603,78458.000000000,1718099331.533048391
1718099331.534055,,,,5.756947041,5.760986805,78459.000000000,1718099331.534055471
1718099331.535063,,,,5.806350231,5.808082581,78460.000000000,1718099331.535062551
1718099331.535162,277.306976318,15812.000000000,1718099331.535161734,,,,
1718099331.536070,,,,5.214231491,5.213511467,78461.000000000,1718099331.536069632
1718099331.537077,,,,4.484216690,4.482919693,78462.000000000,1718099331.537076712
1718099331.538084,,,,3.744416714,3.744634390,78463.000000000,1718099331.538083792
1718099331.539091,,,,3.049212456,3.049526215,78464.000000000,1718099331.539090872
1718099331.540098,,,,2.414445877,2.414807796,78465.000000000,1718099331.540097952
1718099331.540162,277.531402588,15813.000000000,1718099331.540161610,,,,
1718099331.541105,,,,2.050520182,2.049223185,78466.000000000,1718099331.541105032
1718099331.542112,,,,2.306431770,2.307130098,78467.000000000,1718099331.542112112
1718099331.543119,,,,2.903166056,2.904345274,78468.000000000,1718099331.543119192
1718099331.544126,,,,2.954709053,2.954662323,78469.000000000,1718099331.544126272
1718099331.545133,,,,3.191989183,3.193408966,78470.000000000,1718099331.545133352
1718099331.545162,277.819854736,15814.000000000,1718099331.545161724,,,,
1718099331.546140,,,,3.652029037,3.654915094,78471.000000000,1718099331.546140432
1718099331.547148,,,,3.601351500,3.600054741,78472.000000000,1718099331.547147512
1718099331.548155,,,,3.461122990,3.460018396,78473.000000000,1718099331.548154593
1718099331.549162,,,,3.269952774,3.268054724,78474.000000000,1718099331.549161673
1718099331.550162,277.916015625,15815.000000000,1718099331.550161600,,,,
1718099331.550169,,,,3.276395559,3.277791262,78475.000000000,1718099331.550168753
1718099331.551176,,,,3.341377020,3.345825911,78476.000000000,1718099331.551175833
1718099331.552183,,,,3.012550592,3.015003920,78477.000000000,1718099331.552182913
1718099331.553190,,,,3.058780432,3.058300972,78478.000000000,1718099331.553189993
1718099331.554197,,,,3.400733232,3.400566339,78479.000000000,1718099331.554197073
1718099331.555162,277.980133057,15816.000000000,1718099331.555161715,,,,
1718099331.555204,,,,3.664409876,3.666622877,78480.000000000,1718099331.555204153
1718099331.556211,,,,3.665179253,3.668353796,78481.000000000,1718099331.556211233
1718099331.557218,,,,3.626954794,3.631018877,78482.000000000,1718099331.557218313
1718099331.558225,,,,3.681430578,3.682922363,78483.000000000,1718099331.558225393
1718099331.559232,,,,3.567117929,3.568248987,78484.000000000,1718099331.559232473
1718099331.560162,278.028228760,15817.000000000,1718099331.560161591,,,,
1718099331.560240,,,,3.423884153,3.425303936,78485.000000000,1718099331.560239553
1718099331.561247,,,,3.590317011,3.593106985,78486.000000000,1718099331.561246634
1718099331.562254,,,,4.167626381,4.167483807,78487.000000000,1718099331.562253714
1718099331.563261,,,,4.281771183,4.282757759,78488.000000000,1718099331.563260794
1718099331.564268,,,,3.849498034,3.852167845,78489.000000000,1718099331.564267874
1718099331.565162,278.044219971,15818.000000000,1718099331.565161705,,,,
1718099331.565275,,,,3.602216959,3.603540421,78490.000000000,1718099331.565274954
1718099331.566282,,,,3.503818989,3.505190611,78491.000000000,1718099331.566282034
1718099331.567289,,,,3.459632635,3.461484909,78492.000000000,1718099331.567289114
1718099331.568296,,,,3.165664911,3.164319754,78493.000000000,1718099331.568296194
1718099331.569303,,,,2.859917164,2.862106085,78494.000000000,1718099331.569303274
1718099331.570162,278.012176514,15819.000000000,1718099331.570161581,,,,
1718099331.570310,,,,2.857561111,2.863091707,78495.000000000,1718099331.570310354
1718099331.571317,,,,3.295507669,3.298898697,78496.000000000,1718099331.571317434
1718099331.572325,,,,3.672920227,3.675301552,78497.000000000,1718099331.572324514
1718099331.573332,,,,3.782665253,3.784758091,78498.000000000,1718099331.573331594
1718099331.573654,277.851928711,15821.000000000,1718099331.573653698,,,,
1718099331.574339,,,,3.735185146,3.738263845,78499.000000000,1718099331.574338675
1718099331.575162,277.916015625,15820.000000000,1718099331.575161695,,,,
1718099331.575346,,,,3.605798960,3.607387066,78500.000000000,1718099331.575345755
1718099331.576353,,,,3.640898228,3.642846823,78501.000000000,1718099331.576352835
1718099331.577360,,,,4.068988323,4.072258949,78502.000000000,1718099331.577359915
1718099331.578367,,,,4.577349663,4.583649635,78503.000000000,1718099331.578366995
1718099331.578654,277.771759033,15822.000000000,1718099331.578653812,,,,
1718099331.579374,,,,4.460608482,4.462268829,78504.000000000,1718099331.579374075
1718099331.580381,,,,4.102621078,4.103319168,78505.000000000,1718099331.580381155
1718099331.581388,,,,3.753167629,3.754202604,78506.000000000,1718099331.581388235
1718099331.582395,,,,3.604044199,3.604982853,78507.000000000,1718099331.582395315
1718099331.583402,,,,3.749874115,3.752664089,78508.000000000,1718099331.583402395
1718099331.584409,,,,4.302494049,4.302855968,78509.000000000,1718099331.584409475
1718099331.585417,,,,4.390049458,4.390652180,78510.000000000,1718099331.585416555
1718099331.586424,,,,4.012853622,4.015860081,78511.000000000,1718099331.586423635
1718099331.587431,,,,3.693619251,3.695976496,78512.000000000,1718099331.587430716
1718099331.588438,,,,3.101236105,3.100179672,78513.000000000,1718099331.588437796
1718099331.589445,,,,2.763370275,2.763035059,78514.000000000,1718099331.589444876
1718099331.590452,,,,2.786329031,2.787075520,78515.000000000,1718099331.590451956
1718099331.591459,,,,3.255985022,3.257885695,78516.000000000,1718099331.591459036
1718099331.592466,,,,3.317336559,3.316905022,78517.000000000,1718099331.592466116
1718099331.593473,,,,3.201677561,3.202664375,78518.000000000,1718099331.593473196
1718099331.594480,,,,3.284833670,3.286926508,78519.000000000,1718099331.594480276
1718099331.595487,,,,3.318009615,3.319862127,78520.000000000,1718099331.595487356
1718099331.596494,,,,3.117631912,3.123955727,78521.000000000,1718099331.596494436
1718099331.597502,,,,2.895088434,2.898551702,78522.000000000,1718099331.597501516
1718099331.598509,,,,2.835491896,2.836022139,78523.000000000,1718099331.598508596
1718099331.599516,,,,3.037312269,3.041761160,78524.000000000,1718099331.599515676
1718099331.600523,,,,3.699677467,3.704751253,78525.000000000,1718099331.600522757
1718099331.601530,,,,4.083220005,4.086491108,78526.000000000,1718099331.601529837
1718099331.602537,,,,4.243306160,4.246456623,78527.000000000,1718099331.602536917
1718099331.603544,,,,4.555665016,4.559945583,78528.000000000,1718099331.603543997
1718099331.604551,,,,4.825688362,4.827204227,78529.000000000,1718099331.604551077
1718099331.605558,,,,4.625045776,4.628268719,78530.000000000,1718099331.605558157
1718099331.606565,,,,4.244628429,4.246144295,78531.000000000,1718099331.606565237
1718099331.607572,,,,3.606856823,3.607771635,78532.000000000,1718099331.607572317
1718099331.608579,,,,3.051472187,3.054622889,78533.000000000,1718099331.608579397
1718099331.609586,,,,3.120204210,3.123883724,78534.000000000,1718099331.609586477
1718099331.610594,,,,3.170929670,3.171652079,78535.000000000,1718099331.610593557
1718099331.611601,,,,3.092100620,3.094121456,78536.000000000,1718099331.611600637
1718099331.612608,,,,3.085561752,3.086236238,78537.000000000,1718099331.612607718
1718099331.613615,,,,3.241945505,3.243966103,78538.000000000,1718099331.613614798
1718099331.614622,,,,3.371908665,3.373328209,78539.000000000,1718099331.614621878
1718099331.615629,,,,3.232401371,3.233220100,78540.000000000,1718099331.615628958
1718099331.616636,,,,3.089312077,3.091645241,78541.000000000,1718099331.616636038
1718099331.617643,,,,3.005314350,3.007671595,78542.000000000,1718099331.617643118
1718099331.618650,,,,2.909392595,2.911966324,78543.000000000,1718099331.618650198
1718099331.619657,,,,3.072411537,3.075538158,78544.000000000,1718099331.619657278
1718099331.620664,,,,3.192181587,3.193288565,78545.000000000,1718099331.620664358
1718099331.621671,,,,3.218986750,3.221752644,78546.000000000,1718099331.621671438
1718099331.622679,,,,3.658087254,3.661646605,78547.000000000,1718099331.622678518
1718099331.623654,277.050567627,15831.000000000,1718099331.623653650,,,,
1718099331.623686,,,,4.173396111,4.173998356,78548.000000000,1718099331.623685598
1718099331.624693,,,,4.255134106,4.253332138,78549.000000000,1718099331.624692678
1718099331.625700,,,,4.966734409,4.969716549,78550.000000000,1718099331.625699759
1718099331.626707,,,,5.078763008,5.080471516,78551.000000000,1718099331.626706839
1718099331.627714,,,,4.405387402,4.406590939,78552.000000000,1718099331.627713919
1718099331.628654,276.906311035,15832.000000000,1718099331.628653765,,,,
1718099331.628721,,,,3.557357311,3.557623148,78553.000000000,1718099331.628720999
1718099331.629728,,,,3.072459698,3.073710918,78554.000000000,1718099331.629728079
1718099331.630735,,,,2.999207973,3.001060486,78555.000000000,1718099331.630735159
1718099331.631742,,,,2.936774731,2.934588432,78556.000000000,1718099331.631742239
1718099331.632749,,,,2.695287466,2.694639683,78557.000000000,1718099331.632749319
1718099331.633654,276.858276367,15833.000000000,1718099331.633653641,,,,
1718099331.633756,,,,2.761374950,2.762722492,78558.000000000,1718099331.633756399
1718099331.634763,,,,3.055510998,3.056233644,78559.000000000,1718099331.634763479
1718099331.635771,,,,3.232377291,3.233075857,78560.000000000,1718099331.635770559
1718099331.636778,,,,3.262524128,3.261804104,78561.000000000,1718099331.636777639
1718099331.637785,,,,3.371740341,3.371308804,78562.000000000,1718099331.637784719
1718099331.638654,276.649902344,15834.000000000,1718099331.638653755,,,,
1718099331.638792,,,,3.797762871,3.802115440,78563.000000000,1718099331.638791800
1718099331.639799,,,,4.000977516,4.002950191,78564.000000000,1718099331.639798880
1718099331.640806,,,,3.842790842,3.842239141,78565.000000000,1718099331.640805960
1718099331.641813,,,,3.631474257,3.631812096,78566.000000000,1718099331.641813040
1718099331.642820,,,,3.504780769,3.504733801,78567.000000000,1718099331.642820120
1718099331.643654,276.601867676,15835.000000000,1718099331.643653631,,,,
1718099331.643827,,,,3.418715477,3.417803288,78568.000000000,1718099331.643827200
1718099331.644834,,,,3.082316160,3.081139565,78569.000000000,1718099331.644834280
1718099331.645841,,,,2.897588730,2.902133703,78570.000000000,1718099331.645841360
1718099331.646848,,,,2.978292704,2.981371164,78571.000000000,1718099331.646848440
1718099331.647856,,,,3.162563562,3.164632320,78572.000000000,1718099331.647855520
1718099331.648654,276.457611084,15836.000000000,1718099331.648653746,,,,
1718099331.648863,,,,3.333876371,3.337219477,78573.000000000,1718099331.648862600
1718099331.649870,,,,3.708476305,3.713141441,78574.000000000,1718099331.649869680
1718099331.650877,,,,4.065502167,4.068148136,78575.000000000,1718099331.650876760
1718099331.651884,,,,4.115891457,4.118224621,78576.000000000,1718099331.651883841
1718099331.652891,,,,4.538716316,4.543093204,78577.000000000,1718099331.652890921
1718099331.653654,276.249237061,15837.000000000,1718099331.653653622,,,,
1718099331.653898,,,,4.975749493,4.980030060,78578.000000000,1718099331.653898001
1718099331.654905,,,,4.776405334,4.779747963,78579.000000000,1718099331.654905081
1718099331.655912,,,,3.993885517,3.994463682,78580.000000000,1718099331.655912161
1718099331.656919,,,,3.336857557,3.340008020,78581.000000000,1718099331.656919241
1718099331.657926,,,,2.770486355,2.771833897,78582.000000000,1718099331.657926321
1718099331.658654,276.056945801,15838.000000000,1718099331.658653736,,,,
1718099331.658933,,,,2.241089582,2.242893934,78583.000000000,1718099331.658933401
1718099331.659940,,,,2.293978691,2.298403502,78584.000000000,1718099331.659940481
1718099331.660948,,,,2.930500269,2.932016134,78585.000000000,1718099331.660947561
1718099331.661955,,,,3.562670231,3.562863827,78586.000000000,1718099331.661954641
1718099331.662962,,,,3.651500225,3.654987335,78587.000000000,1718099331.662961721
1718099331.663654,275.688323975,15839.000000000,1718099331.663653612,,,,
1718099331.663969,,,,3.579378605,3.580509663,78588.000000000,1718099331.663968801
1718099331.664976,,,,3.505453825,3.506585121,78589.000000000,1718099331.664975882
1718099331.665983,,,,3.819279194,3.819184303,78590.000000000,1718099331.665982962
1718099331.666990,,,,3.995592356,3.997204304,78591.000000000,1718099331.666990042
1718099331.667997,,,,3.784083843,3.785887957,78592.000000000,1718099331.667997122
1718099331.668654,275.303741455,15840.000000000,1718099331.668653727,,,,
1718099331.669004,,,,3.582623959,3.585173607,78593.000000000,1718099331.669004202
1718099331.670011,,,,3.514925718,3.517379284,78594.000000000,1718099331.670011282
1718099331.671018,,,,3.466508150,3.467639446,78595.000000000,1718099331.671018362
1718099331.672025,,,,3.373038530,3.375131369,78596.000000000,1718099331.672025442
1718099331.673033,,,,3.407007694,3.409581423,78597.000000000,1718099331.673032522
1718099331.674040,,,,3.575339794,3.578706741,78598.000000000,1718099331.674039602
1718099331.675047,,,,4.040091515,4.043843269,78599.000000000,1718099331.675046682
1718099331.676054,,,,4.311581135,4.313746452,78600.000000000,1718099331.676053762
1718099331.677061,,,,4.263308048,4.265184402,78601.000000000,1718099331.677060843
1718099331.678068,,,,4.030403137,4.029466629,78602.000000000,1718099331.678067923
1718099331.678272,275.015228271,15841.000000000,1718099331.678272247,,,,
1718099331.679075,,,,3.800816059,3.800120115,78603.000000000,1718099331.679075003
1718099331.680082,,,,3.784780979,3.787306547,78604.000000000,1718099331.680082083
1718099331.681089,,,,3.683209658,3.686384201,78605.000000000,1718099331.681089163
1718099331.682096,,,,3.525888205,3.531779528,78606.000000000,1718099331.682096243
1718099331.683103,,,,3.347723722,3.351234913,78607.000000000,1718099331.683103323
1718099331.683272,274.646697998,15842.000000000,1718099331.683272362,,,,
1718099331.684110,,,,3.362484694,3.364577532,78608.000000000,1718099331.684110403
1718099331.685117,,,,3.296829939,3.297191858,78609.000000000,1718099331.685117483
1718099331.686125,,,,3.104457617,3.100949049,78610.000000000,1718099331.686124563
1718099331.687132,,,,3.102414131,3.101694107,78611.000000000,1718099331.687131643
1718099331.688139,,,,3.453285933,3.455859423,78612.000000000,1718099331.688138723
1718099331.689146,,,,3.834064007,3.835507631,78613.000000000,1718099331.689145803
1718099331.690153,,,,4.016170979,4.018167973,78614.000000000,1718099331.690152884
1718099331.691160,,,,3.805022955,3.808774710,78615.000000000,1718099331.691159964
1718099331.692167,,,,3.701720715,3.706289768,78616.000000000,1718099331.692167044
1718099331.693174,,,,3.534831285,3.534784555,78617.000000000,1718099331.693174124
1718099331.694181,,,,2.808398247,2.806596518,78618.000000000,1718099331.694181204
1718099331.695188,,,,2.701514006,2.703919411,78619.000000000,1718099331.695188284
1718099331.696195,,,,3.145014048,3.147299051,78620.000000000,1718099331.696195364
1718099331.697202,,,,3.397920370,3.399989367,78621.000000000,1718099331.697202444
1718099331.698210,,,,3.522186041,3.525985718,78622.000000000,1718099331.698209524
1718099331.699217,,,,3.808773279,3.811250925,78623.000000000,1718099331.699216604
1718099331.700224,,,,3.987562895,3.987660408,78624.000000000,1718099331.700223684
1718099331.701231,,,,3.976456165,3.975183249,78625.000000000,1718099331.701230764
1718099331.702238,,,,3.800767899,3.799663305,78626.000000000,1718099331.702237844
1718099331.703245,,,,3.758937359,3.759756088,78627.000000000,1718099331.703244925
1718099331.704252,,,,3.535624743,3.538438797,78628.000000000,1718099331.704252005
1718099331.705259,,,,2.904656649,2.906508923,78629.000000000,1718099331.705259085
1718099331.706266,,,,2.636917114,2.637976170,78630.000000000,1718099331.706266165
1718099331.707273,,,,2.981105566,2.984833002,78631.000000000,1718099331.707273245
1718099331.708280,,,,3.544327497,3.546035528,78632.000000000,1718099331.708280325
1718099331.709287,,,,3.788242817,3.788628578,78633.000000000,1718099331.709287405
1718099331.710294,,,,3.879500628,3.880295277,78634.000000000,1718099331.710294485
1718099331.711302,,,,3.718380928,3.719343901,78635.000000000,1718099331.711301565
1718099331.712309,,,,3.669530630,3.671166658,78636.000000000,1718099331.712308645
1718099331.713316,,,,3.750234604,3.752832413,78637.000000000,1718099331.713315725
1718099331.714323,,,,3.470210314,3.470572233,78638.000000000,1718099331.714322805
1718099331.715330,,,,3.322865963,3.326112747,78639.000000000,1718099331.715329885
1718099331.716337,,,,3.541923285,3.546973228,78640.000000000,1718099331.716336966
1718099331.717344,,,,3.639143229,3.641933203,78641.000000000,1718099331.717344046
1718099331.718351,,,,3.497280121,3.499444962,78642.000000000,1718099331.718351126
1718099331.719358,,,,3.805455685,3.808822632,78643.000000000,1718099331.719358206
1718099331.720365,,,,4.094543457,4.097501755,78644.000000000,1718099331.720365286
1718099331.721372,,,,4.137816429,4.138082027,78645.000000000,1718099331.721372366
1718099331.722379,,,,3.808508873,3.809039116,78646.000000000,1718099331.722379446
1718099331.723387,,,,3.470498800,3.469923258,78647.000000000,1718099331.723386526
1718099331.724394,,,,3.225141048,3.226392508,78648.000000000,1718099331.724393606
1718099331.725401,,,,3.154918671,3.156314373,78649.000000000,1718099331.725400686
1718099331.726408,,,,3.390588045,3.389483452,78650.000000000,1718099331.726407766
1718099331.727415,,,,3.618973255,3.619479418,78651.000000000,1718099331.727414846
1718099331.728272,273.012115479,15851.000000000,1718099331.728272200,,,,
1718099331.728422,,,,3.679795742,3.679027796,78652.000000000,1718099331.728421926
1718099331.729429,,,,3.758432388,3.759323359,78653.000000000,1718099331.729429007
1718099331.730436,,,,3.786271334,3.788051605,78654.000000000,1718099331.730436087
1718099331.731443,,,,3.742181063,3.742999792,78655.000000000,1718099331.731443167
1718099331.732450,,,,3.937318087,3.938545465,78656.000000000,1718099331.732450247
1718099331.733272,272.739685059,15852.000000000,1718099331.733272314,,,,
1718099331.733457,,,,4.235084534,4.236407757,78657.000000000,1718099331.733457327
1718099331.734464,,,,4.245157242,4.248019218,78658.000000000,1718099331.734464407
1718099331.735471,,,,3.943448544,3.947151899,78659.000000000,1718099331.735471487
1718099331.736479,,,,3.868009329,3.870606899,78660.000000000,1718099331.736478567
1718099331.737486,,,,3.897915602,3.899407387,78661.000000000,1718099331.737485647
1718099331.738272,272.435211182,15853.000000000,1718099331.738272190,,,,
1718099331.738493,,,,3.469873905,3.468120098,78662.000000000,1718099331.738492727
1718099331.739500,,,,2.882635593,2.883021355,78663.000000000,1718099331.739499807
1718099331.740507,,,,2.672929764,2.673123360,78664.000000000,1718099331.740506887
1718099331.741514,,,,3.069839239,3.071932077,78665.000000000,1718099331.741513968
1718099331.742521,,,,3.341569424,3.341114044,78666.000000000,1718099331.742521048
1718099331.743272,272.162841797,15854.000000000,1718099331.743272305,,,,
1718099331.743528,,,,3.410950422,3.410542965,78667.000000000,1718099331.743528128
1718099331.744535,,,,3.459512472,3.459802151,78668.000000000,1718099331.744535208
1718099331.745542,,,,3.585436821,3.587481499,78669.000000000,1718099331.745542288
1718099331.746549,,,,3.459872961,3.459152937,78670.000000000,1718099331.746549368
1718099331.747556,,,,3.138474941,3.139654160,78671.000000000,1718099331.747556448
1718099331.748272,271.778198242,15855.000000000,1718099331.748272181,,,,
1718099331.748564,,,,2.903646946,2.903239489,78672.000000000,1718099331.748563528
1718099331.749571,,,,2.848065138,2.848787785,78673.000000000,1718099331.749570608
1718099331.750578,,,,3.104673862,3.108329296,78674.000000000,1718099331.750577688
1718099331.751585,,,,3.638854742,3.641236067,78675.000000000,1718099331.751584768
1718099331.752592,,,,3.946525574,3.947344303,78676.000000000,1718099331.752591848
1718099331.753272,271.521820068,15856.000000000,1718099331.753272295,,,,
1718099331.753599,,,,3.929144382,3.930347681,78677.000000000,1718099331.753598928
1718099331.754606,,,,3.775933981,3.778002739,78678.000000000,1718099331.754606009
1718099331.755613,,,,3.831491709,3.832334280,78679.000000000,1718099331.755613089
1718099331.756620,,,,3.904791355,3.905225277,78680.000000000,1718099331.756620169
1718099331.757627,,,,3.754922628,3.755717278,78681.000000000,1718099331.757627249
1718099331.758272,271.249389648,15857.000000000,1718099331.758272171,,,,
1718099331.758634,,,,3.629839659,3.631307364,78682.000000000,1718099331.758634329
1718099331.759641,,,,3.512161255,3.514061689,78683.000000000,1718099331.759641409
1718099331.760648,,,,3.382678747,3.383882046,78684.000000000,1718099331.760648489
1718099331.761656,,,,3.321687937,3.320415020,78685.000000000,1718099331.761655569
1718099331.762663,,,,3.397728205,3.399508476,78686.000000000,1718099331.762662649
1718099331.763272,270.880828857,15858.000000000,1718099331.763272285,,,,
1718099331.763670,,,,3.475210905,3.476366043,78687.000000000,1718099331.763669729
1718099331.764677,,,,3.504876852,3.504926205,78688.000000000,1718099331.764676809
1718099331.765684,,,,3.399290800,3.399772882,78689.000000000,1718099331.765683889
1718099331.766691,,,,3.531369448,3.532524824,78690.000000000,1718099331.766690969
1718099331.767698,,,,3.765981197,3.765982389,78691.000000000,1718099331.767698050
1718099331.768272,270.448181152,15859.000000000,1718099331.768272161,,,,
1718099331.768705,,,,3.685276985,3.687658310,78692.000000000,1718099331.768705130
1718099331.769712,,,,3.483649015,3.485669851,78693.000000000,1718099331.769712210
1718099331.770719,,,,3.368735313,3.367943287,78694.000000000,1718099331.770719290
1718099331.771726,,,,3.288391829,3.287407398,78695.000000000,1718099331.771726370
1718099331.772733,,,,3.221534967,3.221247911,78696.000000000,1718099331.772733450
1718099331.773272,269.951416016,15860.000000000,1718099331.773272276,,,,
1718099331.773741,,,,3.567646742,3.571855068,78697.000000000,1718099331.773740530
1718099331.774748,,,,3.999799490,4.001435757,78698.000000000,1718099331.774747610
1718099331.775755,,,,3.995496273,3.996939898,78699.000000000,1718099331.775754690
1718099331.776762,,,,3.971720219,3.975111246,78700.000000000,1718099331.776761770
1718099331.777769,,,,4.031701088,4.033721924,78701.000000000,1718099331.777768850
1718099331.778776,,,,4.190993786,4.193903923,78702.000000000,1718099331.778775930
1718099331.779783,,,,4.442674637,4.446786404,78703.000000000,1718099331.779783010
1718099331.780790,,,,4.313168049,4.315501213,78704.000000000,1718099331.780790091
1718099331.781797,,,,3.921836138,3.921597004,78705.000000000,1718099331.781797171
1718099331.782804,,,,3.661885738,3.662295580,78706.000000000,1718099331.782804251
1718099331.783811,,,,3.365225315,3.367606640,78707.000000000,1718099331.783811331
1718099331.784818,,,,3.500693798,3.501007557,78708.000000000,1718099331.784818411
1718099331.785825,,,,3.334741831,3.332050562,78709.000000000,1718099331.785825491
1718099331.786833,,,,3.089359999,3.091092348,78710.000000000,1718099331.786832571
1718099331.787840,,,,2.989183187,2.991804838,78711.000000000,1718099331.787839651
1718099331.788847,,,,3.143283129,3.143933535,78712.000000000,1718099331.788846731
1718099331.789854,,,,3.309547424,3.311447859,78713.000000000,1718099331.789853811
1718099331.790861,,,,3.294329882,3.295917749,78714.000000000,1718099331.790860891
1718099331.791868,,,,3.159558535,3.160593510,78715.000000000,1718099331.791867971
1718099331.792875,,,,2.882347107,2.885137081,78716.000000000,1718099331.792875051
1718099331.793882,,,,2.672016382,2.675791979,78717.000000000,1718099331.793882132
1718099331.794889,,,,2.739522219,2.740605354,78718.000000000,1718099331.794889212
1718099331.795896,,,,2.960695028,2.959638596,78719.000000000,1718099331.795896292
1718099331.796903,,,,3.261802912,3.261587858,78720.000000000,1718099331.796903372
1718099331.797910,,,,3.753840685,3.754491091,78721.000000000,1718099331.797910452
1718099331.798918,,,,4.760466576,4.762222767,78722.000000000,1718099331.798917532
1718099331.799925,,,,4.516815662,4.516984940,78723.000000000,1718099331.799924612
1718099331.800932,,,,4.062641621,4.061056137,78724.000000000,1718099331.800931692
1718099331.801939,,,,3.763504982,3.763890982,78725.000000000,1718099331.801938772
1718099331.802946,,,,3.376211882,3.377246857,78726.000000000,1718099331.802945852
1718099331.803953,,,,3.019065619,3.023706675,78727.000000000,1718099331.803952932
1718099331.804960,,,,3.302575588,3.307144642,78728.000000000,1718099331.804960012
1718099331.805967,,,,3.951622248,3.954772949,78729.000000000,1718099331.805967093
1718099331.806974,,,,4.033360004,4.033601761,78730.000000000,1718099331.806974173
1718099331.807981,,,,3.657366037,3.657511473,78731.000000000,1718099331.807981253
1718099331.808988,,,,3.317937613,3.319669724,78732.000000000,1718099331.808988333
1718099331.809995,,,,3.135710239,3.136312485,78733.000000000,1718099331.809995413
1718099331.811002,,,,3.078157187,3.080466509,78734.000000000,1718099331.811002493
1718099331.812010,,,,2.973653078,2.974279404,78735.000000000,1718099331.812009573
1718099331.813017,,,,3.108760834,3.110324860,78736.000000000,1718099331.813016653
1718099331.814024,,,,3.224564075,3.226584911,78737.000000000,1718099331.814023733
1718099331.815031,,,,3.307191372,3.308995724,78738.000000000,1718099331.815030813
1718099331.816038,,,,3.277405262,3.277839184,78739.000000000,1718099331.816037893
1718099331.817045,,,,3.210091829,3.210573912,78740.000000000,1718099331.817044973
1718099331.818052,,,,3.650971174,3.655444145,78741.000000000,1718099331.818052053
1718099331.819059,,,,4.241935730,4.247683048,78742.000000000,1718099331.819059134
1718099331.820066,,,,4.245349407,4.248043537,78743.000000000,1718099331.820066214
1718099331.821073,,,,4.072690487,4.071874142,78744.000000000,1718099331.821073294
1718099331.822080,,,,3.985206842,3.985641003,78745.000000000,1718099331.822080374
1718099331.823087,,,,3.895367384,3.898494005,78746.000000000,1718099331.823087454
1718099331.824095,,,,3.468359232,3.468672991,78747.000000000,1718099331.824094534
1718099331.825102,,,,3.205548048,3.203914642,78748.000000000,1718099331.825101614
1718099331.826109,,,,3.805311441,3.806130171,78749.000000000,1718099331.826108694
1718099331.827116,,,,4.369735241,4.371684074,78750.000000000,1718099331.827115774
1718099331.828123,,,,4.131541729,4.130244732,78751.000000000,1718099331.828122854
1718099331.829130,,,,3.781078577,3.778243065,78752.000000000,1718099331.829129934
1718099331.830137,,,,3.518075228,3.515407801,78753.000000000,1718099331.830137014
1718099331.833554,264.278656006,15871.000000000,1718099331.833554268,,,,
1718099331.837187,,,,3.077868700,3.078951836,78760.000000000,1718099331.837186575
1718099331.838194,,,,2.842896461,2.842897654,78761.000000000,1718099331.838193655
1718099331.838554,263.926055908,15872.000000000,1718099331.838554382,,,,
1718099331.839201,,,,2.965623379,2.967403650,78762.000000000,1718099331.839200735
1718099331.840208,,,,3.113088131,3.116022348,78763.000000000,1718099331.840207815
1718099331.841215,,,,3.434173584,3.435376883,78764.000000000,1718099331.841214895
1718099331.842222,,,,3.749369144,3.751245737,78765.000000000,1718099331.842221975
1718099331.843229,,,,3.939578056,3.942536116,78766.000000000,1718099331.843229055
1718099331.843554,263.669647217,15873.000000000,1718099331.843554258,,,,
1718099331.844236,,,,4.033864975,4.037472248,78767.000000000,1718099331.844236135
1718099331.845243,,,,4.163395405,4.164142132,78768.000000000,1718099331.845243216
1718099331.846250,,,,4.211933136,4.212343216,78769.000000000,1718099331.846250296
1718099331.847257,,,,3.973499060,3.974582195,78770.000000000,1718099331.847257376
1718099331.848264,,,,3.680156469,3.682441473,78771.000000000,1718099331.848264456
1718099331.848554,263.509399414,15874.000000000,1718099331.848554373,,,,
1718099331.849272,,,,3.607986689,3.608733177,78772.000000000,1718099331.849271536
1718099331.850279,,,,3.351738691,3.352196693,78773.000000000,1718099331.850278616
1718099331.851286,,,,2.937135458,2.937425137,78774.000000000,1718099331.851285696
1718099331.852293,,,,2.611386061,2.613070250,78775.000000000,1718099331.852292776
1718099331.853300,,,,2.775246382,2.775752544,78776.000000000,1718099331.853299856
1718099331.853554,263.381225586,15875.000000000,1718099331.853554249,,,,
1718099331.854307,,,,3.078253269,3.079624891,78777.000000000,1718099331.854306936
1718099331.855314,,,,3.311566830,3.309572697,78778.000000000,1718099331.855314016
1718099331.856321,,,,3.318947315,3.316833019,78779.000000000,1718099331.856321096
1718099331.857328,,,,3.320029020,3.321400642,78780.000000000,1718099331.857328176
1718099331.858335,,,,3.372677803,3.374361992,78781.000000000,1718099331.858335257
1718099331.858554,263.397216797,15876.000000000,1718099331.858554363,,,,
1718099331.859342,,,,3.611304283,3.608997822,78782.000000000,1718099331.859342337
1718099331.860349,,,,3.711481333,3.712924957,78783.000000000,1718099331.860349417
1718099331.861356,,,,3.811057329,3.813510656,78784.000000000,1718099331.861356497
1718099331.862364,,,,3.825649738,3.826973438,78785.000000000,1718099331.862363577
1718099331.863371,,,,3.699124336,3.700760365,78786.000000000,1718099331.863370657
1718099331.863554,263.236968994,15877.000000000,1718099331.863554239,,,,
1718099331.864378,,,,3.447107553,3.451796532,78787.000000000,1718099331.864377737
1718099331.865385,,,,3.288271666,3.293369532,78788.000000000,1718099331.865384817
1718099331.866392,,,,3.229756832,3.229878426,78789.000000000,1718099331.866391897
1718099331.867399,,,,3.220356941,3.219757318,78790.000000000,1718099331.867398977
1718099331.868406,,,,3.278535128,3.280171156,78791.000000000,1718099331.868406057
1718099331.868554,263.108764648,15878.000000000,1718099331.868554354,,,,
1718099331.869413,,,,3.372701883,3.370924234,78792.000000000,1718099331.869413137
1718099331.870420,,,,3.416119099,3.413764477,78793.000000000,1718099331.870420218
1718099331.871427,,,,3.462012529,3.465620041,78794.000000000,1718099331.871427298
1718099331.872434,,,,3.583657742,3.588034391,78795.000000000,1718099331.872434378
1718099331.873441,,,,3.992611408,3.993574381,78796.000000000,1718099331.873441458
1718099331.873554,262.900390625,15879.000000000,1718099331.873554230,,,,
1718099331.874449,,,,4.457988262,4.457628727,78797.000000000,1718099331.874448538
1718099331.875456,,,,4.437193394,4.435872078,78798.000000000,1718099331.875455618
1718099331.876463,,,,4.210322380,4.210636139,78799.000000000,1718099331.876462698
1718099331.877470,,,,3.892602682,3.892796278,78800.000000000,1718099331.877469778
1718099331.878477,,,,3.583826065,3.582384825,78801.000000000,1718099331.878476858
1718099331.878554,262.595886230,15880.000000000,1718099331.878554344,,,,
1718099331.879154,262.211273193,15881.000000000,1718099331.879153967,,,,
1718099331.879484,,,,3.375370502,3.379073858,78802.000000000,1718099331.879483938
1718099331.880491,,,,3.168621778,3.170498133,78803.000000000,1718099331.880491018
1718099331.881498,,,,2.971032619,2.969326973,78804.000000000,1718099331.881498098
1718099331.882505,,,,3.102774858,3.102295160,78805.000000000,1718099331.882505178
1718099331.883512,,,,3.411334991,3.411696911,78806.000000000,1718099331.883512259
1718099331.884154,261.714447021,15882.000000000,1718099331.884154081,,,,
1718099331.884519,,,,3.544904470,3.547237635,78807.000000000,1718099331.884519339
1718099331.885526,,,,3.756196737,3.758505821,78808.000000000,1718099331.885526419
1718099331.886533,,,,4.314706802,4.316799164,78809.000000000,1718099331.886533499
1718099331.887541,,,,4.796406746,4.797922611,78810.000000000,1718099331.887540579
1718099331.888548,,,,4.565449238,4.567301750,78811.000000000,1718099331.888547659
1718099331.889154,261.217590332,15883.000000000,1718099331.889153957,,,,
1718099331.889555,,,,4.327183723,4.328771591,78812.000000000,1718099331.889554739
1718099331.890562,,,,3.992394924,3.993285894,78813.000000000,1718099331.890561819
1718099331.891569,,,,3.628733635,3.629263878,78814.000000000,1718099331.891568899
1718099331.892576,,,,3.239709616,3.238941669,78815.000000000,1718099331.892575979
1718099331.893583,,,,3.073060513,3.074648619,78816.000000000,1718099331.893583059
1718099331.894154,260.704742432,15884.000000000,1718099331.894154072,,,,
1718099331.894590,,,,3.152033806,3.154391050,78817.000000000,1718099331.894590139
1718099331.895597,,,,3.161529779,3.163766861,78818.000000000,1718099331.895597219
1718099331.896604,,,,3.264351130,3.267333508,78819.000000000,1718099331.896604300
1718099331.897611,,,,3.429966450,3.430520773,78820.000000000,1718099331.897611380
1718099331.898618,,,,3.446218014,3.447373152,78821.000000000,1718099331.898618460
1718099331.899154,260.287994385,15885.000000000,1718099331.899153948,,,,
1718099331.899626,,,,3.305941343,3.308370829,78822.000000000,1718099331.899625540
1718099331.900633,,,,3.068324566,3.068974972,78823.000000000,1718099331.900632620
1718099331.901640,,,,2.909729242,2.911749840,78824.000000000,1718099331.901639700
1718099331.902647,,,,3.016685486,3.018778324,78825.000000000,1718099331.902646780
1718099331.903654,,,,3.546971798,3.549521446,78826.000000000,1718099331.903653860
1718099331.904154,259.903350830,15886.000000000,1718099331.904154062,,,,
1718099331.904661,,,,4.032518864,4.035669327,78827.000000000,1718099331.904660940
1718099331.905668,,,,4.214289188,4.212655544,78828.000000000,1718099331.905668020
1718099331.906675,,,,4.726881504,4.728806019,78829.000000000,1718099331.906675100
1718099331.907682,,,,5.098788738,5.099920273,78830.000000000,1718099331.907682180
1718099331.908689,,,,4.719741821,4.719069958,78831.000000000,1718099331.908689260
1718099331.909154,259.678955078,15887.000000000,1718099331.909153938,,,,
1718099331.909696,,,,4.175319672,4.177508354,78832.000000000,1718099331.909696341
1718099331.910703,,,,4.154788971,4.154501915,78833.000000000,1718099331.910703421
1718099331.911711,,,,4.155726433,4.155246735,78834.000000000,1718099331.911710501
1718099331.912718,,,,3.683882713,3.684917688,78835.000000000,1718099331.912717581
1718099331.913725,,,,2.957016945,2.961153269,78836.000000000,1718099331.913724661
1718099331.914732,,,,2.461252928,2.462336063,78837.000000000,1718099331.914731741
1718099331.915739,,,,2.386438608,2.387064934,78838.000000000,1718099331.915738821
1718099331.916746,,,,2.247917175,2.245273829,78839.000000000,1718099331.916745901
1718099331.917753,,,,2.092062235,2.093914747,78840.000000000,1718099331.917752981
1718099331.918760,,,,2.272150040,2.272343636,78841.000000000,1718099331.918760061
1718099331.919767,,,,2.765726328,2.766569138,78842.000000000,1718099331.919767141
1718099331.920774,,,,3.029186726,3.033298731,78843.000000000,1718099331.920774221
1718099331.921781,,,,3.089215755,3.093857050,78844.000000000,1718099331.921781301
1718099331.922788,,,,3.149100780,3.152347565,78845.000000000,1718099331.922788382
1718099331.923795,,,,3.290026426,3.292071342,78846.000000000,1718099331.923795462
1718099331.924803,,,,3.544832230,3.546468258,78847.000000000,1718099331.924802542
1718099331.925810,,,,3.817716360,3.821035385,78848.000000000,1718099331.925809622
1718099331.926817,,,,3.891713142,3.893469572,78849.000000000,1718099331.926816702
1718099331.927824,,,,3.730906010,3.730715036,78850.000000000,1718099331.927823782
1718099331.928831,,,,3.721097469,3.721098900,78851.000000000,1718099331.928830862
1718099331.929154,259.230133057,15891.000000000,1718099331.929153919,,,,
1718099331.934154,259.133972168,15892.000000000,1718099331.934154034,,,,
1718099331.934873,,,,3.692368984,3.695832253,78857.000000000,1718099331.934873343
1718099331.935880,,,,3.973619461,3.975567818,78858.000000000,1718099331.935880423
1718099331.936888,,,,3.860508680,3.862697601,78859.000000000,1718099331.936887503
1718099331.937895,,,,3.650225878,3.652823687,78860.000000000,1718099331.937894583
1718099331.938902,,,,3.452973366,3.455090284,78861.000000000,1718099331.938901663
1718099331.939154,259.005737305,15893.000000000,1718099331.939153910,,,,
1718099331.939909,,,,3.279040098,3.279690266,78862.000000000,1718099331.939908743
1718099331.940916,,,,3.251874208,3.253462076,78863.000000000,1718099331.940915823
1718099331.941923,,,,3.424485207,3.427876234,78864.000000000,1718099331.941922903
1718099331.942930,,,,3.671020985,3.672993660,78865.000000000,1718099331.942929983
1718099331.943937,,,,4.590379715,4.598097801,78866.000000000,1718099331.943937063
1718099331.944154,258.829406738,15894.000000000,1718099331.944154024,,,,
1718099331.949154,258.637054443,15895.000000000,1718099331.949153900,,,,
1718099331.954154,258.508819580,15896.000000000,1718099331.954154015,,,,
1718099331.959154,258.412658691,15897.000000000,1718099331.959153891,,,,
1718099331.964154,258.316497803,15898.000000000,1718099331.964154005,,,,
1718099331.969154,258.428649902,15899.000000000,1718099331.969153881,,,,
1718099331.971128,,,,4.931298256,4.931516171,78893.000000000,1718099331.971128225
1718099331.972135,,,,4.658606529,4.661805153,78894.000000000,1718099331.972135305
1718099331.973142,,,,4.325789452,4.327257156,78895.000000000,1718099331.973142385
1718099331.974149,,,,3.915753841,3.917053223,78896.000000000,1718099331.974149466
1718099331.974154,258.476776123,15900.000000000,1718099331.974153996,,,,
1718099331.975157,,,,3.404219151,3.406408072,78897.000000000,1718099331.975156546
1718099331.976164,,,,2.789454460,2.789263248,78898.000000000,1718099331.976163626
1718099331.977171,,,,2.498034954,2.499166012,78899.000000000,1718099331.977170706
1718099331.978178,,,,2.527604818,2.528134823,78900.000000000,1718099331.978177786
1718099331.979185,,,,3.111717939,3.113594294,78901.000000000,1718099331.979184866
1718099331.980192,,,,4.212798595,4.214482784,78902.000000000,1718099331.980191946
1718099331.998705,258.797332764,15906.000000000,1718099331.998704910,,,,
1718099332.001341,,,,3.895078897,3.897892952,78923.000000000,1718099332.001340628
1718099332.002348,,,,3.760932684,3.761294603,78924.000000000,1718099332.002347708
1718099332.003355,,,,3.755547523,3.756654739,78925.000000000,1718099332.003354788
1718099332.003705,258.653045654,15907.000000000,1718099332.003704786,,,,
1718099332.004362,,,,3.734680414,3.736725092,78926.000000000,1718099332.004361868
1718099332.005369,,,,3.813028574,3.813726902,78927.000000000,1718099332.005368948
1718099332.006376,,,,3.839737654,3.839426279,78928.000000000,1718099332.006376028
1718099332.007383,,,,3.659914255,3.658449173,78929.000000000,1718099332.007383108
1718099332.008390,,,,3.386164665,3.386310101,78930.000000000,1718099332.008390188
1718099332.008705,258.460723877,15908.000000000,1718099332.008704901,,,,
1718099332.009397,,,,3.451555014,3.452277422,78931.000000000,1718099332.009397268
1718099332.010404,,,,3.529662609,3.529375553,78932.000000000,1718099332.010404348
1718099332.011411,,,,3.633782148,3.634216309,78933.000000000,1718099332.011411428
1718099332.012419,,,,3.682512522,3.683763742,78934.000000000,1718099332.012418509
1718099332.013426,,,,3.487591743,3.486991882,78935.000000000,1718099332.013425589
1718099332.013705,258.236328125,15909.000000000,1718099332.013704777,,,,
1718099332.014433,,,,3.160255671,3.158357859,78936.000000000,1718099332.014432669
1718099332.015440,,,,2.774669409,2.774646759,78937.000000000,1718099332.015439749
1718099332.016447,,,,2.991202593,2.992117405,78938.000000000,1718099332.016446829
1718099332.017454,,,,3.223049641,3.225767374,78939.000000000,1718099332.017453909
1718099332.018461,,,,3.228987694,3.230767965,78940.000000000,1718099332.018460989
1718099332.018705,257.915740967,15910.000000000,1718099332.018704891,,,,
1718099332.019468,,,,3.307071209,3.309524775,78941.000000000,1718099332.019468069
1718099332.020475,,,,4.192532539,4.195250511,78942.000000000,1718099332.020475149
1718099332.021482,,,,4.691109180,4.692144394,78943.000000000,1718099332.021482229
1718099332.022489,,,,4.471883774,4.473279476,78944.000000000,1718099332.022489309
1718099332.023496,,,,4.036846161,4.037039757,78945.000000000,1718099332.023496389
1718099332.023705,257.627166748,15911.000000000,1718099332.023704767,,,,
1718099332.024503,,,,3.676021576,3.676527500,78946.000000000,1718099332.024503469
1718099332.025511,,,,3.428019285,3.429414988,78947.000000000,1718099332.025510550
1718099332.026518,,,,3.089768887,3.092366457,78948.000000000,1718099332.026517630
1718099332.027525,,,,2.723967791,2.723632574,78949.000000000,1718099332.027524710
1718099332.028532,,,,2.913551569,2.914658785,78950.000000000,1718099332.028531790
1718099332.028705,257.354705811,15912.000000000,1718099332.028704882,,,,
1718099332.029539,,,,3.789781332,3.792186737,78951.000000000,1718099332.029538870
1718099332.030546,,,,4.388030052,4.389834404,78952.000000000,1718099332.030545950
1718099332.031553,,,,4.480947018,4.482847214,78953.000000000,1718099332.031553030
1718099332.032560,,,,4.233954430,4.236696243,78954.000000000,1718099332.032560110
1718099332.033567,,,,4.129185677,4.133826733,78955.000000000,1718099332.033567190
1718099332.033705,257.130249023,15913.000000000,1718099332.033704758,,,,
1718099332.034574,,,,3.953978300,3.958667517,78956.000000000,1718099332.034574270
1718099332.035581,,,,3.610799551,3.612844229,78957.000000000,1718099332.035581350
1718099332.036588,,,,2.970960379,2.972908974,78958.000000000,1718099332.036588430
1718099332.037596,,,,2.806451082,2.807654381,78959.000000000,1718099332.037595510
1718099332.038603,,,,3.222809076,3.224132776,78960.000000000,1718099332.038602591
1718099332.038705,256.921844482,15914.000000000,1718099332.038704872,,,,
1718099332.039610,,,,3.412416935,3.416240692,78961.000000000,1718099332.039609671
1718099332.040617,,,,3.615054607,3.618662119,78962.000000000,1718099332.040616751
1718099332.043705,256.793609619,15915.000000000,1718099332.043704748,,,,
1718099332.048705,256.601226807,15916.000000000,1718099332.048704863,,,,
1718099332.053705,256.553131104,15917.000000000,1718099332.053704739,,,,
1718099332.058705,256.505035400,15918.000000000,1718099332.058704853,,,,
1718099332.063705,256.505035400,15919.000000000,1718099332.063704729,,,,
1718099332.068705,256.553131104,15920.000000000,1718099332.068704844,,,,
1718099332.069822,,,,3.735641956,3.738816738,78963.000000000,1718099332.069822073
1718099332.070829,,,,3.788531303,3.788172007,78964.000000000,1718099332.070829153
1718099332.071836,,,,3.789011955,3.788292170,78965.000000000,1718099332.071836233
1718099332.072843,,,,3.811369658,3.811587334,78966.000000000,1718099332.072843313
1718099332.073850,,,,3.665659904,3.667416334,78967.000000000,1718099332.073850393
1718099332.074857,,,,3.629142523,3.633326769,78968.000000000,1718099332.074857473
1718099332.075865,,,,3.523508310,3.525168419,78969.000000000,1718099332.075864553
1718099332.076872,,,,3.485524178,3.488506556,78970.000000000,1718099332.076871634
1718099332.077879,,,,3.456939936,3.459633827,78971.000000000,1718099332.077878714
1718099332.078886,,,,3.490067959,3.494204044,78972.000000000,1718099332.078885794
1718099332.106077,,,,4.176185131,4.180177212,78999.000000000,1718099332.106076956
1718099332.107084,,,,5.105928898,5.107492924,79000.000000000,1718099332.107084036
1718099332.108091,,,,5.331044674,5.332824707,79001.000000000,1718099332.108091116
1718099332.109098,,,,4.868408203,4.870164394,79002.000000000,1718099332.109098196
1718099332.110105,,,,4.492558479,4.495131969,79003.000000000,1718099332.110105276
1718099332.111112,,,,4.185176373,4.186571598,79004.000000000,1718099332.111112356
1718099332.112119,,,,3.158885479,3.157516241,79005.000000000,1718099332.112119436
1718099332.113127,,,,2.316624880,2.315496206,79006.000000000,1718099332.113126516
1718099332.114134,,,,2.202215910,2.201616287,79007.000000000,1718099332.114133596
1718099332.115141,,,,2.397833824,2.397955418,79008.000000000,1718099332.115140676
1718099332.116148,,,,2.719496250,2.721733332,79009.000000000,1718099332.116147757
1718099332.117155,,,,2.945910215,2.949157000,79010.000000000,1718099332.117154837
1718099332.118162,,,,3.010579348,3.009522676,79011.000000000,1718099332.118161917
1718099332.119169,,,,3.242209911,3.240696669,79012.000000000,1718099332.119168997
1718099332.120176,,,,3.396718502,3.399316072,79013.000000000,1718099332.120176077
1718099332.121183,,,,3.600942850,3.601857662,79014.000000000,1718099332.121183157
1718099332.122190,,,,3.903060436,3.905946493,79015.000000000,1718099332.122190237
1718099332.123197,,,,4.496308804,4.500901699,79016.000000000,1718099332.123197317
1718099332.124204,,,,4.918340683,4.920601845,79017.000000000,1718099332.124204397
1718099332.125211,,,,4.777871609,4.780132771,79018.000000000,1718099332.125211477
1718099332.126219,,,,4.346151829,4.346946239,79019.000000000,1718099332.126218557
1718099332.127226,,,,3.789324522,3.788172007,79020.000000000,1718099332.127225637
1718099332.128233,,,,3.375658989,3.377607584,79021.000000000,1718099332.128232718
1718099332.129240,,,,2.965911865,2.968389273,79022.000000000,1718099332.129239798
1718099332.130247,,,,2.661510468,2.661752224,79023.000000000,1718099332.130246878
1718099332.131254,,,,2.529167414,2.528591633,79024.000000000,1718099332.131253958
1718099332.138304,,,,3.584403038,3.583202124,79031.000000000,1718099332.138303518
1718099332.138504,256.585174561,15931.000000000,1718099332.138504267,,,,
1718099332.139311,,,,3.270697832,3.270579100,79032.000000000,1718099332.139310598
1718099332.140318,,,,3.138234615,3.140086889,79033.000000000,1718099332.140317678
1718099332.141325,,,,3.258846045,3.262140751,79034.000000000,1718099332.141324759
1718099332.142332,,,,3.499852419,3.505094528,79035.000000000,1718099332.142331839
1718099332.143339,,,,3.612145662,3.614599228,79036.000000000,1718099332.143338919
1718099332.143504,256.569152832,15932.000000000,1718099332.143504381,,,,
1718099332.144346,,,,3.985062599,3.991506815,79037.000000000,1718099332.144345999
1718099332.145353,,,,5.030705929,5.036164761,79038.000000000,1718099332.145353079
1718099332.146360,,,,5.147711277,5.150020599,79039.000000000,1718099332.146360159
1718099332.147367,,,,4.523402691,4.521648884,79040.000000000,1718099332.147367239
1718099332.148374,,,,3.729872227,3.726748228,79041.000000000,1718099332.148374319
1718099332.148504,256.553131104,15933.000000000,1718099332.148504257,,,,
1718099332.149381,,,,2.934034109,2.931174517,79042.000000000,1718099332.149381399
1718099332.150388,,,,2.460098982,2.458705902,79043.000000000,1718099332.150388479
1718099332.151396,,,,2.165169477,2.164353371,79044.000000000,1718099332.151395559
1718099332.152403,,,,2.004482508,2.006695509,79045.000000000,1718099332.152402639
1718099332.153410,,,,2.248301744,2.247750044,79046.000000000,1718099332.153409719
1718099332.153504,256.633270264,15934.000000000,1718099332.153504372,,,,
1718099332.154417,,,,2.838569164,2.841551542,79047.000000000,1718099332.154416800
1718099332.155424,,,,3.229468346,3.232089996,79048.000000000,1718099332.155423880
1718099332.156431,,,,3.506776094,3.508460283,79049.000000000,1718099332.156430960
1718099332.157438,,,,3.537644148,3.538318634,79050.000000000,1718099332.157438040
1718099332.158445,,,,3.479321718,3.477423906,79051.000000000,1718099332.158445120
1718099332.158504,256.713470459,15935.000000000,1718099332.158504248,,,,
1718099332.159452,,,,3.488457203,3.489876747,79052.000000000,1718099332.159452200
1718099332.160459,,,,3.457348824,3.459706068,79053.000000000,1718099332.160459280
1718099332.161466,,,,3.415061474,3.416937828,79054.000000000,1718099332.161466360
1718099332.162473,,,,3.269135237,3.268559694,79055.000000000,1718099332.162473440
1718099332.163481,,,,3.208096266,3.208049536,79056.000000000,1718099332.163480520
1718099332.163504,256.697387695,15936.000000000,1718099332.163504362,,,,
1718099332.164488,,,,3.312263966,3.314429045,79057.000000000,1718099332.164487600
1718099332.165495,,,,3.407151937,3.409028530,79058.000000000,1718099332.165494680
1718099332.166502,,,,3.566588879,3.568970203,79059.000000000,1718099332.166501760
1718099332.167509,,,,3.760163307,3.761775494,79060.000000000,1718099332.167508841
1718099332.168504,256.873748779,15937.000000000,1718099332.168504238,,,,
1718099332.168516,,,,3.810600519,3.811707497,79061.000000000,1718099332.168515921
1718099332.169523,,,,3.840651035,3.841758251,79062.000000000,1718099332.169523001
1718099332.170530,,,,3.922004223,3.924241304,79063.000000000,1718099332.170530081
1718099332.171537,,,,3.941477060,3.944820166,79064.000000000,1718099332.171537161
1718099332.172544,,,,3.734175444,3.736508846,79065.000000000,1718099332.172544241
1718099332.173504,256.969940186,15938.000000000,1718099332.173504353,,,,
1718099332.173551,,,,3.555289984,3.557310581,79066.000000000,1718099332.173551321
1718099332.174558,,,,3.599668741,3.600703716,79067.000000000,1718099332.174558401
1718099332.175565,,,,3.457540989,3.456388474,79068.000000000,1718099332.175565481
1718099332.176573,,,,3.269183397,3.269617319,79069.000000000,1718099332.176572561
1718099332.177580,,,,3.498602390,3.499685287,79070.000000000,1718099332.177579641
1718099332.178504,257.018035889,15939.000000000,1718099332.178504229,,,,
1718099332.178587,,,,4.118800163,4.121782303,79071.000000000,1718099332.178586721
1718099332.179594,,,,4.649302959,4.648005962,79072.000000000,1718099332.179593801
1718099332.180601,,,,4.648341179,4.647982121,79073.000000000,1718099332.180600882
1718099332.181608,,,,4.483663559,4.486285210,79074.000000000,1718099332.181607962
1718099332.182615,,,,4.069781303,4.071658134,79075.000000000,1718099332.182615042
1718099332.183504,257.050079346,15940.000000000,1718099332.183504343,,,,
1718099332.183622,,,,3.510886908,3.512595177,79076.000000000,1718099332.183622122
1718099332.184629,,,,3.302215099,3.303033829,79077.000000000,1718099332.184629202
1718099332.185636,,,,3.741700172,3.743360281,79078.000000000,1718099332.185636282
1718099332.186643,,,,4.159428596,4.160776138,79079.000000000,1718099332.186643362
1718099332.187650,,,,4.155509949,4.158276081,79080.000000000,1718099332.187650442
1718099332.188658,,,,3.762086630,3.763530254,79081.000000000,1718099332.188657522
1718099332.189665,,,,3.360296965,3.362942696,79082.000000000,1718099332.189664602
1718099332.190672,,,,2.924369812,2.926054001,79083.000000000,1718099332.190671682
1718099332.191679,,,,3.107534885,3.112728834,79084.000000000,1718099332.191678762
1718099332.192686,,,,3.371884584,3.375900507,79085.000000000,1718099332.192685843
1718099332.193693,,,,3.397031069,3.397873640,79086.000000000,1718099332.193692923
1718099332.194700,,,,3.656524658,3.655997038,79087.000000000,1718099332.194700003
1718099332.195707,,,,3.608395338,3.610007524,79088.000000000,1718099332.195707083
1718099332.196714,,,,3.150735617,3.151025295,79089.000000000,1718099332.196714163
1718099332.197721,,,,2.734064817,2.732527733,79090.000000000,1718099332.197721243
1718099332.198728,,,,2.670573950,2.670695305,79091.000000000,1718099332.198728323
1718099332.199735,,,,2.733920574,2.733008385,79092.000000000,1718099332.199735403
1718099332.200742,,,,2.875447273,2.875112057,79093.000000000,1718099332.200742483
1718099332.201750,,,,3.219683886,3.220310211,79094.000000000,1718099332.201749563
1718099332.202757,,,,3.435303450,3.436650991,79095.000000000,1718099332.202756643
1718099332.203764,,,,3.614381552,3.615633011,79096.000000000,1718099332.203763723
1718099332.204771,,,,3.889525652,3.889719248,79097.000000000,1718099332.204770803
1718099332.205778,,,,4.223665237,4.224676132,79098.000000000,1718099332.205777884
1718099332.206785,,,,4.898242474,4.900551796,79099.000000000,1718099332.206784964
1718099332.207792,,,,4.815951824,4.816866875,79100.000000000,1718099332.207792044
1718099332.208799,,,,4.219530106,4.218353271,79101.000000000,1718099332.208799124
1718099332.209806,,,,3.593153715,3.590053797,79102.000000000,1718099332.209806204
1718099332.210813,,,,3.488986015,3.491078854,79103.000000000,1718099332.210813284
1718099332.211820,,,,3.538269281,3.542333364,79104.000000000,1718099332.211820364
1718099332.212827,,,,3.326399803,3.329286098,79105.000000000,1718099332.212827444
1718099332.213835,,,,3.434702635,3.437227964,79106.000000000,1718099332.213834524
1718099332.214842,,,,3.372629881,3.373544693,79107.000000000,1718099332.214841604
1718099332.215849,,,,3.370514154,3.371549368,79108.000000000,1718099332.215848684
1718099332.216856,,,,3.549880743,3.551324368,79109.000000000,1718099332.216855764
1718099332.217863,,,,3.609477282,3.610993147,79110.000000000,1718099332.217862844
1718099332.218870,,,,3.429341555,3.432420015,79111.000000000,1718099332.218869925
1718099332.219877,,,,3.195234776,3.195620537,79112.000000000,1718099332.219877005
1718099332.220884,,,,3.134868860,3.136168242,79113.000000000,1718099332.220884085
1718099332.221891,,,,3.466556311,3.469923258,79114.000000000,1718099332.221891165
1718099332.222898,,,,4.024777412,4.026365757,79115.000000000,1718099332.222898245
1718099332.223905,,,,4.050813675,4.051824570,79116.000000000,1718099332.223905325
1718099332.224912,,,,3.617242336,3.617291689,79117.000000000,1718099332.224912405
1718099332.225919,,,,3.389914989,3.389026880,79118.000000000,1718099332.225919485
1718099332.226927,,,,3.488096476,3.488578558,79119.000000000,1718099332.226926565
1718099332.227934,,,,3.238050938,3.239855289,79120.000000000,1718099332.227933645
1718099332.228941,,,,2.818952084,2.820371866,79121.000000000,1718099332.228940725
1718099332.229948,,,,2.606217384,2.609536171,79122.000000000,1718099332.229947805
1718099332.230955,,,,2.894752026,2.896195650,79123.000000000,1718099332.230954885
1718099332.231962,,,,3.276635885,3.276396751,79124.000000000,1718099332.231961966
1718099332.232849,256.569152832,15951.000000000,1718099332.232849360,,,,
1718099332.232969,,,,3.389482260,3.390541315,79125.000000000,1718099332.232969046
1718099332.233976,,,,3.424725771,3.428188801,79126.000000000,1718099332.233976126
1718099332.234983,,,,3.431216717,3.433189154,79127.000000000,1718099332.234983206
1718099332.235990,,,,3.363181829,3.363351345,79128.000000000,1718099332.235990286
1718099332.236997,,,,3.392607450,3.391479015,79129.000000000,1718099332.236997366
1718099332.237849,256.521057129,15952.000000000,1718099332.237849474,,,,
1718099332.238004,,,,3.520334959,3.520408392,79130.000000000,1718099332.238004446
