__time,/gdx/grip_force_stream/grip_force,/gdx/grip_force_stream/header/seq,/gdx/grip_force_stream/header/stamp,/shimmer0/emg_stream/emg_ch1,/shimmer0/emg_stream/emg_ch2,/shimmer0/emg_stream/header/seq,/shimmer0/emg_stream/header/stamp
1718099748.038972,,,,5.391266346,5.393485546,25108.000000000,1718099748.038971901
1718099748.039979,,,,5.389944077,5.391802311,25109.000000000,1718099748.039978981
1718099748.040986,,,,5.391482830,5.392812252,25110.000000000,1718099748.040986061
1718099748.041993,,,,5.393862724,5.393677711,25111.000000000,1718099748.041993141
1718099748.043000,,,,5.392684937,5.394663334,25112.000000000,1718099748.043000221
1718099748.044007,,,,5.390737534,5.394807816,25113.000000000,1718099748.044007301
1718099748.045014,,,,5.392828941,5.393485546,25114.000000000,1718099748.045014381
1718099748.046021,,,,5.391506672,5.392715931,25115.000000000,1718099748.046021461
1718099748.047029,,,,5.384775639,5.384542465,25116.000000000,1718099748.047028542
1718099748.048036,,,,5.378572941,5.381320953,25117.000000000,1718099748.048035622
1718099748.049043,,,,5.379798889,5.381633282,25118.000000000,1718099748.049042702
1718099748.050050,,,,5.375712395,5.380070686,25119.000000000,1718099748.050049782
1718099748.051057,,,,5.377490997,5.381897926,25120.000000000,1718099748.051056862
1718099748.052064,,,,5.381674290,5.381753445,25121.000000000,1718099748.052063942
1718099748.053071,,,,5.385736942,5.385720253,25122.000000000,1718099748.053071022
1718099748.053464,0.355093747,24512.000000000,1718099748.053463697,,,,
1718099748.054078,,,,5.384390831,5.387835979,25123.000000000,1718099748.054078102
1718099748.055085,,,,5.385616779,5.388581276,25124.000000000,1718099748.055085182
1718099748.056092,,,,5.388838291,5.390504360,25125.000000000,1718099748.056092262
1718099748.057099,,,,5.389223099,5.391201496,25126.000000000,1718099748.057099342
1718099748.058106,,,,5.392756939,5.392884254,25127.000000000,1718099748.058106422
1718099748.058464,0.372768998,24513.000000000,1718099748.058463573,,,,
1718099748.059114,,,,5.395617962,5.393653870,25128.000000000,1718099748.059113503
1718099748.060121,,,,5.393237591,5.393437386,25129.000000000,1718099748.060120583
1718099748.061128,,,,5.392949104,5.392836094,25130.000000000,1718099748.061127663
1718099748.062135,,,,5.393934727,5.394158363,25131.000000000,1718099748.062134743
1718099748.063142,,,,5.393382072,5.394639492,25132.000000000,1718099748.063141823
1718099748.063464,0.390444070,24514.000000000,1718099748.063463688,,,,
1718099748.064149,,,,5.389823914,5.391778469,25133.000000000,1718099748.064148903
1718099748.065156,,,,5.388405800,5.390095711,25134.000000000,1718099748.065155983
1718099748.066163,,,,5.386939049,5.389038086,25135.000000000,1718099748.066163063
1718099748.067170,,,,5.381746292,5.382210255,25136.000000000,1718099748.067170143
1718099748.068177,,,,5.384054184,5.385576248,25137.000000000,1718099748.068177223
1718099748.068464,0.425801933,24515.000000000,1718099748.068463564,,,,
1718099748.069184,,,,5.387083530,5.387907982,25138.000000000,1718099748.069184303
1718099748.070191,,,,5.389174938,5.389158249,25139.000000000,1718099748.070191383
1718099748.071198,,,,5.394031048,5.394663334,25140.000000000,1718099748.071198463
1718099748.072206,,,,5.397348881,5.399976254,25141.000000000,1718099748.072205544
1718099748.073213,,,,5.402156830,5.403294086,25142.000000000,1718099748.073212624
1718099748.073464,0.443476617,24516.000000000,1718099748.073463678,,,,
1718099748.074220,,,,5.397829533,5.398053169,25143.000000000,1718099748.074219704
1718099748.075227,,,,5.395978451,5.395648956,25144.000000000,1718099748.075226784
1718099748.076234,,,,5.395954132,5.398365498,25145.000000000,1718099748.076233864
1718099748.077241,,,,5.398791313,5.402428627,25146.000000000,1718099748.077240944
1718099748.078248,,,,5.404128075,5.409856796,25147.000000000,1718099748.078248024
1718099748.078464,0.461151123,24517.000000000,1718099748.078463554,,,,
1718099748.079255,,,,5.413840294,5.414472580,25148.000000000,1718099748.079255104
1718099748.080262,,,,5.418384075,5.421877384,25149.000000000,1718099748.080262184
1718099748.081269,,,,5.421509266,5.423896790,25150.000000000,1718099748.081269264
1718099748.082276,,,,5.419249535,5.419953823,25151.000000000,1718099748.082276344
1718099748.083283,,,,5.403743267,5.406851768,25152.000000000,1718099748.083283424
1718099748.083464,0.478825510,24518.000000000,1718099748.083463669,,,,
1718099748.084291,,,,5.393982887,5.396851063,25153.000000000,1718099748.084290504
1718099748.085298,,,,5.392420292,5.393605709,25154.000000000,1718099748.085297585
1718099748.086305,,,,5.379246235,5.380864143,25155.000000000,1718099748.086304665
1718099748.087312,,,,5.364100456,5.367473602,25156.000000000,1718099748.087311745
1718099748.088319,,,,5.368307590,5.370478630,25157.000000000,1718099748.088318825
1718099748.088464,0.443476617,24519.000000000,1718099748.088463545,,,,
1718099748.089326,,,,5.364653587,5.367113113,25158.000000000,1718099748.089325905
1718099748.090333,,,,5.361119747,5.361631870,25159.000000000,1718099748.090332985
1718099748.091340,,,,5.362081051,5.363675117,25160.000000000,1718099748.091340065
1718099748.092347,,,,5.367249966,5.370238304,25161.000000000,1718099748.092347145
1718099748.093354,,,,5.369365692,5.372810364,25162.000000000,1718099748.093354225
1718099748.093464,0.425801933,24520.000000000,1718099748.093463659,,,,
1718099748.094361,,,,5.370591640,5.375070095,25163.000000000,1718099748.094361305
1718099748.095368,,,,5.372851372,5.380695820,25164.000000000,1718099748.095368385
1718099748.096375,,,,5.380255699,5.382691383,25165.000000000,1718099748.096375465
1718099748.097383,,,,5.385929585,5.387307167,25166.000000000,1718099748.097382545
1718099748.098390,,,,5.385208130,5.388605118,25167.000000000,1718099748.098389626
1718099748.099397,,,,5.390016556,5.393317223,25168.000000000,1718099748.099396706
1718099748.100404,,,,5.392468452,5.394591331,25169.000000000,1718099748.100403786
1718099748.101411,,,,5.389703751,5.391466141,25170.000000000,1718099748.101410866
1718099748.102418,,,,5.387852669,5.389951229,25171.000000000,1718099748.102417946
1718099748.103425,,,,5.385496616,5.388051987,25172.000000000,1718099748.103425026
1718099748.104432,,,,5.383405209,5.386946201,25173.000000000,1718099748.104432106
1718099748.105439,,,,5.381145477,5.383580685,25174.000000000,1718099748.105439186
1718099748.106446,,,,5.381842613,5.384974957,25175.000000000,1718099748.106446266
1718099748.107453,,,,5.389102936,5.390552521,25176.000000000,1718099748.107453346
1718099748.108460,,,,5.390328884,5.394951820,25177.000000000,1718099748.108460426
1718099748.109468,,,,5.396338940,5.398630142,25178.000000000,1718099748.109467506
1718099748.110475,,,,5.398262024,5.400024414,25179.000000000,1718099748.110474586
1718099748.111482,,,,5.386915207,5.387979984,25180.000000000,1718099748.111481667
1718099748.112489,,,,5.383044720,5.387259007,25181.000000000,1718099748.112488747
1718099748.113496,,,,5.381193638,5.384277821,25182.000000000,1718099748.113495827
1718099748.114503,,,,5.379631042,5.381248951,25183.000000000,1718099748.114502907
1718099748.115510,,,,5.376601696,5.378531933,25184.000000000,1718099748.115509987
1718099748.116517,,,,5.374245644,5.375382900,25185.000000000,1718099748.116517067
1718099748.117524,,,,5.373596668,5.375503063,25186.000000000,1718099748.117524147
1718099748.118531,,,,5.381385803,5.385359764,25187.000000000,1718099748.118531227
1718099748.119538,,,,5.390737534,5.393461227,25188.000000000,1718099748.119538307
1718099748.120545,,,,5.399079800,5.399567604,25189.000000000,1718099748.120545387
1718099748.121552,,,,5.394968510,5.397451878,25190.000000000,1718099748.121552467
1718099748.122560,,,,5.389102936,5.392235279,25191.000000000,1718099748.122559547
1718099748.123567,,,,5.387660503,5.390192032,25192.000000000,1718099748.123566628
1718099748.124574,,,,5.381554127,5.383268356,25193.000000000,1718099748.124573708
1718099748.125581,,,,5.380592346,5.382931709,25194.000000000,1718099748.125580788
1718099748.126588,,,,5.381000996,5.381561279,25195.000000000,1718099748.126587868
1718099748.127595,,,,5.380400181,5.380815983,25196.000000000,1718099748.127594948
1718099748.128602,,,,5.380208015,5.380190849,25197.000000000,1718099748.128602028
1718099748.129609,,,,5.382659912,5.382931709,25198.000000000,1718099748.129609108
1718099748.130616,,,,5.388574123,5.388821602,25199.000000000,1718099748.130616188
1718099748.131623,,,,5.393141747,5.392715931,25200.000000000,1718099748.131623268
1718099748.132630,,,,5.395497799,5.397451878,25201.000000000,1718099748.132630348
1718099748.133637,,,,5.394031048,5.396418571,25202.000000000,1718099748.133637428
1718099748.134645,,,,5.390280724,5.392211437,25203.000000000,1718099748.134644508
1718099748.135652,,,,5.388886452,5.393437386,25204.000000000,1718099748.135651588
1718099748.136659,,,,5.390929699,5.394831657,25205.000000000,1718099748.136658669
1718099748.137666,,,,5.395377159,5.395096302,25206.000000000,1718099748.137665749
1718099748.138673,,,,5.399103642,5.401731491,25207.000000000,1718099748.138672829
1718099748.139680,,,,5.421725750,5.424642086,25208.000000000,1718099748.139679909
1718099748.140687,,,,5.454252720,5.457553387,25209.000000000,1718099748.140686989
1718099748.141694,,,,5.470864773,5.475319386,25210.000000000,1718099748.141694069
1718099748.142701,,,,5.463628292,5.465005875,25211.000000000,1718099748.142701149
1718099748.143708,,,,5.440910339,5.441446304,25212.000000000,1718099748.143708229
1718099748.144715,,,,5.425283909,5.427695274,25213.000000000,1718099748.144715309
1718099748.145722,,,,5.407902718,5.410193443,25214.000000000,1718099748.145722389
1718099748.146729,,,,5.372995853,5.374397278,25215.000000000,1718099748.146729469
1718099748.147737,,,,5.350157261,5.350501060,25216.000000000,1718099748.147736549
1718099748.148744,,,,5.334146023,5.335571766,25217.000000000,1718099748.148743629
1718099748.149751,,,,5.343329430,5.347014904,25218.000000000,1718099748.149750710
1718099748.150758,,,,5.358523369,5.362953663,25219.000000000,1718099748.150757790
1718099748.151765,,,,5.358258724,5.361631870,25220.000000000,1718099748.151764870
1718099748.152772,,,,5.343954563,5.347640038,25221.000000000,1718099748.152771950
1718099748.153779,,,,5.345998287,5.348361492,25222.000000000,1718099748.153779030
1718099748.154082,0.531847775,24531.000000000,1718099748.154081583,,,,
1718099748.154786,,,,5.367730618,5.367882252,25223.000000000,1718099748.154786110
1718099748.155793,,,,5.372875214,5.373651981,25224.000000000,1718099748.155793190
1718099748.156800,,,,5.373476505,5.372834682,25225.000000000,1718099748.156800270
1718099748.157807,,,,5.382924557,5.382523060,25226.000000000,1718099748.157807350
1718099748.158814,,,,5.389703751,5.389710903,25227.000000000,1718099748.158814430
1718099748.159082,0.567203343,24532.000000000,1718099748.159081697,,,,
1718099748.159822,,,,5.391626835,5.392860413,25228.000000000,1718099748.159821510
1718099748.160829,,,,5.390665531,5.392235279,25229.000000000,1718099748.160828590
1718099748.161836,,,,5.386770725,5.387667656,25230.000000000,1718099748.161835670
1718099748.162843,,,,5.383645535,5.386705875,25231.000000000,1718099748.162842751
1718099748.163850,,,,5.378380775,5.381946087,25232.000000000,1718099748.163849831
1718099748.164082,0.602550209,24533.000000000,1718099748.164081573,,,,
1718099748.164857,,,,5.370952129,5.373123169,25233.000000000,1718099748.164856911
1718099748.165864,,,,5.365879536,5.369324684,25234.000000000,1718099748.165863991
1718099748.166871,,,,5.370663643,5.373339176,25235.000000000,1718099748.166871071
1718099748.167878,,,,5.374726772,5.376969337,25236.000000000,1718099748.167878151
1718099748.168885,,,,5.377683640,5.376103878,25237.000000000,1718099748.168885231
1718099748.169082,0.549521565,24534.000000000,1718099748.169081688,,,,
1718099748.169892,,,,5.392179966,5.390889168,25238.000000000,1718099748.169892311
1718099748.170899,,,,5.406243801,5.410289764,25239.000000000,1718099748.170899391
1718099748.171906,,,,5.407926559,5.413198471,25240.000000000,1718099748.171906471
1718099748.172914,,,,5.407445908,5.407621384,25241.000000000,1718099748.172913551
1718099748.173921,,,,5.403190613,5.403582573,25242.000000000,1718099748.173920631
1718099748.174082,0.549521565,24535.000000000,1718099748.174081564,,,,
1718099748.174928,,,,5.408455372,5.410626411,25243.000000000,1718099748.174927711
1718099748.175935,,,,5.405522346,5.407717228,25244.000000000,1718099748.175934792
1718099748.176942,,,,5.401628017,5.406347275,25245.000000000,1718099748.176941872
1718099748.177949,,,,5.376914024,5.378652573,25246.000000000,1718099748.177948952
1718099748.178956,,,,5.340901375,5.342182636,25247.000000000,1718099748.178956032
1718099748.179082,0.584876835,24536.000000000,1718099748.179081678,,,,
1718099748.179963,,,,5.340084076,5.344178200,25248.000000000,1718099748.179963112
1718099748.180970,,,,5.374029160,5.378075600,25249.000000000,1718099748.180970192
1718099748.181977,,,,5.387179375,5.390480518,25250.000000000,1718099748.181977272
1718099748.182984,,,,5.385641098,5.386657715,25251.000000000,1718099748.182984352
1718099748.183991,,,,5.382443428,5.383436203,25252.000000000,1718099748.183991432
1718099748.184082,0.637896538,24537.000000000,1718099748.184081554,,,,
1718099748.184999,,,,5.379558563,5.382282257,25253.000000000,1718099748.184998512
1718099748.186006,,,,5.378452778,5.379830360,25254.000000000,1718099748.186005592
1718099748.187013,,,,5.377395153,5.376488686,25255.000000000,1718099748.187012672
1718099748.188020,,,,5.378260612,5.376825333,25256.000000000,1718099748.188019753
1718099748.189027,,,,5.376553535,5.378436089,25257.000000000,1718099748.189026833
1718099748.189082,0.673242271,24538.000000000,1718099748.189081669,,,,
1718099748.190034,,,,5.370086670,5.375647068,25258.000000000,1718099748.190033913
1718099748.191041,,,,5.369701862,5.372858524,25259.000000000,1718099748.191040993
1718099748.192048,,,,5.371745586,5.373772144,25260.000000000,1718099748.192048073
1718099748.193055,,,,5.373356342,5.374926090,25261.000000000,1718099748.193055153
1718099748.194062,,,,5.372611046,5.376344681,25262.000000000,1718099748.194062233
1718099748.194082,0.708595574,24539.000000000,1718099748.194081545,,,,
1718099748.195069,,,,5.382082939,5.383821011,25263.000000000,1718099748.195069313
1718099748.196076,,,,5.399392128,5.401250362,25264.000000000,1718099748.196076393
1718099748.197083,,,,5.412950993,5.414472580,25265.000000000,1718099748.197083473
1718099748.198091,,,,5.430885315,5.433849335,25266.000000000,1718099748.198090553
1718099748.199082,0.779284179,24540.000000000,1718099748.199081659,,,,
1718099748.199098,,,,5.445526123,5.447480679,25267.000000000,1718099748.199097633
1718099748.200105,,,,5.444949150,5.445004463,25268.000000000,1718099748.200104713
1718099748.201112,,,,5.430212021,5.430868626,25269.000000000,1718099748.201111794
1718099748.202119,,,,5.421317101,5.422670841,25270.000000000,1718099748.202118874
1718099748.203126,,,,5.410330772,5.412189007,25271.000000000,1718099748.203125954
1718099748.204133,,,,5.388477802,5.388196468,25272.000000000,1718099748.204133034
1718099748.205140,,,,5.360157967,5.360068798,25273.000000000,1718099748.205140114
1718099748.206147,,,,5.349748611,5.352135658,25274.000000000,1718099748.206147194
1718099748.207154,,,,5.356070995,5.358867168,25275.000000000,1718099748.207154274
1718099748.208161,,,,5.367658615,5.370310307,25276.000000000,1718099748.208161354
1718099748.209168,,,,5.385304451,5.385551929,25277.000000000,1718099748.209168434
1718099748.210176,,,,5.377731800,5.377979279,25278.000000000,1718099748.210175514
1718099748.211183,,,,5.376409531,5.376705170,25279.000000000,1718099748.211182594
1718099748.212190,,,,5.379149914,5.378820419,25280.000000000,1718099748.212189674
1718099748.213197,,,,5.382852077,5.384109497,25281.000000000,1718099748.213196754
1718099748.214204,,,,5.380159855,5.381777763,25282.000000000,1718099748.214203835
1718099748.215211,,,,5.373260021,5.378892899,25283.000000000,1718099748.215210915
1718099748.216218,,,,5.379294395,5.381633282,25284.000000000,1718099748.216217995
1718099748.217225,,,,5.382515907,5.383220196,25285.000000000,1718099748.217225075
1718099748.218232,,,,5.381962776,5.383484364,25286.000000000,1718099748.218232155
1718099748.219239,,,,5.377707481,5.380671978,25287.000000000,1718099748.219239235
1718099748.220246,,,,5.382852077,5.385407925,25288.000000000,1718099748.220246315
1718099748.221253,,,,5.388766289,5.390696526,25289.000000000,1718099748.221253395
1718099748.222260,,,,5.389318943,5.392620087,25290.000000000,1718099748.222260475
1718099748.223268,,,,5.393333912,5.395120144,25291.000000000,1718099748.223267555
1718099748.224275,,,,5.403575420,5.407789707,25292.000000000,1718099748.224274635
1718099748.225282,,,,5.411364555,5.413318634,25293.000000000,1718099748.225281715
1718099748.226289,,,,5.409512997,5.412477493,25294.000000000,1718099748.226288795
1718099748.227296,,,,5.410162449,5.413727760,25295.000000000,1718099748.227295876
1718099748.228303,,,,5.425548077,5.428103924,25296.000000000,1718099748.228302956
1718099748.229310,,,,5.450430393,5.452985764,25297.000000000,1718099748.229310036
1718099748.230317,,,,5.477692127,5.478589058,25298.000000000,1718099748.230317116
1718099748.231324,,,,5.503247261,5.503831387,25299.000000000,1718099748.231324196
1718099748.232331,,,,5.501372337,5.503711224,25300.000000000,1718099748.232331276
1718099748.233338,,,,5.474975586,5.475367546,25301.000000000,1718099748.233338356
1718099748.234345,,,,5.449901104,5.451375008,25302.000000000,1718099748.234345436
1718099748.235353,,,,5.422134399,5.425627708,25303.000000000,1718099748.235352516
1718099748.236360,,,,5.351191044,5.352472305,25304.000000000,1718099748.236359596
1718099748.237367,,,,5.303662777,5.305304527,25305.000000000,1718099748.237366676
1718099748.238374,,,,5.313879967,5.316627979,25306.000000000,1718099748.238373756
1718099748.239381,,,,5.349748611,5.352135658,25307.000000000,1718099748.239380836
1718099748.240388,,,,5.367153645,5.369829655,25308.000000000,1718099748.240387917
1718099748.241395,,,,5.368812561,5.373940468,25309.000000000,1718099748.241394997
1718099748.242402,,,,5.369581699,5.372594357,25310.000000000,1718099748.242402077
1718099748.243409,,,,5.359484673,5.363242149,25311.000000000,1718099748.243409157
1718099748.244416,,,,5.357801914,5.360790253,25312.000000000,1718099748.244416237
1718099748.245423,,,,5.358355045,5.360838413,25313.000000000,1718099748.245423317
1718099748.246430,,,,5.404729366,5.404423714,25314.000000000,1718099748.246430397
1718099748.247437,,,,5.477115154,5.477194786,25315.000000000,1718099748.247437477
1718099748.247885,1.344743013,24551.000000000,1718099748.247884512,,,,
1718099748.248445,,,,5.552410126,5.555470467,25316.000000000,1718099748.248444557
1718099748.249452,,,,5.578518391,5.577347279,25317.000000000,1718099748.249451637
1718099748.250459,,,,5.579143524,5.577755928,25318.000000000,1718099748.250458717
1718099748.251466,,,,5.612992287,5.616389275,25319.000000000,1718099748.251465797
1718099748.252473,,,,5.587509632,5.588478088,25320.000000000,1718099748.252472878
1718099748.252885,1.486084819,24552.000000000,1718099748.252884626,,,,
1718099748.253480,,,,5.418023586,5.418655872,25321.000000000,1718099748.253479958
1718099748.254487,,,,5.267385483,5.268594742,25322.000000000,1718099748.254487038
1718099748.255494,,,,5.255533695,5.258329391,25323.000000000,1718099748.255494118
1718099748.256501,,,,5.344579697,5.349082470,25324.000000000,1718099748.256501198
1718099748.257508,,,,5.440982342,5.445364952,25325.000000000,1718099748.257508278
1718099748.257885,1.627417445,24553.000000000,1718099748.257884502,,,,
1718099748.258515,,,,5.453339100,5.453298092,25326.000000000,1718099748.258515358
1718099748.259522,,,,5.432255745,5.433705330,25327.000000000,1718099748.259522438
1718099748.260530,,,,5.447497368,5.449018955,25328.000000000,1718099748.260529518
1718099748.261537,,,,5.549429417,5.552465439,25329.000000000,1718099748.261536598
1718099748.262544,,,,5.618449688,5.621918678,25330.000000000,1718099748.262543678
1718099748.262885,1.804076314,24554.000000000,1718099748.262884617,,,,
1718099748.263551,,,,5.575849533,5.575472355,25331.000000000,1718099748.263550758
1718099748.264558,,,,5.443338394,5.443609715,25332.000000000,1718099748.264557838
1718099748.265565,,,,5.352801800,5.356294632,25333.000000000,1718099748.265564919
1718099748.266572,,,,5.282122612,5.284365177,25334.000000000,1718099748.266571999
1718099748.267579,,,,5.205264568,5.208854198,25335.000000000,1718099748.267579079
1718099748.267884,1.963050604,24555.000000000,1718099748.267884493,,,,
1718099748.268586,,,,5.229257107,5.230706692,25336.000000000,1718099748.268586159
1718099748.269593,,,,5.295104504,5.297755718,25337.000000000,1718099748.269593239
1718099748.270600,,,,5.309528828,5.311939716,25338.000000000,1718099748.270600319
1718099748.271607,,,,5.345036507,5.347351551,25339.000000000,1718099748.271607399
1718099748.272614,,,,5.403911591,5.408702850,25340.000000000,1718099748.272614479
1718099748.272885,2.316283464,24556.000000000,1718099748.272884607,,,,
1718099748.277884,2.651810169,24557.000000000,1718099748.277884483,,,,
1718099748.282885,3.199130297,24558.000000000,1718099748.282884598,,,,
1718099748.284699,,,,5.471033096,5.469886303,25352.000000000,1718099748.284699440
1718099748.285707,,,,5.484543800,5.487532139,25353.000000000,1718099748.285706520
1718099748.286714,,,,5.483293533,5.485512733,25354.000000000,1718099748.286713600
1718099748.287721,,,,5.490433693,5.493974686,25355.000000000,1718099748.287720680
1718099748.287884,3.605117559,24559.000000000,1718099748.287884474,,,,
1718099748.288728,,,,5.430981636,5.436229706,25356.000000000,1718099748.288727760
1718099748.289735,,,,5.308158398,5.311579227,25357.000000000,1718099748.289734840
1718099748.290742,,,,5.180671215,5.183058739,25358.000000000,1718099748.290741920
1718099748.291749,,,,5.173892021,5.177000523,25359.000000000,1718099748.291749001
1718099748.292756,,,,5.179805756,5.185342312,25360.000000000,1718099748.292756081
1718099748.292885,4.222773552,24560.000000000,1718099748.292884588,,,,
1718099748.293763,,,,5.262817860,5.266623497,25361.000000000,1718099748.293763161
1718099748.294770,,,,5.389775753,5.392331600,25362.000000000,1718099748.294770241
1718099748.295777,,,,5.444396019,5.444763660,25363.000000000,1718099748.295777321
1718099748.296784,,,,5.419417858,5.420963764,25364.000000000,1718099748.296784401
1718099748.297791,,,,5.386218071,5.391754627,25365.000000000,1718099748.297791481
1718099748.298799,,,,5.463195801,5.467025280,25366.000000000,1718099748.298798561
1718099748.299806,,,,5.536014557,5.538281441,25367.000000000,1718099748.299805641
1718099748.300813,,,,5.478653908,5.478949547,25368.000000000,1718099748.300812721
1718099748.301820,,,,5.392612934,5.394831657,25369.000000000,1718099748.301819801
1718099748.302827,,,,5.377827644,5.381946087,25370.000000000,1718099748.302826881
1718099748.303834,,,,5.366913319,5.367401600,25371.000000000,1718099748.303833961
1718099748.304841,,,,5.364365101,5.364732742,25372.000000000,1718099748.304841042
1718099748.305848,,,,5.348955154,5.350332737,25373.000000000,1718099748.305848122
1718099748.306855,,,,5.332198620,5.331676960,25374.000000000,1718099748.306855202
1718099748.307862,,,,5.366096020,5.368916035,25375.000000000,1718099748.307862282
1718099748.308869,,,,5.461608887,5.462938309,25376.000000000,1718099748.308869362
1718099748.309876,,,,5.535293579,5.536502361,25377.000000000,1718099748.309876442
1718099748.310884,,,,5.548395634,5.551119328,25378.000000000,1718099748.310883522
1718099748.311891,,,,5.535317421,5.534170628,25379.000000000,1718099748.311890602
1718099748.312898,,,,5.646096230,5.647642136,25380.000000000,1718099748.312897682
1718099748.313905,,,,5.802239418,5.803424835,25381.000000000,1718099748.313904762
1718099748.314912,,,,5.736032009,5.737313271,25382.000000000,1718099748.314911842
1718099748.315919,,,,5.670088768,5.673509598,25383.000000000,1718099748.315918922
1718099748.316926,,,,5.663525581,5.663436413,25384.000000000,1718099748.316926003
1718099748.317933,,,,5.454781532,5.453490734,25385.000000000,1718099748.317933083
1718099748.318940,,,,5.287603855,5.288788795,25386.000000000,1718099748.318940163
1718099748.319947,,,,5.312413692,5.316627979,25387.000000000,1718099748.319947243
1718099748.320954,,,,5.613184929,5.616172791,25388.000000000,1718099748.320954323
1718099748.321961,,,,5.706846714,5.706445217,25389.000000000,1718099748.321961403
1718099748.322968,,,,5.536279202,5.536767006,25390.000000000,1718099748.322968483
1718099748.323976,,,,5.481105804,5.482916355,25391.000000000,1718099748.323975563
1718099748.324983,,,,5.635422230,5.636535168,25392.000000000,1718099748.324982643
1718099748.325990,,,,5.533538342,5.535396576,25393.000000000,1718099748.325989723
1718099748.326997,,,,5.250244617,5.255348206,25394.000000000,1718099748.326996803
1718099748.328004,,,,5.130186081,5.135121822,25395.000000000,1718099748.328003883
1718099748.329011,,,,5.258178234,5.258112907,25396.000000000,1718099748.329010963
1718099748.330018,,,,5.393045425,5.395720959,25397.000000000,1718099748.330018044
1718099748.331025,,,,5.402348995,5.403654575,25398.000000000,1718099748.331025124
1718099748.332032,,,,5.535749912,5.538618088,25399.000000000,1718099748.332032204
1718099748.333039,,,,5.550126553,5.551479816,25400.000000000,1718099748.333039284
1718099748.334046,,,,5.494015694,5.495417118,25401.000000000,1718099748.334046364
1718099748.335053,,,,5.420379639,5.421949387,25402.000000000,1718099748.335053444
1718099748.336061,,,,5.342055321,5.346654415,25403.000000000,1718099748.336060524
1718099748.337068,,,,5.208125591,5.209983826,25404.000000000,1718099748.337067604
1718099748.338075,,,,5.173146725,5.174692631,25405.000000000,1718099748.338074684
1718099748.339082,,,,5.223271370,5.228807449,25406.000000000,1718099748.339081764
1718099748.340089,,,,5.308783531,5.312059879,25407.000000000,1718099748.340088844
1718099748.341096,,,,5.455478668,5.459909439,25408.000000000,1718099748.341095924
1718099748.342103,,,,5.701413631,5.704473972,25409.000000000,1718099748.342103004
1718099748.343110,,,,5.731151581,5.733659267,25410.000000000,1718099748.343110085
1718099748.344117,,,,5.540918827,5.543859005,25411.000000000,1718099748.344117165
1718099748.345124,,,,5.422735691,5.426060200,25412.000000000,1718099748.345124245
1718099748.346131,,,,5.546207905,5.546984196,25413.000000000,1718099748.346131325
1718099748.347138,,,,5.454853535,5.456759930,25414.000000000,1718099748.347138405
1718099748.348145,,,,5.487500668,5.492099762,25415.000000000,1718099748.348145485
1718099748.349153,,,,5.603808880,5.608720303,25416.000000000,1718099748.349152565
1718099748.350160,,,,5.388020992,5.394783497,25417.000000000,1718099748.350159645
1718099748.351167,,,,5.281473160,5.285855770,25418.000000000,1718099748.351166725
1718099748.352174,,,,5.224064350,5.225754738,25419.000000000,1718099748.352173805
1718099748.352724,22.267980576,24571.000000000,1718099748.352724314,,,,
1718099748.355195,,,,5.373764992,5.374300957,25422.000000000,1718099748.355195045
1718099748.356202,,,,5.415210724,5.415843010,25423.000000000,1718099748.356202126
1718099748.357209,,,,5.482091427,5.484166145,25424.000000000,1718099748.357209206
1718099748.357724,25.502330780,24572.000000000,1718099748.357724428,,,,
1718099748.358216,,,,5.553612232,5.555951595,25425.000000000,1718099748.358216286
1718099748.359223,,,,5.585658073,5.589488029,25426.000000000,1718099748.359223366
1718099748.360230,,,,5.723771095,5.725340843,25427.000000000,1718099748.360230446
1718099748.361238,,,,5.746778011,5.745919704,25428.000000000,1718099748.361237526
1718099748.362245,,,,5.487428665,5.487435818,25429.000000000,1718099748.362244606
1718099748.362724,28.836362839,24573.000000000,1718099748.362724304,,,,
1718099748.363252,,,,5.382419586,5.381489277,25430.000000000,1718099748.363251686
1718099748.364259,,,,5.434347153,5.433032036,25431.000000000,1718099748.364258766
1718099748.365266,,,,5.524571419,5.526549816,25432.000000000,1718099748.365265846
1718099748.366273,,,,5.520628452,5.523641109,25433.000000000,1718099748.366272926
1718099748.367280,,,,5.525075912,5.527174950,25434.000000000,1718099748.367280006
1718099748.367724,32.391452789,24574.000000000,1718099748.367724419,,,,
1718099748.368287,,,,5.523849964,5.524939060,25435.000000000,1718099748.368287086
1718099748.369294,,,,5.456969261,5.456471443,25436.000000000,1718099748.369294167
1718099748.370301,,,,5.374918938,5.376368523,25437.000000000,1718099748.370301247
1718099748.371308,,,,5.425668240,5.427863598,25438.000000000,1718099748.371308327
1718099748.372315,,,,5.484784126,5.487051010,25439.000000000,1718099748.372315407
1718099748.372724,36.201221466,24575.000000000,1718099748.372724295,,,,
1718099748.373322,,,,5.464157581,5.465775490,25440.000000000,1718099748.373322487
1718099748.374330,,,,5.321789265,5.323599339,25441.000000000,1718099748.374329567
1718099748.375337,,,,5.216371536,5.217941284,25442.000000000,1718099748.375336647
1718099748.376344,,,,5.193100452,5.197314739,25443.000000000,1718099748.376343727
1718099748.377351,,,,5.263010025,5.264435768,25444.000000000,1718099748.377350807
1718099748.377724,39.969318390,24576.000000000,1718099748.377724409,,,,
1718099748.378358,,,,5.411797047,5.415073872,25445.000000000,1718099748.378357887
1718099748.379365,,,,5.489832878,5.493854523,25446.000000000,1718099748.379364967
1718099748.380372,,,,5.402974129,5.406899929,25447.000000000,1718099748.380372047
1718099748.381379,,,,5.328112125,5.331172466,25448.000000000,1718099748.381379128
1718099748.382386,,,,5.289719105,5.289077282,25449.000000000,1718099748.382386208
1718099748.382724,43.990318298,24577.000000000,1718099748.382724285,,,,
1718099748.383393,,,,5.382996559,5.385551929,25450.000000000,1718099748.383393288
1718099748.384400,,,,5.386241913,5.385479927,25451.000000000,1718099748.384400368
1718099748.385407,,,,5.352176666,5.353337765,25452.000000000,1718099748.385407448
1718099748.386415,,,,5.393261909,5.396153927,25453.000000000,1718099748.386414528
1718099748.387422,,,,5.258947372,5.259988308,25454.000000000,1718099748.387421608
1718099748.387724,48.038070679,24578.000000000,1718099748.387724400,,,,
1718099748.388429,,,,5.256759644,5.257488251,25455.000000000,1718099748.388428688
1718099748.389436,,,,5.461248398,5.463299274,25456.000000000,1718099748.389435768
1718099748.390443,,,,5.614939690,5.615499973,25457.000000000,1718099748.390442848
1718099748.391450,,,,5.752667904,5.752506733,25458.000000000,1718099748.391449928
1718099748.392457,,,,5.697038174,5.697069168,25459.000000000,1718099748.392457008
1718099748.392724,52.198627472,24579.000000000,1718099748.392724276,,,,
1718099748.393464,,,,5.477692127,5.477627277,25460.000000000,1718099748.393464088
1718099748.394471,,,,5.425235748,5.426396847,25461.000000000,1718099748.394471169
1718099748.395478,,,,5.530341148,5.530828953,25462.000000000,1718099748.395478249
1718099748.396485,,,,5.695331097,5.695819378,25463.000000000,1718099748.396485329
1718099748.397492,,,,5.680474281,5.681755543,25464.000000000,1718099748.397492409
1718099748.397724,56.333599091,24580.000000000,1718099748.397724390,,,,
1718099748.397764,60.511787415,24581.000000000,1718099748.397764206,,,,
1718099748.398499,,,,5.620997906,5.624563217,25465.000000000,1718099748.398499489
1718099748.399507,,,,5.603496552,5.603840351,25466.000000000,1718099748.399506569
1718099748.400514,,,,5.750528336,5.750247002,25467.000000000,1718099748.400513649
1718099748.401521,,,,6.074282169,6.076429367,25468.000000000,1718099748.401520729
1718099748.402528,,,,6.051972866,6.054119587,25469.000000000,1718099748.402527809
1718099748.402764,64.595817566,24582.000000000,1718099748.402764320,,,,
1718099748.403535,,,,5.778006554,5.780514240,25470.000000000,1718099748.403534889
1718099748.404542,,,,5.541976452,5.542440414,25471.000000000,1718099748.404541969
1718099748.405549,,,,5.288396835,5.288476467,25472.000000000,1718099748.405549049
1718099748.406556,,,,5.120810509,5.123197556,25473.000000000,1718099748.406556129
1718099748.407563,,,,5.124969482,5.127380848,25474.000000000,1718099748.407563210
1718099748.407764,68.603317261,24583.000000000,1718099748.407764196,,,,
1718099748.408570,,,,5.213101864,5.216042042,25475.000000000,1718099748.408570290
1718099748.409577,,,,5.355133533,5.355693817,25476.000000000,1718099748.409577370
1718099748.410584,,,,5.435260773,5.438272953,25477.000000000,1718099748.410584450
1718099748.411592,,,,5.451439857,5.455365658,25478.000000000,1718099748.411591530
1718099748.412599,,,,5.394415855,5.395096302,25479.000000000,1718099748.412598610
1718099748.412764,72.551803589,24584.000000000,1718099748.412764311,,,,
1718099748.413606,,,,5.583446503,5.583742142,25480.000000000,1718099748.413605690
1718099748.414613,,,,5.680858612,5.679447651,25481.000000000,1718099748.414612770
1718099748.415620,,,,5.703336716,5.704738140,25482.000000000,1718099748.415619850
1718099748.416627,,,,5.621526718,5.622303486,25483.000000000,1718099748.416626930
1718099748.417634,,,,5.184012890,5.185871124,25484.000000000,1718099748.417634010
1718099748.418641,,,,5.357321262,5.362256527,25485.000000000,1718099748.418641090
1718099748.419648,,,,5.916985035,5.918626785,25486.000000000,1718099748.419648170
1718099748.420655,,,,6.056924820,6.055634022,25487.000000000,1718099748.420655251
1718099748.421662,,,,6.115632057,6.114821911,25488.000000000,1718099748.421662331
1718099748.422669,,,,6.133662224,6.135616779,25489.000000000,1718099748.422669411
1718099748.426698,,,,5.527648449,5.528954029,25493.000000000,1718099748.426697731
1718099748.427705,,,,5.466633320,5.466736794,25494.000000000,1718099748.427704811
1718099748.428712,,,,5.436847210,5.441013336,25495.000000000,1718099748.428711891
1718099748.429719,,,,5.609266281,5.613023758,25496.000000000,1718099748.429718971
1718099748.430726,,,,5.760937691,5.763637543,25497.000000000,1718099748.430726051
1718099748.431733,,,,5.764760494,5.768205166,25498.000000000,1718099748.431733131
1718099748.432740,,,,5.689008713,5.693751812,25499.000000000,1718099748.432740211
1718099748.433747,,,,5.655424118,5.660047054,25500.000000000,1718099748.433747292
1718099748.434754,,,,5.537000179,5.538618088,25501.000000000,1718099748.434754372
1718099748.435761,,,,5.569599152,5.572178841,25502.000000000,1718099748.435761452
1718099748.436769,,,,5.867053032,5.869920731,25503.000000000,1718099748.436768532
1718099748.437776,,,,5.877558708,5.880258083,25504.000000000,1718099748.437775612
1718099748.438783,,,,5.562411308,5.561264515,25505.000000000,1718099748.438782692
1718099748.439790,,,,5.191489697,5.190486908,25506.000000000,1718099748.439789772
1718099748.440797,,,,5.280343533,5.279749393,25507.000000000,1718099748.440796852
1718099748.441804,,,,5.534860611,5.536790848,25508.000000000,1718099748.441803932
1718099748.442811,,,,5.916336060,5.917881966,25509.000000000,1718099748.442811012
1718099748.443818,,,,5.999155521,6.002120018,25510.000000000,1718099748.443818092
1718099748.444825,,,,5.853518009,5.856674671,25511.000000000,1718099748.444825172
1718099748.445832,,,,5.653068066,5.656801224,25512.000000000,1718099748.445832253
1718099748.446839,,,,5.625926018,5.630645275,25513.000000000,1718099748.446839333
1718099748.447764,98.600250244,24591.000000000,1718099748.447764158,,,,
1718099748.447846,,,,5.899892330,5.905044079,25514.000000000,1718099748.447846413
1718099748.448853,,,,6.101279736,6.102825642,25515.000000000,1718099748.448853493
1718099748.449861,,,,5.925928116,5.926656723,25516.000000000,1718099748.449860573
1718099748.450868,,,,5.709683418,5.711181164,25517.000000000,1718099748.450867653
1718099748.451875,,,,5.421100616,5.424329281,25518.000000000,1718099748.451874733
1718099748.452764,102.340850830,24592.000000000,1718099748.452764273,,,,
1718099748.452882,,,,5.492429256,5.493758678,25519.000000000,1718099748.452881813
1718099748.453889,,,,5.809499741,5.811839104,25520.000000000,1718099748.453888893
1718099748.454896,,,,6.118757248,6.121360779,25521.000000000,1718099748.454895973
1718099748.455903,,,,6.158568382,6.163696289,25522.000000000,1718099748.455903053
1718099748.456910,,,,5.733819962,5.739476681,25523.000000000,1718099748.456910133
1718099748.457764,106.158889771,24593.000000000,1718099748.457764149,,,,
1718099748.457917,,,,5.519883156,5.522703171,25524.000000000,1718099748.457917213
1718099748.458924,,,,5.453315258,5.453538895,25525.000000000,1718099748.458924294
1718099748.459931,,,,5.611549854,5.613384247,25526.000000000,1718099748.459931374
1718099748.460938,,,,5.836400986,5.838523865,25527.000000000,1718099748.460938454
1718099748.461946,,,,5.857436657,5.860208511,25528.000000000,1718099748.461945534
1718099748.462764,110.003692627,24594.000000000,1718099748.462764263,,,,
1718099748.462953,,,,5.539115906,5.540180683,25529.000000000,1718099748.462952614
1718099748.463960,,,,5.542866230,5.543738842,25530.000000000,1718099748.463959694
1718099748.464967,,,,5.785843849,5.787149429,25531.000000000,1718099748.464966774
1718099748.466981,,,,6.110294819,6.114893913,25533.000000000,1718099748.466980934
1718099748.467764,113.858390808,24595.000000000,1718099748.467764139,,,,
1718099748.467988,,,,6.199028492,6.197713852,25534.000000000,1718099748.467988014
1718099748.468995,,,,5.994924545,5.995845318,25535.000000000,1718099748.468995094
1718099748.470002,,,,5.377250671,5.378219604,25536.000000000,1718099748.470002174
1718099748.471009,,,,5.060516834,5.058600426,25537.000000000,1718099748.471009254
1718099748.472016,,,,4.950098515,4.948735237,25538.000000000,1718099748.472016335
1718099748.472764,117.672843933,24596.000000000,1718099748.472764254,,,,
1718099748.473023,,,,4.993106842,4.994244099,25539.000000000,1718099748.473023415
1718099748.474030,,,,5.635205746,5.635549545,25540.000000000,1718099748.474030495
1718099748.475038,,,,6.228790760,6.230072021,25541.000000000,1718099748.475037575
1718099748.476045,,,,6.268650055,6.269931316,25542.000000000,1718099748.476044655
1718099748.477052,,,,6.095894814,6.096911907,25543.000000000,1718099748.477051735
1718099748.477764,121.413902283,24597.000000000,1718099748.477764130,,,,
1718099748.478059,,,,5.964416981,5.963486671,25544.000000000,1718099748.478058815
1718099748.479066,,,,5.899363518,5.902423859,25545.000000000,1718099748.479065895
1718099748.480073,,,,5.952060223,5.952836514,25546.000000000,1718099748.480072975
1718099748.481080,,,,5.911359787,5.914587975,25547.000000000,1718099748.481080055
1718099748.482087,,,,5.787262440,5.789288998,25548.000000000,1718099748.482087135
1718099748.482764,125.082023621,24598.000000000,1718099748.482764244,,,,
1718099748.483094,,,,5.709322929,5.713200569,25549.000000000,1718099748.483094215
1718099748.487764,128.710876465,24599.000000000,1718099748.487764120,,,,
1718099748.492554,135.304489136,24601.000000000,1718099748.492553711,,,,
1718099748.492764,132.068191528,24600.000000000,1718099748.492764235,,,,
1718099748.497554,138.254699707,24602.000000000,1718099748.497553825,,,,
1718099748.502554,141.068817139,24603.000000000,1718099748.502553701,,,,
1718099748.507554,143.730865479,24604.000000000,1718099748.507553816,,,,
1718099748.524384,,,,5.396843910,5.398341656,25590.000000000,1718099748.524384499
1718099748.525392,,,,5.447954178,5.451855659,25591.000000000,1718099748.525391579
1718099748.526399,,,,5.793656826,5.797678947,25592.000000000,1718099748.526398659
1718099748.527406,,,,6.043630600,6.048638344,25593.000000000,1718099748.527405739
1718099748.528413,,,,6.164169788,6.169562340,25594.000000000,1718099748.528412819
1718099748.529420,,,,6.333896160,6.338086605,25595.000000000,1718099748.529419899
1718099748.530427,,,,6.336636543,6.336764336,25596.000000000,1718099748.530426979
1718099748.531434,,,,5.947876930,5.948942184,25597.000000000,1718099748.531434059
1718099748.532441,,,,5.648692608,5.649637222,25598.000000000,1718099748.532441139
1718099748.533448,,,,5.586836338,5.587059975,25599.000000000,1718099748.533448219
1718099748.534455,,,,5.694658279,5.695651054,25600.000000000,1718099748.534455299
1718099748.535462,,,,5.771731853,5.774095058,25601.000000000,1718099748.535462379
1718099748.536469,,,,5.965114117,5.969088078,25602.000000000,1718099748.536469460
1718099748.537477,,,,6.070171356,6.071909428,25603.000000000,1718099748.537476540
1718099748.538484,,,,5.870586872,5.873406887,25604.000000000,1718099748.538483620
1718099748.539491,,,,5.520796776,5.521741867,25605.000000000,1718099748.539490700
1718099748.540498,,,,5.559405804,5.560567379,25606.000000000,1718099748.540497780
1718099748.541505,,,,5.670473099,5.671105385,25607.000000000,1718099748.541504860
1718099748.542512,,,,6.205207348,6.208868504,25608.000000000,1718099748.542511940
1718099748.542554,161.644546509,24611.000000000,1718099748.542553663,,,,
1718099748.543519,,,,6.891516685,6.893423080,25609.000000000,1718099748.543519020
1718099748.544526,,,,7.187047005,7.187582970,25610.000000000,1718099748.544526100
1718099748.545533,,,,7.088096142,7.090026379,25611.000000000,1718099748.545533180
1718099748.546540,,,,6.484029293,6.486608982,25612.000000000,1718099748.546540260
1718099748.547547,,,,5.990140438,5.995725155,25613.000000000,1718099748.547547340
1718099748.547554,164.087951660,24612.000000000,1718099748.547553778,,,,
1718099748.548554,,,,5.962782383,5.966924667,25614.000000000,1718099748.548554420
1718099748.549562,,,,5.761779308,5.762339592,25615.000000000,1718099748.549561501
1718099748.550569,,,,5.700788498,5.703055382,25616.000000000,1718099748.550568581
1718099748.551576,,,,5.825078011,5.827441216,25617.000000000,1718099748.551575661
1718099748.552554,166.283447266,24613.000000000,1718099748.552553654,,,,
1718099748.552583,,,,5.725189686,5.728418350,25618.000000000,1718099748.552582741
1718099748.553590,,,,5.579792500,5.581314087,25619.000000000,1718099748.553589821
1718099748.554597,,,,5.739325523,5.742698193,25620.000000000,1718099748.554596901
1718099748.555604,,,,6.036346436,6.036642075,25621.000000000,1718099748.555603981
1718099748.556611,,,,5.989010334,5.989089966,25622.000000000,1718099748.556611061
1718099748.557554,168.346206665,24614.000000000,1718099748.557553768,,,,
1718099748.557618,,,,5.833804607,5.834677219,25623.000000000,1718099748.557618141
1718099748.558625,,,,5.835800171,5.841673374,25624.000000000,1718099748.558625221
1718099748.559632,,,,5.997424603,6.001110077,25625.000000000,1718099748.559632301
1718099748.560639,,,,6.034567356,6.038012505,25626.000000000,1718099748.560639381
1718099748.561646,,,,6.001872063,6.007096291,25627.000000000,1718099748.561646461
1718099748.562554,170.145736694,24615.000000000,1718099748.562553644,,,,
1718099748.562654,,,,5.938886166,5.942018509,25628.000000000,1718099748.562653542
1718099748.563661,,,,5.890372276,5.894778728,25629.000000000,1718099748.563660622
1718099748.564668,,,,5.969922543,5.971323967,25630.000000000,1718099748.564667702
1718099748.565675,,,,6.096760273,6.095204830,25631.000000000,1718099748.565674782
1718099748.566682,,,,6.097481251,6.099580288,25632.000000000,1718099748.566681862
1718099748.567554,171.764297485,24616.000000000,1718099748.567553759,,,,
1718099748.567689,,,,5.978913307,5.982502937,25633.000000000,1718099748.567688942
1718099748.568696,,,,5.668406010,5.669038296,25634.000000000,1718099748.568696022
1718099748.569703,,,,5.687037468,5.689761162,25635.000000000,1718099748.569703102
1718099748.570710,,,,5.737281799,5.739380836,25636.000000000,1718099748.570710182
1718099748.571717,,,,6.090053082,6.092296124,25637.000000000,1718099748.571717262
1718099748.572554,173.267578125,24617.000000000,1718099748.572553635,,,,
1718099748.572724,,,,6.326179028,6.329022884,25638.000000000,1718099748.572724342
1718099748.573731,,,,6.375967026,6.378666878,25639.000000000,1718099748.573731422
1718099748.574739,,,,6.214414597,6.216152668,25640.000000000,1718099748.574738503
1718099748.575746,,,,5.709466934,5.711469650,25641.000000000,1718099748.575745583
1718099748.576753,,,,5.817625523,5.819555759,25642.000000000,1718099748.576752663
1718099748.577554,174.606781006,24618.000000000,1718099748.577553749,,,,
1718099748.577760,,,,5.900324821,5.902928352,25643.000000000,1718099748.577759743
1718099748.578767,,,,6.100342274,6.103907585,25644.000000000,1718099748.578766823
1718099748.579774,,,,6.439626217,6.443215847,25645.000000000,1718099748.579773903
1718099748.580781,,,,6.616492748,6.617100716,25646.000000000,1718099748.580780983
1718099748.581788,,,,6.452969074,6.454875469,25647.000000000,1718099748.581788063
1718099748.582554,175.945327759,24619.000000000,1718099748.582553625,,,,
1718099748.582795,,,,6.070363522,6.071068287,25648.000000000,1718099748.582795143
1718099748.583802,,,,5.871716499,5.872084618,25649.000000000,1718099748.583802223
1718099748.584809,,,,5.999395847,6.000196457,25650.000000000,1718099748.584809303
1718099748.585816,,,,6.257952213,6.261036396,25651.000000000,1718099748.585816383
1718099748.586823,,,,6.492948532,6.496273041,25652.000000000,1718099748.586823463
1718099748.587554,177.054870605,24620.000000000,1718099748.587553740,,,,
1718099748.587831,,,,6.347959995,6.347846985,25653.000000000,1718099748.587830544
1718099748.588838,,,,5.872221470,5.873767376,25654.000000000,1718099748.588837624
1718099748.589845,,,,5.477379799,5.478901386,25655.000000000,1718099748.589844704
1718099748.590852,,,,5.186008453,5.187794685,25656.000000000,1718099748.590851784
1718099748.591859,,,,5.342463970,5.345957279,25657.000000000,1718099748.591858864
1718099748.592866,,,,5.844815254,5.848140240,25658.000000000,1718099748.592865944
1718099748.593873,,,,6.070291519,6.073039532,25659.000000000,1718099748.593873024
1718099748.594880,,,,6.095414162,6.096190453,25660.000000000,1718099748.594880104
1718099748.595887,,,,6.251052380,6.252694607,25661.000000000,1718099748.595887184
1718099748.596894,,,,6.053030491,6.053782940,25662.000000000,1718099748.596894264
1718099748.597901,,,,5.880203247,5.883599758,25663.000000000,1718099748.597901344
1718099748.597939,178.278137207,24621.000000000,1718099748.597939014,,,,
1718099748.598908,,,,5.815678120,5.817440510,25664.000000000,1718099748.598908424
1718099748.599916,,,,6.084595680,6.087607861,25665.000000000,1718099748.599915504
1718099748.600923,,,,6.140706539,6.142756939,25666.000000000,1718099748.600922585
1718099748.601930,,,,5.938453197,5.942090511,25667.000000000,1718099748.601929665
1718099748.602937,,,,5.752018929,5.754502296,25668.000000000,1718099748.602936745
1718099748.602939,179.435699463,24622.000000000,1718099748.602939129,,,,
1718099748.603944,,,,5.757307529,5.758661270,25669.000000000,1718099748.603943825
1718099748.604951,,,,5.720790386,5.723489761,25670.000000000,1718099748.604950905
1718099748.605958,,,,6.003963947,6.007913589,25671.000000000,1718099748.605957985
1718099748.606965,,,,6.507060051,6.511130333,25672.000000000,1718099748.606965065
1718099748.607939,180.625366211,24623.000000000,1718099748.607939005,,,,
1718099748.607972,,,,6.382866859,6.384268284,25673.000000000,1718099748.607972145
1718099748.608979,,,,6.106785297,6.108114719,25674.000000000,1718099748.608979225
1718099748.609986,,,,5.982519627,5.985411644,25675.000000000,1718099748.609986305
1718099748.610993,,,,5.692759037,5.695386410,25676.000000000,1718099748.610993385
1718099748.612000,,,,5.787166119,5.790226460,25677.000000000,1718099748.612000465
1718099748.613008,,,,6.112194061,6.114821911,25678.000000000,1718099748.613007545
1718099748.614015,,,,6.150875568,6.150594234,25679.000000000,1718099748.614014626
1718099748.615022,,,,6.003795624,6.003706455,25680.000000000,1718099748.615021706
1718099748.616029,,,,5.817192554,5.820878029,25681.000000000,1718099748.616028786
1718099748.617036,,,,5.760288715,5.763469219,25682.000000000,1718099748.617035866
1718099748.618043,,,,5.763245583,5.764238834,25683.000000000,1718099748.618042946
1718099748.619050,,,,5.759711742,5.760368347,25684.000000000,1718099748.619050026
1718099748.620057,,,,5.929293633,5.934445858,25685.000000000,1718099748.620057106
1718099748.621064,,,,5.944631577,5.945456028,25686.000000000,1718099748.621064186
1718099748.622071,,,,5.801999092,5.803929806,25687.000000000,1718099748.622071266
1718099748.623078,,,,5.996174812,6.001061916,25688.000000000,1718099748.623078346
1718099748.624085,,,,5.913883686,5.917641163,25689.000000000,1718099748.624085426
1718099748.625093,,,,5.745720387,5.749501705,25690.000000000,1718099748.625092506
1718099748.626100,,,,5.853421688,5.857011318,25691.000000000,1718099748.626099586
1718099748.627107,,,,5.949607849,5.951442242,25692.000000000,1718099748.627106667
1718099748.628114,,,,5.903570652,5.906943321,25693.000000000,1718099748.628113747
1718099748.629121,,,,5.936169624,5.936200619,25694.000000000,1718099748.629120827
1718099748.630128,,,,5.987279415,5.988849640,25695.000000000,1718099748.630127907
1718099748.631135,,,,6.044327736,6.045176506,25696.000000000,1718099748.631134987
1718099748.632142,,,,5.977543354,5.981469154,25697.000000000,1718099748.632142067
1718099748.633149,,,,5.847267628,5.849991322,25698.000000000,1718099748.633149147
1718099748.634156,,,,5.669487476,5.671442032,25699.000000000,1718099748.634156227
1718099748.635163,,,,5.760216713,5.761762619,25700.000000000,1718099748.635163307
1718099748.636170,,,,6.012714386,6.014765263,25701.000000000,1718099748.636170387
1718099748.637177,,,,6.080484867,6.083328724,25702.000000000,1718099748.637177467
1718099748.638185,,,,5.862533092,5.863598347,25703.000000000,1718099748.638184547
1718099748.639192,,,,5.882030010,5.885571480,25704.000000000,1718099748.639191628
1718099748.640199,,,,5.854888439,5.856938839,25705.000000000,1718099748.640198708
1718099748.641206,,,,5.766154766,5.769022942,25706.000000000,1718099748.641205788
1718099748.642213,,,,5.529691696,5.530323982,25707.000000000,1718099748.642212868
1718099748.643220,,,,5.538707256,5.538882732,25708.000000000,1718099748.643219948
1718099748.644227,,,,5.993987083,5.995268345,25709.000000000,1718099748.644227028
1718099748.645234,,,,6.494655132,6.495311737,25710.000000000,1718099748.645234108
1718099748.646241,,,,6.383659840,6.385710716,25711.000000000,1718099748.646241188
1718099748.647248,,,,6.142846107,6.143694401,25712.000000000,1718099748.647248268
1718099748.647939,188.289886475,24631.000000000,1718099748.647938967,,,,
1718099748.648255,,,,5.795628548,5.797750950,25713.000000000,1718099748.648255348
1718099748.649262,,,,5.735455036,5.742025375,25714.000000000,1718099748.649262428
1718099748.650270,,,,5.302628994,5.305449009,25715.000000000,1718099748.650269508
1718099748.651277,,,,5.212789536,5.215272903,25716.000000000,1718099748.651276588
1718099748.652284,,,,5.747811794,5.749694347,25717.000000000,1718099748.652283669
1718099748.652939,188.858657837,24632.000000000,1718099748.652939081,,,,
1718099748.653291,,,,6.162198544,6.167758942,25718.000000000,1718099748.653290749
1718099748.654298,,,,6.138254166,6.142660618,25719.000000000,1718099748.654297829
1718099748.655305,,,,5.782646656,5.783951759,25720.000000000,1718099748.655304909
1718099748.656312,,,,5.603039742,5.603527546,25721.000000000,1718099748.656311989
1718099748.657319,,,,5.706197739,5.706877708,25722.000000000,1718099748.657319069
1718099748.657939,189.411102295,24633.000000000,1718099748.657938957,,,,
1718099748.658326,,,,5.759831905,5.761762619,25723.000000000,1718099748.658326149
1718099748.659333,,,,5.604313850,5.608768463,25724.000000000,1718099748.659333229
1718099748.660340,,,,5.580441475,5.582492352,25725.000000000,1718099748.660340309
1718099748.661347,,,,5.914052010,5.916126728,25726.000000000,1718099748.661347389
1718099748.662354,,,,5.959080219,5.963510513,25727.000000000,1718099748.662354469
1718099748.662939,189.963439941,24634.000000000,1718099748.662939072,,,,
1718099748.663362,,,,6.144985676,6.148262501,25728.000000000,1718099748.663361549
1718099748.664369,,,,6.339449406,6.340923309,25729.000000000,1718099748.664368629
1718099748.665376,,,,6.179219246,6.180332184,25730.000000000,1718099748.665375710
1718099748.666383,,,,5.932948112,5.934830189,25731.000000000,1718099748.666382790
1718099748.667390,,,,6.059305191,6.059408665,25732.000000000,1718099748.667389870
1718099748.667939,190.434478760,24635.000000000,1718099748.667938948,,,,
1718099748.668397,,,,6.116449356,6.118788719,25733.000000000,1718099748.668396950
1718099748.669404,,,,5.997208118,5.997528076,25734.000000000,1718099748.669404030
1718099748.670411,,,,5.709154606,5.710988998,25735.000000000,1718099748.670411110
1718099748.671418,,,,5.521253586,5.524049759,25736.000000000,1718099748.671418190
1718099748.672425,,,,5.628907204,5.632039547,25737.000000000,1718099748.672425270
1718099748.672939,190.905456543,24636.000000000,1718099748.672939062,,,,
1718099748.673432,,,,5.894819736,5.897375107,25738.000000000,1718099748.673432350
1718099748.674439,,,,5.943381786,5.944975376,25739.000000000,1718099748.674439430
1718099748.675447,,,,5.827626228,5.828907490,25740.000000000,1718099748.675446510
1718099748.676454,,,,5.687926769,5.689664841,25741.000000000,1718099748.676453590
1718099748.677461,,,,5.639581203,5.640093327,25742.000000000,1718099748.677460670
1718099748.677939,191.376358032,24637.000000000,1718099748.677938938,,,,
1718099748.678468,,,,5.783752441,5.785105705,25743.000000000,1718099748.678467751
1718099748.679475,,,,5.947853088,5.947259426,25744.000000000,1718099748.679474831
1718099748.680482,,,,5.922995090,5.922569752,25745.000000000,1718099748.680481911
1718099748.681489,,,,6.148279190,6.149392128,25746.000000000,1718099748.681488991
1718099748.682496,,,,5.887439251,5.888792515,25747.000000000,1718099748.682496071
1718099748.682939,191.782257080,24638.000000000,1718099748.682939053,,,,
1718099748.683503,,,,5.738844395,5.742217541,25748.000000000,1718099748.683503151
1718099748.684510,,,,5.603472233,5.604465008,25749.000000000,1718099748.684510231
1718099748.685517,,,,5.610804558,5.614057541,25750.000000000,1718099748.685517311
1718099748.686524,,,,5.734036446,5.737385273,25751.000000000,1718099748.686524391
1718099748.687531,,,,5.786612988,5.787245274,25752.000000000,1718099748.687531471
1718099748.687939,192.123184204,24639.000000000,1718099748.687938929,,,,
1718099748.688539,,,,5.817168713,5.819724083,25753.000000000,1718099748.688538551
1718099748.689546,,,,5.832795143,5.837249756,25754.000000000,1718099748.689545631
1718099748.690553,,,,5.764399529,5.768950462,25755.000000000,1718099748.690552711
1718099748.691560,,,,5.781997204,5.785730839,25756.000000000,1718099748.691559792
1718099748.692567,,,,5.801950932,5.804001808,25757.000000000,1718099748.692566872
1718099748.692939,192.366653442,24640.000000000,1718099748.692939043,,,,
1718099748.693574,,,,5.948886871,5.951827049,25758.000000000,1718099748.693573952
1718099748.694581,,,,6.284685135,6.287384987,25759.000000000,1718099748.694581032
1718099748.695588,,,,6.417100430,6.419968605,25760.000000000,1718099748.695588112
1718099748.696595,,,,6.087071896,6.090060234,25761.000000000,1718099748.696595192
1718099748.697602,,,,5.654294014,5.658243656,25762.000000000,1718099748.697602272
1718099748.698609,,,,5.419706345,5.421083927,25763.000000000,1718099748.698609352
1718099748.699616,,,,5.474879265,5.477627277,25764.000000000,1718099748.699616432
1718099748.700624,,,,5.689321041,5.692237377,25765.000000000,1718099748.700623512
1718099748.701631,,,,5.567988396,5.567442894,25766.000000000,1718099748.701630592
1718099748.702638,,,,5.337800503,5.336894035,25767.000000000,1718099748.702637672
1718099748.703645,,,,5.756057739,5.760200024,25768.000000000,1718099748.703644753
1718099748.704149,192.675048828,24641.000000000,1718099748.704148769,,,,
1718099748.704652,,,,5.907729626,5.912857056,25769.000000000,1718099748.704651833
1718099748.705659,,,,5.484591961,5.488132954,25770.000000000,1718099748.705658913
1718099748.706666,,,,5.555871964,5.559773922,25771.000000000,1718099748.706665993
1718099748.707673,,,,5.812552929,5.814267159,25772.000000000,1718099748.707673073
1718099748.708680,,,,6.105006218,6.108258724,25773.000000000,1718099748.708680153
1718099748.709149,193.080795288,24642.000000000,1718099748.709148884,,,,
1718099748.709687,,,,6.301080704,6.304333687,25774.000000000,1718099748.709687233
1718099748.710694,,,,6.311129570,6.311521530,25775.000000000,1718099748.710694313
1718099748.711701,,,,6.195086002,6.196126938,25776.000000000,1718099748.711701393
1718099748.712708,,,,5.875587463,5.877469540,25777.000000000,1718099748.712708473
1718099748.713716,,,,5.782189846,5.785057545,25778.000000000,1718099748.713715553
1718099748.714149,193.616271973,24643.000000000,1718099748.714148760,,,,
1718099748.714723,,,,5.928524494,5.930671215,25779.000000000,1718099748.714722633
1718099748.715730,,,,5.958887577,5.961563587,25780.000000000,1718099748.715729713
1718099748.716737,,,,5.937779903,5.941104889,25781.000000000,1718099748.716736794
1718099748.717744,,,,5.532961369,5.534771442,25782.000000000,1718099748.717743874
1718099748.718751,,,,5.290680885,5.291505337,25783.000000000,1718099748.718750954
1718099748.719149,194.103012085,24644.000000000,1718099748.719148874,,,,
1718099748.719758,,,,5.456824780,5.457289219,25784.000000000,1718099748.719758034
1718099748.720765,,,,5.404440880,5.405577660,25785.000000000,1718099748.720765114
1718099748.721772,,,,5.367298126,5.369180202,25786.000000000,1718099748.721772194
1718099748.722779,,,,5.510147095,5.512510300,25787.000000000,1718099748.722779274
1718099748.723786,,,,5.811398983,5.813161373,25788.000000000,1718099748.723786354
1718099748.724149,194.670776367,24645.000000000,1718099748.724148750,,,,
1718099748.724793,,,,6.135994434,6.140256882,25789.000000000,1718099748.724793434
1718099748.725801,,,,6.247302055,6.248439312,25790.000000000,1718099748.725800514
1718099748.726808,,,,5.960883141,5.960072994,25791.000000000,1718099748.726807594
1718099748.727815,,,,5.711366177,5.712743759,25792.000000000,1718099748.727814674
1718099748.728822,,,,5.772813797,5.774047375,25793.000000000,1718099748.728821754
1718099748.729149,195.157348633,24646.000000000,1718099748.729148865,,,,
1718099748.729829,,,,5.974514008,5.975458622,25794.000000000,1718099748.729828835
1718099748.730836,,,,5.919437408,5.921968460,25795.000000000,1718099748.730835915
1718099748.731843,,,,5.822144985,5.825493813,25796.000000000,1718099748.731842995
1718099748.732850,,,,5.717400551,5.722047329,25797.000000000,1718099748.732850075
1718099748.733857,,,,5.669655800,5.668629169,25798.000000000,1718099748.733857155
1718099748.734149,195.757369995,24647.000000000,1718099748.734148741,,,,
1718099748.734864,,,,5.329266071,5.328071117,25799.000000000,1718099748.734864235
1718099748.735871,,,,5.429298401,5.432166576,25800.000000000,1718099748.735871315
1718099748.736878,,,,5.850152493,5.852419376,25801.000000000,1718099748.736878395
1718099748.737885,,,,6.012353897,6.014452457,25802.000000000,1718099748.737885475
1718099748.738893,,,,6.038606167,6.039670944,25803.000000000,1718099748.738892555
1718099748.739149,196.276214600,24648.000000000,1718099748.739148855,,,,
1718099748.739900,,,,5.893593788,5.894370079,25804.000000000,1718099748.739899635
1718099748.740907,,,,5.818971634,5.819964409,25805.000000000,1718099748.740906715
1718099748.741914,,,,5.740239143,5.744188786,25806.000000000,1718099748.741913795
1718099748.742921,,,,5.830078602,5.829580784,25807.000000000,1718099748.742920876
1718099748.743928,,,,5.693263531,5.693198681,25808.000000000,1718099748.743927956
1718099748.744149,196.827407837,24649.000000000,1718099748.744148731,,,,
1718099748.744935,,,,5.511685371,5.514288902,25809.000000000,1718099748.744935036
1718099748.745942,,,,5.534860611,5.534675598,25810.000000000,1718099748.745942116
1718099748.746949,,,,5.661121368,5.663124084,25811.000000000,1718099748.746949196
1718099748.747956,,,,5.894026279,5.898144245,25812.000000000,1718099748.747956276
1718099748.748963,,,,5.895829201,5.895884514,25813.000000000,1718099748.748963356
1718099748.749149,197.102981567,24650.000000000,1718099748.749148846,,,,
1718099748.749970,,,,5.640566826,5.641824245,25814.000000000,1718099748.749970436
1718099748.750978,,,,5.512262344,5.512293816,25815.000000000,1718099748.750977516
1718099748.751985,,,,5.462185860,5.461375713,25816.000000000,1718099748.751984596
1718099748.752992,,,,5.778391361,5.779864788,25817.000000000,1718099748.752991676
1718099748.753999,,,,6.064257622,6.064384937,25818.000000000,1718099748.753998756
1718099748.754149,197.443328857,24651.000000000,1718099748.754148722,,,,
1718099748.755006,,,,5.941939354,5.943052292,25819.000000000,1718099748.755005836
1718099748.756013,,,,5.731416225,5.733586788,25820.000000000,1718099748.756012917
1718099748.757020,,,,5.620084286,5.623649597,25821.000000000,1718099748.757019997
1718099748.758027,,,,5.845993519,5.849582672,25822.000000000,1718099748.758027077
1718099748.759034,,,,5.781756878,5.786548138,25823.000000000,1718099748.759034157
1718099748.759149,197.621612549,24652.000000000,1718099748.759148836,,,,
1718099748.760041,,,,5.478437424,5.479189873,25824.000000000,1718099748.760041237
1718099748.761048,,,,5.288252831,5.290351391,25825.000000000,1718099748.761048317
1718099748.762055,,,,5.468148232,5.470150471,25826.000000000,1718099748.762055397
1718099748.763062,,,,5.700812340,5.702021599,25827.000000000,1718099748.763062477
1718099748.764070,,,,5.903931141,5.906294346,25828.000000000,1718099748.764069557
1718099748.764149,197.864685059,24653.000000000,1718099748.764148712,,,,
1718099748.765077,,,,5.844983578,5.844846725,25829.000000000,1718099748.765076637
1718099748.766084,,,,5.894939899,5.896533966,25830.000000000,1718099748.766083717
1718099748.767091,,,,6.034879684,6.039743423,25831.000000000,1718099748.767090797
1718099748.768098,,,,5.971244335,5.975338459,25832.000000000,1718099748.768097878
1718099748.769105,,,,5.605299473,5.608287811,25833.000000000,1718099748.769104958
1718099748.769149,198.140182495,24654.000000000,1718099748.769148827,,,,
1718099748.770112,,,,5.435092449,5.436806679,25834.000000000,1718099748.770112038
1718099748.771119,,,,5.647322178,5.649108410,25835.000000000,1718099748.771119118
1718099748.772126,,,,5.870370388,5.872348785,25836.000000000,1718099748.772126198
1718099748.773133,,,,5.968480110,5.971011162,25837.000000000,1718099748.773133278
1718099748.774140,,,,6.036346436,6.039142132,25838.000000000,1718099748.774140358
1718099748.774149,198.367019653,24655.000000000,1718099748.774148703,,,,
1718099748.775147,,,,5.938861847,5.940359592,25839.000000000,1718099748.775147438
1718099748.776155,,,,5.778920174,5.781066895,25840.000000000,1718099748.776154518
1718099748.777162,,,,5.880659580,5.882638454,25841.000000000,1718099748.777161598
1718099748.778169,,,,5.648380280,5.650166035,25842.000000000,1718099748.778168678
1718099748.779149,198.642471313,24656.000000000,1718099748.779148817,,,,
1718099748.779176,,,,5.364148617,5.367040634,25843.000000000,1718099748.779175758
1718099748.780183,,,,5.569863796,5.573549271,25844.000000000,1718099748.780182838
1718099748.781190,,,,5.993890762,5.998297215,25845.000000000,1718099748.781189919
1718099748.782197,,,,6.158520222,6.163022995,25846.000000000,1718099748.782196999
1718099748.783204,,,,6.139167786,6.143069744,25847.000000000,1718099748.783204079
1718099748.784149,198.934066772,24657.000000000,1718099748.784148693,,,,
1718099748.784211,,,,6.047404766,6.051042080,25848.000000000,1718099748.784211159
1718099748.785218,,,,5.792166710,5.793351650,25849.000000000,1718099748.785218239
1718099748.786225,,,,5.469302177,5.469092846,25850.000000000,1718099748.786225319
1718099748.787232,,,,5.321861267,5.322277069,25851.000000000,1718099748.787232399
1718099748.788239,,,,5.459012508,5.459212303,25852.000000000,1718099748.788239479
1718099748.789149,199.209472656,24658.000000000,1718099748.789148808,,,,
1718099748.789247,,,,5.332799911,5.336389065,25853.000000000,1718099748.789246559
1718099748.790254,,,,5.399560452,5.402524471,25854.000000000,1718099748.790253639
1718099748.791261,,,,5.415066719,5.416419983,25855.000000000,1718099748.791260719
1718099748.792268,,,,5.687469959,5.689785004,25856.000000000,1718099748.792267799
1718099748.793275,,,,5.777597904,5.778230190,25857.000000000,1718099748.793274879
1718099748.794149,199.549606323,24659.000000000,1718099748.794148684,,,,
1718099748.794282,,,,5.655351639,5.654806137,25858.000000000,1718099748.794281960
1718099748.795289,,,,5.665328503,5.665528297,25859.000000000,1718099748.795289040
1718099748.796296,,,,5.846426010,5.847923756,25860.000000000,1718099748.796296120
1718099748.797303,,,,5.798970222,5.802463055,25861.000000000,1718099748.797303200
1718099748.798310,,,,5.637513638,5.640093327,25862.000000000,1718099748.798310280
1718099748.798616,200.229858398,24661.000000000,1718099748.798616409,,,,
1718099748.799149,199.905944824,24660.000000000,1718099748.799148798,,,,
1718099748.799317,,,,5.337872505,5.336340904,25863.000000000,1718099748.799317360
1718099748.800324,,,,5.284309864,5.286625385,25864.000000000,1718099748.800324440
1718099748.801332,,,,5.591957092,5.594608784,25865.000000000,1718099748.801331520
1718099748.802339,,,,5.918210983,5.919468403,25866.000000000,1718099748.802338600
1718099748.803346,,,,6.061973572,6.066668510,25867.000000000,1718099748.803345680
1718099748.803617,200.618499756,24662.000000000,1718099748.803616524,,,,
1718099748.804353,,,,6.126017570,6.128957748,25868.000000000,1718099748.804352760
1718099748.805360,,,,6.012330055,6.016207695,25869.000000000,1718099748.805359840
1718099748.806367,,,,5.838420391,5.842682838,25870.000000000,1718099748.806366920
1718099748.807374,,,,5.712688446,5.716590405,25871.000000000,1718099748.807374001
1718099748.808381,,,,5.717040062,5.720268250,25872.000000000,1718099748.808381081
1718099748.808616,200.877563477,24663.000000000,1718099748.808616400,,,,
1718099748.809388,,,,5.698552608,5.699689865,25873.000000000,1718099748.809388161
1718099748.810395,,,,5.695403576,5.695602894,25874.000000000,1718099748.810395241
1718099748.811402,,,,5.707159042,5.710219383,25875.000000000,1718099748.811402321
1718099748.812409,,,,5.765048981,5.768301487,25876.000000000,1718099748.812409401
1718099748.813416,,,,5.740046501,5.744140625,25877.000000000,1718099748.813416481
1718099748.813617,201.169006348,24664.000000000,1718099748.813616514,,,,
1718099748.814424,,,,5.668213367,5.669038296,25878.000000000,1718099748.814423561
1718099748.815431,,,,5.796469688,5.796765327,25879.000000000,1718099748.815430641
1718099748.816438,,,,5.720261097,5.722239971,25880.000000000,1718099748.816437721
1718099748.817445,,,,5.670785904,5.674639702,25881.000000000,1718099748.817444801
1718099748.818452,,,,5.719804287,5.720436573,25882.000000000,1718099748.818451881
1718099748.818616,201.460388184,24665.000000000,1718099748.818616390,,,,
1718099748.819459,,,,5.648620605,5.650815487,25883.000000000,1718099748.819458961
1718099748.820466,,,,5.416989803,5.417093277,25884.000000000,1718099748.820466042
1718099748.821473,,,,5.580224991,5.580352306,25885.000000000,1718099748.821473122
1718099748.822480,,,,5.671098232,5.671009541,25886.000000000,1718099748.822480202
1718099748.823487,,,,5.733483791,5.733490944,25887.000000000,1718099748.823487282
1718099748.823617,201.703231812,24666.000000000,1718099748.823616505,,,,
1718099748.824494,,,,5.845680714,5.847250462,25888.000000000,1718099748.824494362
1718099748.825501,,,,6.039783955,6.040608883,25889.000000000,1718099748.825501442
1718099748.826509,,,,6.148615837,6.153743744,25890.000000000,1718099748.826508522
1718099748.827516,,,,6.313894272,6.316762447,25891.000000000,1718099748.827515602
1718099748.828523,,,,6.038269520,6.037892342,25892.000000000,1718099748.828522682
1718099748.828616,201.994567871,24667.000000000,1718099748.828616381,,,,
1718099748.829530,,,,5.560776234,5.560494900,25893.000000000,1718099748.829529762
1718099748.830537,,,,5.319481373,5.319680691,25894.000000000,1718099748.830536842
1718099748.831544,,,,5.290488720,5.291409016,25895.000000000,1718099748.831543922
1718099748.832551,,,,5.369629860,5.368916035,25896.000000000,1718099748.832551003
1718099748.833558,,,,5.402253151,5.401683331,25897.000000000,1718099748.833558083
1718099748.833616,202.318298340,24668.000000000,1718099748.833616495,,,,
1718099748.834565,,,,5.326910019,5.329681873,25898.000000000,1718099748.834565163
1718099748.835572,,,,5.439900398,5.443609715,25899.000000000,1718099748.835572243
1718099748.836579,,,,5.706053257,5.707214355,25900.000000000,1718099748.836579323
1718099748.837586,,,,5.656385422,5.657883167,25901.000000000,1718099748.837586403
1718099748.838593,,,,5.700908661,5.705243111,25902.000000000,1718099748.838593483
1718099748.839601,,,,6.114117622,6.118139267,25903.000000000,1718099748.839600563
1718099748.840608,,,,5.972446442,5.974665642,25904.000000000,1718099748.840607643
1718099748.841615,,,,5.807360172,5.806478024,25905.000000000,1718099748.841614723
1718099748.842622,,,,5.566786289,5.565832138,25906.000000000,1718099748.842621803
1718099748.843629,,,,5.474398613,5.472458363,25907.000000000,1718099748.843628883
1718099748.844636,,,,5.596356392,5.598887920,25908.000000000,1718099748.844635963
1718099748.845643,,,,5.836377144,5.839629650,25909.000000000,1718099748.845643044
1718099748.846650,,,,6.233382702,6.236394882,25910.000000000,1718099748.846650124
1718099748.847657,,,,6.265501022,6.270844936,25911.000000000,1718099748.847657204
1718099748.848616,203.305435181,24671.000000000,1718099748.848616362,,,,
1718099748.848664,,,,5.860056877,5.864199162,25912.000000000,1718099748.848664284
1718099748.849671,,,,5.308855534,5.309415817,25913.000000000,1718099748.849671364
1718099748.850678,,,,5.229185104,5.230971336,25914.000000000,1718099748.850678444
1718099748.851686,,,,5.459685802,5.461832523,25915.000000000,1718099748.851685524
1718099748.852693,,,,5.629027367,5.629563332,25916.000000000,1718099748.852692604
1718099748.853616,203.693756104,24672.000000000,1718099748.853616476,,,,
1718099748.853700,,,,5.600419044,5.604032516,25917.000000000,1718099748.853699684
1718099748.854707,,,,5.506612778,5.512293816,25918.000000000,1718099748.854706764
1718099748.855714,,,,5.432880402,5.437095165,25919.000000000,1718099748.855713844
1718099748.856721,,,,5.553083420,5.557489872,25920.000000000,1718099748.856720924
1718099748.857728,,,,5.725502014,5.730750084,25921.000000000,1718099748.857728004
1718099748.858616,204.082031250,24673.000000000,1718099748.858616352,,,,
1718099748.858735,,,,5.998362064,6.001350403,25922.000000000,1718099748.858735085
1718099748.859742,,,,6.104934216,6.107874393,25923.000000000,1718099748.859742165
1718099748.860749,,,,6.110102654,6.110806942,25924.000000000,1718099748.860749245
1718099748.861756,,,,6.156428814,6.155810833,25925.000000000,1718099748.861756325
1718099748.862763,,,,6.244008541,6.246588230,25926.000000000,1718099748.862763405
1718099748.863616,204.502578735,24674.000000000,1718099748.863616467,,,,
1718099748.863770,,,,5.935376167,5.937835217,25927.000000000,1718099748.863770485
1718099748.864778,,,,5.532336235,5.534819603,25928.000000000,1718099748.864777565
1718099748.865785,,,,5.312485695,5.312468529,25929.000000000,1718099748.865784645
1718099748.866792,,,,5.393814564,5.395456791,25930.000000000,1718099748.866791725
1718099748.867799,,,,5.731752872,5.734860897,25931.000000000,1718099748.867798805
1718099748.868616,205.084869385,24675.000000000,1718099748.868616343,,,,
1718099748.868806,,,,5.363403320,5.366463661,25932.000000000,1718099748.868805885
1718099748.869813,,,,5.115232944,5.116947174,25933.000000000,1718099748.869812965
1718099748.870820,,,,5.057054996,5.058360100,25934.000000000,1718099748.870820045
1718099748.871827,,,,5.035466194,5.037372589,25935.000000000,1718099748.871827126
1718099748.872834,,,,5.398430347,5.400889874,25936.000000000,1718099748.872834206
1718099748.873616,205.586181641,24676.000000000,1718099748.873616457,,,,
1718099748.873841,,,,5.911455631,5.913121700,25937.000000000,1718099748.873841286
1718099748.874848,,,,6.064233303,6.062774181,25938.000000000,1718099748.874848366
1718099748.875855,,,,6.009420872,6.008466721,25939.000000000,1718099748.875855446
1718099748.876863,,,,5.903402328,5.902904510,25940.000000000,1718099748.876862526
1718099748.877870,,,,5.830799580,5.832417488,25941.000000000,1718099748.877869606
1718099748.878616,206.135940552,24677.000000000,1718099748.878616333,,,,
1718099748.878877,,,,5.744734764,5.747602463,25942.000000000,1718099748.878876686
1718099748.879884,,,,5.721776009,5.725148678,25943.000000000,1718099748.879883766
1718099748.880891,,,,5.653524876,5.657258034,25944.000000000,1718099748.880890846
1718099748.881898,,,,5.610059261,5.612999439,25945.000000000,1718099748.881897926
1718099748.882905,,,,5.597654343,5.598406792,25946.000000000,1718099748.882905006
1718099748.883616,206.669448853,24678.000000000,1718099748.883616447,,,,
1718099748.883912,,,,5.831256390,5.835013866,25947.000000000,1718099748.883912086
1718099748.884919,,,,5.855465412,5.857684135,25948.000000000,1718099748.884919167
1718099748.885926,,,,5.659655094,5.661898136,25949.000000000,1718099748.885926247
1718099748.886933,,,,5.628738880,5.631150246,25950.000000000,1718099748.886933327
1718099748.887940,,,,5.699634552,5.702791214,25951.000000000,1718099748.887940407
1718099748.888616,207.219039917,24679.000000000,1718099748.888616323,,,,
1718099748.888947,,,,5.453579426,5.455317497,25952.000000000,1718099748.888947487
1718099748.889955,,,,5.593206882,5.599056244,25953.000000000,1718099748.889954567
1718099748.890962,,,,5.774232388,5.776282787,25954.000000000,1718099748.890961647
1718099748.891969,,,,5.542746067,5.544484138,25955.000000000,1718099748.891968727
1718099748.892976,,,,5.391338348,5.394951820,25956.000000000,1718099748.892975807
1718099748.893616,207.800872803,24680.000000000,1718099748.893616438,,,,
1718099748.893983,,,,5.647803307,5.651969433,25957.000000000,1718099748.893982887
1718099748.894990,,,,6.138759136,6.144007206,25958.000000000,1718099748.894989967
1718099748.895997,,,,6.196143627,6.199444771,25959.000000000,1718099748.895997047
1718099748.897004,,,,5.820293903,5.821359158,25960.000000000,1718099748.897004128
1718099748.898011,,,,5.579672337,5.580472946,25961.000000000,1718099748.898011208
1718099748.899018,,,,5.362562180,5.360718250,25962.000000000,1718099748.899018288
1718099748.900025,,,,5.378428936,5.376152039,25963.000000000,1718099748.900025368
1718099748.901032,,,,5.551208019,5.552321434,25964.000000000,1718099748.901032448
1718099748.902040,,,,5.776347637,5.777966022,25965.000000000,1718099748.902039528
1718099748.903047,,,,5.804547310,5.805996895,25966.000000000,1718099748.903046608
1718099748.904054,,,,5.894122601,5.896485806,25967.000000000,1718099748.904053688
1718099748.905061,,,,6.083970547,6.089531422,25968.000000000,1718099748.905060768
1718099748.906068,,,,6.101231575,6.102993965,25969.000000000,1718099748.906067848
1718099748.907075,,,,5.797286987,5.799746513,25970.000000000,1718099748.907074928
1718099748.908082,,,,5.408215046,5.409592628,25971.000000000,1718099748.908082008
1718099748.909089,,,,5.286113262,5.287562847,25972.000000000,1718099748.909089088
1718099748.910096,,,,5.386458397,5.388076305,25973.000000000,1718099748.910096169
1718099748.911103,,,,5.402012348,5.404928684,25974.000000000,1718099748.911103249
1718099748.912110,,,,5.883929253,5.889393806,25975.000000000,1718099748.912110329
1718099748.913117,,,,6.062262058,6.064000130,25976.000000000,1718099748.913117409
1718099748.914124,,,,5.876524925,5.877974510,25977.000000000,1718099748.914124489
1718099748.915132,,,,5.680906773,5.681298733,25978.000000000,1718099748.915131569
1718099748.916139,,,,5.211491108,5.213109016,25979.000000000,1718099748.916138649
1718099748.917146,,,,4.940097809,4.940273285,25980.000000000,1718099748.917145729
1718099748.918153,,,,5.386169910,5.388653278,25981.000000000,1718099748.918152809
1718099748.919160,,,,5.494087696,5.495417118,25982.000000000,1718099748.919159889
1718099748.920167,,,,5.290320396,5.290760040,25983.000000000,1718099748.920166969
1718099748.921174,,,,5.287916183,5.289269447,25984.000000000,1718099748.921174049
1718099748.922181,,,,5.629772663,5.632400513,25985.000000000,1718099748.922181129
1718099748.923188,,,,6.049256325,6.053229809,25986.000000000,1718099748.923188210
1718099748.924195,,,,6.253071785,6.255411148,25987.000000000,1718099748.924195290
1718099748.925202,,,,6.046924114,6.046859264,25988.000000000,1718099748.925202370
1718099748.926209,,,,5.650688171,5.650045872,25989.000000000,1718099748.926209450
1718099748.927217,,,,5.427231312,5.426228523,25990.000000000,1718099748.927216530
1718099748.928224,,,,5.662563801,5.664566517,25991.000000000,1718099748.928223610
1718099748.929231,,,,5.833924770,5.836192131,25992.000000000,1718099748.929230690
1718099748.930238,,,,5.828708172,5.831960678,25993.000000000,1718099748.930237770
1718099748.931245,,,,5.749590874,5.750535488,25994.000000000,1718099748.931244850
1718099748.932252,,,,5.733411312,5.735270023,25995.000000000,1718099748.932251930
1718099748.933259,,,,5.672324657,5.672355652,25996.000000000,1718099748.933259010
1718099748.934266,,,,5.778343201,5.779167652,25997.000000000,1718099748.934266090
1718099748.935273,,,,5.668117523,5.669999599,25998.000000000,1718099748.935273170
1718099748.936280,,,,5.466705799,5.468395710,25999.000000000,1718099748.936280251
1718099748.937287,,,,5.598447800,5.602325439,26000.000000000,1718099748.937287331
1718099748.938294,,,,5.783199310,5.785947323,26001.000000000,1718099748.938294411
1718099748.939301,,,,5.737209797,5.738226891,26002.000000000,1718099748.939301491
1718099748.940309,,,,5.516637802,5.519938469,26003.000000000,1718099748.940308571
1718099748.941316,,,,5.381986618,5.382570744,26004.000000000,1718099748.941315651
1718099748.942323,,,,5.642971039,5.644155979,26005.000000000,1718099748.942322731
1718099748.943330,,,,6.029614925,6.032963753,26006.000000000,1718099748.943329811
1718099748.944337,,,,5.840415955,5.839269161,26007.000000000,1718099748.944336891
1718099748.945344,,,,5.694610119,5.695506573,26008.000000000,1718099748.945343971
1718099748.946351,,,,5.955017090,5.955432892,26009.000000000,1718099748.946351051
1718099748.947358,,,,5.835968494,5.835110188,26010.000000000,1718099748.947358131
1718099748.948365,,,,5.946218491,5.946634293,26011.000000000,1718099748.948365211
1718099748.949372,,,,5.485505581,5.483397007,26012.000000000,1718099748.949372292
1718099748.950379,,,,5.326645374,5.327758312,26013.000000000,1718099748.950379372
1718099748.951386,,,,5.514474392,5.516452789,26014.000000000,1718099748.951386452
1718099748.952394,,,,5.571281910,5.572250843,26015.000000000,1718099748.952393532
1718099748.953122,213.566223145,24691.000000000,1718099748.953121662,,,,
1718099748.953401,,,,5.624603748,5.626366138,26016.000000000,1718099748.953400612
1718099748.954408,,,,5.594240665,5.596916676,26017.000000000,1718099748.954407692
1718099748.955415,,,,5.525388718,5.527823925,26018.000000000,1718099748.955414772
1718099748.956422,,,,5.787839413,5.789601326,26019.000000000,1718099748.956421852
1718099748.957429,,,,5.919509411,5.920862675,26020.000000000,1718099748.957428932
1718099748.958122,213.824417114,24692.000000000,1718099748.958121777,,,,
1718099748.958436,,,,5.725021362,5.725317001,26021.000000000,1718099748.958436012
1718099748.959443,,,,5.604818821,5.607229710,26022.000000000,1718099748.959443092
1718099748.960450,,,,5.511373043,5.514938354,26023.000000000,1718099748.960450172
1718099748.961457,,,,5.394175529,5.397644520,26024.000000000,1718099748.961457253
1718099748.962464,,,,5.712544441,5.714089870,26025.000000000,1718099748.962464333
1718099748.963122,214.147155762,24693.000000000,1718099748.963121653,,,,
1718099748.963471,,,,6.344570160,6.349169254,26026.000000000,1718099748.963471413
1718099748.964478,,,,6.124406815,6.126601696,26027.000000000,1718099748.964478493
1718099748.965486,,,,5.723747253,5.725052357,26028.000000000,1718099748.965485573
1718099748.966493,,,,5.536399364,5.537079334,26029.000000000,1718099748.966492653
1718099748.967500,,,,5.496347427,5.499552250,26030.000000000,1718099748.967499733
1718099748.968122,214.437561035,24694.000000000,1718099748.968121767,,,,
1718099748.968507,,,,5.142086029,5.145434856,26031.000000000,1718099748.968506813
1718099748.969514,,,,4.826097488,4.827811241,26032.000000000,1718099748.969513893
1718099748.970521,,,,5.084581375,5.089179993,26033.000000000,1718099748.970520973
1718099748.971528,,,,5.660592556,5.665672302,26034.000000000,1718099748.971528053
1718099748.972535,,,,5.917585850,5.919588566,26035.000000000,1718099748.972535133
1718099748.973122,214.679595947,24695.000000000,1718099748.973121643,,,,
1718099748.973542,,,,5.911695957,5.915453434,26036.000000000,1718099748.973542213
1718099748.974549,,,,5.913523197,5.918482780,26037.000000000,1718099748.974549294
1718099748.975556,,,,5.696196556,5.696684837,26038.000000000,1718099748.975556374
1718099748.976563,,,,5.625878334,5.626798630,26039.000000000,1718099748.976563454
1718099748.977571,,,,5.631335258,5.634347439,26040.000000000,1718099748.977570534
1718099748.978122,215.018371582,24696.000000000,1718099748.978121758,,,,
1718099748.978578,,,,5.597365856,5.602085114,26041.000000000,1718099748.978577614
1718099748.979585,,,,5.647562504,5.649060249,26042.000000000,1718099748.979584694
1718099748.980592,,,,5.912104607,5.914780617,26043.000000000,1718099748.980591774
1718099748.981599,,,,5.981413841,5.983560562,26044.000000000,1718099748.981598854
1718099748.982606,,,,5.959729195,5.962212563,26045.000000000,1718099748.982605934
1718099748.983122,215.244232178,24697.000000000,1718099748.983121634,,,,
1718099748.983613,,,,5.877727032,5.880498886,26046.000000000,1718099748.983613014
1718099748.984620,,,,5.657515526,5.660022736,26047.000000000,1718099748.984620094
1718099748.985627,,,,5.749903202,5.750848293,26048.000000000,1718099748.985627174
1718099748.986634,,,,5.938140869,5.940624237,26049.000000000,1718099748.986634254
1718099748.987641,,,,6.013796329,6.015582561,26050.000000000,1718099748.987641335
1718099748.988122,215.550735474,24698.000000000,1718099748.988121748,,,,
1718099748.988648,,,,5.932322979,5.934301376,26051.000000000,1718099748.988648415
1718099748.989655,,,,5.832314014,5.834220886,26052.000000000,1718099748.989655495
1718099748.990663,,,,5.545366287,5.547464848,26053.000000000,1718099748.990662575
1718099748.991670,,,,5.475456238,5.479502678,26054.000000000,1718099748.991669655
1718099748.992677,,,,5.483582020,5.487195492,26055.000000000,1718099748.992676735
1718099748.993122,215.857192993,24699.000000000,1718099748.993121624,,,,
1718099748.993684,,,,5.254908562,5.254891872,26056.000000000,1718099748.993683815
1718099748.994691,,,,5.227502346,5.228615284,26057.000000000,1718099748.994690895
1718099748.995698,,,,5.340324402,5.341966629,26058.000000000,1718099748.995697975
1718099748.996705,,,,5.417302132,5.418271065,26059.000000000,1718099748.996705055
1718099748.997712,,,,5.482524395,5.483132362,26060.000000000,1718099748.997712135
1718099748.998122,216.195892334,24700.000000000,1718099748.998121738,,,,
1718099748.998719,,,,5.694730282,5.694448948,26061.000000000,1718099748.998719215
1718099748.999726,,,,5.933260441,5.933339596,26062.000000000,1718099748.999726295
1718099749.000733,,,,5.959152222,5.963462830,26063.000000000,1718099749.000733376
1718099749.001740,,,,6.200086594,6.206295967,26064.000000000,1718099749.001740456
1718099749.002748,,,,6.281271458,6.285822392,26065.000000000,1718099749.002747536
1718099749.003755,,,,5.788656712,5.791620731,26066.000000000,1718099749.003754616
1718099749.004762,,,,5.307413101,5.308766365,26067.000000000,1718099749.004761696
1718099749.005769,,,,5.126075268,5.125625610,26068.000000000,1718099749.005768776
1718099749.006776,,,,5.366889477,5.370118141,26069.000000000,1718099749.006775856
1718099749.007783,,,,5.375664234,5.377065659,26070.000000000,1718099749.007782936
1718099749.008790,,,,5.274814129,5.275975227,26071.000000000,1718099749.008790016
1718099749.009797,,,,5.477740288,5.479021549,26072.000000000,1718099749.009797096
1718099749.010804,,,,6.094933033,6.098955154,26073.000000000,1718099749.010804176
1718099749.011811,,,,5.968840599,5.970338345,26074.000000000,1718099749.011811256
1718099749.012818,,,,5.648740768,5.649348736,26075.000000000,1718099749.012818336
1718099749.013825,,,,5.860922337,5.862540245,26076.000000000,1718099749.013825417
1718099749.014832,,,,6.035576820,6.036930561,26077.000000000,1718099749.014832497
1718099749.015840,,,,6.118324757,6.120182991,26078.000000000,1718099749.015839577
1718099749.016847,,,,5.988721848,5.988729000,26079.000000000,1718099749.016846657
1718099749.017854,,,,5.841113091,5.840687752,26080.000000000,1718099749.017853737
1718099749.018861,,,,6.086230278,6.090781212,26081.000000000,1718099749.018860817
1718099749.019868,,,,6.267736435,6.272215366,26082.000000000,1718099749.019867897
1718099749.020875,,,,6.076325893,6.078712940,26083.000000000,1718099749.020874977
1718099749.021882,,,,5.879818439,5.880522728,26084.000000000,1718099749.021882057
1718099749.022889,,,,5.778679848,5.782124996,26085.000000000,1718099749.022889137
1718099749.024903,,,,5.248610020,5.250804901,26087.000000000,1718099749.024903297
1718099749.025910,,,,5.205481052,5.207123280,26088.000000000,1718099749.025910378
1718099749.026917,,,,5.273347378,5.275446415,26089.000000000,1718099749.026917458
1718099749.027925,,,,5.269284725,5.270758629,26090.000000000,1718099749.027924538
1718099749.028932,,,,5.201802731,5.205416203,26091.000000000,1718099749.028931618
1718099749.029939,,,,5.618377686,5.622904301,26092.000000000,1718099749.029938698
1718099749.030946,,,,5.733435631,5.735750675,26093.000000000,1718099749.030945778
1718099749.031953,,,,5.910542011,5.910933971,26094.000000000,1718099749.031952858
1718099749.032960,,,,5.998891354,5.996638775,26095.000000000,1718099749.032959938
1718099749.033967,,,,5.627945423,5.629227161,26096.000000000,1718099749.033967018
1718099749.034974,,,,5.341983318,5.347447872,26097.000000000,1718099749.034974098
1718099749.035981,,,,5.538875580,5.543738842,26098.000000000,1718099749.035981178
1718099749.036988,,,,5.747451305,5.751328945,26099.000000000,1718099749.036988258
1718099749.037995,,,,5.716751575,5.717239380,26100.000000000,1718099749.037995338
1718099749.039002,,,,5.655544281,5.656993866,26101.000000000,1718099749.039002419
1718099749.040009,,,,5.637826443,5.639588356,26102.000000000,1718099749.040009499
1718099749.041017,,,,5.533658504,5.536550522,26103.000000000,1718099749.041016579
1718099749.042024,,,,5.624579906,5.627592087,26104.000000000,1718099749.042023659
1718099749.043031,,,,5.698456287,5.699136734,26105.000000000,1718099749.043030739
1718099749.044038,,,,5.606645584,5.609200954,26106.000000000,1718099749.044037819
1718099749.045045,,,,5.609746933,5.615235329,26107.000000000,1718099749.045044899
1718099749.046052,,,,5.899555683,5.903120995,26108.000000000,1718099749.046051979
1718099749.047059,,,,5.980572224,5.983151913,26109.000000000,1718099749.047059059
1718099749.048066,,,,5.749999523,5.754333973,26110.000000000,1718099749.048066139
1718099749.048613,220.532257080,24711.000000000,1718099749.048613071,,,,
1718099749.049073,,,,5.623930931,5.627928734,26111.000000000,1718099749.049073219
1718099749.050080,,,,5.674488068,5.678077221,26112.000000000,1718099749.050080299
1718099749.051087,,,,5.803465366,5.804650784,26113.000000000,1718099749.051087379
1718099749.052094,,,,5.833516121,5.834965706,26114.000000000,1718099749.052094460
1718099749.053102,,,,5.541279316,5.541767597,26115.000000000,1718099749.053101540
1718099749.053613,220.822265625,24712.000000000,1718099749.053613186,,,,
1718099749.054109,,,,5.333520889,5.336701393,26116.000000000,1718099749.054108620
1718099749.055116,,,,5.206274509,5.209094524,26117.000000000,1718099749.055115700
1718099749.056123,,,,5.246277809,5.246357441,26118.000000000,1718099749.056122780
1718099749.057130,,,,5.463532448,5.463996410,26119.000000000,1718099749.057129860
1718099749.058137,,,,5.609795094,5.611341000,26120.000000000,1718099749.058136940
1718099749.058613,221.047836304,24713.000000000,1718099749.058613062,,,,
1718099749.059144,,,,5.623041153,5.624202251,26121.000000000,1718099749.059144020
1718099749.060151,,,,5.688695908,5.690674782,26122.000000000,1718099749.060151100
1718099749.061158,,,,5.681219578,5.685072899,26123.000000000,1718099749.061158180
1718099749.062165,,,,5.752860069,5.755776405,26124.000000000,1718099749.062165260
1718099749.063172,,,,5.546736717,5.550037384,26125.000000000,1718099749.063172340
1718099749.063613,221.128387451,24714.000000000,1718099749.063613176,,,,
1718099749.064179,,,,5.323159695,5.322733879,26126.000000000,1718099749.064179420
1718099749.065187,,,,5.295536995,5.297034740,26127.000000000,1718099749.065186501
1718099749.066194,,,,5.603880882,5.607326031,26128.000000000,1718099749.066193581
1718099749.067201,,,,5.786348820,5.788712025,26129.000000000,1718099749.067200661
1718099749.068208,,,,5.788464069,5.792510509,26130.000000000,1718099749.068207741
1718099749.068613,221.176712036,24715.000000000,1718099749.068613052,,,,
1718099749.069215,,,,6.005382061,6.007480621,26131.000000000,1718099749.069214821
1718099749.070222,,,,6.016561031,6.017818451,26132.000000000,1718099749.070221901
1718099749.071229,,,,6.019109249,6.023275375,26133.000000000,1718099749.071228981
1718099749.072236,,,,5.845055580,5.848332405,26134.000000000,1718099749.072236061
1718099749.073243,,,,5.883304119,5.887686729,26135.000000000,1718099749.073243141
1718099749.073613,221.176712036,24716.000000000,1718099749.073613167,,,,
1718099749.074250,,,,5.857725143,5.861097813,26136.000000000,1718099749.074250221
1718099749.075257,,,,5.636431694,5.636799812,26137.000000000,1718099749.075257301
1718099749.076264,,,,5.551905155,5.554509163,26138.000000000,1718099749.076264381
1718099749.077271,,,,5.645327091,5.645791054,26139.000000000,1718099749.077271461
1718099749.078279,,,,5.593904018,5.597974300,26140.000000000,1718099749.078278542
1718099749.078613,221.208938599,24717.000000000,1718099749.078613043,,,,
1718099749.079286,,,,5.787262440,5.789769650,26141.000000000,1718099749.079285622
1718099749.080293,,,,5.718145847,5.719715595,26142.000000000,1718099749.080292702
1718099749.081300,,,,5.463532448,5.466616631,26143.000000000,1718099749.081299782
1718099749.082307,,,,5.437280178,5.440557003,26144.000000000,1718099749.082306862
1718099749.083314,,,,5.767164230,5.769575596,26145.000000000,1718099749.083313942
1718099749.083613,221.273376465,24718.000000000,1718099749.083613157,,,,
1718099749.084321,,,,5.932971954,5.932402134,26146.000000000,1718099749.084321022
1718099749.085328,,,,5.906839848,5.907640457,26147.000000000,1718099749.085328102
1718099749.086335,,,,5.856258869,5.860328674,26148.000000000,1718099749.086335182
1718099749.087342,,,,6.039615631,6.043132782,26149.000000000,1718099749.087342262
1718099749.088349,,,,5.876116276,5.877565861,26150.000000000,1718099749.088349342
1718099749.088613,221.321701050,24719.000000000,1718099749.088613033,,,,
1718099749.089356,,,,5.790363312,5.790803432,26151.000000000,1718099749.089356422
1718099749.090364,,,,5.954296112,5.955000401,26152.000000000,1718099749.090363503
1718099749.091371,,,,5.706870556,5.708873272,26153.000000000,1718099749.091370583
1718099749.092378,,,,5.328905106,5.330379009,26154.000000000,1718099749.092377663
1718099749.093385,,,,5.158602238,5.160676956,26155.000000000,1718099749.093384743
1718099749.093613,221.466674805,24720.000000000,1718099749.093613148,,,,
1718099749.094392,,,,5.509570122,5.513255596,26156.000000000,1718099749.094391823
1718099749.095399,,,,6.064546108,6.066933155,26157.000000000,1718099749.095398903
1718099749.096406,,,,6.133013248,6.137684345,26158.000000000,1718099749.096405983
1718099749.097413,,,,5.907801628,5.911174297,26159.000000000,1718099749.097413063
1718099749.098420,,,,5.801181793,5.803016186,26160.000000000,1718099749.098420143
1718099749.099427,,,,5.835848331,5.837201595,26161.000000000,1718099749.099427223
1718099749.100434,,,,6.354643345,6.356308937,26162.000000000,1718099749.100434303
1718099749.101441,,,,6.229295731,6.229759693,26163.000000000,1718099749.101441383
1718099749.102448,,,,5.853926659,5.856073380,26164.000000000,1718099749.102448463
1718099749.103456,,,,5.404921532,5.407789707,26165.000000000,1718099749.103455544
1718099749.104463,,,,5.128022671,5.128029823,26166.000000000,1718099749.104462624
1718099749.105470,,,,5.381482124,5.381609440,26167.000000000,1718099749.105469704
1718099749.106477,,,,5.394511700,5.399567604,26168.000000000,1718099749.106476784
1718099749.107484,,,,5.257192135,5.262104034,26169.000000000,1718099749.107483864
1718099749.108491,,,,5.153264999,5.156998634,26170.000000000,1718099749.108490944
1718099749.109498,,,,5.286930561,5.292923927,26171.000000000,1718099749.109498024
1718099749.110505,,,,5.429563046,5.434041977,26172.000000000,1718099749.110505104
1718099749.111512,,,,5.589480877,5.594199657,26173.000000000,1718099749.111512184
1718099749.112519,,,,5.801301956,5.806069374,26174.000000000,1718099749.112519264
1718099749.113526,,,,6.028340816,6.032001972,26175.000000000,1718099749.113526344
1718099749.114533,,,,6.036875248,6.041546345,26176.000000000,1718099749.114533424
1718099749.115541,,,,5.961628437,5.964159966,26177.000000000,1718099749.115540504
1718099749.116548,,,,5.990549088,5.989690781,26178.000000000,1718099749.116547585
1718099749.117555,,,,6.083273411,6.086405754,26179.000000000,1718099749.117554665
1718099749.118562,,,,6.177752972,6.180740833,26180.000000000,1718099749.118561745
1718099749.119569,,,,6.131763458,6.134462833,26181.000000000,1718099749.119568825
1718099749.120576,,,,5.643740177,5.645983219,26182.000000000,1718099749.120575905
1718099749.121583,,,,5.262721539,5.266238689,26183.000000000,1718099749.121582985
1718099749.122590,,,,5.243104458,5.249266148,26184.000000000,1718099749.122590065
1718099749.123597,,,,5.129993916,5.132765770,26185.000000000,1718099749.123597145
1718099749.124604,,,,5.228872776,5.229841232,26186.000000000,1718099749.124604225
1718099749.125611,,,,5.352008343,5.353890419,26187.000000000,1718099749.125611305
1718099749.126618,,,,5.650471687,5.652642250,26188.000000000,1718099749.126618385
1718099749.127625,,,,5.695643902,5.698415756,26189.000000000,1718099749.127625465
1718099749.128633,,,,5.707520008,5.709858894,26190.000000000,1718099749.128632545
1718099749.129640,,,,5.710356712,5.712142944,26191.000000000,1718099749.129639626
1718099749.130647,,,,5.606140614,5.609898567,26192.000000000,1718099749.130646706
1718099749.131654,,,,5.372154236,5.375671387,26193.000000000,1718099749.131653786
1718099749.132661,,,,5.332583427,5.336245060,26194.000000000,1718099749.132660866
1718099749.133445,222.980728149,24729.000000000,1718099749.133445263,,,,
1718099749.133668,,,,5.413768291,5.415915012,26195.000000000,1718099749.133667946
1718099749.134675,,,,5.753028393,5.755968571,26196.000000000,1718099749.134675026
1718099749.135682,,,,5.929774761,5.934686184,26197.000000000,1718099749.135682106
1718099749.136689,,,,5.888256550,5.891797543,26198.000000000,1718099749.136689186
1718099749.137696,,,,5.842603683,5.843764782,26199.000000000,1718099749.137696266
1718099749.138445,222.980728149,24730.000000000,1718099749.138445377,,,,
1718099749.138703,,,,5.835295200,5.838115215,26200.000000000,1718099749.138703346
1718099749.139710,,,,5.825703144,5.827874184,26201.000000000,1718099749.139710426
1718099749.140718,,,,5.779833794,5.784264565,26202.000000000,1718099749.140717506
1718099749.141725,,,,5.760769367,5.764839649,26203.000000000,1718099749.141724586
1718099749.142732,,,,5.908186436,5.913602352,26204.000000000,1718099749.142731667
1718099749.143445,222.980728149,24731.000000000,1718099749.143445253,,,,
1718099749.143739,,,,5.958695412,5.961154938,26205.000000000,1718099749.143738747
1718099749.144746,,,,6.153471947,6.153935909,26206.000000000,1718099749.144745827
1718099749.145753,,,,5.951386929,5.952427864,26207.000000000,1718099749.145752907
1718099749.146760,,,,5.693287849,5.697982788,26208.000000000,1718099749.146759987
1718099749.147767,,,,5.476249695,5.480103493,26209.000000000,1718099749.147767067
1718099749.148445,223.045166016,24732.000000000,1718099749.148445368,,,,
1718099749.148774,,,,5.364942074,5.370550632,26210.000000000,1718099749.148774147
1718099749.149781,,,,5.457017422,5.461087227,26211.000000000,1718099749.149781227
1718099749.150788,,,,5.808321953,5.811694622,26212.000000000,1718099749.150788307
1718099749.151795,,,,6.040625572,6.043229103,26213.000000000,1718099749.151795387
1718099749.152802,,,,6.046250820,6.050753593,26214.000000000,1718099749.152802467
1718099749.153445,223.206207275,24733.000000000,1718099749.153445244,,,,
1718099749.153810,,,,6.252422810,6.256156445,26215.000000000,1718099749.153809547
1718099749.154817,,,,6.191864491,6.195934772,26216.000000000,1718099749.154816628
1718099749.155824,,,,5.825510979,5.830205917,26217.000000000,1718099749.155823708
1718099749.156831,,,,5.339603424,5.338720798,26218.000000000,1718099749.156830788
1718099749.157838,,,,5.149202347,5.148079395,26219.000000000,1718099749.157837868
1718099749.158445,223.399429321,24734.000000000,1718099749.158445358,,,,
1718099749.158845,,,,5.530725479,5.533545494,26220.000000000,1718099749.158844948
1718099749.159852,,,,6.029086113,6.030439377,26221.000000000,1718099749.159852028
1718099749.160859,,,,5.976172924,5.976516724,26222.000000000,1718099749.160859108
1718099749.161866,,,,5.770361900,5.769960403,26223.000000000,1718099749.161866188
1718099749.162873,,,,5.589961529,5.592468739,26224.000000000,1718099749.162873268
1718099749.163445,223.705383301,24735.000000000,1718099749.163445234,,,,
1718099749.163880,,,,5.833131790,5.834918022,26225.000000000,1718099749.163880348
1718099749.164887,,,,5.916311741,5.920766830,26226.000000000,1718099749.164887428
1718099749.165895,,,,5.809355736,5.814603806,26227.000000000,1718099749.165894508
1718099749.166902,,,,5.660304070,5.664109707,26228.000000000,1718099749.166901588
1718099749.167909,,,,5.580224991,5.581554413,26229.000000000,1718099749.167908669
1718099749.168445,224.059631348,24736.000000000,1718099749.168445349,,,,
1718099749.168916,,,,5.476153374,5.477675438,26230.000000000,1718099749.168915749
1718099749.169923,,,,5.642417908,5.647690296,26231.000000000,1718099749.169922829
1718099749.170930,,,,6.026225090,6.031232834,26232.000000000,1718099749.170929909
1718099749.171937,,,,5.860682011,5.862781048,26233.000000000,1718099749.171936989
1718099749.172944,,,,5.522070885,5.525203705,26234.000000000,1718099749.172944069
1718099749.173445,224.349426270,24737.000000000,1718099749.173445225,,,,
1718099749.173951,,,,5.290560722,5.292346954,26235.000000000,1718099749.173951149
1718099749.174958,,,,5.267890453,5.268041611,26236.000000000,1718099749.174958229
1718099749.175965,,,,5.581547260,5.581217766,26237.000000000,1718099749.175965309
1718099749.176972,,,,5.818130493,5.819916725,26238.000000000,1718099749.176972389
1718099749.177979,,,,5.651409149,5.654854298,26239.000000000,1718099749.177979469
1718099749.178445,224.687515259,24738.000000000,1718099749.178445339,,,,
1718099749.178987,,,,5.263611317,5.265686035,26240.000000000,1718099749.178986549
1718099749.179994,,,,5.148913860,5.151036739,26241.000000000,1718099749.179993629
1718099749.181001,,,,5.503295422,5.506499767,26242.000000000,1718099749.181000710
1718099749.182008,,,,5.645759583,5.648844242,26243.000000000,1718099749.182007790
1718099749.183015,,,,5.882030010,5.883984566,26244.000000000,1718099749.183014870
1718099749.183445,224.945083618,24739.000000000,1718099749.183445215,,,,
1718099749.184022,,,,6.034591198,6.036665916,26245.000000000,1718099749.184021950
1718099749.185029,,,,5.771659851,5.773518085,26246.000000000,1718099749.185029030
1718099749.186036,,,,5.731776714,5.735918999,26247.000000000,1718099749.186036110
1718099749.187043,,,,5.856691360,5.856987000,26248.000000000,1718099749.187043190
1718099749.188050,,,,5.665593147,5.665672302,26249.000000000,1718099749.188050270
1718099749.188445,225.073883057,24740.000000000,1718099749.188445330,,,,
1718099749.189057,,,,5.639821529,5.641463757,26250.000000000,1718099749.189057350
1718099749.190064,,,,5.699346066,5.699810028,26251.000000000,1718099749.190064430
1718099749.191072,,,,5.731031418,5.731303215,26252.000000000,1718099749.191071510
1718099749.192079,,,,5.762091637,5.764984131,26253.000000000,1718099749.192078590
1718099749.193086,,,,5.866644382,5.870545864,26254.000000000,1718099749.193085670
1718099749.194093,,,,6.068128109,6.073976994,26255.000000000,1718099749.194092751
1718099749.195100,,,,6.132316113,6.133862019,26256.000000000,1718099749.195099831
1718099749.196107,,,,5.954848766,5.954303265,26257.000000000,1718099749.196106911
1718099749.197114,,,,5.511276722,5.512365818,26258.000000000,1718099749.197113991
1718099749.198121,,,,5.227694511,5.229793549,26259.000000000,1718099749.198121071
1718099749.198295,225.218750000,24741.000000000,1718099749.198294640,,,,
1718099749.199128,,,,5.455959320,5.458563328,26260.000000000,1718099749.199128151
1718099749.200135,,,,5.753100872,5.753108025,26261.000000000,1718099749.200135231
1718099749.201142,,,,5.758870602,5.761185646,26262.000000000,1718099749.201142311
1718099749.202149,,,,5.679584503,5.682837486,26263.000000000,1718099749.202149391
1718099749.203156,,,,5.693431854,5.696612358,26264.000000000,1718099749.203156471
1718099749.203295,225.122177124,24742.000000000,1718099749.203294754,,,,
1718099749.204164,,,,5.638547421,5.640670300,26265.000000000,1718099749.204163551
1718099749.205171,,,,5.530653477,5.532391548,26266.000000000,1718099749.205170631
1718099749.206178,,,,5.365542889,5.369132519,26267.000000000,1718099749.206177711
1718099749.207185,,,,5.511853695,5.514890194,26268.000000000,1718099749.207184792
1718099749.208192,,,,5.783223629,5.788447380,26269.000000000,1718099749.208191872
1718099749.208295,224.993377686,24743.000000000,1718099749.208294630,,,,
1718099749.209199,,,,5.856138229,5.860160351,26270.000000000,1718099749.209198952
1718099749.210206,,,,5.531518936,5.534435272,26271.000000000,1718099749.210206032
1718099749.211213,,,,5.096457481,5.101921558,26272.000000000,1718099749.211213112
1718099749.212220,,,,5.012964249,5.015856743,26273.000000000,1718099749.212220192
1718099749.213227,,,,5.307268620,5.308550358,26274.000000000,1718099749.213227272
1718099749.213295,224.880691528,24744.000000000,1718099749.213294744,,,,
1718099749.214234,,,,5.607102394,5.609297276,26275.000000000,1718099749.214234352
1718099749.215241,,,,5.991582870,5.994186401,26276.000000000,1718099749.215241432
1718099749.216249,,,,6.147582054,6.150762558,26277.000000000,1718099749.216248512
1718099749.217256,,,,6.342742920,6.349072933,26278.000000000,1718099749.217255592
1718099749.218263,,,,6.491842270,6.495552063,26279.000000000,1718099749.218262672
1718099749.218295,224.735809326,24745.000000000,1718099749.218294621,,,,
1718099749.219270,,,,6.131258488,6.134174347,26280.000000000,1718099749.219269753
1718099749.220277,,,,6.007545948,6.010173321,26281.000000000,1718099749.220276833
1718099749.221284,,,,5.965402603,5.965818405,26282.000000000,1718099749.221283913
1718099749.222291,,,,5.753725529,5.754333973,26283.000000000,1718099749.222290993
1718099749.223295,224.784103394,24746.000000000,1718099749.223294735,,,,
1718099749.223298,,,,5.543106556,5.544099331,26284.000000000,1718099749.223298073
1718099749.224305,,,,5.604409695,5.606075764,26285.000000000,1718099749.224305153
1718099749.225312,,,,5.692879200,5.695939541,26286.000000000,1718099749.225312233
1718099749.226319,,,,5.662347794,5.663052082,26287.000000000,1718099749.226319313
1718099749.227326,,,,5.818947792,5.820421219,26288.000000000,1718099749.227326393
1718099749.228295,224.864593506,24747.000000000,1718099749.228294611,,,,
1718099749.228333,,,,6.060627460,6.060826778,26289.000000000,1718099749.228333473
1718099749.229341,,,,6.179940701,6.184106827,26290.000000000,1718099749.229340553
1718099749.230348,,,,6.337213516,6.341427803,26291.000000000,1718099749.230347633
1718099749.231355,,,,6.324352264,6.325345039,26292.000000000,1718099749.231354713
1718099749.232362,,,,5.930159092,5.930094242,26293.000000000,1718099749.232361794
1718099749.233295,225.170471191,24748.000000000,1718099749.233294725,,,,
1718099749.233369,,,,5.550727367,5.549604893,26294.000000000,1718099749.233368874
1718099749.234376,,,,5.401074886,5.402692795,26295.000000000,1718099749.234375954
1718099749.235383,,,,5.734156609,5.734019756,26296.000000000,1718099749.235383034
1718099749.236390,,,,5.809427738,5.808785915,26297.000000000,1718099749.236390114
1718099749.238295,225.508514404,24749.000000000,1718099749.238294601,,,,
1718099749.240418,,,,5.144802570,5.146541119,26301.000000000,1718099749.240418434
1718099749.241426,,,,5.173531055,5.175918579,26302.000000000,1718099749.241425514
1718099749.242433,,,,5.602775097,5.604753494,26303.000000000,1718099749.242432594
1718099749.243440,,,,5.507574558,5.508447170,26304.000000000,1718099749.243439674
1718099749.244447,,,,5.355926991,5.359011173,26305.000000000,1718099749.244446754
1718099749.245454,,,,5.781300068,5.787125111,26306.000000000,1718099749.245453835
1718099749.246461,,,,6.318846703,6.323397636,26307.000000000,1718099749.246460915
1718099749.247468,,,,6.341733456,6.343952179,26308.000000000,1718099749.247467995
1718099749.248295,226.377609253,24751.000000000,1718099749.248294592,,,,
1718099749.248475,,,,5.864288330,5.868791103,26309.000000000,1718099749.248475075
1718099749.249482,,,,5.289575100,5.291433334,26310.000000000,1718099749.249482155
1718099749.250489,,,,5.330828667,5.333792686,26311.000000000,1718099749.250489235
1718099749.253295,226.828216553,24752.000000000,1718099749.253294706,,,,
1718099749.257539,,,,6.104188919,6.107008934,26318.000000000,1718099749.257538795
1718099749.258295,227.310974121,24753.000000000,1718099749.258294582,,,,
1718099749.258546,,,,5.549116611,5.550277710,26319.000000000,1718099749.258545876
1718099749.259553,,,,5.381529808,5.382618904,26320.000000000,1718099749.259552956
1718099749.260560,,,,5.504930019,5.507870197,26321.000000000,1718099749.260560036
1718099749.261567,,,,5.643019199,5.646632195,26322.000000000,1718099749.261567116
1718099749.262574,,,,5.676098824,5.679784298,26323.000000000,1718099749.262574196
1718099749.263295,227.793670654,24754.000000000,1718099749.263294697,,,,
1718099749.263581,,,,5.671411037,5.676634789,26324.000000000,1718099749.263581276
1718099749.264588,,,,5.627777100,5.629924297,26325.000000000,1718099749.264588356
1718099749.265595,,,,5.676675797,5.677836895,26326.000000000,1718099749.265595436
1718099749.266603,,,,5.667420387,5.669831276,26327.000000000,1718099749.266602516
1718099749.268295,228.179809570,24755.000000000,1718099749.268294573,,,,
1718099749.272645,,,,5.659222126,5.661008358,26333.000000000,1718099749.272644997
1718099749.273295,228.405029297,24756.000000000,1718099749.273294687,,,,
1718099749.273652,,,,5.656578064,5.660503864,26334.000000000,1718099749.273652077
1718099749.274659,,,,5.675353527,5.680409431,26335.000000000,1718099749.274659157
1718099749.275666,,,,5.702951908,5.705171108,26336.000000000,1718099749.275666237
1718099749.276673,,,,5.826520443,5.828571320,26337.000000000,1718099749.276673317
1718099749.277680,,,,6.026249409,6.031232834,26338.000000000,1718099749.277680397
1718099749.278295,228.485458374,24757.000000000,1718099749.278294563,,,,
1718099749.278687,,,,5.780122280,5.785225868,26339.000000000,1718099749.278687477
1718099749.279695,,,,5.707880497,5.708368301,26340.000000000,1718099749.279694557
1718099749.280702,,,,6.011007786,6.010437965,26341.000000000,1718099749.280701637
1718099749.281709,,,,6.112578869,6.114388943,26342.000000000,1718099749.281708717
1718099749.282716,,,,5.654510498,5.655527115,26343.000000000,1718099749.282715797
1718099749.283295,228.453277588,24758.000000000,1718099749.283294678,,,,
1718099749.283723,,,,5.455286503,5.454524517,26344.000000000,1718099749.283722878
1718099749.284730,,,,5.459685802,5.462794304,26345.000000000,1718099749.284729958
1718099749.285737,,,,5.860754013,5.862925053,26346.000000000,1718099749.285737038
1718099749.286744,,,,6.136426926,6.136626720,26347.000000000,1718099749.286744118
1718099749.287751,,,,5.980019569,5.980315208,26348.000000000,1718099749.287751198
1718099749.288295,228.469375610,24759.000000000,1718099749.288294554,,,,
1718099749.288758,,,,5.532744884,5.534074306,26349.000000000,1718099749.288758278
1718099749.289765,,,,5.501540184,5.504793167,26350.000000000,1718099749.289765358
1718099749.290772,,,,5.540101528,5.545638084,26351.000000000,1718099749.290772438
1718099749.291780,,,,5.730189800,5.733827591,26352.000000000,1718099749.291779518
1718099749.292787,,,,5.939895630,5.940335751,26353.000000000,1718099749.292786598
1718099749.293295,228.276336670,24760.000000000,1718099749.293294668,,,,
1718099749.293794,,,,5.738532066,5.737986565,26354.000000000,1718099749.293793678
1718099749.294801,,,,5.623377800,5.625644684,26355.000000000,1718099749.294800758
1718099749.295808,,,,5.718602657,5.717504025,26356.000000000,1718099749.295807838
1718099749.296815,,,,5.673550606,5.673437595,26357.000000000,1718099749.296814919
1718099749.297822,,,,5.515508175,5.514288902,26358.000000000,1718099749.297821999
1718099749.298829,,,,5.518032074,5.521380901,26359.000000000,1718099749.298829079
1718099749.299836,,,,5.868302822,5.872781754,26360.000000000,1718099749.299836159
1718099749.300843,,,,6.365629673,6.368978500,26361.000000000,1718099749.300843239
1718099749.301850,,,,6.467345238,6.467809200,26362.000000000,1718099749.301850319
1718099749.302495,228.228073120,24761.000000000,1718099749.302495003,,,,
1718099749.302857,,,,6.313245296,6.314911366,26363.000000000,1718099749.302857399
1718099749.303864,,,,5.863735199,5.865232944,26364.000000000,1718099749.303864479
1718099749.304872,,,,5.504136562,5.504312515,26365.000000000,1718099749.304871559
1718099749.305879,,,,5.560439587,5.560350895,26366.000000000,1718099749.305878639
1718099749.306886,,,,5.678863525,5.679880142,26367.000000000,1718099749.306885719
1718099749.307495,228.131546021,24762.000000000,1718099749.307495117,,,,
1718099749.307893,,,,5.709202766,5.711012840,26368.000000000,1718099749.307892799
1718099749.308900,,,,5.696220875,5.696949005,26369.000000000,1718099749.308899879
1718099749.309907,,,,5.695018768,5.695723057,26370.000000000,1718099749.309906960
1718099749.310914,,,,5.514978886,5.518207550,26371.000000000,1718099749.310914040
1718099749.311921,,,,5.472235203,5.475656033,26372.000000000,1718099749.311921120
1718099749.312495,228.115463257,24763.000000000,1718099749.312494993,,,,
1718099749.312928,,,,5.875707626,5.880354404,26373.000000000,1718099749.312928200
1718099749.313935,,,,5.982904434,5.984570026,26374.000000000,1718099749.313935280
1718099749.314942,,,,5.756754875,5.756545544,26375.000000000,1718099749.314942360
1718099749.315949,,,,5.757932663,5.760031700,26376.000000000,1718099749.315949440
1718099749.316957,,,,6.025696278,6.029429913,26377.000000000,1718099749.316956520
1718099749.317495,228.067199707,24764.000000000,1718099749.317495108,,,,
1718099749.317964,,,,6.143158436,6.146170616,26378.000000000,1718099749.317963600
1718099749.318971,,,,5.935087681,5.937522888,26379.000000000,1718099749.318970680
1718099749.319978,,,,5.431197643,5.432262897,26380.000000000,1718099749.319977760
1718099749.320985,,,,5.148889542,5.150603771,26381.000000000,1718099749.320984840
1718099749.321992,,,,5.516998291,5.518784523,26382.000000000,1718099749.321991920
1718099749.322999,,,,5.713361740,5.717504025,26383.000000000,1718099749.322999001
1718099749.324006,,,,5.598880768,5.602854252,26384.000000000,1718099749.324006081
1718099749.325013,,,,5.816808224,5.821695328,26385.000000000,1718099749.325013161
1718099749.326020,,,,6.117170811,6.118596077,26386.000000000,1718099749.326020241
1718099749.327027,,,,6.148567677,6.149825096,26387.000000000,1718099749.327027321
1718099749.328034,,,,6.132749081,6.134174347,26388.000000000,1718099749.328034401
1718099749.329041,,,,5.649461746,5.651969433,26389.000000000,1718099749.329041481
1718099749.330049,,,,5.577244282,5.578765869,26390.000000000,1718099749.330048561
1718099749.331056,,,,5.662155151,5.664422512,26391.000000000,1718099749.331055641
1718099749.332063,,,,5.879481792,5.882734299,26392.000000000,1718099749.332062721
1718099749.333070,,,,6.039591789,6.042964458,26393.000000000,1718099749.333069801
1718099749.334077,,,,5.768919468,5.771811485,26394.000000000,1718099749.334076881
1718099749.335084,,,,5.495842934,5.500153065,26395.000000000,1718099749.335083961
1718099749.336091,,,,5.572123528,5.575352192,26396.000000000,1718099749.336091042
1718099749.337098,,,,5.693456173,5.694280624,26397.000000000,1718099749.337098122
1718099749.338105,,,,5.701557636,5.703368187,26398.000000000,1718099749.338105202
1718099749.339112,,,,5.761226177,5.762988567,26399.000000000,1718099749.339112282
1718099749.340119,,,,5.792046547,5.795659542,26400.000000000,1718099749.340119362
1718099749.341126,,,,5.700379848,5.701997757,26401.000000000,1718099749.341126442
1718099749.342134,,,,5.527672291,5.529049873,26402.000000000,1718099749.342133522
1718099749.343141,,,,5.430740833,5.433320522,26403.000000000,1718099749.343140602
1718099749.344148,,,,5.620228767,5.623601437,26404.000000000,1718099749.344147682
1718099749.345155,,,,5.853469849,5.858645916,26405.000000000,1718099749.345154762
1718099749.346162,,,,5.896574497,5.899274349,26406.000000000,1718099749.346161842
1718099749.347169,,,,5.969321251,5.970482349,26407.000000000,1718099749.347168922
1718099749.348176,,,,5.931289196,5.933387756,26408.000000000,1718099749.348176003
1718099749.349183,,,,5.810004711,5.812079430,26409.000000000,1718099749.349183083
1718099749.350190,,,,5.579047203,5.582516193,26410.000000000,1718099749.350190163
1718099749.351197,,,,5.659029961,5.663941383,26411.000000000,1718099749.351197243
1718099749.352204,,,,5.850056171,5.853861809,26412.000000000,1718099749.352204323
1718099749.352495,226.812133789,24771.000000000,1718099749.352494955,,,,
1718099749.353211,,,,5.809884548,5.811598301,26413.000000000,1718099749.353211403
1718099749.354218,,,,5.755264282,5.756713867,26414.000000000,1718099749.354218483
1718099749.355226,,,,5.563035965,5.566264629,26415.000000000,1718099749.355225563
1718099749.356233,,,,5.554525852,5.557081223,26416.000000000,1718099749.356232643
1718099749.357240,,,,5.885443687,5.887109756,26417.000000000,1718099749.357239723
1718099749.357495,226.522476196,24772.000000000,1718099749.357495070,,,,
1718099749.358247,,,,6.054304600,6.052364349,26418.000000000,1718099749.358246803
1718099749.359254,,,,6.074354649,6.075563908,26419.000000000,1718099749.359253883
1718099749.360261,,,,5.972398281,5.976228237,26420.000000000,1718099749.360260963
1718099749.361268,,,,5.825991631,5.829051971,26421.000000000,1718099749.361268044
1718099749.362275,,,,5.718217850,5.722167492,26422.000000000,1718099749.362275124
1718099749.362495,226.184494019,24773.000000000,1718099749.362494946,,,,
1718099749.363282,,,,5.909292221,5.914587975,26423.000000000,1718099749.363282204
1718099749.364289,,,,6.250186920,6.254209042,26424.000000000,1718099749.364289284
1718099749.365296,,,,6.361639023,6.366454124,26425.000000000,1718099749.365296364
1718099749.366303,,,,5.841666222,5.843235970,26426.000000000,1718099749.366303444
1718099749.367311,,,,5.521950722,5.524795055,26427.000000000,1718099749.367310524
1718099749.367495,225.943069458,24774.000000000,1718099749.367495060,,,,
1718099749.368318,,,,5.644725800,5.645838737,26428.000000000,1718099749.368317604
1718099749.369325,,,,5.633739471,5.633626461,26429.000000000,1718099749.369324684
1718099749.370332,,,,5.541615963,5.542056084,26430.000000000,1718099749.370331764
1718099749.371339,,,,5.606549740,5.608768463,26431.000000000,1718099749.371338844
1718099749.372346,,,,5.755576611,5.759670734,26432.000000000,1718099749.372345924
1718099749.372495,225.733840942,24775.000000000,1718099749.372494936,,,,
1718099749.373353,,,,5.726968765,5.732192516,26433.000000000,1718099749.373353004
1718099749.374360,,,,5.588110447,5.595233440,26434.000000000,1718099749.374360085
1718099749.375367,,,,5.680594444,5.682644844,26435.000000000,1718099749.375367165
1718099749.376374,,,,5.799907684,5.800323486,26436.000000000,1718099749.376374245
1718099749.377381,,,,6.076205730,6.078400612,26437.000000000,1718099749.377381325
1718099749.377495,225.637268066,24776.000000000,1718099749.377495050,,,,
1718099749.378388,,,,5.913210869,5.914299488,26438.000000000,1718099749.378388405
1718099749.379395,,,,5.422855854,5.422935009,26439.000000000,1718099749.379395485
1718099749.380403,,,,5.575417042,5.577227116,26440.000000000,1718099749.380402565
1718099749.381410,,,,5.780362606,5.783976078,26441.000000000,1718099749.381409645
1718099749.382417,,,,5.901118279,5.903144836,26442.000000000,1718099749.382416725
1718099749.382495,225.524597168,24777.000000000,1718099749.382494926,,,,
1718099749.383424,,,,6.109958649,6.114485264,26443.000000000,1718099749.383423805
1718099749.384431,,,,6.216073513,6.220047474,26444.000000000,1718099749.384430885
1718099749.385438,,,,6.117122650,6.117754936,26445.000000000,1718099749.385437965
1718099749.386445,,,,5.907921791,5.907183647,26446.000000000,1718099749.386445045
1718099749.387452,,,,5.773895741,5.775658131,26447.000000000,1718099749.387452126
1718099749.387495,225.492385864,24778.000000000,1718099749.387495041,,,,
1718099749.388459,,,,5.926048279,5.929445267,26448.000000000,1718099749.388459206
1718099749.389466,,,,5.950329304,5.949422836,26449.000000000,1718099749.389466286
1718099749.390473,,,,5.765890121,5.765728951,26450.000000000,1718099749.390473366
1718099749.391480,,,,5.476153374,5.475079060,26451.000000000,1718099749.391480446
1718099749.392488,,,,5.455767155,5.457938194,26452.000000000,1718099749.392487526
1718099749.392495,225.428009033,24779.000000000,1718099749.392494917,,,,
1718099749.393495,,,,5.532144070,5.532463551,26453.000000000,1718099749.393494606
1718099749.394502,,,,5.607054234,5.608143330,26454.000000000,1718099749.394501686
1718099749.395509,,,,5.717376232,5.722576141,26455.000000000,1718099749.395508766
1718099749.396516,,,,5.829525471,5.833379269,26456.000000000,1718099749.396515846
1718099749.397495,225.428009033,24780.000000000,1718099749.397495031,,,,
1718099749.397523,,,,5.847195148,5.850616455,26457.000000000,1718099749.397522926
1718099749.398530,,,,5.855080605,5.856746674,26458.000000000,1718099749.398530006
1718099749.399537,,,,5.871909142,5.873550892,26459.000000000,1718099749.399537086
1718099749.400544,,,,5.868134499,5.873334408,26460.000000000,1718099749.400544167
1718099749.401551,,,,5.871380329,5.874416351,26461.000000000,1718099749.401551247
1718099749.402558,,,,5.922899246,5.924949646,26462.000000000,1718099749.402558327
1718099749.403565,,,,6.083465576,6.085853100,26463.000000000,1718099749.403565407
1718099749.404572,,,,5.850248337,5.849510670,26464.000000000,1718099749.404572487
1718099749.405580,,,,5.658933640,5.659373760,26465.000000000,1718099749.405579567
1718099749.406587,,,,5.527167797,5.529578686,26466.000000000,1718099749.406586647
1718099749.407594,,,,5.512382507,5.515779495,26467.000000000,1718099749.407593727
1718099749.408601,,,,5.697374821,5.701516628,26468.000000000,1718099749.408600807
1718099749.409608,,,,5.862869740,5.869319916,26469.000000000,1718099749.409607887
1718099749.410615,,,,5.907152653,5.911005974,26470.000000000,1718099749.410614967
1718099749.411622,,,,5.952781200,5.954086781,26471.000000000,1718099749.411622047
1718099749.412629,,,,6.241676807,6.243871689,26472.000000000,1718099749.412629128
1718099749.413636,,,,6.497564316,6.501345634,26473.000000000,1718099749.413636208
1718099749.414643,,,,6.012353897,6.016808510,26474.000000000,1718099749.414643288
1718099749.415650,,,,5.386218071,5.387715816,26475.000000000,1718099749.415650368
1718099749.416657,,,,5.256302834,5.256983280,26476.000000000,1718099749.416657448
1718099749.417665,,,,5.224208832,5.225129604,26477.000000000,1718099749.417664528
