__time,/gdx/grip_force_stream/grip_force,/gdx/grip_force_stream/header/seq,/gdx/grip_force_stream/header/stamp,/shimmer0/emg_stream/emg_ch1,/shimmer0/emg_stream/emg_ch2,/shimmer0/emg_stream/header/seq,/shimmer0/emg_stream/header/stamp
1718099560.991763,,,,5.133827686,5.136093616,15167.000000000,1718099560.991763353
1718099560.992770,,,,5.139212608,5.139459133,15168.000000000,1718099560.992770433
1718099560.993684,0.249031216,3079.000000000,1718099560.993684292,,,,
1718099560.993778,,,,5.139405251,5.142103672,15169.000000000,1718099560.993777514
1718099560.994785,,,,5.139308929,5.140973568,15170.000000000,1718099560.994784594
1718099560.995792,,,,5.138371468,5.139723778,15171.000000000,1718099560.995791674
1718099560.996799,,,,5.142915249,5.144146919,15172.000000000,1718099560.996798754
1718099560.997806,,,,5.145318985,5.145205021,15173.000000000,1718099560.997805834
1718099560.998684,0.284391373,3080.000000000,1718099560.998684406,,,,
1718099560.998813,,,,5.144285202,5.146190643,15174.000000000,1718099560.998812914
1718099560.999820,,,,5.143444061,5.146022320,15175.000000000,1718099560.999819994
1718099561.000827,,,,5.141208172,5.144243240,15176.000000000,1718099561.000827074
1718099561.001834,,,,5.145679951,5.146070480,15177.000000000,1718099561.001834154
1718099561.002841,,,,5.150536060,5.153042316,15178.000000000,1718099561.002841234
1718099561.003848,,,,5.150968552,5.154171944,15179.000000000,1718099561.003848314
1718099561.004855,,,,5.155824661,5.158787727,15180.000000000,1718099561.004855394
1718099561.005862,,,,5.168782711,5.172539234,15181.000000000,1718099561.005862474
1718099561.006870,,,,5.181211472,5.184823513,15182.000000000,1718099561.006869555
1718099561.007877,,,,5.177557468,5.181650162,15183.000000000,1718099561.007876635
1718099561.008884,,,,5.166330338,5.168187618,15184.000000000,1718099561.008883715
1718099561.009891,,,,5.150295734,5.152320862,15185.000000000,1718099561.009890795
1718099561.010898,,,,5.143395901,5.144628048,15186.000000000,1718099561.010897875
1718099561.011905,,,,5.139717579,5.143137455,15187.000000000,1718099561.011904955
1718099561.012912,,,,5.130221844,5.135684967,15188.000000000,1718099561.012912035
1718099561.013919,,,,5.117360115,5.122534752,15189.000000000,1718099561.013919115
1718099561.014926,,,,5.126495361,5.128328323,15190.000000000,1718099561.014926195
1718099561.015933,,,,5.133226871,5.136646271,15191.000000000,1718099561.015933275
1718099561.016940,,,,5.131952763,5.134651184,15192.000000000,1718099561.016940355
1718099561.017947,,,,5.121014118,5.125131130,15193.000000000,1718099561.017947435
1718099561.018955,,,,5.118682384,5.120034695,15194.000000000,1718099561.018954515
1718099561.019962,,,,5.123826981,5.123303890,15195.000000000,1718099561.019961596
1718099561.020969,,,,5.140222549,5.140757561,15196.000000000,1718099561.020968676
1718099561.021976,,,,5.149045467,5.150614262,15197.000000000,1718099561.021975756
1718099561.022983,,,,5.142602444,5.143209457,15198.000000000,1718099561.022982836
1718099561.023990,,,,5.136063576,5.138978481,15199.000000000,1718099561.023989916
1718099561.024997,,,,5.138659954,5.141623020,15200.000000000,1718099561.024996996
1718099561.026004,,,,5.142049789,5.142368317,15201.000000000,1718099561.026004076
1718099561.027011,,,,5.137842655,5.140180588,15202.000000000,1718099561.027011156
1718099561.028018,,,,5.126735687,5.129169941,15203.000000000,1718099561.028018236
1718099561.029025,,,,5.120653629,5.125059128,15204.000000000,1718099561.029025316
1718099561.030032,,,,5.128106117,5.128520966,15205.000000000,1718099561.030032396
1718099561.031039,,,,5.158132553,5.157802105,15206.000000000,1718099561.031039476
1718099561.032047,,,,5.179216385,5.180832863,15207.000000000,1718099561.032046556
1718099561.033054,,,,5.181620121,5.182683945,15208.000000000,1718099561.033053637
1718099561.034061,,,,5.171138763,5.171409130,15209.000000000,1718099561.034060717
1718099561.035068,,,,5.164238930,5.163475513,15210.000000000,1718099561.035067797
1718099561.036075,,,,5.165152550,5.165543079,15211.000000000,1718099561.036074877
1718099561.037082,,,,5.166571140,5.166913509,15212.000000000,1718099561.037081957
1718099561.038089,,,,5.187173843,5.189295292,15213.000000000,1718099561.038089037
1718099561.039096,,,,5.230470657,5.232808590,15214.000000000,1718099561.039096117
1718099561.040103,,,,5.243813038,5.244516373,15215.000000000,1718099561.040103197
1718099561.041110,,,,5.205444336,5.207638264,15216.000000000,1718099561.041110277
1718099561.042117,,,,5.184721470,5.186001778,15217.000000000,1718099561.042117357
1718099561.043124,,,,5.130534172,5.132126808,15218.000000000,1718099561.043124437
1718099561.044132,,,,5.073654175,5.077386379,15219.000000000,1718099561.044131517
1718099561.045139,,,,5.081924438,5.083709240,15220.000000000,1718099561.045138597
1718099561.046146,,,,5.099017143,5.100056648,15221.000000000,1718099561.046145678
1718099561.047153,,,,5.110845089,5.111644268,15222.000000000,1718099561.047152758
1718099561.048160,,,,5.119042873,5.119818211,15223.000000000,1718099561.048159838
1718099561.049167,,,,5.123081684,5.124842644,15224.000000000,1718099561.049166918
1718099561.050174,,,,5.118730068,5.120563507,15225.000000000,1718099561.050173998
1718099561.051181,,,,5.124091148,5.127390862,15226.000000000,1718099561.051181078
1718099561.052188,,,,5.142674446,5.145589352,15227.000000000,1718099561.052188158
1718099561.053195,,,,5.164647579,5.166408539,15228.000000000,1718099561.053195238
1718099561.054202,,,,5.176331520,5.179222107,15229.000000000,1718099561.054202318
1718099561.055209,,,,5.160392761,5.161504269,15230.000000000,1718099561.055209398
1718099561.056216,,,,5.123802662,5.126862049,15231.000000000,1718099561.056216478
1718099561.057224,,,,5.117191792,5.122631073,15232.000000000,1718099561.057223558
1718099561.058231,,,,5.133034229,5.138810158,15233.000000000,1718099561.058230639
1718099561.058367,0.637896538,3091.000000000,1718099561.058366537,,,,
1718099561.059238,,,,5.136280060,5.141286373,15234.000000000,1718099561.059237719
1718099561.060245,,,,5.149021149,5.151215076,15235.000000000,1718099561.060244799
1718099561.061252,,,,5.159238815,5.162898540,15236.000000000,1718099561.061251879
1718099561.062259,,,,5.155031681,5.157393456,15237.000000000,1718099561.062258959
1718099561.063266,,,,5.148155689,5.153042316,15238.000000000,1718099561.063266039
1718099561.063367,0.673242271,3092.000000000,1718099561.063366652,,,,
1718099561.064273,,,,5.146088600,5.150037289,15239.000000000,1718099561.064273119
1718099561.065280,,,,5.142746925,5.145060539,15240.000000000,1718099561.065280199
1718099561.066287,,,,5.135270119,5.138569832,15241.000000000,1718099561.066287279
1718099561.067294,,,,5.139333248,5.140781403,15242.000000000,1718099561.067294359
1718099561.068301,,,,5.157820225,5.158355236,15243.000000000,1718099561.068301439
1718099561.068367,0.690923035,3093.000000000,1718099561.068366528,,,,
1718099561.069309,,,,5.168734550,5.172563076,15244.000000000,1718099561.069308519
1718099561.070316,,,,5.170176983,5.173068047,15245.000000000,1718099561.070315599
1718099561.071323,,,,5.161690712,5.163643837,15246.000000000,1718099561.071322680
1718099561.072330,,,,5.141520500,5.143041134,15247.000000000,1718099561.072329760
1718099561.073337,,,,5.129500389,5.132318974,15248.000000000,1718099561.073336840
1718099561.073367,0.761612236,3094.000000000,1718099561.073366642,,,,
1718099561.074344,,,,5.135462284,5.137776375,15249.000000000,1718099561.074343920
1718099561.075351,,,,5.137529850,5.141623020,15250.000000000,1718099561.075351000
1718099561.076358,,,,5.141208172,5.144579887,15251.000000000,1718099561.076358080
1718099561.077365,,,,5.141352654,5.142848969,15252.000000000,1718099561.077365160
1718099561.078367,0.779284179,3095.000000000,1718099561.078366518,,,,
1718099561.078372,,,,5.145727634,5.147488594,15253.000000000,1718099561.078372240
1718099561.079379,,,,5.146497250,5.145925999,15254.000000000,1718099561.079379320
1718099561.080386,,,,5.144213200,5.146214485,15255.000000000,1718099561.080386400
1718099561.081393,,,,5.142818928,5.145012379,15256.000000000,1718099561.081393480
1718099561.082401,,,,5.139982224,5.141478539,15257.000000000,1718099561.082400560
1718099561.083367,0.832307279,3096.000000000,1718099561.083366632,,,,
1718099561.083408,,,,5.137962818,5.140348911,15258.000000000,1718099561.083407640
1718099561.084415,,,,5.137409687,5.142175674,15259.000000000,1718099561.084414721
1718099561.085422,,,,5.136952877,5.140300751,15260.000000000,1718099561.085421801
1718099561.086429,,,,5.145198822,5.148113728,15261.000000000,1718099561.086428881
1718099561.087436,,,,5.161113739,5.163331509,15262.000000000,1718099561.087435961
1718099561.088367,0.956003845,3097.000000000,1718099561.088366508,,,,
1718099561.088443,,,,5.160801411,5.167225838,15263.000000000,1718099561.088443041
1718099561.089450,,,,5.148805141,5.151815891,15264.000000000,1718099561.089450121
1718099561.090457,,,,5.136015415,5.139170647,15265.000000000,1718099561.090457201
1718099561.091464,,,,5.134380817,5.139843941,15266.000000000,1718099561.091464281
1718099561.092471,,,,5.155536175,5.157417297,15267.000000000,1718099561.092471361
1718099561.093367,0.956003845,3098.000000000,1718099561.093366623,,,,
1718099561.093478,,,,5.176211357,5.176553726,15268.000000000,1718099561.093478441
1718099561.094486,,,,5.201766491,5.205234051,15269.000000000,1718099561.094485521
1718099561.095493,,,,5.230494976,5.233169079,15270.000000000,1718099561.095492601
1718099561.096500,,,,5.230158329,5.232399940,15271.000000000,1718099561.096499681
1718099561.097507,,,,5.212608814,5.215787888,15272.000000000,1718099561.097506762
1718099561.098366,1.044362307,3099.000000000,1718099561.098366499,,,,
1718099561.098514,,,,5.192342281,5.195882320,15273.000000000,1718099561.098513842
1718099561.099521,,,,5.160512924,5.162321568,15274.000000000,1718099561.099520922
1718099561.100528,,,,5.145487309,5.147873402,15275.000000000,1718099561.100528002
1718099561.101535,,,,5.157195091,5.160350323,15276.000000000,1718099561.101535082
1718099561.102542,,,,5.152146816,5.156816483,15277.000000000,1718099561.102542162
1718099561.103367,0.973682284,3100.000000000,1718099561.103366613,,,,
1718099561.103549,,,,5.153589249,5.156143188,15278.000000000,1718099561.103549242
1718099561.104556,,,,5.151449680,5.154268265,15279.000000000,1718099561.104556322
1718099561.105563,,,,5.145463467,5.147031784,15280.000000000,1718099561.105563402
1718099561.106570,,,,5.145318985,5.148402214,15281.000000000,1718099561.106570482
1718099561.107578,,,,5.151906013,5.155470371,15282.000000000,1718099561.107577562
1718099561.108585,,,,5.153276443,5.155999184,15283.000000000,1718099561.108584642
1718099561.109592,,,,5.159911633,5.165206432,15284.000000000,1718099561.109591722
1718099561.110599,,,,5.170561790,5.174270153,15285.000000000,1718099561.110598803
1718099561.111606,,,,5.171162605,5.172178268,15286.000000000,1718099561.111605883
1718099561.113271,1.097378969,3101.000000000,1718099561.113270760,,,,
1718099561.118271,1.097378969,3102.000000000,1718099561.118270874,,,,
1718099561.123271,1.150386214,3103.000000000,1718099561.123270750,,,,
1718099561.126712,,,,5.178735256,5.183116913,15301.000000000,1718099561.126712084
1718099561.127719,,,,5.182437897,5.185568810,15302.000000000,1718099561.127719164
1718099561.128271,1.238736749,3104.000000000,1718099561.128270864,,,,
1718099561.128726,,,,5.165825844,5.166481018,15303.000000000,1718099561.128726244
1718099561.129733,,,,5.135775089,5.137367725,15304.000000000,1718099561.129733324
1718099561.130740,,,,5.131760120,5.136526108,15305.000000000,1718099561.130740404
1718099561.131747,,,,5.141616821,5.144171238,15306.000000000,1718099561.131747484
1718099561.132755,,,,5.137554169,5.140925884,15307.000000000,1718099561.132754564
1718099561.133271,1.291740537,3105.000000000,1718099561.133270741,,,,
1718099561.133762,,,,5.108753681,5.111572266,15308.000000000,1718099561.133761644
1718099561.134769,,,,5.109426498,5.106739998,15309.000000000,1718099561.134768724
1718099561.135776,,,,5.119619846,5.120827675,15310.000000000,1718099561.135775805
1718099561.136783,,,,5.122336388,5.125106812,15311.000000000,1718099561.136782885
1718099561.137790,,,,5.127264500,5.132391453,15312.000000000,1718099561.137789965
1718099561.138797,,,,5.154141903,5.158595562,15313.000000000,1718099561.138797045
1718099561.139804,,,,5.171210766,5.171817780,15314.000000000,1718099561.139804125
1718099561.140811,,,,5.169095039,5.167995453,15315.000000000,1718099561.140811205
1718099561.141818,,,,5.152675629,5.153282642,15316.000000000,1718099561.141818285
1718099561.142825,,,,5.143972874,5.144988537,15317.000000000,1718099561.142825365
1718099561.143832,,,,5.146689415,5.149796486,15318.000000000,1718099561.143832445
1718099561.144840,,,,5.155344009,5.159004211,15319.000000000,1718099561.144839525
1718099561.145847,,,,5.157123089,5.160614967,15320.000000000,1718099561.145846605
1718099561.146854,,,,5.157146931,5.158956051,15321.000000000,1718099561.146853685
1718099561.147861,,,,5.159839630,5.163596153,15322.000000000,1718099561.147860765
1718099561.148868,,,,5.159671307,5.163860321,15323.000000000,1718099561.148867846
1718099561.149875,,,,5.155872822,5.158307076,15324.000000000,1718099561.149874926
1718099561.150882,,,,5.144453526,5.146743298,15325.000000000,1718099561.150882006
1718099561.151889,,,,5.134212494,5.138041019,15326.000000000,1718099561.151889086
1718099561.152896,,,,5.136063576,5.137752533,15327.000000000,1718099561.152896166
1718099561.153903,,,,5.134428978,5.137031078,15328.000000000,1718099561.153903246
1718099561.154910,,,,5.140799522,5.142848969,15329.000000000,1718099561.154910326
1718099561.155917,,,,5.161594391,5.165014267,15330.000000000,1718099561.155917406
1718099561.156924,,,,5.183471680,5.183309078,15331.000000000,1718099561.156924486
1718099561.157932,,,,5.171523094,5.175279617,15332.000000000,1718099561.157931566
1718099561.158939,,,,5.146352768,5.148546696,15333.000000000,1718099561.158938646
1718099561.159946,,,,5.129692554,5.128520966,15334.000000000,1718099561.159945726
1718099561.160953,,,,5.108152390,5.108615398,15335.000000000,1718099561.160952806
1718099561.161960,,,,5.108248711,5.110394001,15336.000000000,1718099561.161959887
1718099561.162967,,,,5.150511742,5.148810863,15337.000000000,1718099561.162966967
1718099561.163271,1.874729395,3111.000000000,1718099561.163270712,,,,
1718099561.163974,,,,5.200492382,5.202085018,15338.000000000,1718099561.163974047
1718099561.164981,,,,5.242130280,5.242064476,15339.000000000,1718099561.164981127
1718099561.165988,,,,5.213930607,5.217398643,15340.000000000,1718099561.165988207
1718099561.166995,,,,5.223354816,5.228048801,15341.000000000,1718099561.166995287
1718099561.168002,,,,5.224941254,5.226846695,15342.000000000,1718099561.168002367
1718099561.168271,1.927725792,3112.000000000,1718099561.168270826,,,,
1718099561.169009,,,,5.202944279,5.206123829,15343.000000000,1718099561.169009447
1718099561.170017,,,,5.160608768,5.165374756,15344.000000000,1718099561.170016527
1718099561.171024,,,,5.117047310,5.120250702,15345.000000000,1718099561.171023607
1718099561.172031,,,,5.134236336,5.136694431,15346.000000000,1718099561.172030687
1718099561.173038,,,,5.151257038,5.149748802,15347.000000000,1718099561.173037767
1718099561.173271,2.069029808,3113.000000000,1718099561.173270702,,,,
1718099561.174045,,,,5.149141788,5.150493622,15348.000000000,1718099561.174044847
1718099561.175052,,,,5.142362118,5.148233891,15349.000000000,1718099561.175051928
1718099561.176059,,,,5.142722607,5.148378372,15350.000000000,1718099561.176059008
1718099561.177066,,,,5.150752068,5.151383400,15351.000000000,1718099561.177066088
1718099561.178073,,,,5.196357250,5.199608803,15352.000000000,1718099561.178073168
1718099561.178271,2.174995422,3114.000000000,1718099561.178270817,,,,
1718099561.179080,,,,5.252491951,5.256152153,15353.000000000,1718099561.179080248
1718099561.180087,,,,5.262180328,5.266826153,15354.000000000,1718099561.180087328
1718099561.181094,,,,5.234966278,5.236390591,15355.000000000,1718099561.181094408
1718099561.182101,,,,5.217080116,5.217230320,15356.000000000,1718099561.182101488
1718099561.183109,,,,5.224580765,5.224370480,15357.000000000,1718099561.183108568
1718099561.183271,2.316283464,3115.000000000,1718099561.183270693,,,,
1718099561.184116,,,,5.253621578,5.254373074,15358.000000000,1718099561.184115648
1718099561.185123,,,,5.213401794,5.215355396,15359.000000000,1718099561.185122728
1718099561.186130,,,,5.224772930,5.226750374,15360.000000000,1718099561.186129808
1718099561.187137,,,,5.261530876,5.261921883,15361.000000000,1718099561.187136889
1718099561.188144,,,,5.261483192,5.263868809,15362.000000000,1718099561.188143969
1718099561.188271,2.492886305,3116.000000000,1718099561.188270807,,,,
1718099561.189151,,,,5.311583519,5.312118530,15363.000000000,1718099561.189151049
1718099561.190158,,,,5.359880924,5.359117508,15364.000000000,1718099561.190158129
1718099561.191165,,,,5.336369514,5.341303825,15365.000000000,1718099561.191165209
1718099561.192172,,,,5.243380547,5.247473240,15366.000000000,1718099561.192172289
1718099561.193179,,,,5.152218819,5.155470371,15367.000000000,1718099561.193179369
1718099561.193271,2.704779625,3117.000000000,1718099561.193270683,,,,
1718099561.194186,,,,5.060503960,5.061495781,15368.000000000,1718099561.194186449
1718099561.195194,,,,5.015379906,5.016804218,15369.000000000,1718099561.195193529
1718099561.196201,,,,5.054974556,5.057865620,15370.000000000,1718099561.196200609
1718099561.197208,,,,5.139308929,5.143257618,15371.000000000,1718099561.197207689
1718099561.198215,,,,5.187582493,5.190304756,15372.000000000,1718099561.198214769
1718099561.198271,3.004930973,3118.000000000,1718099561.198270798,,,,
1718099561.199222,,,,5.160224438,5.164677620,15373.000000000,1718099561.199221849
1718099561.200229,,,,5.156017303,5.159124374,15374.000000000,1718099561.200228930
1718099561.201236,,,,5.128875256,5.132006645,15375.000000000,1718099561.201236010
1718099561.202243,,,,5.080794334,5.084935188,15376.000000000,1718099561.202243090
1718099561.203250,,,,5.090554714,5.095272541,15377.000000000,1718099561.203250170
1718099561.203271,3.358002424,3119.000000000,1718099561.203270674,,,,
1718099561.204257,,,,5.111061573,5.113255024,15378.000000000,1718099561.204257250
1718099561.205264,,,,5.120196819,5.123303890,15379.000000000,1718099561.205264330
1718099561.206271,,,,5.131351471,5.134795189,15380.000000000,1718099561.206271410
1718099561.207278,,,,5.136400223,5.137680054,15381.000000000,1718099561.207278490
1718099561.207432,4.222773552,3121.000000000,1718099561.207431555,,,,
1718099561.208271,3.763959885,3120.000000000,1718099561.208270788,,,,
1718099561.208286,,,,5.131207466,5.131213188,15382.000000000,1718099561.208285570
1718099561.209293,,,,5.123778820,5.123280048,15383.000000000,1718099561.209292650
1718099561.210300,,,,5.119307041,5.122294426,15384.000000000,1718099561.210299730
1718099561.211307,,,,5.130101681,5.135997295,15385.000000000,1718099561.211306810
1718099561.212314,,,,5.145944118,5.150229454,15386.000000000,1718099561.212313890
1718099561.212432,4.716778278,3122.000000000,1718099561.212431669,,,,
1718099561.213321,,,,5.185875416,5.187372208,15387.000000000,1718099561.213320971
1718099561.214328,,,,5.233620167,5.235332966,15388.000000000,1718099561.214328051
1718099561.215335,,,,5.262516975,5.263965130,15389.000000000,1718099561.215335131
1718099561.216342,,,,5.257973194,5.258940697,15390.000000000,1718099561.216342211
1718099561.217349,,,,5.223138332,5.225692749,15391.000000000,1718099561.217349291
1718099561.217432,5.351760387,3123.000000000,1718099561.217431545,,,,
1718099561.218356,,,,5.194890499,5.195978642,15392.000000000,1718099561.218356371
1718099561.219363,,,,5.160705090,5.162971020,15393.000000000,1718099561.219363451
1718099561.220371,,,,5.188688278,5.189968586,15394.000000000,1718099561.220370531
1718099561.221378,,,,5.301678658,5.301756859,15395.000000000,1718099561.221377611
1718099561.222385,,,,5.380772114,5.381523609,15396.000000000,1718099561.222384691
1718099561.222432,5.968918324,3124.000000000,1718099561.222431660,,,,
1718099561.223392,,,,5.357404709,5.359213829,15397.000000000,1718099561.223391771
1718099561.224399,,,,5.247323036,5.252473831,15398.000000000,1718099561.224398851
1718099561.225406,,,,5.183928013,5.185496807,15399.000000000,1718099561.225405931
1718099561.226413,,,,5.096084118,5.097123623,15400.000000000,1718099561.226413012
1718099561.227420,,,,5.056657791,5.059692860,15401.000000000,1718099561.227420092
1718099561.228427,,,,5.045911312,5.049956322,15402.000000000,1718099561.228427172
1718099561.229434,,,,5.044156551,5.047696590,15403.000000000,1718099561.229434252
1718099561.230441,,,,5.043891907,5.044763565,15404.000000000,1718099561.230441332
1718099561.231448,,,,5.050551414,5.052672863,15405.000000000,1718099561.231448412
1718099561.232455,,,,5.065144062,5.067962646,15406.000000000,1718099561.232455492
1718099561.233463,,,,5.065192223,5.068010807,15407.000000000,1718099561.233462572
1718099561.234470,,,,5.074207306,5.078179836,15408.000000000,1718099561.234469652
1718099561.235477,,,,5.088150501,5.088517189,15409.000000000,1718099561.235476732
1718099561.236484,,,,5.109786987,5.111644268,15410.000000000,1718099561.236483812
1718099561.237491,,,,5.128490925,5.130299568,15411.000000000,1718099561.237490892
1718099561.238498,,,,5.138803959,5.138185024,15412.000000000,1718099561.238497972
1718099561.239505,,,,5.137529850,5.139483452,15413.000000000,1718099561.239505053
1718099561.240512,,,,5.135462284,5.137608051,15414.000000000,1718099561.240512133
1718099561.241519,,,,5.179889202,5.184006214,15415.000000000,1718099561.241519213
1718099561.242526,,,,5.337980270,5.344452858,15416.000000000,1718099561.242526293
1718099561.243533,,,,5.451667786,5.457155228,15417.000000000,1718099561.243533373
1718099561.244540,,,,5.434382439,5.435759068,15418.000000000,1718099561.244540453
1718099561.245548,,,,5.350553036,5.351016045,15419.000000000,1718099561.245547533
1718099561.246555,,,,5.255593300,5.257618427,15420.000000000,1718099561.246554613
1718099561.247562,,,,5.130918980,5.133208752,15421.000000000,1718099561.247561693
1718099561.248569,,,,5.033530712,5.035868645,15422.000000000,1718099561.248568773
1718099561.249576,,,,5.034828663,5.035435677,15423.000000000,1718099561.249575853
1718099561.250583,,,,5.046392441,5.047167778,15424.000000000,1718099561.250582933
1718099561.251590,,,,5.034708500,5.034233570,15425.000000000,1718099561.251590014
1718099561.252597,,,,4.974198341,4.976151943,15426.000000000,1718099561.252597094
1718099561.253604,,,,4.969655037,4.975166321,15427.000000000,1718099561.253604174
1718099561.254611,,,,4.999128819,5.002043247,15428.000000000,1718099561.254611254
1718099561.255618,,,,5.044180393,5.048730373,15429.000000000,1718099561.255618334
1718099561.256625,,,,5.042065144,5.046734810,15430.000000000,1718099561.256625414
1718099561.257432,12.552715302,3131.000000000,1718099561.257431507,,,,
1718099561.257632,,,,5.013913631,5.020362377,15431.000000000,1718099561.257632494
1718099561.258640,,,,5.047955036,5.051398754,15432.000000000,1718099561.258639574
1718099561.259647,,,,4.991291523,4.991826057,15433.000000000,1718099561.259646654
1718099561.260654,,,,4.970304012,4.973723888,15434.000000000,1718099561.260653734
1718099561.261661,,,,5.042160988,5.045172215,15435.000000000,1718099561.261660814
1718099561.262432,13.958386421,3132.000000000,1718099561.262431622,,,,
1718099561.262668,,,,5.050311089,5.051855564,15436.000000000,1718099561.262667894
1718099561.263675,,,,4.992397308,4.996658325,15437.000000000,1718099561.263674974
1718099561.264682,,,,4.924987316,4.928623676,15438.000000000,1718099561.264682055
1718099561.265689,,,,4.961937904,4.963338375,15439.000000000,1718099561.265689135
1718099561.266696,,,,4.986435413,4.988917351,15440.000000000,1718099561.266696215
1718099561.267431,15.503555298,3133.000000000,1718099561.267431498,,,,
1718099561.267703,,,,4.966914177,4.966583729,15441.000000000,1718099561.267703295
1718099561.268710,,,,4.863323689,4.864507675,15442.000000000,1718099561.268710375
1718099561.269717,,,,4.853947639,4.857776165,15443.000000000,1718099561.269717455
1718099561.270725,,,,4.938450336,4.941677570,15444.000000000,1718099561.270724535
1718099561.271732,,,,5.033458710,5.037311077,15445.000000000,1718099561.271731615
1718099561.272432,17.293153763,3134.000000000,1718099561.272431612,,,,
1718099561.272739,,,,5.084953308,5.084454536,15446.000000000,1718099561.272738695
1718099561.273746,,,,5.060383797,5.061639786,15447.000000000,1718099561.273745775
1718099561.274753,,,,5.012711525,5.014063835,15448.000000000,1718099561.274752855
1718099561.275760,,,,5.001436710,5.002284050,15449.000000000,1718099561.275759935
1718099561.276767,,,,4.989344120,4.988845348,15450.000000000,1718099561.276767015
1718099561.277431,19.309013367,3135.000000000,1718099561.277431488,,,,
1718099561.277774,,,,5.011629581,5.013270378,15451.000000000,1718099561.277774096
1718099561.278781,,,,5.081106663,5.084478378,15452.000000000,1718099561.278781176
1718099561.279788,,,,5.104378223,5.107557297,15453.000000000,1718099561.279788256
1718099561.280795,,,,5.194001198,5.196988106,15454.000000000,1718099561.280795336
1718099561.281802,,,,5.279273033,5.280817509,15455.000000000,1718099561.281802416
1718099561.282432,21.568010330,3136.000000000,1718099561.282431602,,,,
1718099561.282809,,,,5.251458168,5.251127720,15456.000000000,1718099561.282809496
1718099561.283817,,,,5.067884445,5.070054054,15457.000000000,1718099561.283816576
1718099561.284824,,,,4.872338772,4.875277519,15458.000000000,1718099561.284823656
1718099561.285831,,,,4.847095966,4.850443840,15459.000000000,1718099561.285830736
1718099561.286838,,,,4.894432068,4.896986485,15460.000000000,1718099561.286837816
1718099561.287431,23.894517899,3137.000000000,1718099561.287431479,,,,
1718099561.287845,,,,4.871136665,4.873594761,15461.000000000,1718099561.287844896
1718099561.288852,,,,4.846687317,4.846140385,15462.000000000,1718099561.288851976
1718099561.289859,,,,4.772257805,4.770220280,15463.000000000,1718099561.289859056
1718099561.290866,,,,4.699944019,4.701224327,15464.000000000,1718099561.290866137
1718099561.291873,,,,4.788605690,4.792986870,15465.000000000,1718099561.291873217
1718099561.292432,26.497863770,3138.000000000,1718099561.292431593,,,,
1718099561.292880,,,,4.998431206,5.002668381,15466.000000000,1718099561.292880297
1718099561.293887,,,,5.101420879,5.105682373,15467.000000000,1718099561.293887377
1718099561.294894,,,,5.157988548,5.163019180,15468.000000000,1718099561.294894457
1718099561.295902,,,,5.213762760,5.214970589,15469.000000000,1718099561.295901537
1718099561.296909,,,,5.072620392,5.073323727,15470.000000000,1718099561.296908617
1718099561.297431,29.394422531,3139.000000000,1718099561.297431469,,,,
1718099561.297916,,,,4.880031586,4.880326271,15471.000000000,1718099561.297915697
1718099561.301575,35.853584290,3141.000000000,1718099561.301575184,,,,
1718099561.302432,32.478515625,3140.000000000,1718099561.302431583,,,,
1718099561.302951,,,,5.096420765,5.096426487,15476.000000000,1718099561.302951097
1718099561.303958,,,,5.091804981,5.090656757,15477.000000000,1718099561.303958178
1718099561.304965,,,,5.097358227,5.096378326,15478.000000000,1718099561.304965258
1718099561.305972,,,,5.007470608,5.009039402,15479.000000000,1718099561.305972338
1718099561.306575,39.466140747,3142.000000000,1718099561.306575298,,,,
1718099561.306979,,,,4.970352173,4.971656322,15480.000000000,1718099561.306979418
1718099561.307986,,,,5.078486443,5.079598427,15481.000000000,1718099561.307986498
1718099561.308994,,,,5.078486443,5.081521511,15482.000000000,1718099561.308993578
1718099561.310001,,,,5.047978878,5.052432537,15483.000000000,1718099561.310000658
1718099561.311008,,,,5.096107960,5.100224972,15484.000000000,1718099561.311007738
1718099561.311575,43.280273438,3143.000000000,1718099561.311575174,,,,
1718099561.312015,,,,5.001003742,5.004687786,15485.000000000,1718099561.312014818
1718099561.313022,,,,4.935902119,4.938672543,15486.000000000,1718099561.313021898
1718099561.314029,,,,4.927487850,4.928936005,15487.000000000,1718099561.314028978
1718099561.315036,,,,4.996195793,4.998677731,15488.000000000,1718099561.315036058
1718099561.316043,,,,4.985713959,4.991345406,15489.000000000,1718099561.316043139
1718099561.316575,47.398567200,3144.000000000,1718099561.316575289,,,,
1718099561.317050,,,,4.974150658,4.980022430,15490.000000000,1718099561.317050219
1718099561.318057,,,,5.016101360,5.016924381,15491.000000000,1718099561.318057299
1718099561.319064,,,,5.016822338,5.016563892,15492.000000000,1718099561.319064379
1718099561.320071,,,,4.947585583,4.950115681,15493.000000000,1718099561.320071459
1718099561.321079,,,,5.017423630,5.021371841,15494.000000000,1718099561.321078539
1718099561.321575,51.715679169,3145.000000000,1718099561.321575165,,,,
1718099561.322086,,,,5.105868816,5.105609894,15495.000000000,1718099561.322085619
1718099561.323093,,,,5.168181896,5.172563076,15496.000000000,1718099561.323092699
1718099561.324100,,,,5.261771679,5.266657829,15497.000000000,1718099561.324099779
1718099561.325107,,,,5.241336823,5.243939400,15498.000000000,1718099561.325106859
1718099561.326114,,,,5.169600010,5.170760155,15499.000000000,1718099561.326113939
1718099561.327121,,,,5.083342552,5.084766865,15500.000000000,1718099561.327121019
1718099561.328128,,,,4.888422012,4.891072273,15501.000000000,1718099561.328128099
1718099561.329135,,,,4.733745098,4.737332821,15502.000000000,1718099561.329135180
1718099561.330142,,,,4.853202343,4.853761196,15503.000000000,1718099561.330142260
1718099561.331149,,,,4.919842720,4.919920921,15504.000000000,1718099561.331149340
1718099561.332156,,,,4.824522018,4.824119568,15505.000000000,1718099561.332156420
1718099561.333163,,,,4.663474560,4.666389465,15506.000000000,1718099561.333163500
1718099561.334171,,,,4.626307964,4.629030228,15507.000000000,1718099561.334170580
1718099561.335178,,,,4.938185692,4.941196918,15508.000000000,1718099561.335177660
1718099561.336185,,,,5.451259136,5.455159664,15509.000000000,1718099561.336184740
1718099561.337192,,,,5.884926319,5.889644146,15510.000000000,1718099561.337191820
1718099561.338199,,,,5.882811069,5.886230469,15511.000000000,1718099561.338198900
1718099561.339206,,,,5.122024059,5.126333237,15512.000000000,1718099561.339205980
1718099561.340213,,,,5.146256924,5.146863937,15513.000000000,1718099561.340213060
1718099561.341220,,,,5.279826164,5.284303665,15514.000000000,1718099561.341220140
1718099561.342227,,,,5.444070816,5.446985722,15515.000000000,1718099561.342227221
1718099561.343234,,,,5.332594872,5.333081722,15516.000000000,1718099561.343234301
1718099561.344241,,,,4.972299099,4.972497463,15517.000000000,1718099561.344241381
1718099561.345248,,,,4.675975800,4.678049088,15518.000000000,1718099561.345248461
1718099561.346256,,,,4.756150723,4.758248329,15519.000000000,1718099561.346255541
1718099561.347263,,,,4.909000397,4.909126759,15520.000000000,1718099561.347262621
1718099561.348270,,,,5.075553417,5.077579021,15521.000000000,1718099561.348269701
1718099561.349277,,,,5.101757526,5.104360104,15522.000000000,1718099561.349276781
1718099561.350284,,,,4.928160667,4.931099892,15523.000000000,1718099561.350283861
1718099561.351291,,,,4.951407909,4.955885410,15524.000000000,1718099561.351290941
1718099561.351575,80.919471741,3151.000000000,1718099561.351575136,,,,
1718099561.352298,,,,5.180634499,5.181361675,15525.000000000,1718099561.352298021
1718099561.353305,,,,5.254583359,5.254469395,15526.000000000,1718099561.353305101
1718099561.354312,,,,5.341129303,5.341471672,15527.000000000,1718099561.354312181
1718099561.355319,,,,5.608051300,5.610173225,15528.000000000,1718099561.355319262
1718099561.356326,,,,5.778739452,5.782543659,15529.000000000,1718099561.356326342
1718099561.356575,86.032470703,3152.000000000,1718099561.356575251,,,,
1718099561.357333,,,,5.766478539,5.771028519,15530.000000000,1718099561.357333422
1718099561.358341,,,,5.404187679,5.409314156,15531.000000000,1718099561.358340502
1718099561.359348,,,,4.511201859,4.514308929,15532.000000000,1718099561.359347582
1718099561.360355,,,,4.435233593,4.437427044,15533.000000000,1718099561.360354662
1718099561.361362,,,,5.020308495,5.021179676,15534.000000000,1718099561.361361742
1718099561.361575,91.099098206,3153.000000000,1718099561.361575127,,,,
1718099561.362369,,,,5.273791790,5.273557186,15535.000000000,1718099561.362368822
1718099561.363376,,,,5.281508923,5.284736156,15536.000000000,1718099561.363375902
1718099561.364383,,,,5.368680000,5.370368481,15537.000000000,1718099561.364382982
1718099561.365390,,,,5.400100708,5.402101994,15538.000000000,1718099561.365390062
1718099561.366397,,,,5.224100113,5.225284100,15539.000000000,1718099561.366397142
1718099561.366575,96.136611938,3154.000000000,1718099561.366575241,,,,
1718099561.367404,,,,5.025837421,5.030267239,15540.000000000,1718099561.367404222
1718099561.368411,,,,5.040574551,5.043465137,15541.000000000,1718099561.368411303
1718099561.369418,,,,5.151738167,5.153571129,15542.000000000,1718099561.369418383
1718099561.370425,,,,5.267348766,5.269182205,15543.000000000,1718099561.370425463
1718099561.371433,,,,5.422867298,5.423377991,15544.000000000,1718099561.371432543
1718099561.371575,101.263145447,3155.000000000,1718099561.371575117,,,,
1718099561.372440,,,,5.438301086,5.438379288,15545.000000000,1718099561.372439623
1718099561.373447,,,,5.570211887,5.574088097,15546.000000000,1718099561.373446703
1718099561.374454,,,,5.678105831,5.683015823,15547.000000000,1718099561.374453783
1718099561.375461,,,,5.653752804,5.654647827,15548.000000000,1718099561.375460863
1718099561.376468,,,,5.321271896,5.320965290,15549.000000000,1718099561.376467943
1718099561.376575,106.394142151,3156.000000000,1718099561.376575232,,,,
1718099561.377475,,,,4.914361477,4.915713787,15550.000000000,1718099561.377475023
1718099561.378482,,,,4.913616180,4.914656162,15551.000000000,1718099561.378482103
1718099561.379489,,,,5.092790604,5.095128536,15552.000000000,1718099561.379489183
1718099561.380496,,,,5.335071087,5.335365772,15553.000000000,1718099561.380496264
1718099561.381503,,,,5.384570599,5.386668205,15554.000000000,1718099561.381503344
1718099561.381575,111.429061890,3157.000000000,1718099561.381575108,,,,
1718099561.382510,,,,5.338004112,5.339837074,15555.000000000,1718099561.382510424
1718099561.383518,,,,4.852385044,4.851838112,15556.000000000,1718099561.383517504
1718099561.384525,,,,4.263247490,4.263854504,15557.000000000,1718099561.384524584
1718099561.385532,,,,4.413092136,4.415863037,15558.000000000,1718099561.385531664
1718099561.386539,,,,4.794086933,4.795943737,15559.000000000,1718099561.386538744
1718099561.386575,116.569335938,3158.000000000,1718099561.386575222,,,,
1718099561.387546,,,,4.891739368,4.895039082,15560.000000000,1718099561.387545824
1718099561.388553,,,,4.857265472,4.860949516,15561.000000000,1718099561.388552904
1718099561.389560,,,,5.137554169,5.139771938,15562.000000000,1718099561.389559984
1718099561.390567,,,,5.797034264,5.802641869,15563.000000000,1718099561.390567064
1718099561.391574,,,,6.352250576,6.357737541,15564.000000000,1718099561.391574144
1718099561.391575,121.597457886,3159.000000000,1718099561.391575098,,,,
1718099561.392581,,,,6.346072197,6.350790024,15565.000000000,1718099561.392581224
1718099561.393588,,,,5.734288216,5.737107277,15566.000000000,1718099561.393588305
1718099561.394595,,,,5.129019737,5.128953457,15567.000000000,1718099561.394595385
1718099561.395602,,,,5.068149090,5.067722321,15568.000000000,1718099561.395602465
1718099561.396575,126.547592163,3160.000000000,1718099561.396575212,,,,
1718099561.396610,,,,5.338869572,5.342361450,15569.000000000,1718099561.396609545
1718099561.397617,,,,5.434863567,5.437008858,15570.000000000,1718099561.397616625
1718099561.398624,,,,5.421112061,5.422031879,15571.000000000,1718099561.398623705
1718099561.399631,,,,5.369304657,5.372532368,15572.000000000,1718099561.399630785
1718099561.400638,,,,5.374113083,5.376643181,15573.000000000,1718099561.400637865
1718099561.401645,,,,5.464313030,5.465833664,15574.000000000,1718099561.401644945
1718099561.402652,,,,5.435824871,5.439220905,15575.000000000,1718099561.402652025
1718099561.403659,,,,5.205829144,5.208767891,15576.000000000,1718099561.403659105
1718099561.404666,,,,4.986795902,4.989470482,15577.000000000,1718099561.404666185
1718099561.405530,131.387161255,3161.000000000,1718099561.405530453,,,,
1718099561.405673,,,,4.860702991,4.863906384,15578.000000000,1718099561.405673265
1718099561.406680,,,,4.955927849,4.958986759,15579.000000000,1718099561.406680346
1718099561.407687,,,,5.225470066,5.228000641,15580.000000000,1718099561.407687426
1718099561.408695,,,,5.616273403,5.618731499,15581.000000000,1718099561.408694506
1718099561.409702,,,,5.883460045,5.887336254,15582.000000000,1718099561.409701586
1718099561.410709,,,,5.789076805,5.789563656,15583.000000000,1718099561.410708666
1718099561.411716,,,,5.467726707,5.469607830,15584.000000000,1718099561.411715746
1718099561.412723,,,,5.066321850,5.068106651,15585.000000000,1718099561.412722826
1718099561.413730,,,,4.895321369,4.897370815,15586.000000000,1718099561.413729906
1718099561.414737,,,,4.940229416,4.943648815,15587.000000000,1718099561.414736986
1718099561.415744,,,,5.083510876,5.085680485,15588.000000000,1718099561.415744066
1718099561.416751,,,,5.071370602,5.073275566,15589.000000000,1718099561.416751146
1718099561.417758,,,,4.907966614,4.909439087,15590.000000000,1718099561.417758226
1718099561.418765,,,,4.962851524,4.964756489,15591.000000000,1718099561.418765306
1718099561.419772,,,,5.019779205,5.021324158,15592.000000000,1718099561.419772387
1718099561.420779,,,,4.988863468,4.991633892,15593.000000000,1718099561.420779467
1718099561.421787,,,,5.044805527,5.046374321,15594.000000000,1718099561.421786547
1718099561.422794,,,,5.180298328,5.184367180,15595.000000000,1718099561.422793627
1718099561.423801,,,,5.497921944,5.502591610,15596.000000000,1718099561.423800707
1718099561.424808,,,,5.923920155,5.925104141,15597.000000000,1718099561.424807787
1718099561.425815,,,,6.105594635,6.105095863,15598.000000000,1718099561.425814867
1718099561.426822,,,,6.177740097,6.177866459,15599.000000000,1718099561.426821947
1718099561.427829,,,,5.807876587,5.809901714,15600.000000000,1718099561.427829027
1718099561.428836,,,,4.936286449,4.939345837,15601.000000000,1718099561.428836107
1718099561.429843,,,,4.729201317,4.731659412,15602.000000000,1718099561.429843187
1718099561.430850,,,,4.852024555,4.854650974,15603.000000000,1718099561.430850267
1718099561.431857,,,,5.139212608,5.142175674,15604.000000000,1718099561.431857347
1718099561.432864,,,,5.293360710,5.295073509,15605.000000000,1718099561.432864428
1718099561.433872,,,,5.141616821,5.142295837,15606.000000000,1718099561.433871508
1718099561.434879,,,,4.941912174,4.946990490,15607.000000000,1718099561.434878588
1718099561.435886,,,,5.169672012,5.175183296,15608.000000000,1718099561.435885668
1718099561.436893,,,,5.451739788,5.453332424,15609.000000000,1718099561.436892748
1718099561.437900,,,,5.911900043,5.913564682,15610.000000000,1718099561.437899828
1718099561.438907,,,,5.866655827,5.865747929,15611.000000000,1718099561.438906908
1718099561.439914,,,,5.533669949,5.535984039,15612.000000000,1718099561.439913988
1718099561.440921,,,,5.582664490,5.587118149,15613.000000000,1718099561.440921068
1718099561.441928,,,,5.693323135,5.696286201,15614.000000000,1718099561.441928148
1718099561.442935,,,,5.852087021,5.856107712,15615.000000000,1718099561.442935228
1718099561.443942,,,,5.964741230,5.966285706,15616.000000000,1718099561.443942308
1718099561.444949,,,,6.088285446,6.090983868,15617.000000000,1718099561.444949389
1718099561.445956,,,,6.062874317,6.067448139,15618.000000000,1718099561.445956469
1718099561.446964,,,,5.656781673,5.657557011,15619.000000000,1718099561.446963549
1718099561.447971,,,,5.275859356,5.275312424,15620.000000000,1718099561.447970629
1718099561.448978,,,,4.995594501,4.995889187,15621.000000000,1718099561.448977709
1718099561.449985,,,,4.871689796,4.874196053,15622.000000000,1718099561.449984789
1718099561.450992,,,,5.118201256,5.119938374,15623.000000000,1718099561.450991869
1718099561.451999,,,,5.321920872,5.325484753,15624.000000000,1718099561.451998949
1718099561.453006,,,,5.427050114,5.430013180,15625.000000000,1718099561.453006029
1718099561.454013,,,,5.280547142,5.280529022,15626.000000000,1718099561.454013109
1718099561.455020,,,,5.062259197,5.064644814,15627.000000000,1718099561.455020189
1718099561.455530,170.783477783,3171.000000000,1718099561.455530405,,,,
1718099561.456027,,,,5.318170547,5.320652962,15628.000000000,1718099561.456027269
1718099561.457034,,,,5.430993080,5.430109501,15629.000000000,1718099561.457034349
1718099561.458041,,,,5.099834442,5.099768162,15630.000000000,1718099561.458041430
1718099561.459049,,,,4.940181255,4.941533566,15631.000000000,1718099561.459048510
1718099561.460056,,,,5.270786762,5.272644043,15632.000000000,1718099561.460055590
1718099561.460531,173.969924927,3172.000000000,1718099561.460530519,,,,
1718099561.461063,,,,5.632308483,5.633876801,15633.000000000,1718099561.461062670
1718099561.462070,,,,5.863530159,5.866276741,15634.000000000,1718099561.462069750
1718099561.463077,,,,5.874973774,5.879306793,15635.000000000,1718099561.463076830
1718099561.464084,,,,5.800928593,5.808074951,15636.000000000,1718099561.464083910
1718099561.465091,,,,5.513812542,5.515213013,15637.000000000,1718099561.465090990
1718099561.465530,177.038558960,3173.000000000,1718099561.465530396,,,,
1718099561.466098,,,,5.372262001,5.375561237,15638.000000000,1718099561.466098070
1718099561.467105,,,,5.679620266,5.683424473,15639.000000000,1718099561.467105150
1718099561.468112,,,,5.738591671,5.740304470,15640.000000000,1718099561.468112230
1718099561.469119,,,,5.404812813,5.406597614,15641.000000000,1718099561.469119310
1718099561.470126,,,,5.229028225,5.231197834,15642.000000000,1718099561.470126390
1718099561.470531,180.055023193,3174.000000000,1718099561.470530510,,,,
1718099561.471133,,,,5.383536816,5.384672642,15643.000000000,1718099561.471133471
1718099561.472141,,,,5.758809566,5.761532307,15644.000000000,1718099561.472140551
1718099561.473148,,,,6.233899117,6.235251427,15645.000000000,1718099561.473147631
1718099561.474155,,,,6.292149067,6.297155380,15646.000000000,1718099561.474154711
1718099561.475162,,,,6.069630146,6.071631432,15647.000000000,1718099561.475161791
1718099561.475530,183.035858154,3175.000000000,1718099561.475530386,,,,
1718099561.476169,,,,5.670412540,5.673063278,15648.000000000,1718099561.476168871
1718099561.477176,,,,5.559393406,5.562332153,15649.000000000,1718099561.477175951
1718099561.478183,,,,5.600598812,5.603633881,15650.000000000,1718099561.478183031
1718099561.479190,,,,5.809439182,5.811464310,15651.000000000,1718099561.479190111
1718099561.480197,,,,5.902692318,5.905390739,15652.000000000,1718099561.480197191
1718099561.480531,186.046234131,3176.000000000,1718099561.480530500,,,,
1718099561.481204,,,,5.430728436,5.432224751,15653.000000000,1718099561.481204271
1718099561.482211,,,,4.895465851,4.895832539,15654.000000000,1718099561.482211351
1718099561.483218,,,,4.660661697,4.662494659,15655.000000000,1718099561.483218431
1718099561.484226,,,,4.774638176,4.778754711,15656.000000000,1718099561.484225512
1718099561.485233,,,,5.134356499,5.137584209,15657.000000000,1718099561.485232592
1718099561.485530,188.939910889,3177.000000000,1718099561.485530376,,,,
1718099561.486240,,,,5.469337463,5.472108364,15658.000000000,1718099561.486239672
1718099561.487247,,,,5.699405670,5.702512741,15659.000000000,1718099561.487246752
1718099561.488254,,,,5.538670540,5.543316364,15660.000000000,1718099561.488253832
1718099561.489261,,,,5.315261841,5.317191124,15661.000000000,1718099561.489260912
1718099561.490268,,,,5.353942871,5.358757019,15662.000000000,1718099561.490267992
1718099561.490530,191.571212769,3178.000000000,1718099561.490530491,,,,
1718099561.491275,,,,5.515783787,5.520958424,15663.000000000,1718099561.491275072
1718099561.492282,,,,5.535064220,5.539325714,15664.000000000,1718099561.492282152
1718099561.493289,,,,5.433901787,5.439557076,15665.000000000,1718099561.493289232
1718099561.494296,,,,5.351995468,5.357290745,15666.000000000,1718099561.494296312
1718099561.495303,,,,5.177292824,5.176842213,15667.000000000,1718099561.495303392
1718099561.495530,194.265228271,3179.000000000,1718099561.495530367,,,,
1718099561.496310,,,,5.280498981,5.283967018,15668.000000000,1718099561.496310472
1718099561.497318,,,,5.307256222,5.310483456,15669.000000000,1718099561.497317553
1718099561.498325,,,,5.201429844,5.203527451,15670.000000000,1718099561.498324633
1718099561.499332,,,,5.198184490,5.201003075,15671.000000000,1718099561.499331713
1718099561.500339,,,,5.151257038,5.153210640,15672.000000000,1718099561.500338793
1718099561.500530,196.940856934,3180.000000000,1718099561.500530481,,,,
1718099561.501346,,,,5.268743038,5.270528316,15673.000000000,1718099561.501345873
1718099561.502353,,,,5.450249195,5.451697826,15674.000000000,1718099561.502352953
1718099561.503360,,,,5.748328209,5.751243114,15675.000000000,1718099561.503360033
1718099561.504367,,,,5.776263237,5.777014256,15676.000000000,1718099561.504367113
1718099561.505374,,,,5.518308163,5.518578529,15677.000000000,1718099561.505374193
1718099561.506381,,,,5.180225849,5.180832863,15678.000000000,1718099561.506381273
1718099561.507388,,,,4.973958015,4.977810383,15679.000000000,1718099561.507388353
1718099561.508395,,,,5.773955345,5.778288364,15680.000000000,1718099561.508395433
1718099561.509403,,,,6.611888409,6.613914013,15681.000000000,1718099561.509402514
1718099561.510410,,,,7.071639538,7.076165199,15682.000000000,1718099561.510409594
1718099561.510591,199.533416748,3181.000000000,1718099561.510590553,,,,
1718099561.511417,,,,7.165205479,7.168072224,15683.000000000,1718099561.511416674
1718099561.512424,,,,6.348476410,6.348770618,15684.000000000,1718099561.512423754
1718099561.513431,,,,5.061057091,5.060101509,15685.000000000,1718099561.513430834
1718099561.514438,,,,4.471510887,4.474569798,15686.000000000,1718099561.514437914
1718099561.515445,,,,4.642751694,4.645738602,15687.000000000,1718099561.515444994
1718099561.515591,202.172637939,3182.000000000,1718099561.515590668,,,,
1718099561.516452,,,,4.543319702,4.546018600,15688.000000000,1718099561.516452074
1718099561.517459,,,,4.571832180,4.575371742,15689.000000000,1718099561.517459154
1718099561.518466,,,,5.037184715,5.041373730,15690.000000000,1718099561.518466234
1718099561.519473,,,,5.184961796,5.188141346,15691.000000000,1718099561.519473314
1718099561.520480,,,,5.310814381,5.313032150,15692.000000000,1718099561.520480394
1718099561.520591,204.777557373,3183.000000000,1718099561.520590544,,,,
1718099561.521487,,,,5.336032867,5.337072372,15693.000000000,1718099561.521487474
1718099561.522495,,,,5.282085896,5.287789345,15694.000000000,1718099561.522494555
1718099561.523502,,,,5.261458874,5.263364315,15695.000000000,1718099561.523501635
1718099561.524509,,,,5.333364487,5.333706856,15696.000000000,1718099561.524508715
1718099561.525516,,,,5.363847733,5.364454746,15697.000000000,1718099561.525515795
1718099561.525591,207.348342896,3184.000000000,1718099561.525590658,,,,
1718099561.526523,,,,5.193280220,5.194872856,15698.000000000,1718099561.526522875
1718099561.527530,,,,5.359352112,5.364839077,15699.000000000,1718099561.527529955
1718099561.528537,,,,5.800039291,5.803339005,15700.000000000,1718099561.528537035
1718099561.529544,,,,5.802731991,5.805574417,15701.000000000,1718099561.529544115
1718099561.530551,,,,5.547685623,5.549542904,15702.000000000,1718099561.530551195
1718099561.530591,209.755889893,3185.000000000,1718099561.530590534,,,,
1718099561.531558,,,,5.465827465,5.465593338,15703.000000000,1718099561.531558275
1718099561.532565,,,,5.435007572,5.433595181,15704.000000000,1718099561.532565355
1718099561.533572,,,,5.363919735,5.366569996,15705.000000000,1718099561.533572435
1718099561.534580,,,,5.275137901,5.280216694,15706.000000000,1718099561.534579515
1718099561.535587,,,,5.380700111,5.383038044,15707.000000000,1718099561.535586596
1718099561.535591,212.097412109,3186.000000000,1718099561.535590649,,,,
1718099561.536594,,,,5.963995934,5.966165543,15708.000000000,1718099561.536593676
1718099561.537601,,,,6.401533604,6.403775215,15709.000000000,1718099561.537600756
1718099561.538608,,,,5.945436478,5.948591709,15710.000000000,1718099561.538607836
1718099561.539615,,,,5.462053299,5.466314316,15711.000000000,1718099561.539614916
1718099561.540591,214.356903076,3187.000000000,1718099561.540590525,,,,
1718099561.540622,,,,5.334518433,5.337841988,15712.000000000,1718099561.540621996
1718099561.541629,,,,5.522635460,5.526031017,15713.000000000,1718099561.541629076
1718099561.542636,,,,5.699189186,5.702753067,15714.000000000,1718099561.542636156
1718099561.543643,,,,5.551075459,5.554615498,15715.000000000,1718099561.543643236
1718099561.544650,,,,5.334397793,5.337385178,15716.000000000,1718099561.544650316
1718099561.545591,216.647460938,3188.000000000,1718099561.545590639,,,,
1718099561.545657,,,,5.294394493,5.297044754,15717.000000000,1718099561.545657396
1718099561.546664,,,,5.406327248,5.406309128,15718.000000000,1718099561.546664476
1718099561.547672,,,,5.237177849,5.237304211,15719.000000000,1718099561.547671556
1718099561.548679,,,,4.961625099,4.960862160,15720.000000000,1718099561.548678637
1718099561.549686,,,,4.865655422,4.866719246,15721.000000000,1718099561.549685717
1718099561.550591,218.775634766,3189.000000000,1718099561.550590515,,,,
1718099561.550693,,,,5.082597256,5.086617947,15722.000000000,1718099561.550692797
1718099561.551700,,,,5.469818592,5.475497723,15723.000000000,1718099561.551699877
1718099561.552707,,,,6.029650688,6.034224033,15724.000000000,1718099561.552706957
1718099561.553714,,,,6.130644798,6.134545326,15725.000000000,1718099561.553714037
1718099561.554721,,,,5.617932320,5.622169495,15726.000000000,1718099561.554721117
1718099561.555728,,,,5.442123890,5.445976257,15727.000000000,1718099561.555728197
1718099561.556735,,,,5.805280209,5.808651924,15728.000000000,1718099561.556735277
1718099561.557742,,,,5.799486160,5.801703930,15729.000000000,1718099561.557742357
1718099561.558749,,,,5.534367085,5.538291931,15730.000000000,1718099561.558749437
1718099561.559757,,,,5.539487839,5.541922092,15731.000000000,1718099561.559756517
1718099561.560591,223.125686646,3191.000000000,1718099561.560590506,,,,
1718099561.560764,,,,5.259247303,5.260311127,15732.000000000,1718099561.560763597
1718099561.561771,,,,4.793197155,4.795583248,15733.000000000,1718099561.561770678
1718099561.562778,,,,4.976914883,4.976824760,15734.000000000,1718099561.562777758
1718099561.563785,,,,5.356491089,5.356016636,15735.000000000,1718099561.563784838
1718099561.564792,,,,5.249053955,5.248242855,15736.000000000,1718099561.564791918
1718099561.565591,225.186569214,3192.000000000,1718099561.565590620,,,,
1718099561.565799,,,,5.332763195,5.334812641,15737.000000000,1718099561.565798998
1718099561.566806,,,,5.584323406,5.586324692,15738.000000000,1718099561.566806078
1718099561.567813,,,,5.698371887,5.700421333,15739.000000000,1718099561.567813158
1718099561.568820,,,,5.371660709,5.370921612,15740.000000000,1718099561.568820238
1718099561.569827,,,,5.091900826,5.089454651,15741.000000000,1718099561.569827318
1718099561.570590,227.101791382,3193.000000000,1718099561.570590496,,,,
1718099561.570834,,,,5.079760551,5.080920696,15742.000000000,1718099561.570834398
1718099561.571841,,,,5.212272167,5.214177132,15743.000000000,1718099561.571841478
1718099561.572849,,,,5.354471684,5.357434750,15744.000000000,1718099561.572848558
1718099561.573856,,,,5.428468704,5.431816101,15745.000000000,1718099561.573855639
1718099561.574863,,,,5.513067245,5.515741825,15746.000000000,1718099561.574862719
1718099561.575591,228.984146118,3194.000000000,1718099561.575590611,,,,
1718099561.575870,,,,5.617956161,5.620774746,15747.000000000,1718099561.575869799
1718099561.576877,,,,5.602209568,5.605725765,15748.000000000,1718099561.576876879
1718099561.577884,,,,5.630384922,5.630919933,15749.000000000,1718099561.577883959
1718099561.578891,,,,5.631298542,5.632073879,15750.000000000,1718099561.578891039
1718099561.579898,,,,5.644208431,5.644623280,15751.000000000,1718099561.579898119
1718099561.580590,230.785476685,3195.000000000,1718099561.580590487,,,,
1718099561.580905,,,,5.691376209,5.691430092,15752.000000000,1718099561.580905199
1718099561.581912,,,,6.130332470,6.132309437,15753.000000000,1718099561.581912279
1718099561.582919,,,,6.558830738,6.560784340,15754.000000000,1718099561.582919359
1718099561.583926,,,,6.035901070,6.036820412,15755.000000000,1718099561.583926439
1718099561.584934,,,,5.576654434,5.577021122,15756.000000000,1718099561.584933519
1718099561.585591,232.570175171,3196.000000000,1718099561.585590601,,,,
1718099561.585941,,,,5.544512272,5.546009064,15757.000000000,1718099561.585940599
1718099561.586948,,,,5.619615078,5.622938633,15758.000000000,1718099561.586947680
1718099561.587955,,,,5.430007458,5.433787346,15759.000000000,1718099561.587954760
1718099561.588962,,,,5.184721470,5.187444210,15760.000000000,1718099561.588961840
1718099561.589969,,,,5.041584015,5.042936325,15761.000000000,1718099561.589968920
1718099561.590590,234.273956299,3197.000000000,1718099561.590590477,,,,
1718099561.590976,,,,5.279729843,5.281827450,15762.000000000,1718099561.590976000
1718099561.591983,,,,5.557013512,5.559399605,15763.000000000,1718099561.591983080
1718099561.592990,,,,5.218570709,5.223360538,15764.000000000,1718099561.592990160
1718099561.593997,,,,4.930636883,4.934633732,15765.000000000,1718099561.593997240
1718099561.595004,,,,4.704944611,4.706464767,15766.000000000,1718099561.595004320
1718099561.595591,235.929077148,3198.000000000,1718099561.595590591,,,,
1718099561.596011,,,,4.736990452,4.737332821,15767.000000000,1718099561.596011400
1718099561.597018,,,,5.374208927,5.375729561,15768.000000000,1718099561.597018480
1718099561.598026,,,,5.281172276,5.284784317,15769.000000000,1718099561.598025560
1718099561.599033,,,,5.237322330,5.239684105,15770.000000000,1718099561.599032640
1718099561.600040,,,,5.050671577,5.052432537,15771.000000000,1718099561.600039721
1718099561.600590,237.423156738,3199.000000000,1718099561.600590467,,,,
1718099561.601047,,,,5.101012230,5.105057240,15772.000000000,1718099561.601046801
1718099561.602054,,,,5.832013130,5.835240841,15773.000000000,1718099561.602053881
1718099561.603061,,,,6.203151226,6.205729485,15774.000000000,1718099561.603060961
1718099561.604068,,,,5.893580914,5.895774841,15775.000000000,1718099561.604068041
1718099561.605075,,,,5.701953888,5.703931332,15776.000000000,1718099561.605075121
1718099561.605092,240.587005615,3201.000000000,1718099561.605091810,,,,
1718099561.605591,239.077529907,3200.000000000,1718099561.605590582,,,,
1718099561.606082,,,,5.906442642,5.909910679,15777.000000000,1718099561.606082201
1718099561.607089,,,,6.213440418,6.217148781,15778.000000000,1718099561.607089281
1718099561.608096,,,,6.158267498,6.161542892,15779.000000000,1718099561.608096361
1718099561.609103,,,,5.819416046,5.821513653,15780.000000000,1718099561.609103441
1718099561.610111,,,,5.365049839,5.365031719,15781.000000000,1718099561.610110521
1718099561.611118,,,,5.348966599,5.351977825,15782.000000000,1718099561.611117601
1718099561.612125,,,,5.525952816,5.529685497,15783.000000000,1718099561.612124681
1718099561.613132,,,,5.725345135,5.728813171,15784.000000000,1718099561.613131762
1718099561.614139,,,,6.450479984,6.454356670,15785.000000000,1718099561.614138842
1718099561.615146,,,,6.612609386,6.615019798,15786.000000000,1718099561.615145922
1718099561.616153,,,,5.889229774,5.889884949,15787.000000000,1718099561.616153002
1718099561.617160,,,,4.855318069,4.857391357,15788.000000000,1718099561.617160082
1718099561.618167,,,,4.512067318,4.516039848,15789.000000000,1718099561.618167162
1718099561.619174,,,,4.855943203,4.856862545,15790.000000000,1718099561.619174242
1718099561.620092,245.306182861,3204.000000000,1718099561.620091915,,,,
1718099561.620181,,,,5.102334499,5.101787567,15791.000000000,1718099561.620181322
1718099561.621188,,,,4.995234013,4.996201515,15792.000000000,1718099561.621188402
1718099561.622195,,,,5.188519955,5.191531181,15793.000000000,1718099561.622195482
1718099561.623203,,,,5.184000492,5.185785294,15794.000000000,1718099561.623202562
1718099561.624210,,,,5.254078388,5.254445076,15795.000000000,1718099561.624209642
1718099561.625092,246.862609863,3205.000000000,1718099561.625091791,,,,
1718099561.625217,,,,5.273479462,5.274206638,15796.000000000,1718099561.625216722
1718099561.626224,,,,5.317785740,5.318320751,15797.000000000,1718099561.626223803
1718099561.627231,,,,5.517659187,5.519804478,15798.000000000,1718099561.627230883
1718099561.628238,,,,5.821579456,5.824350357,15799.000000000,1718099561.628237963
1718099561.629245,,,,5.793211937,5.794756413,15800.000000000,1718099561.629245043
1718099561.630092,248.418807983,3206.000000000,1718099561.630091906,,,,
1718099561.630252,,,,5.497008324,5.496677876,15801.000000000,1718099561.630252123
1718099561.631259,,,,5.487031460,5.488888741,15802.000000000,1718099561.631259203
1718099561.632266,,,,5.682673454,5.685059547,15803.000000000,1718099561.632266283
1718099561.633273,,,,5.713757992,5.715855122,15804.000000000,1718099561.633273363
1718099561.634280,,,,5.503162384,5.505861282,15805.000000000,1718099561.634280443
1718099561.635092,249.878524780,3207.000000000,1718099561.635091782,,,,
1718099561.635288,,,,5.082188606,5.083035946,15806.000000000,1718099561.635287523
1718099561.636295,,,,5.110965252,5.111596107,15807.000000000,1718099561.636294603
1718099561.637302,,,,5.512754917,5.513025284,15808.000000000,1718099561.637301683
1718099561.638309,,,,5.667575836,5.668951988,15809.000000000,1718099561.638308764
1718099561.639316,,,,5.587761402,5.588560581,15810.000000000,1718099561.639315844
1718099561.640092,251.321960449,3208.000000000,1718099561.640091896,,,,
1718099561.640323,,,,5.382334709,5.383110046,15811.000000000,1718099561.640322924
1718099561.641330,,,,5.273960114,5.277956963,15812.000000000,1718099561.641330004
1718099561.642337,,,,5.117383957,5.119962215,15813.000000000,1718099561.642337084
1718099561.643344,,,,5.055503845,5.057216644,15814.000000000,1718099561.643344164
1718099561.644351,,,,5.143924713,5.143594265,15815.000000000,1718099561.644351244
1718099561.645092,252.829406738,3209.000000000,1718099561.645091772,,,,
1718099561.645358,,,,5.188111305,5.190208912,15816.000000000,1718099561.645358324
1718099561.646365,,,,4.944484234,4.946990490,15817.000000000,1718099561.646365404
1718099561.647372,,,,5.255545139,5.260311127,15818.000000000,1718099561.647372484
1718099561.648380,,,,5.779797077,5.782688141,15819.000000000,1718099561.648379564
1718099561.649387,,,,6.039170742,6.041099548,15820.000000000,1718099561.649386644
1718099561.650092,254.192337036,3210.000000000,1718099561.650091887,,,,
1718099561.650394,,,,6.026188850,6.026531219,15821.000000000,1718099561.650393724
1718099561.651401,,,,5.702410698,5.702176094,15822.000000000,1718099561.651400805
1718099561.652408,,,,5.454576492,5.456698418,15823.000000000,1718099561.652407885
1718099561.653415,,,,4.938979149,4.941845894,15824.000000000,1718099561.653414965
1718099561.654422,,,,4.623518944,4.627467632,15825.000000000,1718099561.654422045
1718099561.655092,255.571166992,3211.000000000,1718099561.655091763,,,,
1718099561.655429,,,,4.837215424,4.838832378,15826.000000000,1718099561.655429125
1718099561.656436,,,,5.093054771,5.097196102,15827.000000000,1718099561.656436205
1718099561.657443,,,,5.141905308,5.146214485,15828.000000000,1718099561.657443285
1718099561.658450,,,,5.075938225,5.077891350,15829.000000000,1718099561.658450365
1718099561.659457,,,,5.217680931,5.219369888,15830.000000000,1718099561.659457445
1718099561.660092,256.853698730,3212.000000000,1718099561.660091877,,,,
1718099561.660465,,,,5.421064377,5.421935558,15831.000000000,1718099561.660464525
1718099561.661472,,,,5.232706547,5.233433723,15832.000000000,1718099561.661471605
1718099561.662479,,,,5.065624714,5.064644814,15833.000000000,1718099561.662478685
1718099561.663486,,,,5.085578442,5.087387562,15834.000000000,1718099561.663485765
1718099561.664493,,,,5.156233311,5.160350323,15835.000000000,1718099561.664492846
1718099561.665092,258.120086670,3213.000000000,1718099561.665091753,,,,
1718099561.665500,,,,5.403755188,5.408328533,15836.000000000,1718099561.665499926
1718099561.666507,,,,5.525880814,5.526055336,15837.000000000,1718099561.666507006
1718099561.667514,,,,5.528260708,5.528483391,15838.000000000,1718099561.667514086
1718099561.668521,,,,5.445393085,5.446288586,15839.000000000,1718099561.668521166
1718099561.669528,,,,5.452725410,5.453404903,15840.000000000,1718099561.669528246
1718099561.670092,259.274200439,3214.000000000,1718099561.670091867,,,,
1718099561.670535,,,,5.348389626,5.349837780,15841.000000000,1718099561.670535326
1718099561.671542,,,,5.221503735,5.221870422,15842.000000000,1718099561.671542406
1718099561.672549,,,,4.878757477,4.882153511,15843.000000000,1718099561.672549486
1718099561.673557,,,,5.223546982,5.224923134,15844.000000000,1718099561.673556566
1718099561.674564,,,,6.309554577,6.311700344,15845.000000000,1718099561.674563646
1718099561.675092,260.412231445,3215.000000000,1718099561.675091743,,,,
1718099561.675571,,,,6.974732399,6.975459576,15846.000000000,1718099561.675570726
1718099561.676578,,,,6.626577377,6.629203796,15847.000000000,1718099561.676577806
1718099561.677585,,,,5.910144806,5.911112785,15848.000000000,1718099561.677584887
1718099561.678592,,,,5.078125954,5.077554703,15849.000000000,1718099561.678591967
1718099561.679599,,,,5.232802868,5.234130859,15850.000000000,1718099561.679599047
1718099561.680092,261.453979492,3216.000000000,1718099561.680091858,,,,
1718099561.680606,,,,5.521096706,5.522136688,15851.000000000,1718099561.680606127
1718099561.681613,,,,5.425607681,5.426815987,15852.000000000,1718099561.681613207
1718099561.682620,,,,5.108368874,5.110634804,15853.000000000,1718099561.682620287
1718099561.683627,,,,4.972467422,4.975695133,15854.000000000,1718099561.683627367
1718099561.684634,,,,5.248717308,5.251343727,15855.000000000,1718099561.684634447
1718099561.685092,262.559844971,3217.000000000,1718099561.685091734,,,,
1718099561.685642,,,,5.655219078,5.656234741,15856.000000000,1718099561.685641527
1718099561.686649,,,,5.353005409,5.355006695,15857.000000000,1718099561.686648607
1718099561.687656,,,,5.050719738,5.052072048,15858.000000000,1718099561.687655687
1718099561.688663,,,,5.367501736,5.367099285,15859.000000000,1718099561.688662767
1718099561.689670,,,,5.564898491,5.566491604,15860.000000000,1718099561.689669847
1718099561.690092,263.585510254,3218.000000000,1718099561.690091848,,,,
1718099561.690677,,,,5.416640759,5.417920589,15861.000000000,1718099561.690676928
1718099561.691684,,,,5.128154278,5.126910210,15862.000000000,1718099561.691684008
1718099561.692691,,,,4.739250183,4.738486767,15863.000000000,1718099561.692691088
1718099561.693698,,,,4.656430721,4.656100273,15864.000000000,1718099561.693698168
1718099561.694705,,,,4.510168076,4.511183739,15865.000000000,1718099561.694705248
1718099561.695092,264.643218994,3219.000000000,1718099561.695091724,,,,
1718099561.695712,,,,4.642366886,4.644608498,15866.000000000,1718099561.695712328
1718099561.696719,,,,5.120076656,5.122703075,15867.000000000,1718099561.696719408
1718099561.697726,,,,5.372718811,5.374238968,15868.000000000,1718099561.697726488
1718099561.698734,,,,5.892498970,5.893587112,15869.000000000,1718099561.698733568
1718099561.699741,,,,6.011788368,6.013092518,15870.000000000,1718099561.699740648
1718099561.700092,265.540649414,3220.000000000,1718099561.700091839,,,,
1718099561.700748,,,,6.160863876,6.163418293,15871.000000000,1718099561.700747728
1718099561.701755,,,,6.328330040,6.331437588,15872.000000000,1718099561.701754808
1718099561.702762,,,,6.161368847,6.162961483,15873.000000000,1718099561.702761889
1718099561.703769,,,,6.139010906,6.139858246,15874.000000000,1718099561.703768969
1718099561.704776,,,,5.751645565,5.752276897,15875.000000000,1718099561.704776049
1718099561.705783,,,,5.455586433,5.456674099,15876.000000000,1718099561.705783129
1718099561.706790,,,,5.504292488,5.508433342,15877.000000000,1718099561.706790209
1718099561.707797,,,,5.511384487,5.512231827,15878.000000000,1718099561.707797289
1718099561.708804,,,,5.342980385,5.343034744,15879.000000000,1718099561.708804369
1718099561.709811,,,,5.322546005,5.325027943,15880.000000000,1718099561.709811449
1718099561.710384,266.389953613,3221.000000000,1718099561.710383892,,,,
1718099561.710819,,,,5.215421200,5.220018864,15881.000000000,1718099561.710818529
1718099561.711826,,,,5.211406708,5.212205887,15882.000000000,1718099561.711825609
1718099561.712833,,,,5.218859196,5.221557617,15883.000000000,1718099561.712832689
1718099561.713840,,,,5.169503689,5.172995567,15884.000000000,1718099561.713839769
1718099561.714847,,,,5.261891842,5.263821125,15885.000000000,1718099561.714846849
1718099561.715384,267.223236084,3222.000000000,1718099561.715384007,,,,
1718099561.715854,,,,5.268502712,5.269638538,15886.000000000,1718099561.715853930
1718099561.716861,,,,5.160464764,5.163596153,15887.000000000,1718099561.716861010
1718099561.717868,,,,5.290452003,5.289183617,15888.000000000,1718099561.717868090
1718099561.718875,,,,5.414789677,5.416237831,15889.000000000,1718099561.718875170
1718099561.719882,,,,5.412361622,5.414242744,15890.000000000,1718099561.719882250
1718099561.720384,268.024475098,3223.000000000,1718099561.720383883,,,,
1718099561.720889,,,,5.415799141,5.417800426,15891.000000000,1718099561.720889330
1718099561.721896,,,,5.275330544,5.275119781,15892.000000000,1718099561.721896410
1718099561.722903,,,,5.154743195,5.154508591,15893.000000000,1718099561.722903490
1718099561.723911,,,,5.371324062,5.372267723,15894.000000000,1718099561.723910570
1718099561.724918,,,,5.790976048,5.794083118,15895.000000000,1718099561.724917650
1718099561.725384,268.825714111,3224.000000000,1718099561.725383997,,,,
1718099561.725925,,,,6.260078907,6.265037537,15896.000000000,1718099561.725924730
1718099561.726932,,,,6.437017441,6.442720890,15897.000000000,1718099561.726931810
1718099561.727939,,,,6.228778362,6.231164455,15898.000000000,1718099561.727938890
1718099561.728946,,,,5.659257889,5.662461281,15899.000000000,1718099561.728945971
1718099561.729953,,,,5.374041080,5.377460480,15900.000000000,1718099561.729953051
1718099561.730384,269.610900879,3225.000000000,1718099561.730383873,,,,
1718099561.730960,,,,5.049565792,5.051278591,15901.000000000,1718099561.730960131
1718099561.731967,,,,4.795769691,4.796761513,15902.000000000,1718099561.731967211
1718099561.732974,,,,4.877627850,4.880494595,15903.000000000,1718099561.732974291
1718099561.733981,,,,4.937103748,4.939658165,15904.000000000,1718099561.733981371
1718099561.734988,,,,5.152819633,5.157249451,15905.000000000,1718099561.734988451
1718099561.735384,270.412139893,3226.000000000,1718099561.735383987,,,,
1718099561.735996,,,,5.198160172,5.202589512,15906.000000000,1718099561.735995531
1718099561.737003,,,,5.379786491,5.383951664,15907.000000000,1718099561.737002611
1718099561.738010,,,,5.805905342,5.809733391,15908.000000000,1718099561.738009691
1718099561.739017,,,,6.019529343,6.023646355,15909.000000000,1718099561.739016771
1718099561.740024,,,,5.824464321,5.827932358,15910.000000000,1718099561.740023851
1718099561.740384,271.117156982,3227.000000000,1718099561.740383863,,,,
1718099561.741031,,,,5.507033348,5.507808208,15911.000000000,1718099561.741030931
1718099561.742038,,,,5.087333202,5.088733673,15912.000000000,1718099561.742038012
1718099561.743045,,,,4.816973209,4.818590164,15913.000000000,1718099561.743045092
1718099561.744052,,,,5.133659363,5.137680054,15914.000000000,1718099561.744052172
1718099561.745059,,,,5.358606815,5.361064911,15915.000000000,1718099561.745059252
1718099561.746066,,,,5.487752438,5.492109776,15916.000000000,1718099561.746066332
1718099561.747073,,,,5.613436699,5.618106365,15917.000000000,1718099561.747073412
1718099561.748080,,,,5.627187729,5.631545067,15918.000000000,1718099561.748080492
1718099561.749088,,,,5.328676224,5.331855774,15919.000000000,1718099561.749087572
1718099561.750095,,,,4.808318615,4.807411194,15920.000000000,1718099561.750094652
1718099561.751102,,,,4.711579800,4.712763786,15921.000000000,1718099561.751101732
1718099561.752109,,,,4.682226181,4.686535358,15922.000000000,1718099561.752108812
1718099561.753116,,,,5.024683475,5.027718544,15923.000000000,1718099561.753115892
1718099561.754123,,,,5.551507950,5.555552959,15924.000000000,1718099561.754122972
1718099561.755130,,,,5.764892101,5.766003609,15925.000000000,1718099561.755130053
1718099561.756137,,,,6.202838421,6.203036785,15926.000000000,1718099561.756137133
1718099561.757144,,,,6.318954468,6.319970131,15927.000000000,1718099561.757144213
1718099561.758151,,,,6.040060043,6.043575764,15928.000000000,1718099561.758151293
1718099561.759158,,,,5.969957829,5.972487926,15929.000000000,1718099561.759158373
1718099561.760165,,,,5.780470371,5.783265114,15930.000000000,1718099561.760165453
1718099561.760384,273.200439453,3231.000000000,1718099561.760383844,,,,
1718099561.761173,,,,6.021837234,6.023862839,15931.000000000,1718099561.761172533
1718099561.762180,,,,5.977049828,5.978137493,15932.000000000,1718099561.762179613
1718099561.763187,,,,5.209867954,5.208600044,15933.000000000,1718099561.763186693
1718099561.764194,,,,4.729561806,4.730938435,15934.000000000,1718099561.764193773
1718099561.765201,,,,4.823873043,4.823013783,15935.000000000,1718099561.765200853
1718099561.765384,273.552947998,3232.000000000,1718099561.765383959,,,,
1718099561.766208,,,,5.086900711,5.086834431,15936.000000000,1718099561.766207933
1718099561.767215,,,,5.095963955,5.099215508,15937.000000000,1718099561.767215014
1718099561.768222,,,,5.358654976,5.363805771,15938.000000000,1718099561.768222094
1718099561.769229,,,,5.625072002,5.627866745,15939.000000000,1718099561.769229174
1718099561.770236,,,,5.551652431,5.553076744,15940.000000000,1718099561.770236254
1718099561.770384,273.953582764,3233.000000000,1718099561.770383835,,,,
1718099561.771243,,,,5.320069790,5.322431564,15941.000000000,1718099561.771243334
1718099561.772250,,,,5.299707413,5.301708698,15942.000000000,1718099561.772250414
1718099561.773257,,,,5.347139359,5.349357128,15943.000000000,1718099561.773257494
1718099561.774265,,,,5.188832283,5.189223289,15944.000000000,1718099561.774264574
1718099561.775272,,,,5.154863358,5.153955460,15945.000000000,1718099561.775271654
1718099561.775384,274.306121826,3234.000000000,1718099561.775383949,,,,
1718099561.776279,,,,5.294466496,5.298151016,15946.000000000,1718099561.776278734
1718099561.777286,,,,5.428877354,5.432032585,15947.000000000,1718099561.777285814
1718099561.778293,,,,5.414549351,5.416310310,15948.000000000,1718099561.778292894
1718099561.779300,,,,5.419237137,5.422320366,15949.000000000,1718099561.779299974
1718099561.780307,,,,5.483329296,5.488023281,15950.000000000,1718099561.780307055
1718099561.780384,274.610626221,3235.000000000,1718099561.780383825,,,,
1718099561.781314,,,,5.564129353,5.566058636,15951.000000000,1718099561.781314135
1718099561.782321,,,,5.429358006,5.427585125,15952.000000000,1718099561.782321215
1718099561.783328,,,,5.233692169,5.237063885,15953.000000000,1718099561.783328295
1718099561.784335,,,,5.145583630,5.149628162,15954.000000000,1718099561.784335375
1718099561.785342,,,,5.327907085,5.329740047,15955.000000000,1718099561.785342455
1718099561.785384,274.979217529,3236.000000000,1718099561.785383940,,,,
1718099561.786350,,,,5.858842373,5.860891819,15956.000000000,1718099561.786349535
1718099561.787357,,,,6.163892746,6.168057919,15957.000000000,1718099561.787356615
1718099561.788364,,,,5.925122261,5.926858902,15958.000000000,1718099561.788363695
1718099561.789371,,,,5.370819569,5.371715069,15959.000000000,1718099561.789370775
1718099561.790378,,,,4.912510395,4.912949085,15960.000000000,1718099561.790377855
1718099561.790384,275.331756592,3237.000000000,1718099561.790383816,,,,
1718099561.791385,,,,5.095891953,5.098037243,15961.000000000,1718099561.791384935
1718099561.792392,,,,5.671614647,5.673423767,15962.000000000,1718099561.792392015
1718099561.793399,,,,5.951879501,5.954866409,15963.000000000,1718099561.793399096
1718099561.794406,,,,5.658296108,5.659744740,15964.000000000,1718099561.794406176
1718099561.795384,275.604187012,3238.000000000,1718099561.795383930,,,,
1718099561.795413,,,,5.399884224,5.400058746,15965.000000000,1718099561.795413256
1718099561.796420,,,,5.659883022,5.661739826,15966.000000000,1718099561.796420336
1718099561.797427,,,,5.963226318,5.966934681,15967.000000000,1718099561.797427416
1718099561.798434,,,,5.547012329,5.551417828,15968.000000000,1718099561.798434496
1718099561.799442,,,,5.241529465,5.241126537,15969.000000000,1718099561.799441576
1718099561.800384,275.988800049,3239.000000000,1718099561.800383806,,,,
1718099561.800449,,,,4.929867744,4.927902222,15970.000000000,1718099561.800448656
1718099561.801456,,,,4.874622822,4.877922058,15971.000000000,1718099561.801455736
1718099561.802463,,,,5.335239410,5.335822582,15972.000000000,1718099561.802462816
1718099561.803470,,,,5.618966103,5.620750904,15973.000000000,1718099561.803469896
1718099561.804477,,,,5.312280655,5.312262535,15974.000000000,1718099561.804476976
1718099561.804492,276.661895752,3241.000000000,1718099561.804492235,,,,
1718099561.805384,276.293304443,3240.000000000,1718099561.805383921,,,,
1718099561.805484,,,,4.982420444,4.983580112,15975.000000000,1718099561.805484056
1718099561.806491,,,,5.155536175,5.157850266,15976.000000000,1718099561.806491137
1718099561.807498,,,,5.254366875,5.256416321,15977.000000000,1718099561.807498217
1718099561.808505,,,,5.391133785,5.393567562,15978.000000000,1718099561.808505297
1718099561.809492,276.934387207,3242.000000000,1718099561.809492350,,,,
1718099561.809512,,,,5.580837727,5.582430363,15979.000000000,1718099561.809512377
1718099561.810519,,,,5.595694542,5.597984314,15980.000000000,1718099561.810519457
1718099561.811527,,,,6.158387661,6.162288189,15981.000000000,1718099561.811526537
1718099561.812534,,,,6.526953220,6.529988289,15982.000000000,1718099561.812533617
1718099561.813541,,,,5.922742367,5.924142361,15983.000000000,1718099561.813540697
1718099561.814492,277.206848145,3243.000000000,1718099561.814492226,,,,
1718099561.814548,,,,5.056465149,5.057024002,15984.000000000,1718099561.814547777
1718099561.815555,,,,4.629769802,4.630040169,15985.000000000,1718099561.815554857
1718099561.816562,,,,4.717421532,4.718653679,15986.000000000,1718099561.816561937
1718099561.817569,,,,5.003095150,5.004952431,15987.000000000,1718099561.817569017
1718099561.818576,,,,5.214435577,5.219033241,15988.000000000,1718099561.818576097
1718099561.819492,277.511291504,3244.000000000,1718099561.819492340,,,,
1718099561.819583,,,,5.299298763,5.300554752,15989.000000000,1718099561.819583178
1718099561.820590,,,,5.249895573,5.252353668,15990.000000000,1718099561.820590258
1718099561.821597,,,,5.187678337,5.190232754,15991.000000000,1718099561.821597338
1718099561.822604,,,,5.463832378,5.464294910,15992.000000000,1718099561.822604418
1718099561.823611,,,,5.487824917,5.487301826,15993.000000000,1718099561.823611498
1718099561.824492,277.815826416,3245.000000000,1718099561.824492216,,,,
1718099561.824619,,,,5.603579998,5.603754044,15994.000000000,1718099561.824618578
1718099561.825626,,,,5.981425285,5.982272625,15995.000000000,1718099561.825625658
1718099561.826633,,,,6.276883602,6.278764725,15996.000000000,1718099561.826632738
1718099561.827640,,,,5.523621082,5.523747444,15997.000000000,1718099561.827639818
1718099561.828647,,,,5.021438122,5.024064541,15998.000000000,1718099561.828646898
1718099561.829654,,,,4.923833370,4.925858974,15999.000000000,1718099561.829653978
1718099561.830661,,,,5.060985088,5.063418865,16000.000000000,1718099561.830661058
1718099561.831668,,,,5.136544228,5.135564804,16001.000000000,1718099561.831668139
1718099561.832675,,,,5.300284386,5.300867558,16002.000000000,1718099561.832675219
1718099561.833682,,,,5.796625614,5.799396038,16003.000000000,1718099561.833682299
1718099561.834689,,,,6.303448200,6.306627750,16004.000000000,1718099561.834689379
1718099561.835696,,,,5.889854908,5.892096519,16005.000000000,1718099561.835696459
1718099561.836704,,,,5.082260609,5.084574699,16006.000000000,1718099561.836703539
1718099561.837711,,,,4.891932011,4.894005299,16007.000000000,1718099561.837710619
1718099561.838718,,,,5.129596710,5.133472919,16008.000000000,1718099561.838717699
1718099561.839725,,,,5.569971085,5.575747013,16009.000000000,1718099561.839724779
1718099561.840732,,,,5.801193237,5.806800842,16010.000000000,1718099561.840731859
1718099561.841739,,,,5.438108921,5.443283558,16011.000000000,1718099561.841738939
1718099561.842746,,,,5.126952171,5.130708694,16012.000000000,1718099561.842746019
1718099561.843753,,,,5.598699570,5.598874092,16013.000000000,1718099561.843753099
1718099561.844760,,,,6.287533283,6.290184021,16014.000000000,1718099561.844760180
1718099561.845767,,,,6.178942204,6.181808949,16015.000000000,1718099561.845767260
1718099561.846774,,,,5.610335350,5.612841606,16016.000000000,1718099561.846774340
1718099561.847781,,,,4.958139420,4.959515572,16017.000000000,1718099561.847781420
1718099561.848788,,,,4.666047096,4.666605949,16018.000000000,1718099561.848788500
1718099561.849796,,,,4.757088184,4.756877899,16019.000000000,1718099561.849795580
1718099561.850803,,,,4.920588017,4.920113087,16020.000000000,1718099561.850802660
1718099561.851810,,,,5.148997307,5.152248859,16021.000000000,1718099561.851809740
1718099561.852817,,,,5.513836384,5.514347553,16022.000000000,1718099561.852816820
1718099561.853824,,,,5.629207134,5.630991936,16023.000000000,1718099561.853823900
1718099561.854492,279.755187988,3251.000000000,1718099561.854492188,,,,
1718099561.854831,,,,5.714214325,5.715542793,16024.000000000,1718099561.854830980
1718099561.855838,,,,5.548166275,5.549470901,16025.000000000,1718099561.855838060
1718099561.856845,,,,5.377214432,5.376955509,16026.000000000,1718099561.856845140
1718099561.857852,,,,4.861544609,4.862440109,16027.000000000,1718099561.857852221
1718099561.858859,,,,5.069375038,5.072674751,16028.000000000,1718099561.858859301
1718099561.859492,280.123870850,3252.000000000,1718099561.859492302,,,,
1718099561.859866,,,,5.627259731,5.630871773,16029.000000000,1718099561.859866381
1718099561.860873,,,,5.894518375,5.896375656,16030.000000000,1718099561.860873461
1718099561.861881,,,,5.925290585,5.927099705,16031.000000000,1718099561.861880541
1718099561.862888,,,,6.039675236,6.043744087,16032.000000000,1718099561.862887621
1718099561.863895,,,,5.709887028,5.711888790,16033.000000000,1718099561.863894701
1718099561.864492,280.540588379,3253.000000000,1718099561.864492178,,,,
1718099561.864902,,,,5.673177242,5.676332474,16034.000000000,1718099561.864901781
1718099561.865909,,,,5.797827721,5.799035549,16035.000000000,1718099561.865908861
1718099561.866916,,,,5.754963398,5.755570412,16036.000000000,1718099561.866915941
1718099561.867923,,,,5.829608917,5.831322193,16037.000000000,1718099561.867923021
1718099561.868930,,,,6.000777721,6.004894733,16038.000000000,1718099561.868930101
1718099561.869492,280.973388672,3254.000000000,1718099561.869492292,,,,
1718099561.869937,,,,5.930963993,5.932628632,16039.000000000,1718099561.869937181
1718099561.870944,,,,5.250616550,5.251175404,16040.000000000,1718099561.870944262
1718099561.871951,,,,4.556566238,4.559144497,16041.000000000,1718099561.871951342
1718099561.872958,,,,4.980617523,4.983700752,16042.000000000,1718099561.872958422
1718099561.873966,,,,5.533333302,5.535214424,16043.000000000,1718099561.873965502
1718099561.874492,281.438232422,3255.000000000,1718099561.874492168,,,,
1718099561.874973,,,,5.494748592,5.497903824,16044.000000000,1718099561.874972582
1718099561.875980,,,,5.537684917,5.538892746,16045.000000000,1718099561.875979662
1718099561.876987,,,,5.330960274,5.332312584,16046.000000000,1718099561.876986742
1718099561.877994,,,,5.073702335,5.078780651,16047.000000000,1718099561.877993822
1718099561.879001,,,,5.399355412,5.405588150,16048.000000000,1718099561.879000902
1718099561.879492,281.903106689,3256.000000000,1718099561.879492283,,,,
1718099561.880008,,,,5.460899353,5.463910580,16049.000000000,1718099561.880007982
1718099561.881015,,,,5.162748337,5.161744595,16050.000000000,1718099561.881015062
1718099561.882022,,,,5.029540062,5.030747890,16051.000000000,1718099561.882022142
1718099561.883029,,,,5.050695419,5.056038380,16052.000000000,1718099561.883029222
1718099561.884036,,,,5.235399246,5.239155293,16053.000000000,1718099561.884036303
1718099561.884492,282.239776611,3257.000000000,1718099561.884492159,,,,
1718099561.885043,,,,5.587400436,5.592094421,16054.000000000,1718099561.885043383
1718099561.886050,,,,5.536843300,5.538556099,16055.000000000,1718099561.886050463
1718099561.887058,,,,5.434887409,5.436504364,16056.000000000,1718099561.887057543
1718099561.888065,,,,5.451282978,5.455496311,16057.000000000,1718099561.888064623
1718099561.889072,,,,5.534415245,5.539926529,16058.000000000,1718099561.889071703
1718099561.889492,282.608489990,3258.000000000,1718099561.889492273,,,,
1718099561.890079,,,,5.563071728,5.568727016,16059.000000000,1718099561.890078783
1718099561.891086,,,,5.839561939,5.840529442,16060.000000000,1718099561.891085863
1718099561.892093,,,,5.329758167,5.330629826,16061.000000000,1718099561.892092943
1718099561.893100,,,,4.544473648,4.544528008,16062.000000000,1718099561.893100023
1718099561.894107,,,,4.955158234,4.957616329,16063.000000000,1718099561.894107103
1718099561.894492,282.832916260,3259.000000000,1718099561.894492149,,,,
1718099561.895114,,,,5.565908432,5.568462849,16064.000000000,1718099561.895114183
1718099561.896121,,,,5.452316761,5.453572750,16065.000000000,1718099561.896121264
1718099561.897128,,,,5.351683140,5.352410316,16066.000000000,1718099561.897128344
1718099561.898135,,,,5.392864704,5.393207073,16067.000000000,1718099561.898135424
1718099561.899031,283.297821045,3261.000000000,1718099561.899030924,,,,
1718099561.899143,,,,5.603579998,5.602768421,16068.000000000,1718099561.899142504
1718099561.899492,283.089385986,3260.000000000,1718099561.899492264,,,,
1718099561.900150,,,,5.555546761,5.555552959,16069.000000000,1718099561.900149584
1718099561.901157,,,,5.416232109,5.417079449,16070.000000000,1718099561.901156664
1718099561.902164,,,,5.285234928,5.286683559,16071.000000000,1718099561.902163744
1718099561.903171,,,,5.559441566,5.563077450,16072.000000000,1718099561.903170824
1718099561.904031,283.506195068,3262.000000000,1718099561.904031038,,,,
1718099561.904178,,,,5.782441616,5.782736301,16073.000000000,1718099561.904177904
1718099561.905185,,,,5.705584049,5.706335068,16074.000000000,1718099561.905184984
1718099561.906192,,,,5.366011143,5.369551182,16075.000000000,1718099561.906192064
1718099561.907199,,,,5.128947735,5.129554749,16076.000000000,1718099561.907199144
1718099561.908206,,,,5.339134216,5.339332104,16077.000000000,1718099561.908206224
1718099561.909031,283.618438721,3263.000000000,1718099561.909030914,,,,
1718099561.909213,,,,5.318699360,5.319643021,16078.000000000,1718099561.909213305
1718099561.910220,,,,5.087117195,5.088204861,16079.000000000,1718099561.910220385
1718099561.911227,,,,5.086395741,5.088565350,16080.000000000,1718099561.911227465
1718099561.912235,,,,5.411856651,5.412631989,16081.000000000,1718099561.912234545
1718099561.913242,,,,5.544079781,5.546345234,16082.000000000,1718099561.913241625
1718099561.914031,283.794799805,3264.000000000,1718099561.914031029,,,,
1718099561.914249,,,,5.530953407,5.534132957,16083.000000000,1718099561.914248705
1718099561.915256,,,,5.561869621,5.563197613,16084.000000000,1718099561.915255785
1718099561.916263,,,,5.568432808,5.571756363,16085.000000000,1718099561.916262865
1718099561.917270,,,,5.656661510,5.659408092,16086.000000000,1718099561.917269945
1718099561.918277,,,,5.687144756,5.690252304,16087.000000000,1718099561.918277025
1718099561.919284,,,,5.322474003,5.324450970,16088.000000000,1718099561.919284105
1718099561.920291,,,,5.158228874,5.159773350,16089.000000000,1718099561.920291185
1718099561.921298,,,,5.471164703,5.477132797,16090.000000000,1718099561.921298265
1718099561.922305,,,,5.648055077,5.650056362,16091.000000000,1718099561.922305346
1718099561.923312,,,,5.352404594,5.351665020,16092.000000000,1718099561.923312426
1718099561.924320,,,,5.258165359,5.261416912,16093.000000000,1718099561.924319506
1718099561.925327,,,,5.349952221,5.352890968,16094.000000000,1718099561.925326586
1718099561.926334,,,,5.242995739,5.244492531,16095.000000000,1718099561.926333666
1718099561.927341,,,,5.254775524,5.255406857,16096.000000000,1718099561.927340746
1718099561.928348,,,,5.355048656,5.356497288,16097.000000000,1718099561.928347826
1718099561.929355,,,,5.639544487,5.642579556,16098.000000000,1718099561.929354906
1718099561.930362,,,,5.483160973,5.486027718,16099.000000000,1718099561.930361986
1718099561.931369,,,,5.295211792,5.298271179,16100.000000000,1718099561.931369066
1718099561.932376,,,,5.266146660,5.270191669,16101.000000000,1718099561.932376146
1718099561.933383,,,,5.361443520,5.363564968,16102.000000000,1718099561.933383226
1718099561.934390,,,,4.948282719,4.949707031,16103.000000000,1718099561.934390306
1718099561.935397,,,,5.099858284,5.105826378,16104.000000000,1718099561.935397387
1718099561.936404,,,,5.407721519,5.412631989,16105.000000000,1718099561.936404467
1718099561.937412,,,,5.435969353,5.437153339,16106.000000000,1718099561.937411547
1718099561.938419,,,,5.444503784,5.447250366,16107.000000000,1718099561.938418627
1718099561.939426,,,,5.733807564,5.735857010,16108.000000000,1718099561.939425707
1718099561.940433,,,,5.810280323,5.814229012,16109.000000000,1718099561.940432787
1718099561.941440,,,,5.640409946,5.643493176,16110.000000000,1718099561.941439867
1718099561.942447,,,,5.472462654,5.476122856,16111.000000000,1718099561.942446947
1718099561.943454,,,,5.227128983,5.230115891,16112.000000000,1718099561.943454027
1718099561.944461,,,,5.233139038,5.235284805,16113.000000000,1718099561.944461107
1718099561.945468,,,,5.421400547,5.420589447,16114.000000000,1718099561.945468187
1718099561.946475,,,,5.545569897,5.547932148,16115.000000000,1718099561.946475267
1718099561.947482,,,,5.321392059,5.324907780,16116.000000000,1718099561.947482347
1718099561.948489,,,,4.919939041,4.921483517,16117.000000000,1718099561.948489428
1718099561.949031,284.852966309,3271.000000000,1718099561.949030876,,,,
1718099561.949497,,,,4.667801857,4.669106007,16118.000000000,1718099561.949496508
1718099561.950504,,,,5.241000652,5.242520809,16119.000000000,1718099561.950503588
1718099561.951511,,,,6.033713341,6.036411762,16120.000000000,1718099561.951510668
1718099561.952518,,,,5.904254913,5.908179760,16121.000000000,1718099561.952517748
1718099561.953525,,,,5.489435673,5.491701126,16122.000000000,1718099561.953524828
1718099561.954031,285.125579834,3272.000000000,1718099561.954030991,,,,
1718099561.954532,,,,5.593554974,5.598369122,16123.000000000,1718099561.954531908
1718099561.955539,,,,5.604854107,5.606951714,16124.000000000,1718099561.955538988
1718099561.956546,,,,6.064749718,6.067688465,16125.000000000,1718099561.956546068
1718099561.957553,,,,6.423915386,6.424787045,16126.000000000,1718099561.957553148
1718099561.958560,,,,5.612426758,5.612817287,16127.000000000,1718099561.958560228
1718099561.959031,285.398101807,3273.000000000,1718099561.959030867,,,,
1718099561.959567,,,,4.719176292,4.720865250,16128.000000000,1718099561.959567308
1718099561.960574,,,,4.462615967,4.463920116,16129.000000000,1718099561.960574389
1718099561.961581,,,,4.882964611,4.884990215,16130.000000000,1718099561.961581469
1718099561.962589,,,,5.239605904,5.242689133,16131.000000000,1718099561.962588549
1718099561.963596,,,,5.194602013,5.196483612,16132.000000000,1718099561.963595629
1718099561.964031,285.702758789,3274.000000000,1718099561.964030981,,,,
1718099561.964603,,,,4.991435528,4.994206429,16133.000000000,1718099561.964602709
1718099561.965610,,,,4.884455204,4.889822006,16134.000000000,1718099561.965609789
1718099561.966617,,,,4.952561855,4.954659462,16135.000000000,1718099561.966616869
1718099561.967624,,,,5.176764011,5.178621292,16136.000000000,1718099561.967623949
1718099561.968631,,,,5.399595737,5.402174473,16137.000000000,1718099561.968631029
1718099561.969031,286.023498535,3275.000000000,1718099561.969030857,,,,
1718099561.969638,,,,5.471525192,5.472324371,16138.000000000,1718099561.969638109
1718099561.970645,,,,5.443133354,5.446937561,16139.000000000,1718099561.970645189
1718099561.971652,,,,5.690246105,5.695733547,16140.000000000,1718099561.971652269
1718099561.972659,,,,6.033232689,6.037541866,16141.000000000,1718099561.972659349
1718099561.973666,,,,6.382349491,6.387115479,16142.000000000,1718099561.973666430
1718099561.974031,286.328125000,3276.000000000,1718099561.974030972,,,,
1718099561.974674,,,,5.797178268,5.798410416,16143.000000000,1718099561.974673510
1718099561.975681,,,,5.363367081,5.363108158,16144.000000000,1718099561.975680590
1718099561.976688,,,,5.475371838,5.474608421,16145.000000000,1718099561.976687670
1718099561.977695,,,,5.434310436,5.437874317,16146.000000000,1718099561.977694750
1718099561.978702,,,,5.212560654,5.217855453,16147.000000000,1718099561.978701830
1718099561.979031,286.600738525,3277.000000000,1718099561.979030848,,,,
1718099561.979709,,,,5.284826279,5.286900043,16148.000000000,1718099561.979708910
1718099561.980716,,,,5.395701408,5.396933556,16149.000000000,1718099561.980715990
1718099561.981723,,,,5.305501461,5.308440208,16150.000000000,1718099561.981723070
1718099561.982730,,,,5.449480057,5.453140259,16151.000000000,1718099561.982730150
1718099561.983737,,,,5.658127785,5.662004471,16152.000000000,1718099561.983737230
1718099561.984031,286.937500000,3278.000000000,1718099561.984030962,,,,
1718099561.984744,,,,5.403370380,5.403784752,16153.000000000,1718099561.984744310
1718099561.985751,,,,4.988286495,4.986297131,16154.000000000,1718099561.985751390
1718099561.986758,,,,4.945758343,4.948841572,16155.000000000,1718099561.986758471
1718099561.987766,,,,5.390340328,5.394745827,16156.000000000,1718099561.987765551
1718099561.988773,,,,5.447436810,5.450183392,16157.000000000,1718099561.988772631
1718099561.989031,287.178070068,3279.000000000,1718099561.989030838,,,,
1718099561.989780,,,,5.246938705,5.249300480,16158.000000000,1718099561.989779711
1718099561.990787,,,,5.360698223,5.363589287,16159.000000000,1718099561.990786791
1718099561.991794,,,,5.454720974,5.456193447,16160.000000000,1718099561.991793871
1718099561.992801,,,,5.272878170,5.273437023,16161.000000000,1718099561.992800951
1718099561.993808,,,,5.096204281,5.096186161,16162.000000000,1718099561.993808031
1718099561.994031,287.386505127,3280.000000000,1718099561.994030952,,,,
1718099561.994815,,,,5.521361351,5.521367073,16163.000000000,1718099561.994815111
1718099561.995822,,,,5.944114208,5.943735600,16164.000000000,1718099561.995822191
1718099561.996829,,,,5.856390476,5.856709003,16165.000000000,1718099561.996829271
1718099561.997836,,,,5.271532059,5.273124695,16166.000000000,1718099561.997836351
1718099561.998843,,,,4.979535580,4.983989239,16167.000000000,1718099561.998843431
1718099561.999851,,,,4.921790123,4.924128056,16168.000000000,1718099561.999850512
1718099562.000858,,,,4.994320393,4.992956161,16169.000000000,1718099562.000857592
1718099562.001865,,,,4.963572502,4.963434219,16170.000000000,1718099562.001864672
1718099562.002872,,,,5.102983952,5.105562210,16171.000000000,1718099562.002871752
1718099562.003879,,,,5.186645031,5.190232754,16172.000000000,1718099562.003878832
1718099562.004886,,,,5.331104279,5.336351395,16173.000000000,1718099562.004885912
1718099562.005893,,,,5.761478424,5.764417171,16174.000000000,1718099562.005892992
1718099562.006900,,,,6.033785343,6.035065651,16175.000000000,1718099562.006900072
1718099562.007907,,,,6.352515221,6.354420185,16176.000000000,1718099562.007907152
1718099562.008914,,,,5.741284370,5.745064735,16177.000000000,1718099562.008914232
1718099562.009921,,,,5.459697247,5.465977669,16178.000000000,1718099562.009921312
1718099562.010928,,,,5.441522598,5.445879936,16179.000000000,1718099562.010928392
1718099562.011935,,,,5.432940006,5.434051991,16180.000000000,1718099562.011935472
1718099562.012943,,,,5.153372765,5.154869080,16181.000000000,1718099562.012942553
1718099562.013950,,,,5.172773361,5.177996159,16182.000000000,1718099562.013949633
1718099562.014957,,,,5.180586815,5.180304050,16183.000000000,1718099562.014956713
1718099562.015964,,,,5.374305248,5.373493671,16184.000000000,1718099562.015963793
1718099562.016971,,,,5.426954269,5.430662155,16185.000000000,1718099562.016970873
1718099562.017978,,,,5.141448498,5.145084858,16186.000000000,1718099562.017977953
1718099562.018985,,,,5.381012440,5.383759022,16187.000000000,1718099562.018985033
1718099562.019992,,,,5.523717403,5.525093555,16188.000000000,1718099562.019992113
1718099562.020999,,,,5.458254814,5.459799290,16189.000000000,1718099562.020999193
1718099562.022006,,,,5.447532654,5.448259830,16190.000000000,1718099562.022006273
1718099562.023013,,,,5.246289253,5.248867512,16191.000000000,1718099562.023013353
1718099562.024020,,,,5.137770176,5.141214371,16192.000000000,1718099562.024020433
1718099562.025028,,,,5.062619686,5.063274860,16193.000000000,1718099562.025027514
1718099562.026035,,,,5.193881035,5.195858479,16194.000000000,1718099562.026034594
1718099562.027042,,,,5.444046974,5.449461937,16195.000000000,1718099562.027041674
1718099562.028049,,,,5.512706757,5.518146038,16196.000000000,1718099562.028048754
1718099562.029056,,,,5.476501465,5.480185986,16197.000000000,1718099562.029055834
1718099562.030063,,,,5.343653679,5.344501019,16198.000000000,1718099562.030062914
1718099562.031070,,,,5.185803413,5.186650753,16199.000000000,1718099562.031069994
1718099562.032077,,,,5.231552601,5.235669613,16200.000000000,1718099562.032077074
1718099562.033084,,,,6.002171993,6.005543709,16201.000000000,1718099562.033084154
1718099562.034091,,,,6.824310780,6.825663090,16202.000000000,1718099562.034091234
1718099562.035098,,,,6.527121544,6.528233528,16203.000000000,1718099562.035098314
1718099562.036105,,,,5.403634548,5.407559395,16204.000000000,1718099562.036105394
1718099562.037112,,,,4.555003643,4.561115742,16205.000000000,1718099562.037112474
1718099562.038120,,,,5.002638340,5.008173943,16206.000000000,1718099562.038119555
1718099562.039127,,,,5.224941254,5.228529453,16207.000000000,1718099562.039126635
1718099562.040134,,,,5.253525734,5.254301071,16208.000000000,1718099562.040133715
1718099562.041141,,,,5.149045467,5.151070595,16209.000000000,1718099562.041140795
1718099562.042148,,,,5.129692554,5.132198811,16210.000000000,1718099562.042147875
1718099562.043155,,,,5.189722061,5.193983078,16211.000000000,1718099562.043154955
1718099562.044162,,,,5.194962978,5.197252750,16212.000000000,1718099562.044162035
1718099562.045169,,,,5.277950764,5.278605938,16213.000000000,1718099562.045169115
1718099562.046176,,,,5.126206875,5.127318859,16214.000000000,1718099562.046176195
1718099562.047183,,,,5.222296715,5.225091457,16215.000000000,1718099562.047183275
1718099562.048190,,,,5.553888321,5.555192471,16216.000000000,1718099562.048190355
1718099562.049197,,,,6.268757820,6.268234730,16217.000000000,1718099562.049197435
1718099562.050205,,,,6.539261818,6.540878773,16218.000000000,1718099562.050204515
1718099562.051212,,,,6.101219177,6.103316784,16219.000000000,1718099562.051211596
1718099562.052219,,,,5.298505306,5.300530910,16220.000000000,1718099562.052218676
1718099562.053091,288.236541748,3291.000000000,1718099562.053091049,,,,
1718099562.053226,,,,5.243957520,5.247329235,16221.000000000,1718099562.053225756
1718099562.054233,,,,5.345889568,5.350367069,16222.000000000,1718099562.054232836
1718099562.055240,,,,5.236096382,5.236558914,16223.000000000,1718099562.055239916
1718099562.056247,,,,5.214026928,5.213864803,16224.000000000,1718099562.056246996
1718099562.057254,,,,5.256530762,5.259253025,16225.000000000,1718099562.057254076
1718099562.058091,288.236541748,3292.000000000,1718099562.058091164,,,,
1718099562.058261,,,,5.516432762,5.517857552,16226.000000000,1718099562.058261156
1718099562.059268,,,,5.392576218,5.395130157,16227.000000000,1718099562.059268236
1718099562.060275,,,,4.871785641,4.875638485,16228.000000000,1718099562.060275316
1718099562.061282,,,,4.921189308,4.924296379,16229.000000000,1718099562.061282396
1718099562.062289,,,,5.204891682,5.206892967,16230.000000000,1718099562.062289476
1718099562.063091,288.332763672,3293.000000000,1718099562.063091040,,,,
1718099562.063297,,,,5.223546982,5.227327347,16231.000000000,1718099562.063296556
1718099562.064304,,,,5.239005089,5.240910530,16232.000000000,1718099562.064303637
1718099562.065311,,,,5.437988758,5.440999508,16233.000000000,1718099562.065310717
1718099562.066318,,,,5.218955517,5.220595837,16234.000000000,1718099562.066317797
1718099562.067325,,,,5.182630062,5.183213234,16235.000000000,1718099562.067324877
1718099562.068091,288.396911621,3294.000000000,1718099562.068091154,,,,
1718099562.068332,,,,5.541435242,5.542883396,16236.000000000,1718099562.068331957
1718099562.069339,,,,5.539175510,5.542571068,16237.000000000,1718099562.069339037
1718099562.070346,,,,5.469193459,5.475618362,16238.000000000,1718099562.070346117
1718099562.071353,,,,5.525905132,5.528002262,16239.000000000,1718099562.071353197
1718099562.072360,,,,5.544368267,5.547258854,16240.000000000,1718099562.072360277
1718099562.073091,288.509185791,3295.000000000,1718099562.073091030,,,,
1718099562.073367,,,,5.625384808,5.627217770,16241.000000000,1718099562.073367357
1718099562.074374,,,,6.018784046,6.019824028,16242.000000000,1718099562.074374437
1718099562.075382,,,,5.718782425,5.719076633,16243.000000000,1718099562.075381517
1718099562.076389,,,,5.202102661,5.203839779,16244.000000000,1718099562.076388597
1718099562.077396,,,,4.868900776,4.871575356,16245.000000000,1718099562.077395678
1718099562.078091,288.653503418,3296.000000000,1718099562.078091145,,,,
1718099562.078403,,,,5.160777092,5.164245129,16246.000000000,1718099562.078402758
1718099562.079410,,,,5.710151672,5.711047173,16247.000000000,1718099562.079409838
1718099562.080417,,,,6.147160530,6.147599220,16248.000000000,1718099562.080416918
1718099562.081424,,,,6.048377991,6.049826622,16249.000000000,1718099562.081423998
1718099562.082431,,,,5.238548279,5.240020752,16250.000000000,1718099562.082431078
1718099562.083091,288.894104004,3297.000000000,1718099562.083091021,,,,
1718099562.083438,,,,4.732663155,4.733967304,16251.000000000,1718099562.083438158
1718099562.084445,,,,5.101060390,5.104432106,16252.000000000,1718099562.084445238
1718099562.085452,,,,5.462630272,5.466747284,16253.000000000,1718099562.085452318
1718099562.086459,,,,5.497560978,5.497134209,16254.000000000,1718099562.086459398
1718099562.087466,,,,5.357597351,5.357026100,16255.000000000,1718099562.087466478
1718099562.088091,289.150726318,3298.000000000,1718099562.088091135,,,,
1718099562.088474,,,,5.276893139,5.277716160,16256.000000000,1718099562.088473558
1718099562.089481,,,,5.486478329,5.488047123,16257.000000000,1718099562.089480639
1718099562.090488,,,,5.890023232,5.891231060,16258.000000000,1718099562.090487719
1718099562.091495,,,,5.917356968,5.918228626,16259.000000000,1718099562.091494799
1718099562.092502,,,,5.491310596,5.492639065,16260.000000000,1718099562.092501879
1718099562.093091,289.407348633,3299.000000000,1718099562.093091011,,,,
1718099562.093509,,,,5.240519524,5.241943836,16261.000000000,1718099562.093508959
1718099562.094516,,,,5.422963142,5.424820423,16262.000000000,1718099562.094516039
1718099562.095523,,,,5.574851513,5.575146198,16263.000000000,1718099562.095523119
1718099562.096530,,,,5.038434982,5.039162159,16264.000000000,1718099562.096530199
1718099562.097537,,,,5.015908718,5.018414974,16265.000000000,1718099562.097537279
1718099562.098091,289.696105957,3300.000000000,1718099562.098091125,,,,
1718099562.098544,,,,5.177701950,5.181962967,16266.000000000,1718099562.098544359
1718099562.099551,,,,4.849283695,4.851381302,16267.000000000,1718099562.099551439
1718099562.100559,,,,4.759083748,4.763200760,16268.000000000,1718099562.100558519
1718099562.101566,,,,4.976314068,4.979950428,16269.000000000,1718099562.101565599
1718099562.102573,,,,5.221335411,5.222110748,16270.000000000,1718099562.102572680
1718099562.103580,,,,5.418419838,5.418690205,16271.000000000,1718099562.103579760
1718099562.104587,,,,5.757174969,5.757565498,16272.000000000,1718099562.104586840
1718099562.105594,,,,6.105257988,6.105841160,16273.000000000,1718099562.105593920
1718099562.106601,,,,5.913077831,5.913540840,16274.000000000,1718099562.106601000
1718099562.107608,,,,5.230422497,5.231606483,16275.000000000,1718099562.107608080
1718099562.108615,,,,4.976265907,4.980070591,16276.000000000,1718099562.108615160
1718099562.109622,,,,5.496743679,5.502014637,16277.000000000,1718099562.109622240
1718099562.110629,,,,5.713853836,5.717947006,16278.000000000,1718099562.110629320
1718099562.111636,,,,5.722268105,5.725303173,16279.000000000,1718099562.111636400
1718099562.112643,,,,5.714214325,5.715157986,16280.000000000,1718099562.112643480
1718099562.113651,,,,5.647526264,5.648060799,16281.000000000,1718099562.113650560
1718099562.114658,,,,5.704093456,5.704435825,16282.000000000,1718099562.114657640
1718099562.115665,,,,5.765300751,5.764248848,16283.000000000,1718099562.115664721
1718099562.116672,,,,5.609469891,5.611447334,16284.000000000,1718099562.116671801
1718099562.117679,,,,5.136255741,5.139242649,16285.000000000,1718099562.117678881
1718099562.118686,,,,5.021389961,5.022718430,16286.000000000,1718099562.118685961
1718099562.119693,,,,5.089785576,5.091930866,16287.000000000,1718099562.119693041
1718099562.120700,,,,5.225638390,5.226774693,16288.000000000,1718099562.120700121
1718099562.121707,,,,5.289850712,5.291154861,16289.000000000,1718099562.121707201
1718099562.122714,,,,5.237610817,5.240645885,16290.000000000,1718099562.122714281
1718099562.123721,,,,5.123490334,5.125876427,16291.000000000,1718099562.123721361
1718099562.124728,,,,5.249486923,5.252786160,16292.000000000,1718099562.124728441
1718099562.125736,,,,5.508667946,5.511126041,16293.000000000,1718099562.125735521
1718099562.126743,,,,5.438782215,5.438932419,16294.000000000,1718099562.126742601
1718099562.127750,,,,5.666133404,5.669433117,16295.000000000,1718099562.127749681
1718099562.128757,,,,6.145117283,6.149570942,16296.000000000,1718099562.128756762
1718099562.129764,,,,6.399730682,6.402693748,16297.000000000,1718099562.129763842
1718099562.130771,,,,5.917356968,5.917603493,16298.000000000,1718099562.130770922
1718099562.131778,,,,5.036583900,5.039859295,16299.000000000,1718099562.131778002
1718099562.132785,,,,4.788677692,4.792313576,16300.000000000,1718099562.132785082
1718099562.133792,,,,5.074519634,5.077434540,16301.000000000,1718099562.133792162
1718099562.134799,,,,5.298433304,5.303463936,16302.000000000,1718099562.134799242
1718099562.135806,,,,5.509437084,5.510957718,16303.000000000,1718099562.135806322
1718099562.136813,,,,5.297039032,5.297453880,16304.000000000,1718099562.136813402
1718099562.137820,,,,5.031631470,5.032478809,16305.000000000,1718099562.137820482
1718099562.138828,,,,5.228908062,5.230765343,16306.000000000,1718099562.138827562
1718099562.139835,,,,5.202992439,5.206339836,16307.000000000,1718099562.139834642
1718099562.140842,,,,5.398802757,5.404626369,16308.000000000,1718099562.140841722
1718099562.141849,,,,5.782994747,5.787736416,16309.000000000,1718099562.141848803
1718099562.142856,,,,5.755035400,5.757181168,16310.000000000,1718099562.142855883
1718099562.143863,,,,5.598747730,5.600508690,16311.000000000,1718099562.143862963
1718099562.144870,,,,5.614446163,5.616183281,16312.000000000,1718099562.144870043
1718099562.145877,,,,5.205372334,5.205017567,16313.000000000,1718099562.145877123
1718099562.146884,,,,4.900105476,4.902443409,16314.000000000,1718099562.146884203
1718099562.147891,,,,4.980160713,4.982787132,16315.000000000,1718099562.147891283
1718099562.148898,,,,5.227393627,5.228841782,16316.000000000,1718099562.148898363
1718099562.149905,,,,5.519485950,5.521343231,16317.000000000,1718099562.149905443
1718099562.150913,,,,5.737822533,5.739415169,16318.000000000,1718099562.150912523
1718099562.151920,,,,5.477799892,5.480450153,16319.000000000,1718099562.151919603
1718099562.152927,,,,5.451018810,5.452611446,16320.000000000,1718099562.152926683
1718099562.153934,,,,6.072082043,6.075309277,16321.000000000,1718099562.153933764
1718099562.154941,,,,6.280922413,6.282587051,16322.000000000,1718099562.154940844
1718099562.155948,,,,6.361650467,6.364877701,16323.000000000,1718099562.155947924
1718099562.156955,,,,5.607715130,5.610725880,16324.000000000,1718099562.156955004
1718099562.157034,289.359252930,3311.000000000,1718099562.157034397,,,,
1718099562.157962,,,,4.916501045,4.918838978,16325.000000000,1718099562.157962084
1718099562.158969,,,,5.245135307,5.249685287,16326.000000000,1718099562.158969164
1718099562.159976,,,,5.907909393,5.910871983,16327.000000000,1718099562.159976244
1718099562.160983,,,,5.828262806,5.829735279,16328.000000000,1718099562.160983324
1718099562.161990,,,,5.223258495,5.222615242,16329.000000000,1718099562.161990404
1718099562.162035,289.070556641,3312.000000000,1718099562.162034512,,,,
1718099562.162997,,,,4.703742504,4.703989029,16330.000000000,1718099562.162997484
1718099562.164005,,,,5.002254009,5.002908707,16331.000000000,1718099562.164004564
1718099562.165012,,,,5.524077892,5.526199341,16332.000000000,1718099562.165011644
1718099562.166019,,,,5.368944168,5.372195721,16333.000000000,1718099562.166018724
1718099562.167026,,,,5.251313686,5.253988266,16334.000000000,1718099562.167025805
1718099562.167034,288.926177979,3313.000000000,1718099562.167034388,,,,
1718099562.168033,,,,5.510062218,5.510380745,16335.000000000,1718099562.168032885
1718099562.169040,,,,5.581101894,5.581997395,16336.000000000,1718099562.169039965
1718099562.170047,,,,5.730537891,5.732250690,16337.000000000,1718099562.170047045
1718099562.171054,,,,5.764603615,5.766171932,16338.000000000,1718099562.171054125
1718099562.172035,288.733734131,3314.000000000,1718099562.172034502,,,,
1718099562.172061,,,,5.633967400,5.635127068,16339.000000000,1718099562.172061205
1718099562.173068,,,,5.022255421,5.022790432,16340.000000000,1718099562.173068285
1718099562.174075,,,,4.567384243,4.570251465,16341.000000000,1718099562.174075365
1718099562.175082,,,,4.808006287,4.809430599,16342.000000000,1718099562.175082445
1718099562.176090,,,,5.016028881,5.016131401,16343.000000000,1718099562.176089525
1718099562.177034,288.605407715,3315.000000000,1718099562.177034378,,,,
1718099562.177097,,,,4.916669369,4.915738106,16344.000000000,1718099562.177096605
1718099562.178104,,,,5.285595894,5.286972046,16345.000000000,1718099562.178103685
1718099562.179111,,,,5.623846054,5.622866631,16346.000000000,1718099562.179110765
1718099562.180118,,,,5.831243992,5.834230900,16347.000000000,1718099562.180117846
1718099562.181125,,,,6.006860256,6.009125710,16348.000000000,1718099562.181124926
1718099562.182034,288.541259766,3316.000000000,1718099562.182034492,,,,
1718099562.182132,,,,5.615263462,5.618419170,16349.000000000,1718099562.182132006
1718099562.183139,,,,5.604228973,5.607168198,16350.000000000,1718099562.183139086
1718099562.184146,,,,5.781359673,5.785909653,16351.000000000,1718099562.184146166
1718099562.185153,,,,5.700896263,5.701887608,16352.000000000,1718099562.185153246
1718099562.186160,,,,5.360602379,5.362892151,16353.000000000,1718099562.186160326
1718099562.187034,288.477050781,3317.000000000,1718099562.187034369,,,,
1718099562.187167,,,,5.168422222,5.171986103,16354.000000000,1718099562.187167406
1718099562.188174,,,,5.235903740,5.240766048,16355.000000000,1718099562.188174486
1718099562.189182,,,,5.542132378,5.545022964,16356.000000000,1718099562.189181566
1718099562.190189,,,,5.777969837,5.779057980,16357.000000000,1718099562.190188646
1718099562.191196,,,,5.607017517,5.609187603,16358.000000000,1718099562.191195726
1718099562.192034,288.493133545,3318.000000000,1718099562.192034483,,,,
1718099562.192203,,,,5.061225414,5.063875675,16359.000000000,1718099562.192202806
1718099562.193210,,,,4.621403694,4.623236656,16360.000000000,1718099562.193209887
1718099562.194217,,,,4.988983631,4.992162704,16361.000000000,1718099562.194216967
1718099562.195224,,,,5.319637299,5.322287560,16362.000000000,1718099562.195224047
1718099562.196231,,,,5.640386105,5.641810417,16363.000000000,1718099562.196231127
1718099562.197034,288.300689697,3319.000000000,1718099562.197034359,,,,
1718099562.197238,,,,6.123456478,6.124928951,16364.000000000,1718099562.197238207
1718099562.198245,,,,6.240606308,6.244218349,16365.000000000,1718099562.198245287
1718099562.199252,,,,6.171441555,6.177866459,16366.000000000,1718099562.199252367
1718099562.200259,,,,5.882354259,5.884788036,16367.000000000,1718099562.200259447
1718099562.200593,288.012023926,3321.000000000,1718099562.200593472,,,,
1718099562.201267,,,,5.480251789,5.483911991,16368.000000000,1718099562.201266527
1718099562.202034,288.156311035,3320.000000000,1718099562.202034473,,,,
1718099562.202274,,,,5.476405621,5.480113506,16369.000000000,1718099562.202273607
1718099562.203281,,,,5.015259743,5.014784813,16370.000000000,1718099562.203280687
1718099562.204288,,,,4.469347000,4.470026493,16371.000000000,1718099562.204287767
1718099562.205295,,,,5.318699360,5.323081017,16372.000000000,1718099562.205294847
1718099562.206302,,,,5.522370815,5.525333881,16373.000000000,1718099562.206301928
1718099562.207309,,,,5.385844707,5.385754585,16374.000000000,1718099562.207309008
1718099562.208316,,,,5.244774818,5.246559620,16375.000000000,1718099562.208316088
1718099562.209323,,,,5.364688873,5.367146969,16376.000000000,1718099562.209323168
1718099562.210330,,,,5.386686325,5.387750149,16377.000000000,1718099562.210330248
1718099562.211337,,,,5.216046333,5.218720913,16378.000000000,1718099562.211337328
1718099562.212344,,,,5.077212334,5.080535889,16379.000000000,1718099562.212344408
1718099562.213351,,,,5.147458553,5.146887779,16380.000000000,1718099562.213351488
1718099562.214359,,,,5.232634544,5.234443188,16381.000000000,1718099562.214358568
1718099562.215366,,,,5.347139359,5.348371506,16382.000000000,1718099562.215365648
1718099562.216373,,,,5.369016171,5.371859074,16383.000000000,1718099562.216372728
1718099562.217380,,,,5.395292759,5.398976803,16384.000000000,1718099562.217379808
1718099562.218387,,,,5.491045952,5.493793011,16385.000000000,1718099562.218386889
1718099562.219394,,,,5.529895782,5.531368256,16386.000000000,1718099562.219393969
1718099562.220401,,,,5.438662052,5.436071396,16387.000000000,1718099562.220401049
1718099562.221408,,,,5.254559517,5.256488800,16388.000000000,1718099562.221408129
1718099562.222415,,,,5.346875191,5.349862099,16389.000000000,1718099562.222415209
1718099562.223422,,,,5.915987015,5.918925762,16390.000000000,1718099562.223422289
1718099562.224429,,,,5.939594746,5.940610409,16391.000000000,1718099562.224429369
1718099562.225436,,,,5.205997467,5.206652641,16392.000000000,1718099562.225436449
1718099562.226444,,,,4.813006878,4.814551353,16393.000000000,1718099562.226443529
1718099562.227451,,,,4.967058659,4.971007347,16394.000000000,1718099562.227450609
1718099562.228458,,,,5.124379635,5.128064156,16395.000000000,1718099562.228457689
1718099562.229465,,,,5.495614052,5.498793125,16396.000000000,1718099562.229464769
1718099562.230472,,,,5.881055832,5.882264137,16397.000000000,1718099562.230471849
1718099562.231479,,,,5.729263783,5.728356361,16398.000000000,1718099562.231478930
1718099562.232486,,,,5.193496227,5.192131996,16399.000000000,1718099562.232486010
1718099562.233493,,,,5.176812172,5.178693295,16400.000000000,1718099562.233493090
1718099562.234500,,,,5.463832378,5.465689182,16401.000000000,1718099562.234500170
1718099562.235507,,,,5.436666489,5.441961288,16402.000000000,1718099562.235507250
1718099562.236514,,,,5.337932110,5.338418961,16403.000000000,1718099562.236514330
1718099562.237521,,,,5.452244759,5.454751015,16404.000000000,1718099562.237521410
1718099562.238528,,,,5.775229454,5.778384686,16405.000000000,1718099562.238528490
1718099562.239536,,,,5.674379349,5.674313068,16406.000000000,1718099562.239535570
1718099562.240543,,,,5.085145473,5.085968971,16407.000000000,1718099562.240542650
1718099562.241550,,,,4.863564014,4.865445137,16408.000000000,1718099562.241549730
1718099562.242557,,,,5.069783688,5.074741840,16409.000000000,1718099562.242556810
1718099562.243564,,,,5.415775299,5.418401718,16410.000000000,1718099562.243563890
1718099562.244571,,,,5.464962006,5.466506958,16411.000000000,1718099562.244570971
1718099562.245578,,,,5.257396221,5.260527611,16412.000000000,1718099562.245578051
1718099562.246585,,,,5.131784439,5.136285782,16413.000000000,1718099562.246585131
1718099562.247592,,,,5.465731621,5.467925072,16414.000000000,1718099562.247592211
1718099562.248599,,,,5.715488911,5.720038414,16415.000000000,1718099562.248599291
1718099562.249606,,,,5.429983139,5.432657719,16416.000000000,1718099562.249606371
1718099562.250593,284.981231689,3331.000000000,1718099562.250593424,,,,
1718099562.250613,,,,5.107935905,5.113278866,16417.000000000,1718099562.250613451
1718099562.251621,,,,5.209290981,5.212734699,16418.000000000,1718099562.251620531
1718099562.252628,,,,5.263237953,5.263724804,16419.000000000,1718099562.252627611
1718099562.253635,,,,5.175129414,5.177875996,16420.000000000,1718099562.253634691
1718099562.254642,,,,5.278792381,5.283726692,16421.000000000,1718099562.254641771
1718099562.255594,284.836914063,3332.000000000,1718099562.255593538,,,,
1718099562.255649,,,,5.565019131,5.568126202,16422.000000000,1718099562.255648851
1718099562.256656,,,,5.455297947,5.453380585,16423.000000000,1718099562.256655931
1718099562.257663,,,,5.401927948,5.403737068,16424.000000000,1718099562.257663012
1718099562.258670,,,,5.345456600,5.348467827,16425.000000000,1718099562.258670092
1718099562.259677,,,,5.603579998,5.606951714,16426.000000000,1718099562.259677172
1718099562.260593,284.724731445,3333.000000000,1718099562.260593414,,,,
1718099562.260684,,,,5.801890373,5.805478573,16427.000000000,1718099562.260684252
1718099562.261691,,,,5.837927341,5.838943005,16428.000000000,1718099562.261691332
1718099562.262698,,,,6.114032745,6.118173599,16429.000000000,1718099562.262698412
1718099562.263705,,,,5.896465778,5.897313118,16430.000000000,1718099562.263705492
1718099562.264713,,,,5.501455784,5.502351284,16431.000000000,1718099562.264712572
1718099562.265594,284.564392090,3334.000000000,1718099562.265593529,,,,
1718099562.265720,,,,5.255400658,5.259181023,16432.000000000,1718099562.265719652
1718099562.266727,,,,5.142530441,5.148306370,16433.000000000,1718099562.266726732
1718099562.267734,,,,4.684774399,4.687665462,16434.000000000,1718099562.267733812
1718099562.268741,,,,4.668475151,4.670692444,16435.000000000,1718099562.268740892
1718099562.269748,,,,4.806587696,4.806497574,16436.000000000,1718099562.269747972
1718099562.270593,284.468139648,3335.000000000,1718099562.270593405,,,,
1718099562.270755,,,,4.830676556,4.832701683,16437.000000000,1718099562.270755053
1718099562.271762,,,,5.072740555,5.074982643,16438.000000000,1718099562.271762133
1718099562.272769,,,,5.202270985,5.204945564,16439.000000000,1718099562.272769213
1718099562.273776,,,,5.313458443,5.315507889,16440.000000000,1718099562.273776293
1718099562.274783,,,,5.259824276,5.259493828,16441.000000000,1718099562.274783373
1718099562.275594,284.371948242,3336.000000000,1718099562.275593519,,,,
1718099562.275790,,,,5.165080547,5.165687561,16442.000000000,1718099562.275790453
1718099562.276798,,,,5.454432487,5.458164692,16443.000000000,1718099562.276797533
1718099562.277805,,,,5.553335190,5.554350853,16444.000000000,1718099562.277804613
1718099562.278812,,,,5.760805130,5.762157440,16445.000000000,1718099562.278811693
1718099562.279819,,,,5.771575451,5.772999763,16446.000000000,1718099562.279818773
1718099562.280593,284.243682861,3337.000000000,1718099562.280593395,,,,
1718099562.280826,,,,5.243981361,5.247112751,16447.000000000,1718099562.280825853
1718099562.281833,,,,5.188952923,5.191939831,16448.000000000,1718099562.281832933
1718099562.282840,,,,5.557229996,5.560433388,16449.000000000,1718099562.282840014
1718099562.283847,,,,5.896465778,5.898419380,16450.000000000,1718099562.283847094
1718099562.284854,,,,5.658488750,5.657989502,16451.000000000,1718099562.284854174
1718099562.285594,284.163574219,3338.000000000,1718099562.285593510,,,,
1718099562.285861,,,,5.272854328,5.272739887,16452.000000000,1718099562.285861254
1718099562.286868,,,,5.396879196,5.398111343,16453.000000000,1718099562.286868334
1718099562.287875,,,,6.231711388,6.233640671,16454.000000000,1718099562.287875414
1718099562.288882,,,,6.715695381,6.715797424,16455.000000000,1718099562.288882494
1718099562.289890,,,,6.076265335,6.074155331,16456.000000000,1718099562.289889574
1718099562.290593,284.083374023,3339.000000000,1718099562.290593386,,,,
1718099562.290897,,,,4.870463371,4.868017673,16457.000000000,1718099562.290896654
1718099562.291904,,,,4.866304398,4.865757465,16458.000000000,1718099562.291903734
1718099562.292911,,,,5.081299305,5.083637238,16459.000000000,1718099562.292910814
1718099562.293918,,,,5.077764988,5.079694271,16460.000000000,1718099562.293917894
1718099562.294925,,,,4.723768234,4.723196983,16461.000000000,1718099562.294924974
1718099562.295594,284.067382813,3340.000000000,1718099562.295593500,,,,
1718099562.295932,,,,4.574187756,4.576021194,16462.000000000,1718099562.295932055
1718099562.296939,,,,4.689366341,4.691463470,16463.000000000,1718099562.296939135
1718099562.297946,,,,4.849452019,4.849313736,16464.000000000,1718099562.297946215
1718099562.298953,,,,5.213738441,5.215812206,16465.000000000,1718099562.298953295
1718099562.299960,,,,5.550474167,5.550696850,16466.000000000,1718099562.299960375
1718099562.300967,,,,5.834946156,5.835721493,16467.000000000,1718099562.300967455
1718099562.301975,,,,5.823598862,5.824013710,16468.000000000,1718099562.301974535
1718099562.302982,,,,5.539031029,5.540287018,16469.000000000,1718099562.302981615
1718099562.303989,,,,5.000571251,5.002259731,16470.000000000,1718099562.303988695
1718099562.304996,,,,4.980929852,4.981513023,16471.000000000,1718099562.304995775
1718099562.306003,,,,5.618989944,5.620702744,16472.000000000,1718099562.306002855
1718099562.307010,,,,5.824392319,5.824398518,16473.000000000,1718099562.307009935
1718099562.308017,,,,5.608556271,5.608201504,16474.000000000,1718099562.308017015
1718099562.309024,,,,5.372117519,5.373085022,16475.000000000,1718099562.309024096
1718099562.310031,,,,5.395917892,5.397005558,16476.000000000,1718099562.310031176
1718099562.311038,,,,5.480011463,5.482132912,16477.000000000,1718099562.311038256
1718099562.312045,,,,5.402312756,5.402895451,16478.000000000,1718099562.312045336
1718099562.313052,,,,5.366059303,5.369815826,16479.000000000,1718099562.313052416
1718099562.314059,,,,5.756044865,5.761340141,16480.000000000,1718099562.314059496
1718099562.315067,,,,6.169542313,6.170678139,16481.000000000,1718099562.315066576
1718099562.316074,,,,5.957168102,5.956405163,16482.000000000,1718099562.316073656
1718099562.317081,,,,5.430632114,5.432826042,16483.000000000,1718099562.317080736
1718099562.318088,,,,5.109811306,5.111091614,16484.000000000,1718099562.318087816
1718099562.319095,,,,5.104426384,5.104720592,16485.000000000,1718099562.319094896
1718099562.320102,,,,5.197174549,5.201075077,16486.000000000,1718099562.320101976
