__time,/gdx/grip_force_stream/grip_force,/gdx/grip_force_stream/header/seq,/gdx/grip_force_stream/header/stamp,/shimmer0/emg_stream/emg_ch1,/shimmer0/emg_stream/emg_ch2,/shimmer0/emg_stream/header/seq,/shimmer0/emg_stream/header/stamp
1718101459.241200,,,,0.414422601,0.414235711,22977.000000000,1718101459.241200209
1718101459.242207,,,,0.420312524,0.419332296,22978.000000000,1718101459.242207289
1718101459.243214,,,,0.420168281,0.421976745,22979.000000000,1718101459.243214369
1718101459.244221,,,,0.420384645,0.420077562,22980.000000000,1718101459.244221449
1718101459.245229,,,,0.418581605,0.416591674,22981.000000000,1718101459.245228529
1718101459.246236,,,,0.414759159,0.415870458,22982.000000000,1718101459.246235609
1718101459.247243,,,,0.413965821,0.416952282,22983.000000000,1718101459.247242689
1718101459.248250,,,,0.412763804,0.412793279,22984.000000000,1718101459.248249769
1718101459.249257,,,,0.413196534,0.411759526,22985.000000000,1718101459.249256849
1718101459.250264,,,,0.407907605,0.409884363,22986.000000000,1718101459.250263929
1718101459.251271,,,,0.407667220,0.407047570,22987.000000000,1718101459.251271009
1718101459.252278,,,,0.416442007,0.414403975,22988.000000000,1718101459.252278090
1718101459.253285,,,,0.426394790,0.425534755,22989.000000000,1718101459.253285170
1718101459.254292,,,,0.432549179,0.433035403,22990.000000000,1718101459.254292250
1718101459.255299,,,,0.426755399,0.427433968,22991.000000000,1718101459.255299330
1718101459.256306,,,,0.419110507,0.419572711,22992.000000000,1718101459.256306410
1718101459.257313,,,,0.413581192,0.414163589,22993.000000000,1718101459.257313490
1718101459.258321,,,,0.415816963,0.415269434,22994.000000000,1718101459.258320570
1718101459.259328,,,,0.411802173,0.409187198,22995.000000000,1718101459.259327650
1718101459.260335,,,,0.404229403,0.402335644,22996.000000000,1718101459.260334730
1718101459.261342,,,,0.396872997,0.394209921,22997.000000000,1718101459.261341810
1718101459.262349,,,,0.394012183,0.391685665,22998.000000000,1718101459.262348890
1718101459.263356,,,,0.399036646,0.397118837,22999.000000000,1718101459.263355970
1718101459.264363,,,,0.418196976,0.416519552,23000.000000000,1718101459.264363050
1718101459.265370,,,,0.437645763,0.437867552,23001.000000000,1718101459.265370131
1718101459.266377,,,,0.437645763,0.438588768,23002.000000000,1718101459.266377211
1718101459.266706,-0.062005751,5091.000000000,1718101459.266706467,,,,
1718101459.267384,,,,0.431851983,0.433083504,23003.000000000,1718101459.267384291
1718101459.268391,,,,0.431972206,0.433828741,23004.000000000,1718101459.268391371
1718101459.269398,,,,0.422259808,0.422048867,23005.000000000,1718101459.269398451
1718101459.270406,,,,0.405647814,0.405220509,23006.000000000,1718101459.270405531
1718101459.271413,,,,0.407090247,0.405581117,23007.000000000,1718101459.271412611
1718101459.271707,-0.062005751,5092.000000000,1718101459.271706581,,,,
1718101459.272420,,,,0.412643611,0.413466394,23008.000000000,1718101459.272419691
1718101459.273427,,,,0.412403196,0.416808039,23009.000000000,1718101459.273426771
1718101459.274434,,,,0.415336132,0.419115931,23010.000000000,1718101459.274433851
1718101459.275441,,,,0.418990314,0.420317948,23011.000000000,1718101459.275440931
1718101459.276448,,,,0.418269098,0.420125633,23012.000000000,1718101459.276448011
1718101459.276706,-0.026640553,5093.000000000,1718101459.276706457,,,,
1718101459.277455,,,,0.424519628,0.424164444,23013.000000000,1718101459.277455091
1718101459.278462,,,,0.420144260,0.420943022,23014.000000000,1718101459.278462172
1718101459.279469,,,,0.405407399,0.405148387,23015.000000000,1718101459.279469252
1718101459.280476,,,,0.404013038,0.403537661,23016.000000000,1718101459.280476332
1718101459.281483,,,,0.423245490,0.422361404,23017.000000000,1718101459.281483412
1718101459.281707,-0.026640553,5094.000000000,1718101459.281706572,,,,
1718101459.282490,,,,0.430962503,0.432602674,23018.000000000,1718101459.282490492
1718101459.283498,,,,0.431659669,0.433997035,23019.000000000,1718101459.283497572
1718101459.284505,,,,0.435698479,0.435944319,23020.000000000,1718101459.284504652
1718101459.285512,,,,0.436467767,0.435872197,23021.000000000,1718101459.285511732
1718101459.286519,,,,0.429592192,0.430439025,23022.000000000,1718101459.286518812
1718101459.286706,0.044071902,5095.000000000,1718101459.286706448,,,,
1718101459.287526,,,,0.430169165,0.431064099,23023.000000000,1718101459.287525892
1718101459.288533,,,,0.427668929,0.429453373,23024.000000000,1718101459.288532972
1718101459.289540,,,,0.415167868,0.415317535,23025.000000000,1718101459.289540052
1718101459.290547,,,,0.397305727,0.397527516,23026.000000000,1718101459.290547132
1718101459.291554,,,,0.383434325,0.384641796,23027.000000000,1718101459.291554213
1718101459.291707,0.044071902,5096.000000000,1718101459.291706562,,,,
1718101459.292561,,,,0.395670980,0.394955188,23028.000000000,1718101459.292561293
1718101459.293568,,,,0.416177571,0.417240769,23029.000000000,1718101459.293568373
1718101459.294575,,,,0.424351335,0.425342441,23030.000000000,1718101459.294575453
1718101459.295583,,,,0.410287619,0.412288427,23031.000000000,1718101459.295582533
1718101459.296590,,,,0.412691683,0.412745178,23032.000000000,1718101459.296589613
1718101459.296706,-0.008962225,5097.000000000,1718101459.296706438,,,,
1718101459.297597,,,,0.416802615,0.416207016,23033.000000000,1718101459.297596693
1718101459.298604,,,,0.407498926,0.407095671,23034.000000000,1718101459.298603773
1718101459.299611,,,,0.406513274,0.406542718,23035.000000000,1718101459.299610853
1718101459.300618,,,,0.413124412,0.415750265,23036.000000000,1718101459.300617933
1718101459.301625,,,,0.410479963,0.412240326,23037.000000000,1718101459.301625013
1718101459.301707,0.097112849,5098.000000000,1718101459.301706553,,,,
1718101459.302632,,,,0.423533976,0.425414562,23038.000000000,1718101459.302632093
1718101459.303639,,,,0.435818672,0.433876842,23039.000000000,1718101459.303639174
1718101459.304646,,,,0.416922808,0.414836705,23040.000000000,1718101459.304646254
1718101459.305653,,,,0.411129057,0.410148799,23041.000000000,1718101459.305653334
1718101459.306660,,,,0.414302409,0.413827002,23042.000000000,1718101459.306660414
1718101459.306706,0.044071902,5099.000000000,1718101459.306706429,,,,
1718101459.307667,,,,0.419735551,0.420053512,23043.000000000,1718101459.307667494
1718101459.308675,,,,0.418220997,0.420606434,23044.000000000,1718101459.308674574
1718101459.309682,,,,0.423389733,0.423900008,23045.000000000,1718101459.309681654
1718101459.310689,,,,0.430577844,0.428227305,23046.000000000,1718101459.310688734
1718101459.311696,,,,0.425048530,0.424452931,23047.000000000,1718101459.311695814
1718101459.311707,0.061749656,5100.000000000,1718101459.311706543,,,,
1718101459.312703,,,,0.418629706,0.417913914,23048.000000000,1718101459.312702894
1718101459.313710,,,,0.415432304,0.414908826,23049.000000000,1718101459.313709974
1718101459.314717,,,,0.424471557,0.425342441,23050.000000000,1718101459.314717054
1718101459.315724,,,,0.425216794,0.425414562,23051.000000000,1718101459.315724134
1718101459.316731,,,,0.409975111,0.409812242,23052.000000000,1718101459.316731215
1718101459.317738,,,,0.400358886,0.402311593,23053.000000000,1718101459.317738295
1718101459.318745,,,,0.402426362,0.401422083,23054.000000000,1718101459.318745375
1718101459.319752,,,,0.415937155,0.414884806,23055.000000000,1718101459.319752455
1718101459.320760,,,,0.430529773,0.430150539,23056.000000000,1718101459.320759535
1718101459.321767,,,,0.416490078,0.415485799,23057.000000000,1718101459.321766615
1718101459.322774,,,,0.378289670,0.377477705,23058.000000000,1718101459.322773695
1718101459.323781,,,,0.373481542,0.373078287,23059.000000000,1718101459.323780775
1718101459.324788,,,,0.396704704,0.398897827,23060.000000000,1718101459.324787855
1718101459.325795,,,,0.409398139,0.407840908,23061.000000000,1718101459.325794935
1718101459.326802,,,,0.413436949,0.413033664,23062.000000000,1718101459.326802015
1718101459.327809,,,,0.412739754,0.415630043,23063.000000000,1718101459.327809095
1718101459.328816,,,,0.407883584,0.408730417,23064.000000000,1718101459.328816175
1718101459.329823,,,,0.419495165,0.418202400,23065.000000000,1718101459.329823256
1718101459.330830,,,,0.421105862,0.421135336,23066.000000000,1718101459.330830336
1718101459.331837,,,,0.418389291,0.418611079,23067.000000000,1718101459.331837416
1718101459.332844,,,,0.416922808,0.417625427,23068.000000000,1718101459.332844496
1718101459.333852,,,,0.409927011,0.409908414,23069.000000000,1718101459.333851576
1718101459.334859,,,,0.411297321,0.413250029,23070.000000000,1718101459.334858656
1718101459.335866,,,,0.419951916,0.422409475,23071.000000000,1718101459.335865736
1718101459.336873,,,,0.424231142,0.424356759,23072.000000000,1718101459.336872816
1718101459.337880,,,,0.425337017,0.426688701,23073.000000000,1718101459.337879896
1718101459.338887,,,,0.428029537,0.430246711,23074.000000000,1718101459.338886976
1718101459.339894,,,,0.423630118,0.422625840,23075.000000000,1718101459.339894056
1718101459.340901,,,,0.411922395,0.412913471,23076.000000000,1718101459.340901136
1718101459.341908,,,,0.407042146,0.408441931,23077.000000000,1718101459.341908216
1718101459.342915,,,,0.422355980,0.423226863,23078.000000000,1718101459.342915297
1718101459.343922,,,,0.420264453,0.424645245,23079.000000000,1718101459.343922377
1718101459.344929,,,,0.404037088,0.405124336,23080.000000000,1718101459.344929457
1718101459.345937,,,,0.396175832,0.393656999,23081.000000000,1718101459.345936537
1718101459.346944,,,,0.395983487,0.394041657,23082.000000000,1718101459.346943617
1718101459.347951,,,,0.403556287,0.403513610,23083.000000000,1718101459.347950697
1718101459.348958,,,,0.415264010,0.417889863,23084.000000000,1718101459.348957777
1718101459.349965,,,,0.410600156,0.413394272,23085.000000000,1718101459.349964857
1718101459.350972,,,,0.391007096,0.389714360,23086.000000000,1718101459.350971937
1718101459.351789,0.485997140,5111.000000000,1718101459.351788759,,,,
1718101459.351979,,,,0.340762377,0.339229196,23087.000000000,1718101459.351979017
1718101459.352986,,,,0.312538773,0.313866436,23088.000000000,1718101459.352986097
1718101459.353993,,,,0.342829853,0.343171865,23089.000000000,1718101459.353993177
1718101459.355000,,,,0.401032031,0.398897827,23090.000000000,1718101459.355000257
1718101459.356007,,,,0.464450955,0.463735193,23091.000000000,1718101459.356007338
1718101459.356789,0.539027333,5112.000000000,1718101459.356788874,,,,
1718101459.357014,,,,0.517893076,0.519316912,23092.000000000,1718101459.357014418
1718101459.358021,,,,0.477240533,0.476909399,23093.000000000,1718101459.358021498
1718101459.359029,,,,0.372015089,0.371227175,23094.000000000,1718101459.359028578
1718101459.360036,,,,0.366125137,0.366106540,23095.000000000,1718101459.360035658
1718101459.361043,,,,0.352782637,0.352764040,23096.000000000,1718101459.361042738
1718101459.361789,0.680421412,5113.000000000,1718101459.361788750,,,,
1718101459.362050,,,,0.317755580,0.315501183,23097.000000000,1718101459.362049818
1718101459.363057,,,,0.352157593,0.349518567,23098.000000000,1718101459.363056898
1718101459.364064,,,,0.427644908,0.427506089,23099.000000000,1718101459.364063978
1718101459.365071,,,,0.495294988,0.495300412,23100.000000000,1718101459.365071058
1718101459.366078,,,,0.481135100,0.480419308,23101.000000000,1718101459.366078138
1718101459.366789,0.680421412,5114.000000000,1718101459.366788864,,,,
1718101459.367085,,,,0.415865034,0.415197313,23102.000000000,1718101459.367085218
1718101459.368092,,,,0.402522534,0.401782691,23103.000000000,1718101459.368092299
1718101459.369099,,,,0.423557997,0.423178792,23104.000000000,1718101459.369099379
1718101459.370106,,,,0.451709479,0.452267855,23105.000000000,1718101459.370106459
1718101459.371114,,,,0.467648357,0.470851183,23106.000000000,1718101459.371113539
1718101459.371789,0.751110971,5115.000000000,1718101459.371788740,,,,
1718101459.372121,,,,0.483130485,0.482703179,23107.000000000,1718101459.372120619
1718101459.373128,,,,0.471398681,0.472630173,23108.000000000,1718101459.373127699
1718101459.374135,,,,0.471038073,0.468062490,23109.000000000,1718101459.374134779
1718101459.375142,,,,0.465340465,0.463975579,23110.000000000,1718101459.375141859
1718101459.376149,,,,0.469138861,0.470346332,23111.000000000,1718101459.376148939
1718101459.376789,0.857149065,5116.000000000,1718101459.376788855,,,,
1718101459.377156,,,,0.450555533,0.449310869,23112.000000000,1718101459.377156019
1718101459.378163,,,,0.397474021,0.395315796,23113.000000000,1718101459.378163099
1718101459.379170,,,,0.318524867,0.317135960,23114.000000000,1718101459.379170179
1718101459.380177,,,,0.309028864,0.309346825,23115.000000000,1718101459.380177259
1718101459.381184,,,,0.379515737,0.379737526,23116.000000000,1718101459.381184340
1718101459.381789,1.016192555,5117.000000000,1718101459.381788731,,,,
1718101459.382191,,,,0.405888200,0.404691607,23117.000000000,1718101459.382191420
1718101459.383198,,,,0.389468521,0.387743026,23118.000000000,1718101459.383198500
1718101459.384206,,,,0.390550345,0.392094374,23119.000000000,1718101459.384205580
1718101459.385213,,,,0.382112116,0.382694513,23120.000000000,1718101459.385212660
1718101459.386220,,,,0.410984814,0.410629630,23121.000000000,1718101459.386219740
1718101459.386789,1.175224304,5118.000000000,1718101459.386788845,,,,
1718101459.387227,,,,0.461614192,0.461066693,23122.000000000,1718101459.387226820
1718101459.388234,,,,0.474884570,0.474577457,23123.000000000,1718101459.388233900
1718101459.389241,,,,0.464210570,0.464768916,23124.000000000,1718101459.389240980
1718101459.390248,,,,0.387905866,0.387839198,23125.000000000,1718101459.390248060
1718101459.391255,,,,0.413701385,0.411543161,23126.000000000,1718101459.391255140
1718101459.391789,1.351920009,5119.000000000,1718101459.391788721,,,,
1718101459.392262,,,,0.490991741,0.489602804,23127.000000000,1718101459.392262220
1718101459.393269,,,,0.590735912,0.589467227,23128.000000000,1718101459.393269300
1718101459.394276,,,,0.553809643,0.554680586,23129.000000000,1718101459.394276381
1718101459.395283,,,,0.553280771,0.551218688,23130.000000000,1718101459.395283461
1718101459.396291,,,,0.532678008,0.532467067,23131.000000000,1718101459.396290541
1718101459.396789,1.581589818,5120.000000000,1718101459.396788836,,,,
1718101459.396894,1.917230129,5121.000000000,1718101459.396893740,,,,
1718101459.397298,,,,0.494501650,0.497464061,23132.000000000,1718101459.397297621
1718101459.398305,,,,0.500944495,0.501574993,23133.000000000,1718101459.398304701
1718101459.399312,,,,0.521234751,0.520518959,23134.000000000,1718101459.399311781
1718101459.400319,,,,0.566743493,0.566772938,23135.000000000,1718101459.400318861
1718101459.401326,,,,0.598885655,0.598362207,23136.000000000,1718101459.401325941
1718101459.401894,2.323457003,5122.000000000,1718101459.401893854,,,,
1718101459.402333,,,,0.554819345,0.554656506,23137.000000000,1718101459.402333021
1718101459.403340,,,,0.397353828,0.396493793,23138.000000000,1718101459.403340101
1718101459.404347,,,,0.298571229,0.297807366,23139.000000000,1718101459.404347181
1718101459.405354,,,,0.244431913,0.241432279,23140.000000000,1718101459.405354261
1718101459.406361,,,,0.229839310,0.228426352,23141.000000000,1718101459.406361341
1718101459.406894,2.764919758,5123.000000000,1718101459.406893730,,,,
1718101459.407368,,,,0.247100413,0.245158568,23142.000000000,1718101459.407368422
1718101459.408376,,,,0.280468702,0.280305833,23143.000000000,1718101459.408375502
1718101459.409383,,,,0.332756877,0.333483517,23144.000000000,1718101459.409382582
1718101459.410390,,,,0.369514853,0.367356658,23145.000000000,1718101459.410389662
1718101459.411397,,,,0.391608119,0.387983441,23146.000000000,1718101459.411396742
1718101459.412404,,,,0.396175832,0.396277428,23147.000000000,1718101459.412403822
1718101459.413411,,,,0.406513274,0.409139097,23148.000000000,1718101459.413410902
1718101459.414418,,,,0.413581192,0.418923616,23149.000000000,1718101459.414417982
1718101459.415425,,,,0.431082696,0.432506531,23150.000000000,1718101459.415425062
1718101459.416432,,,,0.445074290,0.445079714,23151.000000000,1718101459.416432142
1718101459.417439,,,,0.441852868,0.445079714,23152.000000000,1718101459.417439222
1718101459.418446,,,,0.411537737,0.412504792,23153.000000000,1718101459.418446302
1718101459.419453,,,,0.386102825,0.386492908,23154.000000000,1718101459.419453382
1718101459.420460,,,,0.389853150,0.390363455,23155.000000000,1718101459.420460463
1718101459.421468,,,,0.405671835,0.405581117,23156.000000000,1718101459.421467543
1718101459.422475,,,,0.434929192,0.435150981,23157.000000000,1718101459.422474623
1718101459.423482,,,,0.487986654,0.490372092,23158.000000000,1718101459.423481703
1718101459.424489,,,,0.568594575,0.567373991,23159.000000000,1718101459.424488783
1718101459.425496,,,,0.578691602,0.575595856,23160.000000000,1718101459.425495863
1718101459.426503,,,,0.528855562,0.529197574,23161.000000000,1718101459.426502943
1718101459.427510,,,,0.474908590,0.477077693,23162.000000000,1718101459.427510023
1718101459.428517,,,,0.391295582,0.393272340,23163.000000000,1718101459.428517103
1718101459.429524,,,,0.366702110,0.369231820,23164.000000000,1718101459.429524183
1718101459.430531,,,,0.351340204,0.352523625,23165.000000000,1718101459.430531263
1718101459.431538,,,,0.347854346,0.347739577,23166.000000000,1718101459.431538343
1718101459.432545,,,,0.359273583,0.358750135,23167.000000000,1718101459.432545424
1718101459.433553,,,,0.341940373,0.341873676,23168.000000000,1718101459.433552504
1718101459.434560,,,,0.315640002,0.318794757,23169.000000000,1718101459.434559584
1718101459.435567,,,,0.336627394,0.336656868,23170.000000000,1718101459.435566664
1718101459.436574,,,,0.379371494,0.379136503,23171.000000000,1718101459.436573744
1718101459.437581,,,,0.425312966,0.425943434,23172.000000000,1718101459.437580824
1718101459.438588,,,,0.406873882,0.407408178,23173.000000000,1718101459.438587904
1718101459.439595,,,,0.303235084,0.302663535,23174.000000000,1718101459.439594984
1718101459.440602,,,,0.188417450,0.186884284,23175.000000000,1718101459.440602064
1718101459.442616,,,,0.320712566,0.318987072,23177.000000000,1718101459.442616224
1718101459.443623,,,,0.417908490,0.417697549,23178.000000000,1718101459.443623304
1718101459.444630,,,,0.559627473,0.557084620,23179.000000000,1718101459.444630384
1718101459.445637,,,,0.708871186,0.709381461,23180.000000000,1718101459.445637465
1718101459.446645,,,,0.809240460,0.808524668,23181.000000000,1718101459.446644545
1718101459.446894,10.836637497,5131.000000000,1718101459.446893692,,,,
1718101459.447652,,,,0.827607393,0.826170385,23182.000000000,1718101459.447651625
1718101459.448659,,,,0.828184366,0.825785756,23183.000000000,1718101459.448658705
1718101459.449666,,,,0.586745203,0.586822748,23184.000000000,1718101459.449665785
1718101459.450673,,,,0.387929916,0.388440192,23185.000000000,1718101459.450672865
1718101459.451680,,,,0.419062436,0.420125633,23186.000000000,1718101459.451679945
1718101459.451894,12.753177643,5132.000000000,1718101459.451893806,,,,
1718101459.452687,,,,0.459210128,0.459744453,23187.000000000,1718101459.452687025
1718101459.453694,,,,0.494982451,0.495156169,23188.000000000,1718101459.453694105
1718101459.454701,,,,0.551862359,0.550930202,23189.000000000,1718101459.454701185
1718101459.455708,,,,0.604487121,0.606295586,23190.000000000,1718101459.455708265
1718101459.456715,,,,0.611002147,0.612474024,23191.000000000,1718101459.456715345
1718101459.456894,14.808477402,5133.000000000,1718101459.456893682,,,,
1718101459.457722,,,,0.650164187,0.650145531,23192.000000000,1718101459.457722425
1718101459.458730,,,,0.685191214,0.684475422,23193.000000000,1718101459.458729506
1718101459.459737,,,,0.571383297,0.570354998,23194.000000000,1718101459.459736586
1718101459.461894,17.054727554,5134.000000000,1718101459.461893797,,,,
1718101459.464772,,,,0.929010391,0.931059301,23199.000000000,1718101459.464771986
1718101459.465779,,,,0.975192308,0.977770090,23200.000000000,1718101459.465779066
1718101459.466786,,,,0.646606147,0.645241261,23201.000000000,1718101459.466786146
1718101459.466894,19.631479263,5135.000000000,1718101459.466893673,,,,
1718101459.467793,,,,0.043308739,0.041967899,23202.000000000,1718101459.467793226
1718101459.468800,,,,-0.056579720,-0.056958936,23203.000000000,1718101459.468800306
1718101459.469807,,,,0.180027306,0.182725281,23204.000000000,1718101459.469807386
1718101459.470814,,,,0.479692668,0.479674071,23205.000000000,1718101459.470814466
1718101459.471822,,,,0.713030159,0.710030556,23206.000000000,1718101459.471821547
1718101459.471894,22.397560120,5136.000000000,1718101459.471893787,,,,
1718101459.472829,,,,0.570469737,0.568936586,23207.000000000,1718101459.472828627
1718101459.473836,,,,0.517893076,0.516456068,23208.000000000,1718101459.473835707
1718101459.474843,,,,0.628167093,0.629230261,23209.000000000,1718101459.474842787
1718101459.475850,,,,0.628094971,0.629975557,23210.000000000,1718101459.475849867
1718101459.476857,,,,0.520922184,0.518836081,23211.000000000,1718101459.476856947
1718101459.476894,25.491958618,5137.000000000,1718101459.476893663,,,,
1718101459.477864,,,,0.508204758,0.508787155,23212.000000000,1718101459.477864027
1718101459.478871,,,,0.430962503,0.431304485,23213.000000000,1718101459.478871107
1718101459.479878,,,,0.448367834,0.449623376,23214.000000000,1718101459.479878187
1718101459.480885,,,,0.446781158,0.447772264,23215.000000000,1718101459.480885267
1718101459.481892,,,,0.404085159,0.404403120,23216.000000000,1718101459.481892347
1718101459.481894,28.808557510,5138.000000000,1718101459.481893778,,,,
1718101459.482899,,,,0.380525440,0.380530864,23217.000000000,1718101459.482899427
1718101459.483907,,,,0.453560591,0.450464815,23218.000000000,1718101459.483906507
1718101459.484914,,,,0.523278177,0.521865189,23219.000000000,1718101459.484913588
1718101459.485921,,,,0.436323524,0.437723309,23220.000000000,1718101459.485920668
1718101459.486894,32.294048309,5139.000000000,1718101459.486893654,,,,
1718101459.486928,,,,0.434688777,0.433420062,23221.000000000,1718101459.486927748
1718101459.487935,,,,0.424062848,0.425366461,23222.000000000,1718101459.487934828
1718101459.488942,,,,0.512652278,0.513859689,23223.000000000,1718101459.488941908
1718101459.489949,,,,0.492770731,0.492078990,23224.000000000,1718101459.489948988
1718101459.490956,,,,0.567705095,0.568431735,23225.000000000,1718101459.490956068
1718101459.491894,36.017086029,5140.000000000,1718101459.491893768,,,,
1718101459.491963,,,,0.701851308,0.704717577,23226.000000000,1718101459.491963148
1718101459.492970,,,,0.428510368,0.430006295,23227.000000000,1718101459.492970228
1718101459.493977,,,,0.249143869,0.251962036,23228.000000000,1718101459.493977308
1718101459.494984,,,,0.332131833,0.334685534,23229.000000000,1718101459.494984388
1718101459.495991,,,,0.447790861,0.447483778,23230.000000000,1718101459.495991468
1718101459.496999,,,,0.470340908,0.471163720,23231.000000000,1718101459.496998549
1718101459.498006,,,,0.398940504,0.398537219,23232.000000000,1718101459.498005629
1718101459.499013,,,,0.379419565,0.377573878,23233.000000000,1718101459.499012709
1718101459.500020,,,,0.388963670,0.389762431,23234.000000000,1718101459.500019789
1718101459.501027,,,,0.489140600,0.492006868,23235.000000000,1718101459.501026869
1718101459.501166,39.889617920,5141.000000000,1718101459.501166344,,,,
1718101459.502034,,,,0.586624980,0.589419127,23236.000000000,1718101459.502033949
1718101459.503041,,,,0.572200656,0.572662890,23237.000000000,1718101459.503041029
1718101459.504048,,,,0.655308843,0.652741909,23238.000000000,1718101459.504048109
1718101459.505055,,,,0.780560076,0.780950129,23239.000000000,1718101459.505055189
1718101459.506062,,,,0.865302980,0.868433654,23240.000000000,1718101459.506062269
1718101459.506166,43.962715149,5142.000000000,1718101459.506166458,,,,
1718101459.507069,,,,0.813038826,0.813356817,23241.000000000,1718101459.507069349
1718101459.508076,,,,0.446588844,0.446498126,23242.000000000,1718101459.508076429
1718101459.509084,,,,0.254216433,0.254293978,23243.000000000,1718101459.509083509
1718101459.510091,,,,0.366341501,0.365072787,23244.000000000,1718101459.510090590
1718101459.511098,,,,0.519287467,0.519461155,23245.000000000,1718101459.511097670
1718101459.511166,48.235172272,5143.000000000,1718101459.511166334,,,,
1718101459.512105,,,,0.645283937,0.648270369,23246.000000000,1718101459.512104750
1718101459.513112,,,,0.758683145,0.759409845,23247.000000000,1718101459.513111830
1718101459.514119,,,,0.759644806,0.759770453,23248.000000000,1718101459.514118910
1718101459.515126,,,,0.695961416,0.694981158,23249.000000000,1718101459.515125990
1718101459.516133,,,,0.608622134,0.606656194,23250.000000000,1718101459.516133070
1718101459.516166,52.533290863,5144.000000000,1718101459.516166449,,,,
1718101459.517140,,,,0.760726631,0.756981730,23251.000000000,1718101459.517140150
1718101459.518147,,,,0.782916069,0.779507697,23252.000000000,1718101459.518147230
1718101459.519154,,,,0.623815715,0.622715294,23253.000000000,1718101459.519154310
1718101459.520161,,,,0.547150433,0.542684317,23254.000000000,1718101459.520161390
1718101459.521168,,,,0.449642003,0.444622964,23255.000000000,1718101459.521168470
1718101459.522176,,,,0.322563678,0.323458612,23256.000000000,1718101459.522175550
1718101459.523183,,,,0.319823056,0.323554784,23257.000000000,1718101459.523182631
1718101459.524190,,,,0.461229533,0.464143872,23258.000000000,1718101459.524189711
1718101459.525197,,,,0.608189404,0.608627558,23259.000000000,1718101459.525196791
1718101459.526204,,,,0.701057971,0.700270057,23260.000000000,1718101459.526203871
1718101459.527211,,,,0.717093050,0.716785908,23261.000000000,1718101459.527210951
1718101459.528218,,,,0.782242894,0.780661643,23262.000000000,1718101459.528218031
1718101459.529225,,,,0.839699805,0.842037141,23263.000000000,1718101459.529225111
1718101459.530232,,,,0.837055326,0.838959992,23264.000000000,1718101459.530232191
1718101459.531239,,,,0.783877671,0.784267724,23265.000000000,1718101459.531239271
1718101459.532246,,,,0.690095484,0.689668179,23266.000000000,1718101459.532246351
1718101459.533253,,,,0.515873671,0.517682135,23267.000000000,1718101459.533253431
1718101459.534261,,,,0.545924366,0.545545161,23268.000000000,1718101459.534260511
1718101459.535268,,,,0.570205331,0.570403099,23269.000000000,1718101459.535267591
1718101459.536275,,,,0.599895358,0.599828720,23270.000000000,1718101459.536274672
1718101459.537282,,,,0.570613980,0.571701288,23271.000000000,1718101459.537281752
1718101459.538289,,,,0.422307909,0.423683643,23272.000000000,1718101459.538288832
1718101459.539296,,,,0.341892272,0.344494075,23273.000000000,1718101459.539295912
1718101459.540303,,,,0.556213737,0.559753120,23274.000000000,1718101459.540302992
1718101459.541310,,,,0.848138034,0.851004303,23275.000000000,1718101459.541310072
1718101459.542317,,,,0.851840258,0.851557195,23276.000000000,1718101459.542317152
1718101459.543324,,,,0.726661146,0.724118292,23277.000000000,1718101459.543324232
1718101459.544331,,,,0.467816651,0.466571957,23278.000000000,1718101459.544331312
1718101459.545338,,,,0.141442239,0.140606239,23279.000000000,1718101459.545338392
1718101459.546345,,,,0.296744138,0.294826329,23280.000000000,1718101459.546345472
1718101459.547353,,,,0.366053015,0.364640057,23281.000000000,1718101459.547352552
1718101459.548360,,,,0.577946365,0.578144133,23282.000000000,1718101459.548359632
1718101459.549367,,,,0.844964683,0.845042229,23283.000000000,1718101459.549366713
1718101459.550374,,,,0.850109339,0.850523472,23284.000000000,1718101459.550373793
1718101459.551166,85.733955383,5151.000000000,1718101459.551166296,,,,
1718101459.551381,,,,0.770871699,0.771550298,23285.000000000,1718101459.551380873
1718101459.552388,,,,0.706779659,0.704164624,23286.000000000,1718101459.552387953
1718101459.553395,,,,0.552030683,0.553238153,23287.000000000,1718101459.553395033
1718101459.554402,,,,0.473105550,0.474817872,23288.000000000,1718101459.554402113
1718101459.555409,,,,0.663073957,0.663560152,23289.000000000,1718101459.555409193
1718101459.556166,90.716667175,5152.000000000,1718101459.556166410,,,,
1718101459.556416,,,,0.935333073,0.936468422,23290.000000000,1718101459.556416273
1718101459.557423,,,,0.745100260,0.743470967,23291.000000000,1718101459.557423353
1718101459.558430,,,,0.590832114,0.590597153,23292.000000000,1718101459.558430433
1718101459.559438,,,,0.689350247,0.688658476,23293.000000000,1718101459.559437513
1718101459.560445,,,,0.670093775,0.671205044,23294.000000000,1718101459.560444593
1718101459.561166,95.704421997,5153.000000000,1718101459.561166286,,,,
1718101459.561452,,,,0.504093826,0.503570378,23295.000000000,1718101459.561451674
1718101459.562459,,,,0.312226236,0.313433707,23296.000000000,1718101459.562458754
1718101459.563466,,,,0.034125250,0.037015546,23297.000000000,1718101459.563465834
1718101459.564473,,,,0.117618054,0.116589740,23298.000000000,1718101459.564472914
1718101459.565480,,,,0.558112919,0.557805836,23299.000000000,1718101459.565479994
1718101459.566166,100.730949402,5154.000000000,1718101459.566166401,,,,
1718101459.566487,,,,0.705024660,0.704693556,23300.000000000,1718101459.566487074
1718101459.567494,,,,0.824458122,0.827059925,23301.000000000,1718101459.567494154
1718101459.568501,,,,0.879390717,0.882665694,23302.000000000,1718101459.568501234
1718101459.569508,,,,0.957931221,0.960244536,23303.000000000,1718101459.569508314
1718101459.570515,,,,0.838209271,0.837709844,23304.000000000,1718101459.570515394
1718101459.571166,105.661514282,5155.000000000,1718101459.571166277,,,,
1718101459.571522,,,,0.700408876,0.697649658,23305.000000000,1718101459.571522474
1718101459.572530,,,,0.585062385,0.584514856,23306.000000000,1718101459.572529554
1718101459.573537,,,,0.604559243,0.605406106,23307.000000000,1718101459.573536634
1718101459.574544,,,,0.696129680,0.697793901,23308.000000000,1718101459.574543715
1718101459.575551,,,,0.473682523,0.468807727,23309.000000000,1718101459.575550795
1718101459.576166,110.681381226,5156.000000000,1718101459.576166391,,,,
1718101459.576558,,,,0.430072993,0.426832944,23310.000000000,1718101459.576557875
1718101459.577565,,,,0.217722878,0.218497604,23311.000000000,1718101459.577564955
1718101459.578572,,,,0.344969481,0.347451091,23312.000000000,1718101459.578572035
1718101459.579579,,,,0.752552807,0.754361331,23313.000000000,1718101459.579579115
1718101459.580586,,,,0.931558728,0.932501733,23314.000000000,1718101459.580586195
1718101459.581166,115.723045349,5157.000000000,1718101459.581166267,,,,
1718101459.581593,,,,0.936198533,0.936348200,23315.000000000,1718101459.581593275
1718101459.582600,,,,0.971153498,0.969932854,23316.000000000,1718101459.582600355
1718101459.583607,,,,0.675478876,0.676998854,23317.000000000,1718101459.583607435
1718101459.584615,,,,0.180580243,0.179888487,23318.000000000,1718101459.584614515
1718101459.585622,,,,0.032610696,0.031245815,23319.000000000,1718101459.585621595
1718101459.586166,120.686340332,5158.000000000,1718101459.586166382,,,,
1718101459.586629,,,,0.560516953,0.560450315,23320.000000000,1718101459.586628675
1718101459.587636,,,,0.935164809,0.935386598,23321.000000000,1718101459.587635756
1718101459.588643,,,,0.866841555,0.866486371,23322.000000000,1718101459.588642836
1718101459.589650,,,,0.702163875,0.701856732,23323.000000000,1718101459.589649916
1718101459.590657,,,,0.666511714,0.667190313,23324.000000000,1718101459.590656996
1718101459.591166,125.588531494,5159.000000000,1718101459.591166258,,,,
1718101459.591664,,,,0.650885403,0.651972651,23325.000000000,1718101459.591664076
1718101459.592671,,,,0.674012363,0.671253145,23326.000000000,1718101459.592671156
1718101459.593678,,,,0.680407166,0.680076003,23327.000000000,1718101459.593678236
1718101459.594685,,,,0.732599199,0.732893109,23328.000000000,1718101459.594685316
1718101459.595692,,,,0.755557895,0.754986346,23329.000000000,1718101459.595692396
1718101459.596166,130.662811279,5160.000000000,1718101459.596166372,,,,
1718101459.596699,,,,0.691634119,0.692817509,23330.000000000,1718101459.596699476
1718101459.597707,,,,0.804095745,0.806481183,23331.000000000,1718101459.597706556
1718101459.598714,,,,1.046592712,1.046622157,23332.000000000,1718101459.598713636
1718101459.599721,,,,0.891290784,0.891969383,23333.000000000,1718101459.599720716
1718101459.600728,,,,0.714448571,0.714814603,23334.000000000,1718101459.600727797
1718101459.601735,,,,0.642038465,0.644904733,23335.000000000,1718101459.601734877
1718101459.602742,,,,0.515513062,0.517970622,23336.000000000,1718101459.602741957
1718101459.603749,,,,0.402811021,0.405821502,23337.000000000,1718101459.603749037
1718101459.604756,,,,0.405792058,0.404835850,23338.000000000,1718101459.604756117
1718101459.605763,,,,0.357302278,0.355937392,23339.000000000,1718101459.605763197
1718101459.606770,,,,0.424519628,0.423875958,23340.000000000,1718101459.606770277
1718101459.607777,,,,0.680863917,0.681133807,23341.000000000,1718101459.607777357
1718101459.608784,,,,0.908912539,0.909879565,23342.000000000,1718101459.608784437
1718101459.609792,,,,0.983245909,0.984164834,23343.000000000,1718101459.609791517
1718101459.610799,,,,0.703630328,0.701808691,23344.000000000,1718101459.610798597
1718101459.611806,,,,0.405623764,0.404643536,23345.000000000,1718101459.611805677
1718101459.612813,,,,0.170843825,0.171474308,23346.000000000,1718101459.612812757
1718101459.613820,,,,0.026913088,0.024322139,23347.000000000,1718101459.613819838
1718101459.614827,,,,0.175651923,0.173421592,23348.000000000,1718101459.614826918
1718101459.615834,,,,0.535106122,0.534823060,23349.000000000,1718101459.615833998
1718101459.616841,,,,0.850854635,0.849970520,23350.000000000,1718101459.616841078
1718101459.617848,,,,0.747167766,0.745706737,23351.000000000,1718101459.617848158
1718101459.618855,,,,0.808591366,0.807827473,23352.000000000,1718101459.618855238
1718101459.619862,,,,0.827198744,0.828959107,23353.000000000,1718101459.619862318
1718101459.620869,,,,0.775174975,0.775805473,23354.000000000,1718101459.620869398
1718101459.621876,,,,0.766880989,0.766357541,23355.000000000,1718101459.621876478
1718101459.622884,,,,0.813639879,0.813092351,23356.000000000,1718101459.622883558
1718101459.623891,,,,0.713631213,0.714694381,23357.000000000,1718101459.623890638
1718101459.624898,,,,0.676536620,0.675315976,23358.000000000,1718101459.624897718
1718101459.625905,,,,0.716035247,0.714285731,23359.000000000,1718101459.625904799
1718101459.626912,,,,0.814577460,0.817539871,23360.000000000,1718101459.626911879
1718101459.627919,,,,0.994160295,0.996978462,23361.000000000,1718101459.627918959
1718101459.628926,,,,0.958580315,0.960653186,23362.000000000,1718101459.628926039
1718101459.629933,,,,0.888502121,0.888555646,23363.000000000,1718101459.629933119
1718101459.630940,,,,0.699735761,0.697745800,23364.000000000,1718101459.630940199
1718101459.631947,,,,0.456205070,0.455657572,23365.000000000,1718101459.631947279
1718101459.632954,,,,0.319606692,0.319564044,23366.000000000,1718101459.632954359
1718101459.633961,,,,0.452719182,0.452027440,23367.000000000,1718101459.633961439
1718101459.634969,,,,0.627686262,0.625552058,23368.000000000,1718101459.634968519
1718101459.635976,,,,0.551117122,0.551218688,23369.000000000,1718101459.635975599
1718101459.636983,,,,0.643048167,0.644904733,23370.000000000,1718101459.636982679
1718101459.637990,,,,0.761183381,0.760395467,23371.000000000,1718101459.637989759
1718101459.638997,,,,0.638432384,0.638558030,23372.000000000,1718101459.638996840
1718101459.640004,,,,0.599174142,0.599468112,23373.000000000,1718101459.640003920
1718101459.641011,,,,0.684229612,0.683922529,23374.000000000,1718101459.641011000
1718101459.642018,,,,0.710193396,0.710030556,23375.000000000,1718101459.642018080
1718101459.643025,,,,0.560036182,0.561556160,23376.000000000,1718101459.643025160
1718101459.644032,,,,0.296335459,0.297494829,23377.000000000,1718101459.644032240
1718101459.645039,,,,0.400022328,0.400700867,23378.000000000,1718101459.645039320
1718101459.646046,,,,0.603934169,0.604083896,23379.000000000,1718101459.646046400
1718101459.647053,,,,0.719977915,0.722002745,23380.000000000,1718101459.647053480
1718101459.648061,,,,0.826044798,0.825929999,23381.000000000,1718101459.648060560
1718101459.649068,,,,0.773011327,0.773305237,23382.000000000,1718101459.649067640
1718101459.650075,,,,0.594510317,0.596222639,23383.000000000,1718101459.650074720
1718101459.651082,,,,0.543568373,0.545929790,23384.000000000,1718101459.651081800
1718101459.651705,177.143066406,5170.000000000,1718101459.651705265,,,,
1718101459.652089,,,,0.562031507,0.563743830,23385.000000000,1718101459.652088881
1718101459.653096,,,,0.658914924,0.659906030,23386.000000000,1718101459.653095961
1718101459.654103,,,,0.681825578,0.682552218,23387.000000000,1718101459.654103041
1718101459.655110,,,,1.014787078,1.014143467,23388.000000000,1718101459.655110121
1718101459.656117,,,,1.299715638,1.298807502,23389.000000000,1718101459.656117201
1718101459.656705,181.332519531,5171.000000000,1718101459.656705141,,,,
1718101459.657124,,,,1.009594321,1.010633469,23390.000000000,1718101459.657124281
1718101459.658131,,,,0.801018596,0.800735533,23391.000000000,1718101459.658131361
1718101459.659138,,,,0.711539686,0.715583920,23392.000000000,1718101459.659138441
1718101459.660146,,,,0.413653314,0.416639745,23393.000000000,1718101459.660145521
1718101459.661153,,,,0.494934380,0.495564848,23394.000000000,1718101459.661152601
1718101459.661705,185.320831299,5172.000000000,1718101459.661705256,,,,
1718101459.662160,,,,0.784671009,0.783618629,23395.000000000,1718101459.662159681
1718101459.663167,,,,0.696778774,0.695077300,23396.000000000,1718101459.663166761
1718101459.664174,,,,0.657448471,0.657405794,23397.000000000,1718101459.664173841
1718101459.665181,,,,0.682691038,0.683658063,23398.000000000,1718101459.665180922
1718101459.666188,,,,0.593476534,0.591702998,23399.000000000,1718101459.666188002
1718101459.666705,189.173995972,5173.000000000,1718101459.666705132,,,,
1718101459.667195,,,,0.349296778,0.348773301,23400.000000000,1718101459.667195082
1718101459.668202,,,,0.216232359,0.212944239,23401.000000000,1718101459.668202162
1718101459.669209,,,,0.391223460,0.390050918,23402.000000000,1718101459.669209242
1718101459.670216,,,,0.689710855,0.687192023,23403.000000000,1718101459.670216322
1718101459.671223,,,,0.711876214,0.710727692,23404.000000000,1718101459.671223402
1718101459.671705,193.103607178,5174.000000000,1718101459.671705246,,,,
1718101459.672230,,,,0.686585605,0.687384367,23405.000000000,1718101459.672230482
1718101459.673238,,,,0.824914873,0.825088561,23406.000000000,1718101459.673237562
1718101459.674245,,,,0.800946474,0.798716128,23407.000000000,1718101459.674244642
1718101459.675252,,,,0.819385529,0.819318831,23408.000000000,1718101459.675251722
1718101459.676259,,,,0.935501337,0.935578942,23409.000000000,1718101459.676258802
1718101459.676705,196.785354614,5175.000000000,1718101459.676705122,,,,
1718101459.677266,,,,0.778636813,0.778113365,23410.000000000,1718101459.677265882
1718101459.678273,,,,0.624921620,0.624758720,23411.000000000,1718101459.678272963
1718101459.679280,,,,0.670814991,0.671998382,23412.000000000,1718101459.679280043
1718101459.680287,,,,1.151529670,1.151246667,23413.000000000,1718101459.680287123
1718101459.681294,,,,1.329958558,1.327704191,23414.000000000,1718101459.681294203
1718101459.681705,200.365966797,5176.000000000,1718101459.681705236,,,,
1718101459.682301,,,,1.086620212,1.085567832,23415.000000000,1718101459.682301283
1718101459.683308,,,,0.751350820,0.749721467,23416.000000000,1718101459.683308363
1718101459.684315,,,,0.589197338,0.588673890,23417.000000000,1718101459.684315443
1718101459.685323,,,,0.597467303,0.599468112,23418.000000000,1718101459.685322523
1718101459.686330,,,,0.588211656,0.586991072,23419.000000000,1718101459.686329603
1718101459.686705,203.845916748,5177.000000000,1718101459.686705112,,,,
1718101459.687337,,,,0.565180838,0.562686086,23420.000000000,1718101459.687336683
1718101459.688344,,,,0.503132224,0.500949919,23421.000000000,1718101459.688343763
1718101459.689351,,,,0.536115825,0.536145270,23422.000000000,1718101459.689350843
1718101459.690358,,,,0.698149085,0.699043989,23423.000000000,1718101459.690357924
1718101459.691365,,,,0.754908800,0.755371034,23424.000000000,1718101459.691365004
1718101459.691705,207.193267822,5178.000000000,1718101459.691705227,,,,
1718101459.692372,,,,0.758394659,0.758856893,23425.000000000,1718101459.692372084
1718101459.693379,,,,0.616651654,0.617041707,23426.000000000,1718101459.693379164
1718101459.694386,,,,0.565469325,0.565835357,23427.000000000,1718101459.694386244
1718101459.695393,,,,0.609631836,0.610478640,23428.000000000,1718101459.695393324
1718101459.696400,,,,0.612107992,0.614854038,23429.000000000,1718101459.696400404
1718101459.696705,210.440795898,5179.000000000,1718101459.696705103,,,,
1718101459.697407,,,,0.584148824,0.586966991,23430.000000000,1718101459.697407484
1718101459.698415,,,,0.682618916,0.685413003,23431.000000000,1718101459.698414564
1718101459.699422,,,,0.631893337,0.633413315,23432.000000000,1718101459.699421644
1718101459.700429,,,,0.370428413,0.368606746,23433.000000000,1718101459.700428724
1718101459.701436,,,,0.132931888,0.133442163,23434.000000000,1718101459.701435804
1718101459.701705,213.605041504,5180.000000000,1718101459.701705217,,,,
1718101459.702443,,,,0.325809151,0.326728135,23435.000000000,1718101459.702442884
1718101459.703450,,,,0.586336493,0.587808430,23436.000000000,1718101459.703449965
1718101459.704457,,,,0.762553692,0.763616920,23437.000000000,1718101459.704457045
1718101459.705464,,,,0.544602156,0.544655621,23438.000000000,1718101459.705464125
1718101459.706471,,,,0.565565467,0.565138221,23439.000000000,1718101459.706471205
1718101459.707478,,,,0.696538389,0.698947847,23440.000000000,1718101459.707478285
1718101459.708485,,,,1.087798238,1.090015411,23441.000000000,1718101459.708485365
1718101459.709492,,,,1.428524852,1.428746581,23442.000000000,1718101459.709492445
1718101459.710500,,,,1.469369650,1.467740417,23443.000000000,1718101459.710499525
1718101459.711507,,,,0.930693269,0.928006172,23444.000000000,1718101459.711506605
1718101459.712514,,,,0.405864179,0.407336056,23445.000000000,1718101459.712513685
1718101459.713521,,,,0.368745565,0.370313644,23446.000000000,1718101459.713520765
1718101459.714528,,,,0.535610974,0.533428729,23447.000000000,1718101459.714527845
1718101459.715535,,,,0.546717703,0.544703722,23448.000000000,1718101459.715534925
1718101459.716542,,,,0.835156143,0.837950289,23449.000000000,1718101459.716542006
1718101459.717549,,,,0.990313828,0.993660867,23450.000000000,1718101459.717549086
1718101459.718556,,,,0.909826040,0.911370099,23451.000000000,1718101459.718556166
1718101459.719563,,,,0.903888047,0.906730294,23452.000000000,1718101459.719563246
1718101459.720570,,,,1.066281915,1.068739533,23453.000000000,1718101459.720570326
1718101459.721577,,,,0.796258569,0.798884392,23454.000000000,1718101459.721577406
1718101459.722584,,,,0.281766891,0.281748265,23455.000000000,1718101459.722584486
1718101459.723592,,,,0.246884048,0.246048063,23456.000000000,1718101459.723591566
1718101459.724599,,,,0.536308169,0.533789337,23457.000000000,1718101459.724598646
1718101459.725606,,,,0.658361971,0.659449220,23458.000000000,1718101459.725605726
1718101459.726613,,,,0.506137252,0.505157053,23459.000000000,1718101459.726612806
1718101459.727620,,,,0.403027385,0.404138684,23460.000000000,1718101459.727619886
1718101459.728627,,,,0.556454122,0.557325006,23461.000000000,1718101459.728626966
1718101459.729634,,,,0.936487019,0.937886834,23462.000000000,1718101459.729634047
1718101459.730641,,,,1.288801193,1.289431691,23463.000000000,1718101459.730641127
1718101459.731648,,,,1.156962872,1.157617331,23464.000000000,1718101459.731648207
1718101459.732655,,,,0.866480947,0.866510451,23465.000000000,1718101459.732655287
1718101459.733662,,,,0.610088587,0.610598862,23466.000000000,1718101459.733662367
1718101459.734669,,,,0.487890512,0.488929659,23467.000000000,1718101459.734669447
1718101459.735677,,,,0.644562721,0.645433605,23468.000000000,1718101459.735676527
1718101459.736684,,,,0.735459983,0.737869501,23469.000000000,1718101459.736683607
1718101459.737691,,,,0.671343863,0.672358990,23470.000000000,1718101459.737690687
1718101459.738698,,,,0.657520592,0.657886624,23471.000000000,1718101459.738697767
1718101459.739705,,,,0.850710392,0.851485074,23472.000000000,1718101459.739704847
1718101459.740712,,,,0.859893858,0.861798465,23473.000000000,1718101459.740711927
1718101459.741719,,,,0.798301995,0.799461365,23474.000000000,1718101459.741719007
1718101459.742726,,,,0.605160236,0.607762098,23475.000000000,1718101459.742726088
1718101459.743733,,,,0.425986111,0.427337795,23476.000000000,1718101459.743733168
1718101459.744740,,,,0.219453797,0.217271537,23477.000000000,1718101459.744740248
1718101459.745747,,,,0.266140521,0.265713245,23478.000000000,1718101459.745747328
1718101459.746754,,,,0.445843577,0.447964579,23479.000000000,1718101459.746754408
1718101459.747761,,,,0.406320930,0.405484945,23480.000000000,1718101459.747761488
1718101459.748769,,,,0.558257163,0.560113728,23481.000000000,1718101459.748768568
1718101459.749776,,,,0.773540258,0.772944629,23482.000000000,1718101459.749775648
1718101459.749988,243.370788574,5191.000000000,1718101459.749987841,,,,
1718101459.750783,,,,0.609992445,0.609012187,23483.000000000,1718101459.750782728
1718101459.751790,,,,0.507964373,0.507416844,23484.000000000,1718101459.751789808
1718101459.752797,,,,0.763443172,0.765780568,23485.000000000,1718101459.752796888
1718101459.753804,,,,0.815418839,0.817203283,23486.000000000,1718101459.753803968
1718101459.754811,,,,0.558449507,0.559969485,23487.000000000,1718101459.754811049
1718101459.754988,245.569458008,5192.000000000,1718101459.754987955,,,,
1718101459.755818,,,,0.368913859,0.370433837,23488.000000000,1718101459.755818129
1718101459.756825,,,,0.695600808,0.695702374,23489.000000000,1718101459.756825209
1718101459.757832,,,,1.012743592,1.012676954,23490.000000000,1718101459.757832289
1718101459.758839,,,,1.290171504,1.288494110,23491.000000000,1718101459.758839369
1718101459.759846,,,,1.215766072,1.215530992,23492.000000000,1718101459.759846449
1718101459.759988,247.719436646,5193.000000000,1718101459.759987831,,,,
1718101459.760854,,,,0.879126310,0.879444242,23493.000000000,1718101459.760853529
1718101459.761861,,,,0.543880939,0.542347729,23494.000000000,1718101459.761860609
1718101459.762868,,,,0.427067935,0.427049309,23495.000000000,1718101459.762867689
1718101459.763875,,,,0.328910381,0.331920892,23496.000000000,1718101459.763874769
1718101459.764882,,,,0.187287554,0.189216226,23497.000000000,1718101459.764881849
1718101459.764988,249.852951050,5194.000000000,1718101459.764987946,,,,
1718101459.765889,,,,0.679060876,0.681734800,23498.000000000,1718101459.765888929
1718101459.766896,,,,0.967379153,0.966471016,23499.000000000,1718101459.766896009
1718101459.767903,,,,1.174800873,1.172883153,23500.000000000,1718101459.767903090
1718101459.768910,,,,0.983293951,0.983467698,23501.000000000,1718101459.768910170
1718101459.769917,,,,0.774213374,0.775516987,23502.000000000,1718101459.769917250
1718101459.769988,251.921859741,5195.000000000,1718101459.769987822,,,,
1718101459.770924,,,,1.035894632,1.037342548,23503.000000000,1718101459.770924330
1718101459.771931,,,,1.542356849,1.543588281,23504.000000000,1718101459.771931410
1718101459.772938,,,,1.576037645,1.576644063,23505.000000000,1718101459.772938490
1718101459.773946,,,,1.126479387,1.129922628,23506.000000000,1718101459.773945570
1718101459.774953,,,,0.715891004,0.717675447,23507.000000000,1718101459.774952650
1718101459.774988,253.878173828,5196.000000000,1718101459.774987936,,,,
1718101459.775960,,,,0.571359277,0.570547342,23508.000000000,1718101459.775959730
1718101459.776967,,,,0.651486397,0.652765989,23509.000000000,1718101459.776966810
1718101459.777974,,,,0.439184368,0.439598471,23510.000000000,1718101459.777973890
1718101459.778981,,,,0.125936076,0.126590610,23511.000000000,1718101459.778980970
1718101459.779988,255.850234985,5197.000000000,1718101459.779987812,,,,
1718101459.779988,,,,0.208755746,0.209987253,23512.000000000,1718101459.779988050
1718101459.780995,,,,0.476134658,0.475539088,23513.000000000,1718101459.780995131
1718101459.782002,,,,0.322659850,0.322208494,23514.000000000,1718101459.782002211
1718101459.783009,,,,0.584581554,0.586798728,23515.000000000,1718101459.783009291
1718101459.784016,,,,0.876626074,0.878650904,23516.000000000,1718101459.784016371
1718101459.784988,257.854125977,5198.000000000,1718101459.784987926,,,,
1718101459.785023,,,,0.882371783,0.884997606,23517.000000000,1718101459.785023451
1718101459.786031,,,,0.683436275,0.681951165,23518.000000000,1718101459.786030531
1718101459.787038,,,,0.541308582,0.540496647,23519.000000000,1718101459.787037611
1718101459.788045,,,,0.638600647,0.638485909,23520.000000000,1718101459.788044691
1718101459.789052,,,,0.781401515,0.780421257,23521.000000000,1718101459.789051771
1718101459.789988,259.873779297,5199.000000000,1718101459.789987803,,,,
1718101459.790059,,,,0.855518460,0.857110560,23522.000000000,1718101459.790058851
1718101459.791066,,,,0.799407840,0.799124777,23523.000000000,1718101459.791065931
1718101459.792073,,,,0.435217679,0.433011383,23524.000000000,1718101459.792073011
1718101459.793080,,,,-0.075235181,-0.075950965,23525.000000000,1718101459.793080091
1718101459.794087,,,,-0.303548217,-0.303711057,23526.000000000,1718101459.794087172
1718101459.794616,263.880493164,5201.000000000,1718101459.794615746,,,,
1718101459.794988,261.845123291,5200.000000000,1718101459.794987917,,,,
1718101459.795094,,,,0.317346901,0.321679622,23527.000000000,1718101459.795094252
1718101459.796101,,,,0.960936248,0.963970780,23528.000000000,1718101459.796101332
1718101459.797108,,,,1.380155206,1.381194472,23529.000000000,1718101459.797108412
1718101459.798115,,,,0.868187845,0.868890464,23530.000000000,1718101459.798115492
1718101459.799123,,,,0.540274858,0.538212776,23531.000000000,1718101459.799122572
1718101459.799616,265.851593018,5202.000000000,1718101459.799615860,,,,
1718101459.800130,,,,0.837920785,0.838022411,23532.000000000,1718101459.800129652
1718101459.801137,,,,1.205837250,1.207862139,23533.000000000,1718101459.801136732
1718101459.802144,,,,1.311904192,1.311837435,23534.000000000,1718101459.802143812
1718101459.803151,,,,1.219275951,1.220002532,23535.000000000,1718101459.803150892
1718101459.804158,,,,0.959926546,0.960581064,23536.000000000,1718101459.804157972
1718101459.804616,267.886779785,5203.000000000,1718101459.804615736,,,,
1718101459.805165,,,,0.534769535,0.535808742,23537.000000000,1718101459.805165052
1718101459.806172,,,,0.478057921,0.480755895,23538.000000000,1718101459.806172132
1718101459.807179,,,,0.667449296,0.667863429,23539.000000000,1718101459.807179213
1718101459.808186,,,,0.667930126,0.667815328,23540.000000000,1718101459.808186293
1718101459.809193,,,,0.587538540,0.589058518,23541.000000000,1718101459.809193373
1718101459.809616,269.937896729,5204.000000000,1718101459.809615850,,,,
1718101459.810200,,,,0.594870925,0.596414924,23542.000000000,1718101459.810200453
1718101459.811208,,,,0.544361711,0.544751823,23543.000000000,1718101459.811207533
1718101459.812215,,,,0.520777941,0.518860161,23544.000000000,1718101459.812214613
1718101459.813222,,,,0.676200092,0.677455604,23545.000000000,1718101459.813221693
1718101459.814229,,,,1.009570241,1.009599805,23546.000000000,1718101459.814228773
1718101459.814616,271.940917969,5205.000000000,1718101459.814615726,,,,
1718101459.815236,,,,1.114050508,1.114464641,23547.000000000,1718101459.815235853
1718101459.816243,,,,0.874991298,0.874323606,23548.000000000,1718101459.816242933
1718101459.817250,,,,0.556742609,0.555762410,23549.000000000,1718101459.817250013
1718101459.818257,,,,0.489909917,0.489362389,23550.000000000,1718101459.818257093
1718101459.819264,,,,0.526884258,0.526817560,23551.000000000,1718101459.819264174
1718101459.819616,273.944061279,5206.000000000,1718101459.819615841,,,,
1718101459.820271,,,,0.816452622,0.817131162,23552.000000000,1718101459.820271254
1718101459.821278,,,,0.901484013,0.902451038,23553.000000000,1718101459.821278334
1718101459.822285,,,,0.929370999,0.930289984,23554.000000000,1718101459.822285414
1718101459.823292,,,,0.903671682,0.906610072,23555.000000000,1718101459.823292494
1718101459.824300,,,,0.461349726,0.464336187,23556.000000000,1718101459.824299574
1718101459.824616,275.963287354,5207.000000000,1718101459.824615717,,,,
1718101459.825307,,,,0.471951604,0.474577457,23557.000000000,1718101459.825306654
1718101459.826314,,,,0.569748521,0.568744302,23558.000000000,1718101459.826313734
1718101459.827321,,,,0.520225048,0.520975709,23559.000000000,1718101459.827320814
1718101459.828328,,,,0.547390819,0.547901094,23560.000000000,1718101459.828327894
1718101459.829335,,,,0.697932720,0.699068069,23561.000000000,1718101459.829334974
1718101459.830342,,,,0.806523860,0.809846878,23562.000000000,1718101459.830342054
1718101459.831349,,,,0.662472904,0.660795510,23563.000000000,1718101459.831349134
1718101459.832356,,,,0.267582953,0.264174640,23564.000000000,1718101459.832356215
1718101459.833363,,,,0.327876657,0.328218639,23565.000000000,1718101459.833363295
1718101459.834370,,,,0.410984814,0.411543161,23566.000000000,1718101459.834370375
1718101459.835377,,,,0.114324503,0.116445497,23567.000000000,1718101459.835377455
1718101459.836385,,,,0.200750247,0.203929037,23568.000000000,1718101459.836384535
1718101459.837392,,,,0.650572836,0.651972651,23569.000000000,1718101459.837391615
1718101459.838399,,,,0.982668936,0.983804226,23570.000000000,1718101459.838398695
1718101459.839406,,,,1.163886547,1.162569761,23571.000000000,1718101459.839405775
1718101459.840413,,,,1.132705927,1.132735372,23572.000000000,1718101459.840412855
1718101459.841420,,,,0.891747594,0.893748403,23573.000000000,1718101459.841419935
1718101459.842427,,,,0.788228989,0.787417054,23574.000000000,1718101459.842427015
1718101459.843434,,,,0.780391812,0.780325115,23575.000000000,1718101459.843434095
1718101459.844441,,,,0.932592452,0.934785604,23576.000000000,1718101459.844441175
1718101459.844616,283.368408203,5211.000000000,1718101459.844615698,,,,
1718101459.845448,,,,1.222545505,1.224113464,23577.000000000,1718101459.845448256
1718101459.846455,,,,1.288200140,1.288085341,23578.000000000,1718101459.846455336
1718101459.847462,,,,1.020003915,1.021018982,23579.000000000,1718101459.847462416
1718101459.848469,,,,0.712669551,0.715151191,23580.000000000,1718101459.848469496
1718101459.849477,,,,0.557439804,0.558671296,23581.000000000,1718101459.849476576
1718101459.849616,285.132049561,5212.000000000,1718101459.849615812,,,,
1718101459.850484,,,,0.880352378,0.881487668,23582.000000000,1718101459.850483656
1718101459.851491,,,,1.221631885,1.223752856,23583.000000000,1718101459.851490736
1718101459.852498,,,,1.232233763,1.232599854,23584.000000000,1718101459.852497816
1718101459.853505,,,,0.545876265,0.541602492,23585.000000000,1718101459.853504896
1718101459.854512,,,,0.065426037,0.059878103,23586.000000000,1718101459.854511976
1718101459.854616,286.831756592,5213.000000000,1718101459.854615688,,,,
1718101459.855519,,,,0.324462891,0.323723048,23587.000000000,1718101459.855519056
1718101459.856526,,,,0.571527541,0.570763707,23588.000000000,1718101459.856526136
1718101459.857533,,,,0.327203512,0.327016622,23589.000000000,1718101459.857533216
1718101459.858540,,,,0.085572012,0.086130373,23590.000000000,1718101459.858540297
1718101459.859547,,,,0.276598155,0.276747853,23591.000000000,1718101459.859547377
1718101459.859616,288.499664307,5214.000000000,1718101459.859615803,,,,
1718101459.860554,,,,0.754452050,0.753712237,23592.000000000,1718101459.860554457
1718101459.861562,,,,1.104458332,1.101482749,23593.000000000,1718101459.861561537
1718101459.862569,,,,0.981130302,0.980390489,23594.000000000,1718101459.862568617
1718101459.863576,,,,0.675190389,0.673128307,23595.000000000,1718101459.863575697
1718101459.864583,,,,0.170483217,0.168156713,23596.000000000,1718101459.864582777
1718101459.864616,290.264007568,5215.000000000,1718101459.864615679,,,,
1718101459.865590,,,,0.043260656,0.041414965,23597.000000000,1718101459.865589857
1718101459.866597,,,,0.129950851,0.127624348,23598.000000000,1718101459.866596937
1718101459.867604,,,,0.413749456,0.412600935,23599.000000000,1718101459.867604017
1718101459.868611,,,,0.580374479,0.579875052,23600.000000000,1718101459.868611097
1718101459.869616,291.868316650,5216.000000000,1718101459.869615793,,,,
1718101459.869618,,,,0.721636713,0.722122967,23601.000000000,1718101459.869618177
1718101459.870625,,,,0.830299973,0.831074655,23602.000000000,1718101459.870625257
1718101459.871632,,,,0.928866148,0.927693605,23603.000000000,1718101459.871632338
1718101459.872639,,,,0.862297893,0.860957086,23604.000000000,1718101459.872639418
1718101459.873646,,,,0.497025907,0.493809909,23605.000000000,1718101459.873646498
1718101459.874616,293.440795898,5217.000000000,1718101459.874615669,,,,
1718101459.874654,,,,0.543303967,0.544222891,23606.000000000,1718101459.874653578
1718101459.875661,,,,0.848739028,0.849633992,23607.000000000,1718101459.875660658
1718101459.876668,,,,0.920788527,0.922957659,23608.000000000,1718101459.876667738
1718101459.877675,,,,0.805249691,0.804413736,23609.000000000,1718101459.877674818
1718101459.878682,,,,0.617036283,0.614421308,23610.000000000,1718101459.878681898
1718101459.879616,294.965423584,5218.000000000,1718101459.879615784,,,,
1718101459.879689,,,,0.739354551,0.741932333,23611.000000000,1718101459.879688978
1718101459.880696,,,,0.949492991,0.950796604,23612.000000000,1718101459.880696058
1718101459.881703,,,,0.932063580,0.932117105,23613.000000000,1718101459.881703138
1718101459.882710,,,,0.740604699,0.741788089,23614.000000000,1718101459.882710218
1718101459.883717,,,,0.488731921,0.488112301,23615.000000000,1718101459.883717299
1718101459.884616,296.474273682,5219.000000000,1718101459.884615660,,,,
1718101459.884724,,,,0.503492832,0.503738642,23616.000000000,1718101459.884724379
1718101459.885731,,,,0.616964161,0.619253457,23617.000000000,1718101459.885731459
1718101459.886739,,,,0.783444941,0.786166966,23618.000000000,1718101459.886738539
1718101459.887746,,,,0.808110535,0.807538986,23619.000000000,1718101459.887745619
1718101459.888753,,,,0.847993791,0.847470343,23620.000000000,1718101459.888752699
1718101459.889616,297.903167725,5220.000000000,1718101459.889615774,,,,
1718101459.889760,,,,0.729449868,0.726209819,23621.000000000,1718101459.889759779
1718101459.890767,,,,0.434881091,0.432482481,23622.000000000,1718101459.890766859
1718101459.891774,,,,0.185989365,0.186812162,23623.000000000,1718101459.891773939
1718101459.892781,,,,0.862321973,0.863986194,23624.000000000,1718101459.892781019
1718101459.893788,,,,1.574643254,1.575153470,23625.000000000,1718101459.893788099
1718101459.894795,,,,1.294354558,1.293326259,23626.000000000,1718101459.894795179
1718101459.895802,,,,0.473321915,0.469216436,23627.000000000,1718101459.895802259
1718101459.896809,,,,0.670454383,0.666757584,23628.000000000,1718101459.896809340
1718101459.897816,,,,0.808206677,0.806000412,23629.000000000,1718101459.897816420
1718101459.898823,,,,0.759692848,0.758111656,23630.000000000,1718101459.898823500
1718101459.899831,,,,0.626484215,0.623316288,23631.000000000,1718101459.899830580
1718101459.900602,299.236022949,5221.000000000,1718101459.900602341,,,,
1718101459.900838,,,,0.315303445,0.316030085,23632.000000000,1718101459.900837660
1718101459.901845,,,,0.626339972,0.628797531,23633.000000000,1718101459.901844740
1718101459.902852,,,,0.661222816,0.661636949,23634.000000000,1718101459.902851820
1718101459.903859,,,,0.529168129,0.530688107,23635.000000000,1718101459.903858900
1718101459.904866,,,,0.627542019,0.626946449,23636.000000000,1718101459.904865980
1718101459.905873,,,,0.667954147,0.667695165,23637.000000000,1718101459.905873060
1718101459.906880,,,,0.618815303,0.618147612,23638.000000000,1718101459.906880140
1718101459.907887,,,,0.765029848,0.764362156,23639.000000000,1718101459.907887220
1718101459.908894,,,,1.010700226,1.011186481,23640.000000000,1718101459.908894300
1718101459.909901,,,,1.170257211,1.172354221,23641.000000000,1718101459.909901381
1718101459.910908,,,,1.103640914,1.105281115,23642.000000000,1718101459.910908461
1718101459.911916,,,,0.836959183,0.836099148,23643.000000000,1718101459.911915541
1718101459.912923,,,,0.128484383,0.127840713,23644.000000000,1718101459.912922621
1718101459.913930,,,,0.095404595,0.097381346,23645.000000000,1718101459.913929701
1718101459.914937,,,,0.427380443,0.424525052,23646.000000000,1718101459.914936781
1718101459.915944,,,,0.471759290,0.470899254,23647.000000000,1718101459.915943861
1718101459.916951,,,,0.709953010,0.710847914,23648.000000000,1718101459.916950941
1718101459.917958,,,,0.795705616,0.795302331,23649.000000000,1718101459.917958021
1718101459.918965,,,,0.693340957,0.691783786,23650.000000000,1718101459.918965101
1718101459.919972,,,,0.453969300,0.453229457,23651.000000000,1718101459.919972181
1718101459.920979,,,,0.234190643,0.234460518,23652.000000000,1718101459.920979261
1718101459.921986,,,,0.386968285,0.387670904,23653.000000000,1718101459.921986341
1718101459.922993,,,,0.563546062,0.562854350,23654.000000000,1718101459.922993422
1718101459.924001,,,,0.521787643,0.519316912,23655.000000000,1718101459.924000502
1718101459.925008,,,,0.183489144,0.183566689,23656.000000000,1718101459.925007582
1718101459.926015,,,,0.307057530,0.309899747,23657.000000000,1718101459.926014662
1718101459.927022,,,,0.836550474,0.835786641,23658.000000000,1718101459.927021742
1718101459.928029,,,,1.424365759,1.423529863,23659.000000000,1718101459.928028822
1718101459.929036,,,,1.601520538,1.601453900,23660.000000000,1718101459.929035902
1718101459.930043,,,,1.148043752,1.147183776,23661.000000000,1718101459.930042982
1718101459.931050,,,,0.401200294,0.404210806,23662.000000000,1718101459.931050062
1718101459.932057,,,,0.348214954,0.351105243,23663.000000000,1718101459.932057142
1718101459.933064,,,,0.985337436,0.987674773,23664.000000000,1718101459.933064222
1718101459.934071,,,,1.415350556,1.420068026,23665.000000000,1718101459.934071302
1718101459.935078,,,,1.052338362,1.054868102,23666.000000000,1718101459.935078382
1718101459.936085,,,,0.597034574,0.599107504,23667.000000000,1718101459.936085463
1718101459.937093,,,,0.455916584,0.456547052,23668.000000000,1718101459.937092543
1718101459.938100,,,,0.346772522,0.347595334,23669.000000000,1718101459.938099623
1718101459.939107,,,,0.416826665,0.415750265,23670.000000000,1718101459.939106703
1718101459.940114,,,,0.637110174,0.636586666,23671.000000000,1718101459.940113783
1718101459.940602,308.799407959,5229.000000000,1718101459.940602303,,,,
1718101459.941121,,,,0.872707486,0.875477552,23672.000000000,1718101459.941120863
1718101459.942128,,,,0.862971067,0.862279296,23673.000000000,1718101459.942127943
1718101459.943135,,,,0.382568866,0.384713918,23674.000000000,1718101459.943135023
1718101459.944142,,,,0.433198273,0.437194437,23675.000000000,1718101459.944142103
1718101459.945149,,,,0.925428391,0.930554450,23676.000000000,1718101459.945149183
1718101459.945602,309.861297607,5230.000000000,1718101459.945602417,,,,
1718101459.946156,,,,0.853378892,0.855668128,23677.000000000,1718101459.946156263
1718101459.947163,,,,0.870615959,0.872616708,23678.000000000,1718101459.947163343
1718101459.948170,,,,0.837704420,0.839176357,23679.000000000,1718101459.948170424
1718101459.949178,,,,1.049597740,1.050901413,23680.000000000,1718101459.949177504
1718101459.950185,,,,1.105564117,1.106531262,23681.000000000,1718101459.950184584
1718101459.950602,310.907348633,5231.000000000,1718101459.950602293,,,,
1718101459.951192,,,,0.868620574,0.867856681,23682.000000000,1718101459.951191664
1718101459.952199,,,,0.441780746,0.441401511,23683.000000000,1718101459.952198744
1718101459.953206,,,,-0.102905847,-0.105088107,23684.000000000,1718101459.953205824
1718101459.954213,,,,0.073551737,0.074807279,23685.000000000,1718101459.954212904
1718101459.955220,,,,0.248422652,0.250399411,23686.000000000,1718101459.955219984
1718101459.955602,312.017974854,5232.000000000,1718101459.955602407,,,,
1718101459.956227,,,,0.289483905,0.291388541,23687.000000000,1718101459.956227064
1718101459.957234,,,,0.409734696,0.411783576,23688.000000000,1718101459.957234144
1718101459.958241,,,,0.871697783,0.872448444,23689.000000000,1718101459.958241224
1718101459.959248,,,,0.985818207,0.982674360,23690.000000000,1718101459.959248304
1718101459.960255,,,,0.735003233,0.732700765,23691.000000000,1718101459.960255384
1718101459.960602,313.080596924,5233.000000000,1718101459.960602283,,,,
1718101459.961262,,,,0.762193084,0.759313643,23692.000000000,1718101459.961262465
1718101459.962270,,,,0.840493143,0.836964607,23693.000000000,1718101459.962269545
1718101459.963277,,,,0.778781056,0.778858602,23694.000000000,1718101459.963276625
1718101459.964284,,,,0.748658240,0.750322521,23695.000000000,1718101459.964283705
1718101459.965291,,,,0.768010914,0.770468473,23696.000000000,1718101459.965290785
1718101459.965602,314.207916260,5234.000000000,1718101459.965602398,,,,
1718101459.966298,,,,0.458705276,0.459023237,23697.000000000,1718101459.966297865
1718101459.967305,,,,0.534024298,0.532755554,23698.000000000,1718101459.967304945
1718101459.968312,,,,1.175041318,1.175768018,23699.000000000,1718101459.968312025
1718101459.969319,,,,1.281805396,1.282483935,23700.000000000,1718101459.969319105
1718101459.970326,,,,0.935741782,0.936805010,23701.000000000,1718101459.970326185
1718101459.970602,315.255004883,5235.000000000,1718101459.970602274,,,,
1718101459.971333,,,,0.318765283,0.317905247,23702.000000000,1718101459.971333265
1718101459.972340,,,,0.040544074,0.042713154,23703.000000000,1718101459.972340345
1718101459.973347,,,,0.382544845,0.386204422,23704.000000000,1718101459.973347425
1718101459.974355,,,,0.645716667,0.646034598,23705.000000000,1718101459.974354506
1718101459.975362,,,,0.878525257,0.877929688,23706.000000000,1718101459.975361586
1718101459.975602,316.189514160,5236.000000000,1718101459.975602388,,,,
1718101459.976369,,,,1.190379262,1.190072060,23707.000000000,1718101459.976368666
1718101459.977376,,,,1.158717752,1.159131885,23708.000000000,1718101459.977375746
1718101459.978383,,,,0.888790607,0.891873240,23709.000000000,1718101459.978382826
1718101459.979390,,,,0.579893649,0.580259681,23710.000000000,1718101459.979389906
1718101459.980397,,,,0.091678306,0.090505756,23711.000000000,1718101459.980396986
1718101459.980602,317.188720703,5237.000000000,1718101459.980602264,,,,
1718101459.981404,,,,0.114324503,0.115051150,23712.000000000,1718101459.981404066
1718101459.982411,,,,0.499742478,0.500036418,23713.000000000,1718101459.982411146
1718101459.983418,,,,0.694350660,0.693178117,23714.000000000,1718101459.983418226
1718101459.984425,,,,0.540587366,0.539679229,23715.000000000,1718101459.984425306
1718101459.985432,,,,0.433102101,0.432939261,23716.000000000,1718101459.985432386
1718101459.985602,318.059234619,5238.000000000,1718101459.985602379,,,,
1718101459.986439,,,,0.711924314,0.713179827,23717.000000000,1718101459.986439466
1718101459.987447,,,,1.094192982,1.094871521,23718.000000000,1718101459.987446547
1718101459.988454,,,,1.123546481,1.122061372,23719.000000000,1718101459.988453627
1718101459.989461,,,,1.029692173,1.028110981,23720.000000000,1718101459.989460707
1718101459.990468,,,,0.996035457,0.998517036,23721.000000000,1718101459.990467787
1718101459.990602,318.962158203,5239.000000000,1718101459.990602255,,,,
1718101459.991475,,,,0.898238540,0.895960093,23722.000000000,1718101459.991474867
1718101459.992482,,,,0.376895308,0.375362158,23723.000000000,1718101459.992481947
1718101459.993489,,,,-0.049848367,-0.049650613,23724.000000000,1718101459.993489027
1718101459.994496,,,,0.309076935,0.310909450,23725.000000000,1718101459.994496107
1718101459.995400,320.429870605,5241.000000000,1718101459.995400190,,,,
1718101459.995503,,,,0.340113282,0.341320723,23726.000000000,1718101459.995503187
1718101459.995602,319.655609131,5240.000000000,1718101459.995602369,,,,
1718101459.996510,,,,0.596866250,0.600141227,23727.000000000,1718101459.996510267
1718101459.997517,,,,1.175978899,1.177715302,23728.000000000,1718101459.997517347
1718101459.998524,,,,1.497208595,1.496564984,23729.000000000,1718101459.998524427
1718101459.999532,,,,1.318346977,1.320035338,23730.000000000,1718101459.999531507
1718101460.000400,321.171997070,5242.000000000,1718101460.000400305,,,,
1718101460.000539,,,,0.773251772,0.775372744,23731.000000000,1718101460.000538588
1718101460.001546,,,,-0.028163796,-0.028350690,23732.000000000,1718101460.001545668
1718101460.002553,,,,0.191085950,0.191812605,23733.000000000,1718101460.002552748
1718101460.003560,,,,0.460484266,0.462244660,23734.000000000,1718101460.003559828
1718101460.004567,,,,0.571888149,0.572614789,23735.000000000,1718101460.004566908
1718101460.005400,321.914306641,5243.000000000,1718101460.005400181,,,,
1718101460.005574,,,,0.659011066,0.659569442,23736.000000000,1718101460.005573988
1718101460.006581,,,,0.815154433,0.816554189,23737.000000000,1718101460.006581068
1718101460.007588,,,,0.989063680,0.992002070,23738.000000000,1718101460.007588148
1718101460.008595,,,,0.929419100,0.930698693,23739.000000000,1718101460.008595228
1718101460.009602,,,,0.683556497,0.680725098,23740.000000000,1718101460.009602308
1718101460.010400,322.721343994,5244.000000000,1718101460.010400295,,,,
1718101460.010609,,,,0.451997966,0.453782409,23741.000000000,1718101460.010609388
1718101460.011616,,,,0.416658372,0.418923616,23742.000000000,1718101460.011616468
1718101460.012624,,,,0.623935938,0.624301970,23743.000000000,1718101460.012623549
1718101460.013631,,,,0.677522302,0.675796807,23744.000000000,1718101460.013630629
1718101460.014638,,,,0.536692798,0.533669114,23745.000000000,1718101460.014637709
1718101460.015400,323.576965332,5245.000000000,1718101460.015400171,,,,
1718101460.015645,,,,0.539770007,0.542275608,23746.000000000,1718101460.015644789
1718101460.016652,,,,0.803999603,0.804365635,23747.000000000,1718101460.016651869
1718101460.017659,,,,1.028634429,1.028639913,23748.000000000,1718101460.017658949
1718101460.018666,,,,1.005291104,1.003733873,23749.000000000,1718101460.018666029
1718101460.019673,,,,0.885977864,0.884468734,23750.000000000,1718101460.019673109
1718101460.020400,324.400543213,5246.000000000,1718101460.020400286,,,,
1718101460.020680,,,,0.939612329,0.940314889,23751.000000000,1718101460.020680189
1718101460.021687,,,,1.148909211,1.150525451,23752.000000000,1718101460.021687269
1718101460.022694,,,,0.946463883,0.945291281,23753.000000000,1718101460.022694349
1718101460.023701,,,,-0.049607962,-0.049410205,23754.000000000,1718101460.023701429
1718101460.024709,,,,-0.426395386,-0.423865706,23755.000000000,1718101460.024708509
1718101460.025716,,,,-0.024485594,-0.022268433,23756.000000000,1718101460.025715590
1718101460.026723,,,,0.660429478,0.662189841,23757.000000000,1718101460.026722670
1718101460.027730,,,,1.057170510,1.057632804,23758.000000000,1718101460.027729750
1718101460.028737,,,,0.541140318,0.542155445,23759.000000000,1718101460.028736830
1718101460.029744,,,,0.033932924,0.036967464,23760.000000000,1718101460.029743910
1718101460.030751,,,,0.111030944,0.116613783,23761.000000000,1718101460.030750990
1718101460.031758,,,,0.563858628,0.565426707,23762.000000000,1718101460.031758070
1718101460.032765,,,,0.903166831,0.903893471,23763.000000000,1718101460.032765150
1718101460.033772,,,,1.171218872,1.173147559,23764.000000000,1718101460.033772230
1718101460.034779,,,,0.712789774,0.713660657,23765.000000000,1718101460.034779310
1718101460.035786,,,,0.320928931,0.321871936,23766.000000000,1718101460.035786390
1718101460.036793,,,,0.904921770,0.904181957,23767.000000000,1718101460.036793470
1718101460.037801,,,,1.330896139,1.330829501,23768.000000000,1718101460.037800550
1718101460.038808,,,,1.075080752,1.076264143,23769.000000000,1718101460.038807631
1718101460.039815,,,,0.775535583,0.779339433,23770.000000000,1718101460.039814711
1718101460.040822,,,,0.745989740,0.752005339,23771.000000000,1718101460.040821791
1718101460.041829,,,,0.890016675,0.893724322,23772.000000000,1718101460.041828871
1718101460.042836,,,,0.413677335,0.411951840,23773.000000000,1718101460.042835951
1718101460.043843,,,,-0.150626317,-0.147399455,23774.000000000,1718101460.043843031
1718101460.044850,,,,0.462455601,0.468447119,23775.000000000,1718101460.044850111
1718101460.045400,328.796295166,5251.000000000,1718101460.045400143,,,,
1718101460.045857,,,,0.952498019,0.953993976,23776.000000000,1718101460.045857191
1718101460.046864,,,,0.728464186,0.728349447,23777.000000000,1718101460.046864271
1718101460.047871,,,,0.711731970,0.715223312,23778.000000000,1718101460.047871351
1718101460.048878,,,,0.748586118,0.749360859,23779.000000000,1718101460.048878431
1718101460.049886,,,,0.921149135,0.922260463,23780.000000000,1718101460.049885511
1718101460.050400,329.507934570,5252.000000000,1718101460.050400257,,,,
1718101460.050893,,,,1.006324768,1.007460117,23781.000000000,1718101460.050892591
1718101460.051900,,,,0.885857642,0.885790944,23782.000000000,1718101460.051899672
1718101460.052907,,,,0.631893337,0.631490111,23783.000000000,1718101460.052906752
1718101460.053914,,,,0.274482608,0.274175495,23784.000000000,1718101460.053913832
1718101460.054921,,,,0.254312575,0.253188103,23785.000000000,1718101460.054920912
1718101460.055400,330.009429932,5253.000000000,1718101460.055400133,,,,
1718101460.055928,,,,0.494141042,0.496069700,23786.000000000,1718101460.055927992
1718101460.056935,,,,0.588307858,0.590332687,23787.000000000,1718101460.056935072
1718101460.057942,,,,0.553713500,0.555113316,23788.000000000,1718101460.057942152
1718101460.058949,,,,0.920427918,0.920938253,23789.000000000,1718101460.058949232
1718101460.059956,,,,1.119892359,1.121051669,23790.000000000,1718101460.059956312
1718101460.060400,330.462432861,5254.000000000,1718101460.060400248,,,,
1718101460.060963,,,,1.088158846,1.089414358,23791.000000000,1718101460.060963392
1718101460.061970,,,,0.357350349,0.354254544,23792.000000000,1718101460.061970472
1718101460.062978,,,,0.033211708,0.034659572,23793.000000000,1718101460.062977552
1718101460.063985,,,,0.525489926,0.523932695,23794.000000000,1718101460.063984632
1718101460.064992,,,,0.441131651,0.438708991,23795.000000000,1718101460.064991713
1718101460.065400,330.850830078,5255.000000000,1718101460.065400124,,,,
1718101460.065999,,,,0.846503258,0.848287702,23796.000000000,1718101460.065998793
1718101460.067006,,,,1.445449352,1.445142269,23797.000000000,1718101460.067005873
1718101460.068013,,,,1.624551415,1.625831008,23798.000000000,1718101460.068012953
1718101460.069020,,,,1.689701319,1.690548182,23799.000000000,1718101460.069020033
1718101460.070027,,,,0.397281706,0.397335202,23800.000000000,1718101460.070027113
1718101460.070400,331.206848145,5256.000000000,1718101460.070400238,,,,
1718101460.071034,,,,-0.954542100,-0.953526974,23801.000000000,1718101460.071034193
1718101460.072041,,,,0.129373878,0.133995101,23802.000000000,1718101460.072041273
1718101460.073048,,,,1.335295558,1.335829973,23803.000000000,1718101460.073048353
1718101460.074055,,,,1.426890016,1.426486850,23804.000000000,1718101460.074055433
1718101460.075063,,,,0.810995400,0.813068330,23805.000000000,1718101460.075062513
1718101460.075400,331.595275879,5257.000000000,1718101460.075400114,,,,
1718101460.076070,,,,0.224406153,0.225084707,23806.000000000,1718101460.076069593
1718101460.077077,,,,-0.230320722,-0.229521960,23807.000000000,1718101460.077076674
1718101460.078084,,,,-0.459907919,-0.460671782,23808.000000000,1718101460.078083754
1718101460.079091,,,,-0.225801095,-0.226925582,23809.000000000,1718101460.079090834
1718101460.080098,,,,0.762673914,0.763616920,23810.000000000,1718101460.080097914
1718101460.080400,332.113311768,5258.000000000,1718101460.080400229,,,,
1718101460.081105,,,,1.366692543,1.369799256,23811.000000000,1718101460.081104994
1718101460.082112,,,,1.349142909,1.350975513,23812.000000000,1718101460.082112074
1718101460.083119,,,,1.219997168,1.220291018,23813.000000000,1718101460.083119154
1718101460.084126,,,,0.994304538,0.993516624,23814.000000000,1718101460.084126234
1718101460.085133,,,,0.713006139,0.712386489,23815.000000000,1718101460.085133314
1718101460.085400,332.712402344,5259.000000000,1718101460.085400105,,,,
1718101460.086140,,,,0.481327444,0.477654666,23816.000000000,1718101460.086140394
1718101460.087147,,,,0.635932148,0.633653760,23817.000000000,1718101460.087147474
1718101460.088155,,,,0.590375304,0.591126025,23818.000000000,1718101460.088154554
1718101460.089162,,,,0.545107007,0.545112431,23819.000000000,1718101460.089161634
1718101460.090169,,,,0.511161745,0.509267986,23820.000000000,1718101460.090168715
1718101460.090400,333.295410156,5260.000000000,1718101460.090400219,,,,
1718101460.091176,,,,0.724449456,0.724719346,23821.000000000,1718101460.091175795
1718101460.092183,,,,1.029139280,1.032149792,23822.000000000,1718101460.092182875
1718101460.093190,,,,0.997910619,0.996569753,23823.000000000,1718101460.093189955
1718101460.094197,,,,0.772362232,0.772728264,23824.000000000,1718101460.094197035
1718101460.095204,,,,0.405239105,0.406494647,23825.000000000,1718101460.095204115
1718101460.096211,,,,0.065450080,0.066080563,23826.000000000,1718101460.096211195
1718101460.097218,,,,0.448920786,0.449647427,23827.000000000,1718101460.097218275
1718101460.098225,,,,0.729113281,0.731114089,23828.000000000,1718101460.098225355
1718101460.099232,,,,0.827607393,0.827781141,23829.000000000,1718101460.099232435
1718101460.099961,333.991912842,5261.000000000,1718101460.099961281,,,,
1718101460.100240,,,,0.618142188,0.613964558,23830.000000000,1718101460.100239515
1718101460.101247,,,,0.635667741,0.634206653,23831.000000000,1718101460.101246595
1718101460.102254,,,,0.801499367,0.801600993,23832.000000000,1718101460.102253675
1718101460.103261,,,,0.835372508,0.836195290,23833.000000000,1718101460.103260756
1718101460.104268,,,,0.623407066,0.625648260,23834.000000000,1718101460.104267836
1718101460.105275,,,,0.603357196,0.606199443,23835.000000000,1718101460.105274916
1718101460.106282,,,,0.772290111,0.775036156,23836.000000000,1718101460.106281996
1718101460.107289,,,,0.802965879,0.802827060,23837.000000000,1718101460.107289076
1718101460.108296,,,,0.704351544,0.704982042,23838.000000000,1718101460.108296156
1718101460.109303,,,,0.782170773,0.780493379,23839.000000000,1718101460.109303236
1718101460.110310,,,,0.249937207,0.248283833,23840.000000000,1718101460.110310316
1718101460.111317,,,,-0.152212992,-0.153169185,23841.000000000,1718101460.111317396
1718101460.112324,,,,-0.177744061,-0.178964689,23842.000000000,1718101460.112324476
1718101460.113332,,,,0.395911366,0.395796597,23843.000000000,1718101460.113331556
1718101460.114339,,,,1.156914711,1.156679749,23844.000000000,1718101460.114338636
1718101460.115346,,,,1.373520017,1.371193528,23845.000000000,1718101460.115345716
1718101460.116353,,,,0.437429398,0.437362701,23846.000000000,1718101460.116352797
1718101460.117360,,,,0.502170563,0.504868567,23847.000000000,1718101460.117359877
1718101460.118367,,,,0.653217316,0.651010990,23848.000000000,1718101460.118366957
1718101460.119374,,,,0.194235265,0.191331789,23849.000000000,1718101460.119374037
1718101460.120381,,,,0.232219324,0.233619109,23850.000000000,1718101460.120381117
1718101460.121388,,,,0.754476070,0.756549001,23851.000000000,1718101460.121388197
1718101460.122395,,,,0.901892662,0.903268456,23852.000000000,1718101460.122395277
1718101460.123402,,,,1.167564750,1.167594194,23853.000000000,1718101460.123402357
1718101460.124409,,,,1.230166316,1.230892897,23854.000000000,1718101460.124409437
1718101460.125417,,,,1.242114425,1.244572043,23855.000000000,1718101460.125416517
1718101460.126424,,,,0.865831852,0.867063344,23856.000000000,1718101460.126423597
1718101460.127431,,,,-0.138606057,-0.138336182,23857.000000000,1718101460.127430677
1718101460.128438,,,,0.300686777,0.303504974,23858.000000000,1718101460.128437757
1718101460.129445,,,,0.904008269,0.905384004,23859.000000000,1718101460.129444838
1718101460.129961,338.109741211,5267.000000000,1718101460.129961252,,,,
1718101460.130452,,,,1.251225829,1.251736045,23860.000000000,1718101460.130451918
1718101460.131459,,,,0.914994776,0.914519429,23861.000000000,1718101460.131458998
1718101460.132466,,,,0.618502796,0.618243754,23862.000000000,1718101460.132466078
1718101460.133473,,,,0.673603714,0.673104286,23863.000000000,1718101460.133473158
1718101460.134480,,,,0.621555924,0.620022774,23864.000000000,1718101460.134480238
1718101460.134961,338.823699951,5268.000000000,1718101460.134961367,,,,
1718101460.135487,,,,0.415961206,0.413250029,23865.000000000,1718101460.135487318
1718101460.136494,,,,0.287897229,0.287061244,23866.000000000,1718101460.136494398
1718101460.137501,,,,0.391560048,0.393368512,23867.000000000,1718101460.137501478
1718101460.138509,,,,0.645211816,0.645048976,23868.000000000,1718101460.138508558
1718101460.139516,,,,0.440891236,0.440992832,23869.000000000,1718101460.139515638
1718101460.139961,339.521606445,5269.000000000,1718101460.139961243,,,,
1718101460.140523,,,,0.359562069,0.360024273,23870.000000000,1718101460.140522718
1718101460.141530,,,,0.511305988,0.509844959,23871.000000000,1718101460.141529799
1718101460.142537,,,,0.834963799,0.832949817,23872.000000000,1718101460.142536879
1718101460.143544,,,,0.948411167,0.949209929,23873.000000000,1718101460.143543959
1718101460.144551,,,,0.793349624,0.794917703,23874.000000000,1718101460.144551039
1718101460.144961,340.187225342,5270.000000000,1718101460.144961357,,,,
1718101460.145558,,,,0.493299633,0.494242638,23875.000000000,1718101460.145558119
1718101460.146565,,,,0.501834035,0.504844487,23876.000000000,1718101460.146565199
1718101460.147572,,,,0.653866410,0.655121922,23877.000000000,1718101460.147572279
1718101460.148579,,,,0.552367210,0.550545573,23878.000000000,1718101460.148579359
1718101460.149586,,,,0.490102232,0.488929659,23879.000000000,1718101460.149586439
1718101460.149961,340.934265137,5271.000000000,1718101460.149961233,,,,
1718101460.150594,,,,0.438198686,0.438733011,23880.000000000,1718101460.150593519
1718101460.151601,,,,0.303547621,0.302615464,23881.000000000,1718101460.151600599
1718101460.152608,,,,0.579340696,0.577903748,23882.000000000,1718101460.152607679
1718101460.153615,,,,0.929515243,0.930674672,23883.000000000,1718101460.153614759
1718101460.154622,,,,1.143572211,1.142592072,23884.000000000,1718101460.154621840
1718101460.154961,341.486511230,5272.000000000,1718101460.154961348,,,,
1718101460.155629,,,,0.858259082,0.858264506,23885.000000000,1718101460.155628920
1718101460.156636,,,,0.546885967,0.547828972,23886.000000000,1718101460.156636000
1718101460.157643,,,,0.068695553,0.067426831,23887.000000000,1718101460.157643080
1718101460.158650,,,,0.373697907,0.376684368,23888.000000000,1718101460.158650160
1718101460.159657,,,,0.781665921,0.784291804,23889.000000000,1718101460.159657240
1718101460.159961,342.087646484,5273.000000000,1718101460.159961224,,,,
1718101460.160664,,,,0.661944032,0.663295746,23890.000000000,1718101460.160664320
1718101460.161671,,,,0.548785210,0.548694432,23891.000000000,1718101460.161671400
1718101460.162678,,,,0.246042639,0.245711505,23892.000000000,1718101460.162678480
1718101460.163686,,,,-0.216377214,-0.213054180,23893.000000000,1718101460.163685560
1718101460.164693,,,,0.307466209,0.309370846,23894.000000000,1718101460.164692640
1718101460.164961,342.591400146,5274.000000000,1718101460.164961338,,,,
1718101460.165700,,,,0.985217214,0.988155603,23895.000000000,1718101460.165699720
1718101460.166707,,,,1.102727413,1.100521088,23896.000000000,1718101460.166706800
1718101460.167714,,,,0.928601742,0.928751409,23897.000000000,1718101460.167713881
1718101460.168721,,,,0.631003857,0.632956564,23898.000000000,1718101460.168720961
1718101460.169728,,,,0.354225069,0.355384469,23899.000000000,1718101460.169728041
1718101460.169961,342.819000244,5275.000000000,1718101460.169961214,,,,
1718101460.170735,,,,0.755029023,0.757222116,23900.000000000,1718101460.170735121
1718101460.171742,,,,1.356258988,1.354821920,23901.000000000,1718101460.171742201
1718101460.172749,,,,1.409556866,1.410836458,23902.000000000,1718101460.172749281
1718101460.173756,,,,1.273992181,1.274839044,23903.000000000,1718101460.173756361
1718101460.174763,,,,0.575614452,0.576749802,23904.000000000,1718101460.174763441
1718101460.174961,342.965240479,5276.000000000,1718101460.174961329,,,,
1718101460.175771,,,,0.112353176,0.112743258,23905.000000000,1718101460.175770521
1718101460.176778,,,,0.465340465,0.464913160,23906.000000000,1718101460.176777601
1718101460.177785,,,,0.518061399,0.517153263,23907.000000000,1718101460.177784681
1718101460.178792,,,,0.462335408,0.460273355,23908.000000000,1718101460.178791761
1718101460.179799,,,,0.316769928,0.315380991,23909.000000000,1718101460.179798841
1718101460.179961,343.046539307,5277.000000000,1718101460.179961205,,,,
1718101460.180806,,,,0.374996096,0.370481908,23910.000000000,1718101460.180805922
1718101460.181813,,,,0.503180265,0.501334608,23911.000000000,1718101460.181813002
1718101460.182820,,,,0.619849026,0.620335281,23912.000000000,1718101460.182820082
1718101460.183827,,,,0.757553279,0.758856893,23913.000000000,1718101460.183827162
1718101460.184834,,,,0.635138810,0.637019396,23914.000000000,1718101460.184834242
1718101460.184961,342.932739258,5278.000000000,1718101460.184961319,,,,
1718101460.185841,,,,0.575662494,0.574586153,23915.000000000,1718101460.185841322
1718101460.186848,,,,0.515513062,0.516864777,23916.000000000,1718101460.186848402
1718101460.187855,,,,0.298475057,0.298119873,23917.000000000,1718101460.187855482
1718101460.188863,,,,0.300374269,0.299995035,23918.000000000,1718101460.188862562
1718101460.189870,,,,0.497073978,0.498401642,23919.000000000,1718101460.189869642
1718101460.189961,342.753906250,5279.000000000,1718101460.189961195,,,,
1718101460.190877,,,,0.691249430,0.693081975,23920.000000000,1718101460.190876722
1718101460.191884,,,,0.808591366,0.810616195,23921.000000000,1718101460.191883802
1718101460.192891,,,,0.797845244,0.799413264,23922.000000000,1718101460.192890882
1718101460.193898,,,,0.319726914,0.320285261,23923.000000000,1718101460.193897963
1718101460.194905,,,,0.074152753,0.075240009,23924.000000000,1718101460.194905043
1718101460.194961,342.331390381,5280.000000000,1718101460.194961309,,,,
1718101460.195912,,,,0.145144477,0.144260406,23925.000000000,1718101460.195912123
1718101460.196919,,,,0.480918735,0.482919544,23926.000000000,1718101460.196919203
1718101460.197926,,,,1.206510425,1.209448814,23927.000000000,1718101460.197926283
1718101460.198933,,,,1.117752671,1.119537115,23928.000000000,1718101460.198933363
1718101460.199940,,,,0.328357458,0.329204291,23929.000000000,1718101460.199940443
1718101460.200948,,,,0.248566896,0.246504843,23930.000000000,1718101460.200947523
1718101460.201955,,,,0.916389108,0.918486118,23931.000000000,1718101460.201954603
1718101460.202962,,,,1.481438041,1.483631134,23932.000000000,1718101460.202961683
1718101460.203969,,,,1.275194287,1.275055408,23933.000000000,1718101460.203968763
1718101460.204619,341.908935547,5281.000000000,1718101460.204619408,,,,
1718101460.204976,,,,0.871529460,0.870044410,23934.000000000,1718101460.204975843
1718101460.205983,,,,0.767241597,0.769002020,23935.000000000,1718101460.205982924
1718101460.206990,,,,0.679493606,0.681758881,23936.000000000,1718101460.206990004
1718101460.207997,,,,0.719208598,0.719238043,23937.000000000,1718101460.207997084
1718101460.209004,,,,0.435986966,0.434910566,23938.000000000,1718101460.209004164
1718101460.209620,341.518981934,5282.000000000,1718101460.209619522,,,,
1718101460.210011,,,,0.176012531,0.174839973,23939.000000000,1718101460.210011244
1718101460.211018,,,,0.196615279,0.196596667,23940.000000000,1718101460.211018324
1718101460.212025,,,,0.200293481,0.199024767,23941.000000000,1718101460.212025404
1718101460.213032,,,,0.777314603,0.777007520,23942.000000000,1718101460.213032484
1718101460.214040,,,,1.407922029,1.406989932,23943.000000000,1718101460.214039564
1718101460.214619,341.015441895,5283.000000000,1718101460.214619398,,,,
1718101460.215047,,,,1.192494750,1.195721626,23944.000000000,1718101460.215046644
1718101460.216054,,,,0.981779397,0.982770503,23945.000000000,1718101460.216053724
1718101460.217061,,,,0.341122985,0.339830220,23946.000000000,1718101460.217060804
1718101460.218068,,,,-0.351797581,-0.350758404,23947.000000000,1718101460.218067884
1718101460.219075,,,,-0.059320342,-0.056021355,23948.000000000,1718101460.219074965
1718101460.219620,340.658142090,5284.000000000,1718101460.219619513,,,,
1718101460.220082,,,,0.428967118,0.430294782,23949.000000000,1718101460.220082045
1718101460.221089,,,,0.496905714,0.498425692,23950.000000000,1718101460.221089125
1718101460.222096,,,,0.177791536,0.178277776,23951.000000000,1718101460.222096205
1718101460.223103,,,,0.042130750,0.044924885,23952.000000000,1718101460.223103285
1718101460.224110,,,,0.538423717,0.539871573,23953.000000000,1718101460.224110365
1718101460.225117,,,,1.047121644,1.049531102,23954.000000000,1718101460.225117445
1718101460.226125,,,,1.107679725,1.111122966,23955.000000000,1718101460.226124525
1718101460.228139,,,,0.755894482,0.755371034,23957.000000000,1718101460.228138685
1718101460.229146,,,,0.539601684,0.539607108,23958.000000000,1718101460.229145765
1718101460.230153,,,,0.509623170,0.508474648,23959.000000000,1718101460.230152845
1718101460.231160,,,,0.468585938,0.468038440,23960.000000000,1718101460.231159925
1718101460.232167,,,,0.552799940,0.551651418,23961.000000000,1718101460.232167006
1718101460.233174,,,,0.802989900,0.802754939,23962.000000000,1718101460.233174086
1718101460.234181,,,,0.907854736,0.909422815,23963.000000000,1718101460.234181166
1718101460.235188,,,,0.924875438,0.924207747,23964.000000000,1718101460.235188246
1718101460.236195,,,,0.585591257,0.584899545,23965.000000000,1718101460.236195326
1718101460.237202,,,,0.025590857,0.023552841,23966.000000000,1718101460.237202406
1718101460.238209,,,,-0.045689352,-0.045491599,23967.000000000,1718101460.238209486
1718101460.239217,,,,0.454426050,0.452652484,23968.000000000,1718101460.239216566
1718101460.240224,,,,0.785608590,0.784628332,23969.000000000,1718101460.240223646
1718101460.241231,,,,0.832415521,0.832396924,23970.000000000,1718101460.241230726
1718101460.242238,,,,0.747816861,0.747509778,23971.000000000,1718101460.242237806
1718101460.243245,,,,0.612468600,0.615815639,23972.000000000,1718101460.243244886
1718101460.244252,,,,0.621315539,0.624830842,23973.000000000,1718101460.244251966
1718101460.245259,,,,0.777699232,0.777007520,23974.000000000,1718101460.245259047
1718101460.246266,,,,0.883645892,0.882377207,23975.000000000,1718101460.246266127
1718101460.247273,,,,0.738633335,0.739672542,23976.000000000,1718101460.247273207
1718101460.248280,,,,0.613237917,0.615743518,23977.000000000,1718101460.248280287
1718101460.249287,,,,0.565541446,0.566244066,23978.000000000,1718101460.249287367
1718101460.250294,,,,0.420360625,0.419452488,23979.000000000,1718101460.250294447
1718101460.251302,,,,0.416369885,0.418034106,23980.000000000,1718101460.251301527
1718101460.252309,,,,0.977067471,0.980005860,23981.000000000,1718101460.252308607
1718101460.253316,,,,1.796585560,1.797600627,23982.000000000,1718101460.253315687
1718101460.254323,,,,1.903157234,1.904148340,23983.000000000,1718101460.254322767
1718101460.254619,340.609405518,5291.000000000,1718101460.254619360,,,,
1718101460.255330,,,,1.219275951,1.217694640,23984.000000000,1718101460.255329847
1718101460.256337,,,,-0.133629665,-0.136364847,23985.000000000,1718101460.256336927
1718101460.257344,,,,-1.066907525,-1.066421390,23986.000000000,1718101460.257344007
1718101460.258351,,,,-0.368409604,-0.368115693,23987.000000000,1718101460.258351088
1718101460.259358,,,,0.501761913,0.502945304,23988.000000000,1718101460.259358168
1718101460.259619,340.885498047,5292.000000000,1718101460.259619474,,,,
1718101460.260365,,,,0.602876425,0.604684889,23989.000000000,1718101460.260365248
1718101460.261372,,,,0.352902859,0.355264246,23990.000000000,1718101460.261372328
1718101460.262379,,,,0.308067232,0.310789257,23991.000000000,1718101460.262379408
1718101460.263386,,,,0.316721827,0.317785054,23992.000000000,1718101460.263386488
1718101460.264394,,,,0.607540309,0.609517038,23993.000000000,1718101460.264393568
1718101460.264619,341.145355225,5293.000000000,1718101460.264619350,,,,
1718101460.265401,,,,0.810057819,0.813068330,23994.000000000,1718101460.265400648
1718101460.266408,,,,0.707020044,0.707241833,23995.000000000,1718101460.266407728
1718101460.267415,,,,0.168920577,0.168421149,23996.000000000,1718101460.267414808
1718101460.268422,,,,0.262245953,0.264006346,23997.000000000,1718101460.268421888
1718101460.269429,,,,0.836358190,0.839512885,23998.000000000,1718101460.269428968
1718101460.269619,341.437805176,5294.000000000,1718101460.269619465,,,,
1718101460.270436,,,,0.930524945,0.931996882,23999.000000000,1718101460.270436049
1718101460.271443,,,,0.816308379,0.816962898,24000.000000000,1718101460.271443129
1718101460.272450,,,,0.926077485,0.926707983,24001.000000000,1718101460.272450209
1718101460.273457,,,,0.903791904,0.906946659,24002.000000000,1718101460.273457289
1718101460.274464,,,,0.775848150,0.777680635,24003.000000000,1718101460.274464369
1718101460.274619,341.762695313,5295.000000000,1718101460.274619341,,,,
1718101460.275471,,,,0.391584069,0.389762431,24004.000000000,1718101460.275471449
1718101460.276479,,,,0.269410044,0.268742353,24005.000000000,1718101460.276478529
1718101460.277486,,,,0.637639046,0.637091517,24006.000000000,1718101460.277485609
1718101460.278493,,,,0.986948133,0.987770915,24007.000000000,1718101460.278492689
1718101460.279500,,,,1.041472077,1.042439103,24008.000000000,1718101460.279499769
1718101460.279619,342.087646484,5296.000000000,1718101460.279619455,,,,
1718101460.280507,,,,0.598212540,0.597064018,24009.000000000,1718101460.280506849
1718101460.281514,,,,0.231185585,0.229988977,24010.000000000,1718101460.281513929
1718101460.282521,,,,0.209741414,0.207342789,24011.000000000,1718101460.282521009
1718101460.283528,,,,0.500680089,0.502175987,24012.000000000,1718101460.283528090
1718101460.284535,,,,0.855181932,0.855932593,24013.000000000,1718101460.284535170
1718101460.284619,342.363891602,5297.000000000,1718101460.284619331,,,,
1718101460.285542,,,,0.970360160,0.967576861,24014.000000000,1718101460.285542250
1718101460.286549,,,,0.944276154,0.942286253,24015.000000000,1718101460.286549330
1718101460.287556,,,,0.617517114,0.615262747,24016.000000000,1718101460.287556410
1718101460.288563,,,,0.488852113,0.488232493,24017.000000000,1718101460.288563490
1718101460.289571,,,,0.819337487,0.821434438,24018.000000000,1718101460.289570570
1718101460.289619,342.558898926,5298.000000000,1718101460.289619446,,,,
1718101460.290578,,,,0.859893858,0.857615411,24019.000000000,1718101460.290577650
1718101460.291585,,,,0.499598235,0.497632354,24020.000000000,1718101460.291584730
1718101460.292592,,,,0.196879730,0.196788996,24021.000000000,1718101460.292591810
1718101460.293599,,,,0.588836730,0.589972079,24022.000000000,1718101460.293598890
1718101460.294606,,,,1.448670745,1.447786689,24023.000000000,1718101460.294605970
1718101460.294619,342.672698975,5299.000000000,1718101460.294619322,,,,
1718101460.295613,,,,1.755836844,1.755794168,24024.000000000,1718101460.295613050
1718101460.296620,,,,1.498771310,1.497670889,24025.000000000,1718101460.296620131
1718101460.297627,,,,0.641990364,0.639784098,24026.000000000,1718101460.297627211
1718101460.298634,,,,-0.439545572,-0.440934479,24027.000000000,1718101460.298634291
1718101460.299487,342.185119629,5301.000000000,1718101460.299486637,,,,
1718101460.299619,342.510162354,5300.000000000,1718101460.299619436,,,,
1718101460.299641,,,,-0.271333903,-0.270294726,24028.000000000,1718101460.299641371
1718101460.300648,,,,0.337108225,0.339253247,24029.000000000,1718101460.300648451
1718101460.301656,,,,0.441179723,0.441521734,24030.000000000,1718101460.301655531
1718101460.302663,,,,0.177479014,0.175825641,24031.000000000,1718101460.302662611
1718101460.303670,,,,-0.003137592,-0.001930134,24032.000000000,1718101460.303669691
1718101460.304677,,,,0.194259301,0.195562929,24033.000000000,1718101460.304676771
1718101460.305684,,,,0.671343863,0.671541631,24034.000000000,1718101460.305683851
1718101460.306691,,,,1.125373602,1.126653194,24035.000000000,1718101460.306690931
1718101460.307698,,,,1.058228374,1.056599021,24036.000000000,1718101460.307698011
1718101460.308705,,,,0.387737602,0.385795742,24037.000000000,1718101460.308705091
1718101460.309712,,,,-0.314967483,-0.316957414,24038.000000000,1718101460.309712172
1718101460.310719,,,,1.196293235,1.197644830,24039.000000000,1718101460.310719252
1718101460.311726,,,,1.423476338,1.423289418,24040.000000000,1718101460.311726332
1718101460.312733,,,,0.988582909,0.985006273,24041.000000000,1718101460.312733412
1718101460.313740,,,,0.492698610,0.493305057,24042.000000000,1718101460.313740492
1718101460.314748,,,,0.534745514,0.536361635,24043.000000000,1718101460.314747572
1718101460.315755,,,,0.686200917,0.686735272,24044.000000000,1718101460.315754652
1718101460.316762,,,,0.793181360,0.793282926,24045.000000000,1718101460.316761732
1718101460.317769,,,,0.394372791,0.395195603,24046.000000000,1718101460.317768812
1718101460.318776,,,,0.211352140,0.215540618,24047.000000000,1718101460.318775892
1718101460.319783,,,,0.749379456,0.747485697,24048.000000000,1718101460.319782972
1718101460.320790,,,,0.391367704,0.392094374,24049.000000000,1718101460.320790052
1718101460.321797,,,,0.188249171,0.186908334,24050.000000000,1718101460.321797132
1718101460.322804,,,,0.864653885,0.863120735,24051.000000000,1718101460.322804213
1718101460.323811,,,,1.300917625,1.302653909,24052.000000000,1718101460.323811293
1718101460.324818,,,,0.839050710,0.840113938,24053.000000000,1718101460.324818373
1718101460.325825,,,,0.082446739,0.081322268,24054.000000000,1718101460.325825453
1718101460.326833,,,,0.182046711,0.185634181,24055.000000000,1718101460.326832533
1718101460.327840,,,,0.528519034,0.530014932,24056.000000000,1718101460.327839613
1718101460.328847,,,,0.200606003,0.198231429,24057.000000000,1718101460.328846693
1718101460.329854,,,,-0.089875869,-0.089101143,24058.000000000,1718101460.329853773
1718101460.330861,,,,0.633023262,0.634687483,24059.000000000,1718101460.330860853
1718101460.331868,,,,1.173142076,1.172161937,24060.000000000,1718101460.331867933
1718101460.332875,,,,1.282478571,1.283133030,24061.000000000,1718101460.332875013
1718101460.333882,,,,0.916268945,0.913437605,24062.000000000,1718101460.333882093
1718101460.334889,,,,0.744667530,0.743182480,24063.000000000,1718101460.334889174
1718101460.335896,,,,0.742624104,0.744456589,24064.000000000,1718101460.335896254
1718101460.336903,,,,0.727117956,0.727916718,24065.000000000,1718101460.336903334
1718101460.337910,,,,0.692307234,0.693466604,24066.000000000,1718101460.337910414
1718101460.338917,,,,0.394180447,0.393945485,24067.000000000,1718101460.338917494
1718101460.339925,,,,0.368288785,0.367765337,24068.000000000,1718101460.339924574
1718101460.340932,,,,0.565517426,0.566724896,24069.000000000,1718101460.340931654
1718101460.341939,,,,0.823111832,0.822396040,24070.000000000,1718101460.341938734
1718101460.342946,,,,1.023081064,1.020826697,24071.000000000,1718101460.342945814
1718101460.343953,,,,0.875592351,0.875501573,24072.000000000,1718101460.343952894
1718101460.344960,,,,0.387449116,0.388704658,24073.000000000,1718101460.344959974
1718101460.345967,,,,0.354465485,0.358293355,24074.000000000,1718101460.345967054
1718101460.346974,,,,0.219718248,0.219026491,24075.000000000,1718101460.346974134
1718101460.347981,,,,0.152524918,0.155367136,24076.000000000,1718101460.347981215
1718101460.348988,,,,0.250826716,0.252923667,24077.000000000,1718101460.348988295
1718101460.349487,339.343048096,5311.000000000,1718101460.349486589,,,,
1718101460.349995,,,,0.481543809,0.483256102,24078.000000000,1718101460.349995375
1718101460.351002,,,,0.907614350,0.909206450,24079.000000000,1718101460.351002455
1718101460.352010,,,,0.949517012,0.952166915,24080.000000000,1718101460.352009535
1718101460.353017,,,,0.915812135,0.916610956,24081.000000000,1718101460.353016615
1718101460.354024,,,,0.775559664,0.776646912,24082.000000000,1718101460.354023695
1718101460.354487,339.505340576,5312.000000000,1718101460.354486704,,,,
1718101460.355031,,,,0.744643509,0.746403873,24083.000000000,1718101460.355030775
1718101460.356038,,,,0.599198222,0.596198559,24084.000000000,1718101460.356037855
1718101460.357045,,,,0.088985771,0.090553835,24085.000000000,1718101460.357044935
1718101460.358052,,,,0.437285155,0.440127373,24086.000000000,1718101460.358052015
1718101460.359059,,,,0.499117434,0.500589311,24087.000000000,1718101460.359059095
1718101460.359487,339.781341553,5313.000000000,1718101460.359486580,,,,
1718101460.360066,,,,0.332925171,0.333122909,24088.000000000,1718101460.360066175
1718101460.361073,,,,0.556165636,0.554993093,24089.000000000,1718101460.361073256
1718101460.362080,,,,0.629248917,0.626465619,24090.000000000,1718101460.362080336
1718101460.363087,,,,0.961393058,0.961975455,24091.000000000,1718101460.363087416
1718101460.364094,,,,1.118329644,1.120763183,24092.000000000,1718101460.364094496
1718101460.364487,340.057342529,5314.000000000,1718101460.364486694,,,,
1718101460.365102,,,,0.956921518,0.958225131,24093.000000000,1718101460.365101576
1718101460.366109,,,,0.979303241,0.979188442,24094.000000000,1718101460.366108656
1718101460.367116,,,,0.864846230,0.862688005,24095.000000000,1718101460.367115736
1718101460.368123,,,,-0.140000403,-0.141413361,24096.000000000,1718101460.368122816
1718101460.369130,,,,-0.226474240,-0.227069825,24097.000000000,1718101460.369129896
1718101460.369487,340.268432617,5315.000000000,1718101460.369486570,,,,
1718101460.370137,,,,0.406320930,0.405124336,24098.000000000,1718101460.370136976
1718101460.371144,,,,0.746446550,0.743759453,24099.000000000,1718101460.371144056
1718101460.372151,,,,0.798398137,0.797177494,24100.000000000,1718101460.372151136
1718101460.373158,,,,0.638023674,0.637355983,24101.000000000,1718101460.373158216
1718101460.374165,,,,0.654130876,0.651636064,24102.000000000,1718101460.374165297
1718101460.374487,340.658142090,5316.000000000,1718101460.374486685,,,,
1718101460.375172,,,,0.711948335,0.710174799,24103.000000000,1718101460.375172377
1718101460.376179,,,,0.759668827,0.758231819,24104.000000000,1718101460.376179457
1718101460.377187,,,,1.197254777,1.197813153,24105.000000000,1718101460.377186537
1718101460.378194,,,,1.407657623,1.406677365,24106.000000000,1718101460.378193617
1718101460.379201,,,,0.659059167,0.655242145,24107.000000000,1718101460.379200697
1718101460.379487,340.934265137,5317.000000000,1718101460.379486561,,,,
1718101460.380208,,,,-0.335401922,-0.335204184,24108.000000000,1718101460.380207777
1718101460.381215,,,,-0.924996257,-0.925375462,24109.000000000,1718101460.381214857
1718101460.382222,,,,-0.301673055,-0.300730050,24110.000000000,1718101460.382221937
1718101460.383229,,,,0.600039601,0.600718200,24111.000000000,1718101460.383229017
1718101460.384236,,,,1.206798911,1.208318830,24112.000000000,1718101460.384236097
1718101460.384487,341.291564941,5318.000000000,1718101460.384486675,,,,
1718101460.385243,,,,1.298778057,1.297966003,24113.000000000,1718101460.385243177
1718101460.386250,,,,0.600087702,0.598698795,24114.000000000,1718101460.386250257
1718101460.387257,,,,0.147933185,0.147770330,24115.000000000,1718101460.387257338
1718101460.388264,,,,0.883934379,0.886031330,24116.000000000,1718101460.388264418
1718101460.389271,,,,1.474995136,1.474279404,24117.000000000,1718101460.389271498
1718101460.389487,341.583953857,5319.000000000,1718101460.389486551,,,,
1718101460.390279,,,,1.305942059,1.304360867,24118.000000000,1718101460.390278578
1718101460.391286,,,,0.780223489,0.781190574,24119.000000000,1718101460.391285658
1718101460.392293,,,,0.319005698,0.319299608,24120.000000000,1718101460.392292738
1718101460.393300,,,,0.234190643,0.234436482,24121.000000000,1718101460.393299818
1718101460.393613,342.120117188,5321.000000000,1718101460.393612623,,,,
1718101460.394307,,,,0.320063472,0.319636166,24122.000000000,1718101460.394306898
1718101460.394487,341.860168457,5320.000000000,1718101460.394486666,,,,
1718101460.395314,,,,0.443343371,0.446017295,24123.000000000,1718101460.395313978
1718101460.396321,,,,0.228324756,0.230974644,24124.000000000,1718101460.396321058
1718101460.397328,,,,0.349537164,0.350239784,24125.000000000,1718101460.397328138
1718101460.398335,,,,0.844988704,0.845595181,24126.000000000,1718101460.398335218
1718101460.398613,342.380187988,5322.000000000,1718101460.398612738,,,,
1718101460.399342,,,,0.894343972,0.893532038,24127.000000000,1718101460.399342299
1718101460.400349,,,,1.252331734,1.255342126,24128.000000000,1718101460.400349379
1718101460.401356,,,,1.041640401,1.040876508,24129.000000000,1718101460.401356459
1718101460.402364,,,,-0.023908621,-0.022821367,24130.000000000,1718101460.402363539
1718101460.403371,,,,0.090476282,0.091779903,24131.000000000,1718101460.403370619
1718101460.403613,342.656402588,5323.000000000,1718101460.403612614,,,,
1718101460.404378,,,,0.460291952,0.460177183,24132.000000000,1718101460.404377699
1718101460.405385,,,,0.554314494,0.555185437,24133.000000000,1718101460.405384779
1718101460.406392,,,,0.657929242,0.655338287,24134.000000000,1718101460.406391859
1718101460.407399,,,,0.703990936,0.702938557,24135.000000000,1718101460.407398939
1718101460.408406,,,,0.635667741,0.633798003,24136.000000000,1718101460.408406019
1718101460.408613,342.965240479,5324.000000000,1718101460.408612728,,,,
1718101460.409413,,,,0.498251975,0.496646672,24137.000000000,1718101460.409413099
1718101460.410420,,,,0.574917257,0.576004505,24138.000000000,1718101460.410420179
1718101460.411427,,,,1.256562829,1.257698178,24139.000000000,1718101460.411427259
1718101460.412434,,,,1.374265313,1.374583244,24140.000000000,1718101460.412434340
1718101460.413441,,,,1.068517685,1.070855021,24141.000000000,1718101460.413441420
1718101460.413613,343.192810059,5325.000000000,1718101460.413612604,,,,
1718101460.414448,,,,0.374298930,0.370049179,24142.000000000,1718101460.414448500
1718101460.415456,,,,-0.411346018,-0.413408071,24143.000000000,1718101460.415455580
1718101460.416463,,,,-0.497603476,-0.496756643,24144.000000000,1718101460.416462660
1718101460.417470,,,,0.204981387,0.206645623,24145.000000000,1718101460.417469740
1718101460.418477,,,,0.828424811,0.828285992,24146.000000000,1718101460.418476820
1718101460.418613,343.517974854,5326.000000000,1718101460.418612719,,,,
1718101460.419484,,,,0.763202786,0.760203183,24147.000000000,1718101460.419483900
1718101460.420491,,,,0.549362183,0.550497472,24148.000000000,1718101460.420490980
1718101460.421498,,,,0.415889084,0.417000353,24149.000000000,1718101460.421498060
1718101460.422505,,,,0.378289670,0.379256725,24150.000000000,1718101460.422505140
1718101460.423512,,,,0.628695965,0.631249666,24151.000000000,1718101460.423512220
1718101460.423613,343.696777344,5327.000000000,1718101460.423612595,,,,
1718101460.424519,,,,0.847945690,0.848600209,24152.000000000,1718101460.424519300
1718101460.425526,,,,0.941174924,0.939978361,24153.000000000,1718101460.425526381
1718101460.426533,,,,0.771376550,0.770155966,24154.000000000,1718101460.426533461
1718101460.427541,,,,0.402666777,0.399546921,24155.000000000,1718101460.427540541
1718101460.428548,,,,0.275203824,0.274391860,24156.000000000,1718101460.428547621
1718101460.429555,,,,0.643240511,0.643558443,24157.000000000,1718101460.429554701
1718101460.430562,,,,0.969302356,0.971062779,24158.000000000,1718101460.430561781
1718101460.431569,,,,1.050727725,1.050877333,24159.000000000,1718101460.431568861
1718101460.432576,,,,0.380717754,0.377766192,24160.000000000,1718101460.432575941
1718101460.433583,,,,-0.313404828,-0.312365651,24161.000000000,1718101460.433583021
1718101460.434590,,,,-0.030183202,-0.030706665,24162.000000000,1718101460.434590101
1718101460.435597,,,,0.507579684,0.503906906,24163.000000000,1718101460.435597181
1718101460.436604,,,,0.940910518,0.940290868,24164.000000000,1718101460.436604261
1718101460.437611,,,,1.144846439,1.144659519,24165.000000000,1718101460.437611341
1718101460.438618,,,,1.102607131,1.104079127,24166.000000000,1718101460.438618422
1718101460.439626,,,,1.021806955,1.022317171,24167.000000000,1718101460.439625502
1718101460.440633,,,,0.946511924,0.946373105,24168.000000000,1718101460.440632582
1718101460.441640,,,,0.782988191,0.784027338,24169.000000000,1718101460.441639662
1718101460.442647,,,,0.140120000,0.138538763,24170.000000000,1718101460.442646742
1718101460.443613,344.444854736,5331.000000000,1718101460.443612576,,,,
1718101460.443654,,,,0.083648771,0.082163684,24171.000000000,1718101460.443653822
1718101460.444661,,,,0.658963025,0.659809828,24172.000000000,1718101460.444660902
1718101460.445668,,,,1.181171656,1.184927464,24173.000000000,1718101460.445667982
1718101460.446675,,,,1.426553488,1.426607013,24174.000000000,1718101460.446675062
1718101460.447682,,,,0.777915597,0.778594196,24175.000000000,1718101460.447682142
1718101460.448613,344.526214600,5332.000000000,1718101460.448612690,,,,
1718101460.448689,,,,0.475365371,0.475466967,24176.000000000,1718101460.448689222
1718101460.449696,,,,0.522556961,0.521769047,24177.000000000,1718101460.449696302
1718101460.450703,,,,0.286911547,0.286171734,24178.000000000,1718101460.450703382
1718101460.451710,,,,0.452334523,0.453349680,24179.000000000,1718101460.451710463
1718101460.452718,,,,0.559603453,0.558190465,24180.000000000,1718101460.452717543
1718101460.453613,344.770141602,5333.000000000,1718101460.453612566,,,,
1718101460.453725,,,,0.107977800,0.106949486,24181.000000000,1718101460.453724623
1718101460.454732,,,,0.035760008,0.036678977,24182.000000000,1718101460.454731703
1718101460.455739,,,,0.249456391,0.249485865,24183.000000000,1718101460.455738783
1718101460.456746,,,,0.544433832,0.544944108,24184.000000000,1718101460.456745863
1718101460.457753,,,,0.639321864,0.638630152,24185.000000000,1718101460.457752943
1718101460.458613,344.997924805,5334.000000000,1718101460.458612680,,,,
1718101460.458760,,,,0.659780383,0.659833908,24186.000000000,1718101460.458760023
1718101460.459767,,,,0.328718066,0.328603297,24187.000000000,1718101460.459767103
1718101460.460774,,,,0.284844071,0.284104258,24188.000000000,1718101460.460774183
1718101460.461781,,,,0.798205853,0.797369838,24189.000000000,1718101460.461781263
1718101460.462788,,,,1.090370536,1.088693142,24190.000000000,1718101460.462788343
1718101460.463613,345.290771484,5335.000000000,1718101460.463612556,,,,
1718101460.463795,,,,1.508050919,1.505700350,24191.000000000,1718101460.463795424
1718101460.464803,,,,1.348806381,1.347128987,24192.000000000,1718101460.464802504
1718101460.465810,,,,0.774694204,0.774363041,24193.000000000,1718101460.465809584
1718101460.466817,,,,-0.057469219,-0.058569655,24194.000000000,1718101460.466816664
1718101460.467824,,,,0.014291802,0.016364720,24195.000000000,1718101460.467823744
1718101460.468613,345.567382813,5336.000000000,1718101460.468612671,,,,
1718101460.468831,,,,0.854941487,0.855019033,24196.000000000,1718101460.468830824
1718101460.469838,,,,0.774141252,0.775156379,24197.000000000,1718101460.469837904
1718101460.470845,,,,0.338815093,0.341801554,24198.000000000,1718101460.470844984
1718101460.471852,,,,0.908239365,0.910216153,24199.000000000,1718101460.471852064
1718101460.472859,,,,1.309764504,1.308736205,24200.000000000,1718101460.472859144
1718101460.473613,345.990478516,5337.000000000,1718101460.473612547,,,,
1718101460.473866,,,,0.652303755,0.649328172,24201.000000000,1718101460.473866224
1718101460.474873,,,,-0.307731271,-0.309192300,24202.000000000,1718101460.474873304
1718101460.475880,,,,0.006021855,0.004440610,24203.000000000,1718101460.475880384
1718101460.476887,,,,0.671536207,0.669233739,24204.000000000,1718101460.476887465
1718101460.477895,,,,1.004738092,1.004046440,24205.000000000,1718101460.477894545
1718101460.478613,346.364837646,5338.000000000,1718101460.478612661,,,,
1718101460.478902,,,,0.773131549,0.772535980,24206.000000000,1718101460.478901625
1718101460.479909,,,,0.523999393,0.524846256,24207.000000000,1718101460.479908705
1718101460.480916,,,,0.545275271,0.546025932,24208.000000000,1718101460.480915785
1718101460.481923,,,,0.643408775,0.645986557,24209.000000000,1718101460.481922865
1718101460.482930,,,,0.823784947,0.823285520,24210.000000000,1718101460.482929945
1718101460.483613,346.869476318,5339.000000000,1718101460.483612537,,,,
1718101460.483937,,,,0.766135752,0.765179574,24211.000000000,1718101460.483937025
1718101460.484944,,,,0.370380312,0.368246138,24212.000000000,1718101460.484944105
1718101460.485951,,,,-0.046915419,-0.050251625,24213.000000000,1718101460.485951185
1718101460.486958,,,,0.145985901,0.146255776,24214.000000000,1718101460.486958265
1718101460.487965,,,,0.628744066,0.630288064,24215.000000000,1718101460.487965345
1718101460.488613,347.276550293,5340.000000000,1718101460.488612652,,,,
1718101460.488972,,,,0.786450028,0.788378656,24216.000000000,1718101460.488972425
1718101460.489980,,,,0.614704370,0.615815639,24217.000000000,1718101460.489979506
1718101460.490987,,,,0.398123115,0.399018049,24218.000000000,1718101460.490986586
1718101460.491994,,,,0.441516280,0.443829626,24219.000000000,1718101460.491993666
1718101460.493001,,,,0.700264633,0.701568246,24220.000000000,1718101460.493000746
1718101460.494008,,,,0.781714022,0.782031953,24221.000000000,1718101460.494007826
1718101460.495015,,,,0.307826817,0.307423562,24222.000000000,1718101460.495014906
1718101460.496022,,,,0.351821035,0.351850510,24223.000000000,1718101460.496021986
1718101460.497029,,,,0.251740247,0.253885269,24224.000000000,1718101460.497029066
1718101460.498036,,,,0.288426101,0.291652977,24225.000000000,1718101460.498036146
1718101460.499043,,,,0.270227432,0.271122366,24226.000000000,1718101460.499043226
1718101460.500050,,,,0.900017500,0.902811646,24227.000000000,1718101460.500050306
1718101460.501057,,,,1.408979893,1.410355568,24228.000000000,1718101460.501057386
1718101460.502064,,,,1.512762904,1.512551904,24229.000000000,1718101460.502064466
1718101460.503072,,,,1.258558154,1.259549260,24230.000000000,1718101460.503071547
1718101460.504079,,,,0.334415674,0.335671216,24231.000000000,1718101460.504078627
1718101460.505086,,,,-0.029918756,-0.028639177,24232.000000000,1718101460.505085707
1718101460.506093,,,,0.309677958,0.311510473,24233.000000000,1718101460.506092787
1718101460.507100,,,,0.482433289,0.482462764,24234.000000000,1718101460.507099867
1718101460.508107,,,,0.517340183,0.517850459,24235.000000000,1718101460.508106947
1718101460.509114,,,,0.766929090,0.767102778,24236.000000000,1718101460.509114027
1718101460.510121,,,,0.817558467,0.820400655,24237.000000000,1718101460.510121107
1718101460.511128,,,,0.566022277,0.570138633,24238.000000000,1718101460.511128187
1718101460.512135,,,,0.108867295,0.109545864,24239.000000000,1718101460.512135267
1718101460.513142,,,,0.206856549,0.207799569,24240.000000000,1718101460.513142347
1718101460.514149,,,,0.737431347,0.738855183,24241.000000000,1718101460.514149427
1718101460.515157,,,,1.014089942,1.016331077,24242.000000000,1718101460.515156507
1718101460.516164,,,,1.246105194,1.248154044,24243.000000000,1718101460.516163588
1718101460.517171,,,,1.293873787,1.294047475,24244.000000000,1718101460.517170668
1718101460.518178,,,,1.024763942,1.024793386,24245.000000000,1718101460.518177748
1718101460.519185,,,,0.357326299,0.360769540,24246.000000000,1718101460.519184828
1718101460.520192,,,,-0.043261256,-0.043520272,24247.000000000,1718101460.520191908
1718101460.521199,,,,0.337036103,0.339493662,24248.000000000,1718101460.521198988
1718101460.522206,,,,0.770895779,0.772920609,24249.000000000,1718101460.522206068
1718101460.523213,,,,0.784382522,0.783306122,24250.000000000,1718101460.523213148
1718101460.524220,,,,0.470845759,0.472173423,24251.000000000,1718101460.524220228
1718101460.525227,,,,0.405551642,0.405533016,24252.000000000,1718101460.525227308
1718101460.526234,,,,-0.239576325,-0.241277784,24253.000000000,1718101460.526234388
1718101460.527241,,,,-0.134879768,-0.133600190,24254.000000000,1718101460.527241468
1718101460.528249,,,,0.453752935,0.454936355,24255.000000000,1718101460.528248549
1718101460.529256,,,,0.933121324,0.936516523,24256.000000000,1718101460.529255629
1718101460.530263,,,,0.984255612,0.985895753,24257.000000000,1718101460.530262709
1718101460.531270,,,,0.762313306,0.762342751,24258.000000000,1718101460.531269789
1718101460.532277,,,,0.640163302,0.640505314,24259.000000000,1718101460.532276869
1718101460.533284,,,,0.402209997,0.403970391,24260.000000000,1718101460.533283949
1718101460.534291,,,,0.743128955,0.744576812,24261.000000000,1718101460.534291029
1718101460.535298,,,,0.937112093,0.937886834,24262.000000000,1718101460.535298109
1718101460.536305,,,,1.107150793,1.106915832,24263.000000000,1718101460.536305189
1718101460.537312,,,,0.432837665,0.432025701,24264.000000000,1718101460.537312269
1718101460.538319,,,,-0.741951585,-0.740744114,24265.000000000,1718101460.538319349
1718101460.539326,,,,-0.104059793,-0.101770505,24266.000000000,1718101460.539326429
1718101460.540334,,,,0.982524693,0.986568928,24267.000000000,1718101460.540333509
1718101460.541341,,,,1.328684449,1.331526637,24268.000000000,1718101460.541340590
1718101460.542348,,,,0.941295147,0.941757321,24269.000000000,1718101460.542347670
1718101460.543355,,,,0.719328821,0.720704556,24270.000000000,1718101460.543354750
1718101460.544362,,,,0.769453347,0.769266427,24271.000000000,1718101460.544361830
1718101460.545369,,,,1.105419874,1.105401278,24272.000000000,1718101460.545368910
1718101460.546376,,,,1.110131860,1.111147046,24273.000000000,1718101460.546375990
1718101460.547383,,,,0.725627422,0.726354063,24274.000000000,1718101460.547383070
1718101460.547505,349.329193115,5351.000000000,1718101460.547504663,,,,
1718101460.548390,,,,0.682402551,0.680604935,24275.000000000,1718101460.548390150
1718101460.549397,,,,0.728728652,0.729359150,24276.000000000,1718101460.549397230
1718101460.550404,,,,0.457094550,0.456931710,24277.000000000,1718101460.550404310
1718101460.551411,,,,0.311889678,0.311246008,24278.000000000,1718101460.551411390
1718101460.552418,,,,0.795369029,0.796191871,24279.000000000,1718101460.552418470
1718101460.552505,349.508514404,5352.000000000,1718101460.552504778,,,,
1718101460.553426,,,,0.498396218,0.497704476,24280.000000000,1718101460.553425550
1718101460.554433,,,,0.272895932,0.273093671,24281.000000000,1718101460.554432631
1718101460.555440,,,,0.553016305,0.554800749,24282.000000000,1718101460.555439711
1718101460.556447,,,,0.526018798,0.524990499,24283.000000000,1718101460.556446791
1718101460.557454,,,,0.244335756,0.243788257,24284.000000000,1718101460.557453871
1718101460.557505,349.883422852,5353.000000000,1718101460.557504654,,,,
1718101460.558461,,,,0.417018980,0.421592116,24285.000000000,1718101460.558460951
1718101460.559468,,,,0.678339660,0.681566536,24286.000000000,1718101460.559468031
1718101460.560475,,,,0.577273250,0.577086329,24287.000000000,1718101460.560475111
1718101460.561482,,,,0.294219881,0.294057041,24288.000000000,1718101460.561482191
1718101460.562489,,,,0.427572787,0.429597616,24289.000000000,1718101460.562489271
