__time,/gdx/grip_force_stream/grip_force,/gdx/grip_force_stream/header/seq,/gdx/grip_force_stream/header/stamp,/shimmer0/emg_stream/emg_ch1,/shimmer0/emg_stream/emg_ch2,/shimmer0/emg_stream/header/seq,/shimmer0/emg_stream/header/stamp
1718090438.847224,,,,20.193414688,20.199953079,234558.000000000,1718090438.847224474
1718090438.848232,,,,20.198007584,20.202886581,234559.000000000,1718090438.848231554
1718090438.849239,,,,20.195554733,20.200386047,234560.000000000,1718090438.849238634
1718090438.850246,,,,20.194906235,20.200939178,234561.000000000,1718090438.850245714
1718090438.851253,,,,20.195915222,20.202165604,234562.000000000,1718090438.851252794
1718090438.852260,,,,20.194545746,20.202428818,234563.000000000,1718090438.852259874
1718090438.853235,1.870051026,47292.000000000,1718090438.853234768,,,,
1718090438.853267,,,,20.196949005,20.202669144,234564.000000000,1718090438.853266954
1718090438.854274,,,,20.196275711,20.203079224,234565.000000000,1718090438.854274035
1718090438.855281,,,,20.197214127,20.204545975,234566.000000000,1718090438.855281115
1718090438.856288,,,,20.198247910,20.205217361,234567.000000000,1718090438.856288195
1718090438.857295,,,,20.216566086,20.224811554,234568.000000000,1718090438.857295275
1718090438.858235,1.923039436,47293.000000000,1718090438.858234644,,,,
1718090438.858302,,,,20.239957809,20.247602463,234569.000000000,1718090438.858302355
1718090438.859309,,,,20.256666183,20.263492584,234570.000000000,1718090438.859309435
1718090438.860317,,,,20.270008087,20.279047012,234571.000000000,1718090438.860316515
1718090438.861324,,,,20.276042938,20.282075882,234572.000000000,1718090438.861323595
1718090438.862331,,,,20.283952713,20.290729523,234573.000000000,1718090438.862330675
1718090438.863235,1.834724665,47294.000000000,1718090438.863234758,,,,
1718090438.863338,,,,20.286380768,20.293182373,234574.000000000,1718090438.863337755
1718090438.864345,,,,20.276716232,20.285417557,234575.000000000,1718090438.864344835
1718090438.865352,,,,20.269287109,20.276954651,234576.000000000,1718090438.865351915
1718090438.866359,,,,20.266714096,20.273685455,234577.000000000,1718090438.866358995
1718090438.867366,,,,20.247362137,20.255270004,234578.000000000,1718090438.867366076
1718090438.868235,1.870051026,47295.000000000,1718090438.868234634,,,,
1718090438.868373,,,,20.222192764,20.229883194,234579.000000000,1718090438.868373156
1718090438.869380,,,,20.185529709,20.192836761,234580.000000000,1718090438.869380236
1718090438.870387,,,,20.157354355,20.164901733,234581.000000000,1718090438.870387316
1718090438.871394,,,,20.145839691,20.152906418,234582.000000000,1718090438.871394396
1718090438.872401,,,,20.145839691,20.152256012,234583.000000000,1718090438.872401476
1718090438.873235,1.799389720,47296.000000000,1718090438.873234749,,,,
1718090438.873409,,,,20.154493332,20.161705017,234584.000000000,1718090438.873408556
1718090438.874416,,,,20.161369324,20.170768738,234585.000000000,1718090438.874415636
1718090438.875423,,,,20.168100357,20.177522659,234586.000000000,1718090438.875422716
1718090438.876430,,,,20.171562195,20.180503845,234587.000000000,1718090438.876429796
1718090438.877437,,,,20.174638748,20.183269501,234588.000000000,1718090438.877436876
1718090438.878235,1.799389720,47297.000000000,1718090438.878234625,,,,
1718090438.878444,,,,20.178030014,20.186923981,234589.000000000,1718090438.878443956
1718090438.879451,,,,20.178726196,20.187765121,234590.000000000,1718090438.879451036
1718090438.880458,,,,20.178533554,20.187452316,234591.000000000,1718090438.880458117
1718090438.881465,,,,20.177524567,20.185672760,234592.000000000,1718090438.881465197
1718090438.882472,,,,20.176898956,20.184808731,234593.000000000,1718090438.882472277
1718090438.883235,1.834724665,47298.000000000,1718090438.883234739,,,,
1718090438.883479,,,,20.175914764,20.183509827,234594.000000000,1718090438.883479357
1718090438.884486,,,,20.177524567,20.187812805,234595.000000000,1718090438.884486437
1718090438.885494,,,,20.188798904,20.197380066,234596.000000000,1718090438.885493517
1718090438.886501,,,,20.216806412,20.223560333,234597.000000000,1718090438.886500597
1718090438.887508,,,,20.247169495,20.254045486,234598.000000000,1718090438.887507677
1718090438.888235,1.817053199,47299.000000000,1718090438.888234615,,,,
1718090438.888515,,,,20.288448334,20.295515060,234599.000000000,1718090438.888514757
1718090438.889522,,,,20.343933105,20.350759506,234600.000000000,1718090438.889521837
1718090438.890529,,,,20.368261337,20.374486923,234601.000000000,1718090438.890528917
1718090438.891536,,,,20.376676559,20.387830734,234602.000000000,1718090438.891535997
1718090438.891896,2.011358738,47301.000000000,1718090438.891896009,,,,
1718090438.892543,,,,20.401510239,20.410259247,234603.000000000,1718090438.892543077
1718090438.893235,1.887714028,47300.000000000,1718090438.893234730,,,,
1718090438.893550,,,,20.407424927,20.417423248,234604.000000000,1718090438.893550158
1718090438.894557,,,,20.411367416,20.420236588,234605.000000000,1718090438.894557238
1718090438.895564,,,,20.457357407,20.469568253,234606.000000000,1718090438.895564318
1718090438.896571,,,,20.482887268,20.492309570,234607.000000000,1718090438.896571398
1718090438.896896,2.134996414,47302.000000000,1718090438.896896124,,,,
1718090438.897578,,,,20.442186356,20.446874619,234608.000000000,1718090438.897578478
1718090438.898586,,,,20.361820221,20.368309021,234609.000000000,1718090438.898585558
1718090438.899593,,,,20.283782959,20.291019440,234610.000000000,1718090438.899592638
1718090438.900600,,,,20.256378174,20.265102386,234611.000000000,1718090438.900599718
1718090438.901607,,,,20.228250504,20.232936859,234612.000000000,1718090438.901606798
1718090438.901896,2.452884912,47303.000000000,1718090438.901896000,,,,
1718090438.902614,,,,20.176250458,20.182981491,234613.000000000,1718090438.902613878
1718090438.903621,,,,20.134347916,20.142015457,234614.000000000,1718090438.903620958
1718090438.904628,,,,20.088743210,20.095857620,234615.000000000,1718090438.904628038
1718090438.905635,,,,20.064990997,20.072057724,234616.000000000,1718090438.905635118
1718090438.906642,,,,20.081867218,20.089031219,234617.000000000,1718090438.906642199
1718090438.906896,2.859011650,47304.000000000,1718090438.906896114,,,,
1718090438.907649,,,,20.096773148,20.103742599,234618.000000000,1718090438.907649279
1718090438.908656,,,,20.112808228,20.120668411,234619.000000000,1718090438.908656359
1718090438.909663,,,,20.127832413,20.135116577,234620.000000000,1718090438.909663439
1718090438.910671,,,,20.145189285,20.152761459,234621.000000000,1718090438.910670519
1718090438.911678,,,,20.168991089,20.177955627,234622.000000000,1718090438.911677599
1718090438.911896,3.388628960,47305.000000000,1718090438.911895990,,,,
1718090438.912685,,,,20.203729630,20.211612701,234623.000000000,1718090438.912684679
1718090438.913692,,,,20.216470718,20.225099564,234624.000000000,1718090438.913691759
1718090438.914699,,,,20.221349716,20.230243683,234625.000000000,1718090438.914698839
1718090438.915706,,,,20.247434616,20.253995895,234626.000000000,1718090438.915705919
1718090438.916713,,,,20.250223160,20.254549026,234627.000000000,1718090438.916712999
1718090438.916896,4.200456619,47306.000000000,1718090438.916896105,,,,
1718090438.917720,,,,20.217214584,20.223297119,234628.000000000,1718090438.917720079
1718090438.918727,,,,20.196781158,20.202260971,234629.000000000,1718090438.918727160
1718090438.919734,,,,20.207719803,20.214689255,234630.000000000,1718090438.919734240
1718090438.920741,,,,20.219572067,20.226831436,234631.000000000,1718090438.920741320
1718090438.921748,,,,20.270320892,20.279167175,234632.000000000,1718090438.921748400
1718090438.921896,5.347081661,47307.000000000,1718090438.921895981,,,,
1718090438.922755,,,,20.347610474,20.359485626,234633.000000000,1718090438.922755480
1718090438.923763,,,,20.401870728,20.410837173,234634.000000000,1718090438.923762560
1718090438.924770,,,,20.453557968,20.459518433,234635.000000000,1718090438.924769640
1718090438.925777,,,,20.473440170,20.479352951,234636.000000000,1718090438.925776720
1718090438.926784,,,,20.495147705,20.501253128,234637.000000000,1718090438.926783800
1718090438.926896,6.951341629,47308.000000000,1718090438.926896095,,,,
1718090438.927791,,,,20.593666077,20.600997925,234638.000000000,1718090438.927790880
1718090438.928798,,,,20.707113266,20.714637756,234639.000000000,1718090438.928797960
1718090438.929805,,,,20.808828354,20.817674637,234640.000000000,1718090438.929805040
1718090438.930812,,,,20.824239731,20.831018448,234641.000000000,1718090438.930812120
1718090438.931819,,,,20.799453735,20.805942535,234642.000000000,1718090438.931819201
1718090438.932826,,,,20.824768066,20.832267761,234643.000000000,1718090438.932826281
1718090438.933833,,,,20.843832016,20.852437973,234644.000000000,1718090438.933833361
1718090438.934840,,,,20.836933136,20.847965240,234645.000000000,1718090438.934840441
1718090438.935848,,,,20.837148666,20.846235275,234646.000000000,1718090438.935847521
1718090438.936855,,,,20.855756760,20.862174988,234647.000000000,1718090438.936854601
1718090438.937862,,,,20.842845917,20.852413177,234648.000000000,1718090438.937861681
1718090438.938869,,,,20.767286301,20.776853561,234649.000000000,1718090438.938868761
1718090438.939876,,,,20.583929062,20.592607498,234650.000000000,1718090438.939875841
1718090438.940883,,,,20.363910675,20.373790741,234651.000000000,1718090438.940882921
1718090438.941890,,,,20.257482529,20.266328812,234652.000000000,1718090438.941890001
1718090438.941896,15.235603333,47311.000000000,1718090438.941895962,,,,
1718090438.942897,,,,20.299097061,20.307077408,234653.000000000,1718090438.942897081
1718090438.943904,,,,20.276163101,20.282701492,234654.000000000,1718090438.943904161
1718090438.944911,,,,20.216926575,20.226301193,234655.000000000,1718090438.944911242
1718090438.945918,,,,20.182165146,20.192789078,234656.000000000,1718090438.945918322
1718090438.946896,19.637248993,47312.000000000,1718090438.946896076,,,,
1718090438.946925,,,,20.225317001,20.234355927,234657.000000000,1718090438.946925402
1718090438.947932,,,,20.266233444,20.275056839,234658.000000000,1718090438.947932482
1718090438.948940,,,,20.219211578,20.227647781,234659.000000000,1718090438.948939562
1718090438.949947,,,,20.210243225,20.216516495,234660.000000000,1718090438.949946642
1718090438.950954,,,,20.231832504,20.238250732,234661.000000000,1718090438.950953722
1718090438.951896,24.833755493,47313.000000000,1718090438.951895952,,,,
1718090438.951961,,,,20.236688614,20.243827820,234662.000000000,1718090438.951960802
1718090438.952968,,,,20.194353104,20.200866699,234663.000000000,1718090438.952967882
1718090438.953975,,,,20.153747559,20.160936356,234664.000000000,1718090438.953974962
1718090438.954982,,,,20.098455429,20.107637405,234665.000000000,1718090438.954982042
1718090438.955989,,,,20.082012177,20.092035294,234666.000000000,1718090438.955989122
1718090438.956896,30.975986481,47314.000000000,1718090438.956896067,,,,
1718090438.956996,,,,20.193824768,20.200626373,234667.000000000,1718090438.956996202
1718090438.958003,,,,20.337322235,20.343379974,234668.000000000,1718090438.958003283
1718090438.959010,,,,20.408529282,20.415908813,234669.000000000,1718090438.959010363
1718090438.960017,,,,20.454351425,20.461370468,234670.000000000,1718090438.960017443
1718090438.961025,,,,20.492816925,20.498031616,234671.000000000,1718090438.961024523
1718090438.961896,37.742885590,47315.000000000,1718090438.961895943,,,,
1718090438.962032,,,,20.561332703,20.567941666,234672.000000000,1718090438.962031603
1718090438.963039,,,,20.568544388,20.572654724,234673.000000000,1718090438.963038683
1718090438.964046,,,,20.562582016,20.568374634,234674.000000000,1718090438.964045763
1718090438.965053,,,,20.583808899,20.590732574,234675.000000000,1718090438.965052843
1718090438.966060,,,,20.598209381,20.605878830,234676.000000000,1718090438.966059923
1718090438.966896,45.301254272,47316.000000000,1718090438.966896057,,,,
1718090438.967067,,,,20.596359253,20.602727890,234677.000000000,1718090438.967067003
1718090438.968074,,,,20.606407166,20.617488861,234678.000000000,1718090438.968074083
1718090438.969081,,,,20.605638504,20.616767883,234679.000000000,1718090438.969081163
1718090438.970088,,,,20.518924713,20.527313232,234680.000000000,1718090438.970088243
1718090438.971095,,,,20.359848022,20.368621826,234681.000000000,1718090438.971095324
1718090438.971896,53.383716583,47317.000000000,1718090438.971895933,,,,
1718090438.972102,,,,20.220726013,20.227262497,234682.000000000,1718090438.972102404
1718090438.973109,,,,20.047994614,20.055469513,234683.000000000,1718090438.973109484
1718090438.974117,,,,19.988325119,19.997196198,234684.000000000,1718090438.974116564
1718090438.975124,,,,19.973371506,19.982746124,234685.000000000,1718090438.975123644
1718090438.976131,,,,19.988132477,19.994094849,234686.000000000,1718090438.976130724
1718090438.976896,61.898097992,47318.000000000,1718090438.976896048,,,,
1718090438.977138,,,,20.116630554,20.123311996,234687.000000000,1718090438.977137804
1718090438.978145,,,,20.263662338,20.271522522,234688.000000000,1718090438.978144884
1718090438.979152,,,,20.395355225,20.405282974,234689.000000000,1718090438.979151964
1718090438.980159,,,,20.486373901,20.494617462,234690.000000000,1718090438.980159044
1718090438.981166,,,,20.524621964,20.534765244,234691.000000000,1718090438.981166124
1718090438.981896,70.685073853,47319.000000000,1718090438.981895924,,,,
1718090438.982173,,,,20.568712234,20.579481125,234692.000000000,1718090438.982173204
1718090438.983180,,,,20.547700882,20.555440903,234693.000000000,1718090438.983180285
1718090438.984187,,,,20.387109756,20.393672943,234694.000000000,1718090438.984187365
1718090438.985194,,,,20.276018143,20.284769058,234695.000000000,1718090438.985194445
1718090438.986202,,,,20.245679855,20.252386093,234696.000000000,1718090438.986201525
1718090438.986896,79.570922852,47320.000000000,1718090438.986896038,,,,
1718090438.987209,,,,20.239957809,20.248947144,234697.000000000,1718090438.987208605
1718090438.988216,,,,20.275129318,20.284599304,234698.000000000,1718090438.988215685
1718090438.989223,,,,20.355592728,20.364992142,234699.000000000,1718090438.989222765
1718090438.990230,,,,20.396799088,20.406486511,234700.000000000,1718090438.990229845
1718090438.991237,,,,20.409683228,20.416919708,234701.000000000,1718090438.991236925
1718090438.992244,,,,20.434518814,20.442186356,234702.000000000,1718090438.992244005
1718090438.993251,,,,20.276979446,20.285490036,234703.000000000,1718090438.993251085
1718090438.994258,,,,20.127136230,20.135116577,234704.000000000,1718090438.994258165
1718090438.995265,,,,20.180818558,20.189302444,234705.000000000,1718090438.995265245
1718090438.996272,,,,20.329940796,20.339220047,234706.000000000,1718090438.996272326
1718090438.997279,,,,20.387182236,20.393360138,234707.000000000,1718090438.997279406
1718090438.998286,,,,20.319051743,20.323953629,234708.000000000,1718090438.998286486
1718090438.999294,,,,20.333042145,20.338979721,234709.000000000,1718090438.999293566
1718090439.000301,,,,20.394250870,20.400403976,234710.000000000,1718090439.000300646
1718090439.001308,,,,20.435190201,20.442594528,234711.000000000,1718090439.001307726
1718090439.002315,,,,20.470746994,20.478847504,234712.000000000,1718090439.002314806
1718090439.003322,,,,20.500894547,20.509475708,234713.000000000,1718090439.003321886
1718090439.004329,,,,20.508178711,20.515508652,234714.000000000,1718090439.004328966
1718090439.005336,,,,20.589458466,20.597728729,234715.000000000,1718090439.005336046
1718090439.006343,,,,20.669466019,20.677494049,234716.000000000,1718090439.006343126
1718090439.007350,,,,20.702209473,20.713556290,234717.000000000,1718090439.007350206
1718090439.008357,,,,20.640834808,20.649078369,234718.000000000,1718090439.008357286
1718090439.009364,,,,20.501615524,20.507743835,234719.000000000,1718090439.009364367
1718090439.010371,,,,20.349006653,20.356769562,234720.000000000,1718090439.010371447
1718090439.011379,,,,20.236230850,20.243970871,234721.000000000,1718090439.011378527
1718090439.012386,,,,20.121076584,20.129177094,234722.000000000,1718090439.012385607
1718090439.013393,,,,20.001018524,20.009840012,234723.000000000,1718090439.013392687
1718090439.014400,,,,19.976352692,19.985992432,234724.000000000,1718090439.014399767
1718090439.015407,,,,20.084247589,20.093574524,234725.000000000,1718090439.015406847
1718090439.016414,,,,20.161033630,20.169301987,234726.000000000,1718090439.016413927
1718090439.017421,,,,20.288398743,20.297292709,234727.000000000,1718090439.017421007
1718090439.018428,,,,20.256258011,20.264598846,234728.000000000,1718090439.018428087
1718090439.019435,,,,20.199449539,20.207044601,234729.000000000,1718090439.019435167
1718090439.020442,,,,20.156225204,20.165119171,234730.000000000,1718090439.020442247
1718090439.021449,,,,20.141416550,20.148170471,234731.000000000,1718090439.021449327
1718090439.022456,,,,20.124275208,20.129875183,234732.000000000,1718090439.022456408
1718090439.023463,,,,20.082733154,20.087635040,234733.000000000,1718090439.023463488
1718090439.024471,,,,20.105691910,20.112518311,234734.000000000,1718090439.024470568
1718090439.025478,,,,20.144035339,20.153387070,234735.000000000,1718090439.025477648
1718090439.026485,,,,20.182285309,20.188966751,234736.000000000,1718090439.026484728
1718090439.027492,,,,20.207359314,20.214931488,234737.000000000,1718090439.027491808
1718090439.028499,,,,20.232240677,20.239620209,234738.000000000,1718090439.028498888
1718090439.029506,,,,20.309074402,20.316934586,234739.000000000,1718090439.029505968
1718090439.030513,,,,20.459520340,20.465818405,234740.000000000,1718090439.030513048
1718090439.031520,,,,20.549407959,20.556787491,234741.000000000,1718090439.031520128
1718090439.032527,,,,20.601238251,20.607994080,234742.000000000,1718090439.032527208
1718090439.033534,,,,20.654224396,20.660522461,234743.000000000,1718090439.033534288
1718090439.034541,,,,20.670837402,20.677373886,234744.000000000,1718090439.034541368
1718090439.035548,,,,20.744810104,20.750963211,234745.000000000,1718090439.035548449
1718090439.036556,,,,20.744497299,20.753005981,234746.000000000,1718090439.036555529
1718090439.037563,,,,20.579193115,20.588352203,234747.000000000,1718090439.037562609
1718090439.038570,,,,20.371700287,20.380762100,234748.000000000,1718090439.038569689
1718090439.039577,,,,20.171682358,20.180576324,234749.000000000,1718090439.039576769
1718090439.040584,,,,19.999143600,20.007724762,234750.000000000,1718090439.040583849
1718090439.041591,,,,19.917358398,19.924377441,234751.000000000,1718090439.041590929
1718090439.042598,,,,19.985368729,19.994935989,234752.000000000,1718090439.042598009
1718090439.043605,,,,20.057802200,20.065374374,234753.000000000,1718090439.043605089
1718090439.044612,,,,20.113409042,20.121652603,234754.000000000,1718090439.044612169
1718090439.045619,,,,20.174688339,20.182523727,234755.000000000,1718090439.045619249
1718090439.046626,,,,20.236230850,20.245630264,234756.000000000,1718090439.046626329
1718090439.046829,165.984283447,47331.000000000,1718090439.046828508,,,,
1718090439.047633,,,,20.227119446,20.237216949,234757.000000000,1718090439.047633410
1718090439.048640,,,,20.167284012,20.176946640,234758.000000000,1718090439.048640490
1718090439.049648,,,,20.119659424,20.126485825,234759.000000000,1718090439.049647570
1718090439.050655,,,,20.140790939,20.146968842,234760.000000000,1718090439.050654650
1718090439.051662,,,,20.209041595,20.216756821,234761.000000000,1718090439.051661730
1718090439.051829,172.021484375,47332.000000000,1718090439.051828623,,,,
1718090439.052669,,,,20.191539764,20.197357178,234762.000000000,1718090439.052668810
1718090439.053676,,,,20.167284012,20.175697327,234763.000000000,1718090439.053675890
1718090439.054683,,,,20.311527252,20.320804596,234764.000000000,1718090439.054682970
1718090439.055690,,,,20.537460327,20.545896530,234765.000000000,1718090439.055690050
1718090439.056697,,,,20.625568390,20.632587433,234766.000000000,1718090439.056697130
1718090439.056828,177.621475220,47333.000000000,1718090439.056828499,,,,
1718090439.057704,,,,20.575708389,20.583208084,234767.000000000,1718090439.057704210
1718090439.058711,,,,20.646171570,20.653501511,234768.000000000,1718090439.058711290
1718090439.059718,,,,20.716321945,20.723556519,234769.000000000,1718090439.059718370
1718090439.060725,,,,20.785509109,20.794475555,234770.000000000,1718090439.060725451
1718090439.061733,,,,20.848545074,20.855779648,234771.000000000,1718090439.061732531
1718090439.061829,182.966415405,47334.000000000,1718090439.061828613,,,,
1718090439.062740,,,,20.820825577,20.830247879,234772.000000000,1718090439.062739611
1718090439.063747,,,,20.809453964,20.821063995,234773.000000000,1718090439.063746691
1718090439.064754,,,,20.709108353,20.720575333,234774.000000000,1718090439.064753771
1718090439.065761,,,,20.571020126,20.578039169,234775.000000000,1718090439.065760851
1718090439.066768,,,,20.401342392,20.407663345,234776.000000000,1718090439.066767931
1718090439.066828,187.944259644,47335.000000000,1718090439.066828489,,,,
1718090439.067775,,,,20.182308197,20.188293457,234777.000000000,1718090439.067775011
1718090439.068782,,,,19.984046936,19.993156433,234778.000000000,1718090439.068782091
1718090439.069789,,,,19.764003754,19.773258209,234779.000000000,1718090439.069789171
1718090439.070796,,,,19.604206085,19.612932205,234780.000000000,1718090439.070796251
1718090439.071803,,,,19.684164047,19.690822601,234781.000000000,1718090439.071803331
1718090439.071829,192.573364258,47336.000000000,1718090439.071828604,,,,
1718090439.072810,,,,19.874877930,19.882883072,234782.000000000,1718090439.072810411
1718090439.073817,,,,20.008087158,20.015201569,234783.000000000,1718090439.073817492
1718090439.074825,,,,20.042825699,20.049917221,234784.000000000,1718090439.074824572
1718090439.075832,,,,19.976377487,19.983491898,234785.000000000,1718090439.075831652
1718090439.076828,196.969009399,47337.000000000,1718090439.076828480,,,,
1718090439.076839,,,,19.950029373,19.956447601,234786.000000000,1718090439.076838732
1718090439.077846,,,,20.072515488,20.080303192,234787.000000000,1718090439.077845812
1718090439.078853,,,,20.279071808,20.289793015,234788.000000000,1718090439.078852892
1718090439.079860,,,,20.379344940,20.386819839,234789.000000000,1718090439.079859972
1718090439.080867,,,,20.418506622,20.426319122,234790.000000000,1718090439.080867052
1718090439.081829,200.921829224,47338.000000000,1718090439.081828594,,,,
1718090439.081874,,,,20.477069855,20.485074997,234791.000000000,1718090439.081874132
1718090439.082881,,,,20.548061371,20.556161880,234792.000000000,1718090439.082881212
1718090439.083888,,,,20.543685913,20.551065445,234793.000000000,1718090439.083888292
1718090439.084895,,,,20.501327515,20.506807327,234794.000000000,1718090439.084895372
1718090439.085902,,,,20.497503281,20.502985001,234795.000000000,1718090439.085902452
1718090439.086828,204.660049438,47339.000000000,1718090439.086828470,,,,
1718090439.086910,,,,20.458847046,20.466899872,234796.000000000,1718090439.086909533
1718090439.087917,,,,20.359272003,20.367275238,234797.000000000,1718090439.087916613
1718090439.088924,,,,20.359680176,20.364919662,234798.000000000,1718090439.088923693
1718090439.089931,,,,20.383960724,20.389537811,234799.000000000,1718090439.089930773
1718090439.090938,,,,20.369415283,20.376098633,234800.000000000,1718090439.090937853
1718090439.091829,208.039016724,47340.000000000,1718090439.091828585,,,,
1718090439.091945,,,,20.205411911,20.214931488,234801.000000000,1718090439.091944933
1718090439.092952,,,,20.006284714,20.013832092,234802.000000000,1718090439.092952013
1718090439.093959,,,,20.006885529,20.013542175,234803.000000000,1718090439.093959093
1718090439.094966,,,,20.092540741,20.099945068,234804.000000000,1718090439.094966173
1718090439.095973,,,,20.131534576,20.138841629,234805.000000000,1718090439.095973253
1718090439.096980,,,,20.075304031,20.084005356,234806.000000000,1718090439.096980333
1718090439.097987,,,,20.177331924,20.184951782,234807.000000000,1718090439.097987413
1718090439.098994,,,,20.459159851,20.466081619,234808.000000000,1718090439.098994493
1718090439.100002,,,,20.671726227,20.681629181,234809.000000000,1718090439.100001574
1718090439.101009,,,,20.687520981,20.695501328,234810.000000000,1718090439.101008654
1718090439.102016,,,,20.622852325,20.630592346,234811.000000000,1718090439.102015734
1718090439.103023,,,,20.637853622,20.647972107,234812.000000000,1718090439.103022814
1718090439.104030,,,,20.660594940,20.668888092,234813.000000000,1718090439.104029894
1718090439.105037,,,,20.549743652,20.556306839,234814.000000000,1718090439.105036974
1718090439.106044,,,,20.345182419,20.350423813,234815.000000000,1718090439.106044054
1718090439.107051,,,,20.188896179,20.193990707,234816.000000000,1718090439.107051134
1718090439.108058,,,,20.098047256,20.106363297,234817.000000000,1718090439.108058214
1718090439.109065,,,,20.064533234,20.070255280,234818.000000000,1718090439.109065294
1718090439.110072,,,,20.131486893,20.140405655,234819.000000000,1718090439.110072374
1718090439.111079,,,,20.099271774,20.107156754,234820.000000000,1718090439.111079454
1718090439.112087,,,,20.086217880,20.093236923,234821.000000000,1718090439.112086535
1718090439.113094,,,,20.150382996,20.158075333,234822.000000000,1718090439.113093615
1718090439.114101,,,,20.183341980,20.191635132,234823.000000000,1718090439.114100695
1718090439.115108,,,,20.147787094,20.156536102,234824.000000000,1718090439.115107775
1718090439.116115,,,,20.173076630,20.180168152,234825.000000000,1718090439.116114855
1718090439.117122,,,,20.299747467,20.307247162,234826.000000000,1718090439.117121935
1718090439.118129,,,,20.364896774,20.373838425,234827.000000000,1718090439.118129015
1718090439.119136,,,,20.310876846,20.319049835,234828.000000000,1718090439.119136095
1718090439.120143,,,,20.281307220,20.288158417,234829.000000000,1718090439.120143175
1718090439.121150,,,,20.327730179,20.338331223,234830.000000000,1718090439.121150255
1718090439.122157,,,,20.351337433,20.360952377,234831.000000000,1718090439.122157335
1718090439.123164,,,,20.313354492,20.320251465,234832.000000000,1718090439.123164415
1718090439.124171,,,,20.270513535,20.278133392,234833.000000000,1718090439.124171495
1718090439.125179,,,,20.233779907,20.241207123,234834.000000000,1718090439.125178576
1718090439.126186,,,,20.231735229,20.236927032,234835.000000000,1718090439.126185656
1718090439.127193,,,,20.230653763,20.238321304,234836.000000000,1718090439.127192736
1718090439.128200,,,,20.178365707,20.188438416,234837.000000000,1718090439.128199816
1718090439.129207,,,,20.086868286,20.096122742,234838.000000000,1718090439.129206896
1718090439.130214,,,,20.067852020,20.077201843,234839.000000000,1718090439.130213976
1718090439.131221,,,,20.113311768,20.120450974,234840.000000000,1718090439.131221056
1718090439.132228,,,,20.119562149,20.125427246,234841.000000000,1718090439.132228136
1718090439.133235,,,,20.055999756,20.064292908,234842.000000000,1718090439.133235216
1718090439.134242,,,,20.101196289,20.110065460,234843.000000000,1718090439.134242296
1718090439.135249,,,,20.134948730,20.142808914,234844.000000000,1718090439.135249376
1718090439.136256,,,,20.205579758,20.214258194,234845.000000000,1718090439.136256456
1718090439.137264,,,,20.331167221,20.340734482,234846.000000000,1718090439.137263536
1718090439.138271,,,,20.490411758,20.497238159,234847.000000000,1718090439.138270617
1718090439.139278,,,,20.538829803,20.547027588,234848.000000000,1718090439.139277697
1718090439.140285,,,,20.533733368,20.542411804,234849.000000000,1718090439.140284777
1718090439.141292,,,,20.674394608,20.682590485,234850.000000000,1718090439.141291857
1718090439.142299,,,,20.681991577,20.690645218,234851.000000000,1718090439.142298937
1718090439.143306,,,,20.570634842,20.581886292,234852.000000000,1718090439.143306017
1718090439.144313,,,,20.375978470,20.382684708,234853.000000000,1718090439.144313097
1718090439.145320,,,,20.266593933,20.273540497,234854.000000000,1718090439.145320177
1718090439.146327,,,,20.293352127,20.300851822,234855.000000000,1718090439.146327257
1718090439.147334,,,,20.349029541,20.356817245,234856.000000000,1718090439.147334337
1718090439.148341,,,,20.312320709,20.323232651,234857.000000000,1718090439.148341417
1718090439.149348,,,,20.088550568,20.097324371,234858.000000000,1718090439.149348497
1718090439.150356,,,,19.942287445,19.949451447,234859.000000000,1718090439.150355577
1718090439.151288,232.823104858,47351.000000000,1718090439.151287556,,,,
1718090439.151363,,,,20.044940948,20.048280716,234860.000000000,1718090439.151362658
1718090439.152370,,,,20.115283966,20.119176865,234861.000000000,1718090439.152369738
1718090439.153377,,,,20.186780930,20.193197250,234862.000000000,1718090439.153376818
1718090439.154384,,,,20.287918091,20.295730591,234863.000000000,1718090439.154383898
1718090439.155391,,,,20.269744873,20.277315140,234864.000000000,1718090439.155390978
1718090439.156288,234.414352417,47352.000000000,1718090439.156287670,,,,
1718090439.156398,,,,20.330230713,20.338211060,234865.000000000,1718090439.156398058
1718090439.157405,,,,20.537340164,20.548973083,234866.000000000,1718090439.157405138
1718090439.158412,,,,20.747526169,20.757165909,234867.000000000,1718090439.158412218
1718090439.159419,,,,20.874412537,20.884099960,234868.000000000,1718090439.159419298
1718090439.160426,,,,20.888355255,20.896768570,234869.000000000,1718090439.160426378
1718090439.161288,235.924850464,47353.000000000,1718090439.161287546,,,,
1718090439.161433,,,,20.774812698,20.778873444,234870.000000000,1718090439.161433458
1718090439.162441,,,,20.554889679,20.561426163,234871.000000000,1718090439.162440538
1718090439.163448,,,,20.235534668,20.240942001,234872.000000000,1718090439.163447618
1718090439.164455,,,,19.934307098,19.940628052,234873.000000000,1718090439.164454699
1718090439.165462,,,,19.874589920,19.882232666,234874.000000000,1718090439.165461779
1718090439.166288,237.338592529,47354.000000000,1718090439.166287661,,,,
1718090439.166469,,,,19.792875290,19.800182343,234875.000000000,1718090439.166468859
1718090439.167476,,,,19.738712311,19.747966766,234876.000000000,1718090439.167475939
1718090439.168483,,,,19.799583435,19.806890488,234877.000000000,1718090439.168483019
1718090439.169490,,,,19.854179382,19.863218307,234878.000000000,1718090439.169490099
1718090439.170497,,,,19.926685333,19.933343887,234879.000000000,1718090439.170497179
1718090439.171288,238.703887939,47355.000000000,1718090439.171287537,,,,
1718090439.171504,,,,20.060255051,20.068210602,234880.000000000,1718090439.171504259
1718090439.172511,,,,20.198776245,20.207405090,234881.000000000,1718090439.172511339
1718090439.173518,,,,20.275442123,20.284143448,234882.000000000,1718090439.173518419
1718090439.174525,,,,20.194881439,20.203920364,234883.000000000,1718090439.174525499
1718090439.175533,,,,20.140262604,20.148483276,234884.000000000,1718090439.175532579
1718090439.176288,240.020736694,47356.000000000,1718090439.176287651,,,,
1718090439.176540,,,,20.261547089,20.266113281,234885.000000000,1718090439.176539660
1718090439.177547,,,,20.429277420,20.436944962,234886.000000000,1718090439.177546740
1718090439.178554,,,,20.449062347,20.454446793,234887.000000000,1718090439.178553820
1718090439.179561,,,,20.492166519,20.498439789,234888.000000000,1718090439.179560900
1718090439.180568,,,,20.627803802,20.635038376,234889.000000000,1718090439.180567980
1718090439.181288,241.176803589,47357.000000000,1718090439.181287527,,,,
1718090439.181575,,,,20.777168274,20.785531998,234890.000000000,1718090439.181575060
1718090439.182582,,,,20.834985733,20.840898514,234891.000000000,1718090439.182582140
1718090439.183589,,,,20.746204376,20.751996994,234892.000000000,1718090439.183589220
1718090439.184596,,,,20.659345627,20.663696289,234893.000000000,1718090439.184596300
1718090439.185603,,,,20.489858627,20.497215271,234894.000000000,1718090439.185603380
1718090439.186288,242.284530640,47358.000000000,1718090439.186287642,,,,
1718090439.186610,,,,20.227792740,20.236736298,234895.000000000,1718090439.186610460
1718090439.187618,,,,20.052513123,20.063066483,234896.000000000,1718090439.187617540
1718090439.188625,,,,19.968059540,19.972530365,234897.000000000,1718090439.188624620
1718090439.189632,,,,19.832710266,19.837398529,234898.000000000,1718090439.189631701
1718090439.190639,,,,19.771863937,19.777969360,234899.000000000,1718090439.190638781
1718090439.191288,243.311874390,47359.000000000,1718090439.191287518,,,,
1718090439.191646,,,,19.738086700,19.744770050,234900.000000000,1718090439.191645861
1718090439.192653,,,,19.644186020,19.650867462,234901.000000000,1718090439.192652941
1718090439.193660,,,,19.830307007,19.839561462,234902.000000000,1718090439.193660021
1718090439.194667,,,,20.200578690,20.208751678,234903.000000000,1718090439.194667101
1718090439.194854,245.350082397,47361.000000000,1718090439.194854259,,,,
1718090439.195674,,,,20.349102020,20.356817245,234904.000000000,1718090439.195674181
1718090439.196288,244.371154785,47360.000000000,1718090439.196287632,,,,
1718090439.196681,,,,20.484161377,20.492527008,234905.000000000,1718090439.196681261
1718090439.197688,,,,20.641555786,20.647851944,234906.000000000,1718090439.197688341
1718090439.198695,,,,20.769163132,20.778873444,234907.000000000,1718090439.198695421
1718090439.199703,,,,20.823638916,20.831233978,234908.000000000,1718090439.199702501
1718090439.199854,246.441207886,47362.000000000,1718090439.199854374,,,,
1718090439.200710,,,,20.683265686,20.690620422,234909.000000000,1718090439.200709581
1718090439.201717,,,,20.367084503,20.376026154,234910.000000000,1718090439.201716661
1718090439.202724,,,,20.080978394,20.088838577,234911.000000000,1718090439.202723742
1718090439.203731,,,,19.951736450,19.959379196,234912.000000000,1718090439.203730822
1718090439.204738,,,,19.920507431,19.928895950,234913.000000000,1718090439.204737902
1718090439.204854,247.419921875,47363.000000000,1718090439.204854250,,,,
1718090439.205745,,,,19.861751556,19.871006012,234914.000000000,1718090439.205744982
1718090439.206752,,,,19.921974182,19.931684494,234915.000000000,1718090439.206752062
1718090439.207759,,,,19.999071121,20.008253098,234916.000000000,1718090439.207759142
1718090439.208766,,,,19.974695206,19.981256485,234917.000000000,1718090439.208766222
1718090439.209773,,,,20.007389069,20.016475677,234918.000000000,1718090439.209773302
1718090439.209854,248.430603027,47364.000000000,1718090439.209854364,,,,
1718090439.210780,,,,20.010490417,20.017076492,234919.000000000,1718090439.210780382
1718090439.211787,,,,20.029699326,20.039554596,234920.000000000,1718090439.211787462
1718090439.212795,,,,20.101604462,20.110305786,234921.000000000,1718090439.212794542
1718090439.213802,,,,20.140045166,20.146728516,234922.000000000,1718090439.213801622
1718090439.214809,,,,20.175216675,20.182476044,234923.000000000,1718090439.214808702
1718090439.214854,249.344940186,47365.000000000,1718090439.214854240,,,,
1718090439.215816,,,,20.248083115,20.258131027,234924.000000000,1718090439.215815783
1718090439.216823,,,,20.353693008,20.361865997,234925.000000000,1718090439.216822863
1718090439.217830,,,,20.531280518,20.537458420,234926.000000000,1718090439.217829943
1718090439.218837,,,,20.614894867,20.621551514,234927.000000000,1718090439.218837023
1718090439.219844,,,,20.603450775,20.611888885,234928.000000000,1718090439.219844103
1718090439.219854,250.195022583,47366.000000000,1718090439.219854355,,,,
1718090439.220851,,,,20.603715897,20.611406326,234929.000000000,1718090439.220851183
1718090439.221858,,,,20.626241684,20.635736465,234930.000000000,1718090439.221858263
1718090439.222865,,,,20.613643646,20.625326157,234931.000000000,1718090439.222865343
1718090439.223872,,,,20.525583267,20.533948898,234932.000000000,1718090439.223872423
1718090439.224854,251.061111450,47367.000000000,1718090439.224854231,,,,
1718090439.224880,,,,20.338476181,20.348115921,234933.000000000,1718090439.224879503
1718090439.225887,,,,20.137905121,20.144348145,234934.000000000,1718090439.225886583
1718090439.226894,,,,20.107229233,20.116315842,234935.000000000,1718090439.226893663
1718090439.227901,,,,20.108913422,20.118721008,234936.000000000,1718090439.227900743
1718090439.228908,,,,20.061288834,20.067850113,234937.000000000,1718090439.228907824
1718090439.229854,251.750732422,47368.000000000,1718090439.229854345,,,,
1718090439.229915,,,,20.037078857,20.043544769,234938.000000000,1718090439.229914904
1718090439.230922,,,,20.030132294,20.037752151,234939.000000000,1718090439.230921984
1718090439.231929,,,,20.069198608,20.079294205,234940.000000000,1718090439.231929064
1718090439.232936,,,,20.120115280,20.129226685,234941.000000000,1718090439.232936144
1718090439.233943,,,,20.174951553,20.181587219,234942.000000000,1718090439.233943224
1718090439.234854,252.472366333,47369.000000000,1718090439.234854221,,,,
1718090439.234950,,,,20.227552414,20.233442307,234943.000000000,1718090439.234950304
1718090439.235957,,,,20.229259491,20.237216949,234944.000000000,1718090439.235957384
1718090439.236964,,,,20.184207916,20.190601349,234945.000000000,1718090439.236964464
1718090439.237972,,,,20.148122787,20.155910492,234946.000000000,1718090439.237971544
1718090439.238979,,,,20.164445877,20.171705246,234947.000000000,1718090439.238978624
1718090439.239854,253.113769531,47370.000000000,1718090439.239854336,,,,
1718090439.239986,,,,20.140693665,20.147232056,234948.000000000,1718090439.239985704
1718090439.240993,,,,20.370040894,20.376434326,234949.000000000,1718090439.240992785
1718090439.242000,,,,20.622779846,20.632923126,234950.000000000,1718090439.241999865
1718090439.243007,,,,20.682567596,20.692134857,234951.000000000,1718090439.243006945
1718090439.244014,,,,20.757190704,20.766445160,234952.000000000,1718090439.244014025
1718090439.244854,253.658950806,47371.000000000,1718090439.244854212,,,,
1718090439.245021,,,,20.882345200,20.891839981,234953.000000000,1718090439.245021105
1718090439.246028,,,,20.862007141,20.872127533,234954.000000000,1718090439.246028185
1718090439.247035,,,,20.498081207,20.505340576,234955.000000000,1718090439.247035265
1718090439.248042,,,,20.103191376,20.107036591,234956.000000000,1718090439.248042345
1718090439.249049,,,,19.779317856,19.784292221,234957.000000000,1718090439.249049425
1718090439.249854,254.204101563,47372.000000000,1718090439.249854326,,,,
1718090439.250057,,,,19.599157333,19.607570648,234958.000000000,1718090439.250056505
1718090439.251064,,,,19.672264099,19.681806564,234959.000000000,1718090439.251063585
1718090439.252071,,,,19.764820099,19.773786545,234960.000000000,1718090439.252070665
1718090439.253078,,,,19.884061813,19.892522812,234961.000000000,1718090439.253077745
1718090439.254085,,,,19.917671204,19.923847198,234962.000000000,1718090439.254084826
1718090439.254854,254.637023926,47373.000000000,1718090439.254854202,,,,
1718090439.255092,,,,19.962385178,19.968898773,234963.000000000,1718090439.255091906
1718090439.256099,,,,20.143987656,20.150646210,234964.000000000,1718090439.256098986
1718090439.257106,,,,20.242385864,20.248466492,234965.000000000,1718090439.257106066
1718090439.258113,,,,20.266546249,20.272338867,234966.000000000,1718090439.258113146
1718090439.259120,,,,20.256208420,20.263828278,234967.000000000,1718090439.259120226
1718090439.259854,255.069915771,47374.000000000,1718090439.259854317,,,,
1718090439.260127,,,,20.189640045,20.198534012,234968.000000000,1718090439.260127306
1718090439.261134,,,,20.266233444,20.273830414,234969.000000000,1718090439.261134386
1718090439.262141,,,,20.291692734,20.300827026,234970.000000000,1718090439.262141466
1718090439.263149,,,,20.229019165,20.238298416,234971.000000000,1718090439.263148546
1718090439.264156,,,,20.205339432,20.213705063,234972.000000000,1718090439.264155626
1718090439.264854,255.486770630,47375.000000000,1718090439.264854193,,,,
1718090439.265163,,,,20.250415802,20.257314682,234973.000000000,1718090439.265162706
1718090439.266170,,,,20.325134277,20.333498001,234974.000000000,1718090439.266169786
1718090439.267177,,,,20.338932037,20.346624374,234975.000000000,1718090439.267176867
1718090439.268184,,,,20.329172134,20.337104797,234976.000000000,1718090439.268183947
1718090439.269191,,,,20.364055634,20.370183945,234977.000000000,1718090439.269191027
1718090439.269854,255.871536255,47376.000000000,1718090439.269854307,,,,
1718090439.270198,,,,20.370569229,20.375160217,234978.000000000,1718090439.270198107
1718090439.271205,,,,20.324893951,20.331094742,234979.000000000,1718090439.271205187
1718090439.272212,,,,20.280321121,20.289505005,234980.000000000,1718090439.272212267
1718090439.273219,,,,20.224788666,20.232360840,234981.000000000,1718090439.273219347
1718090439.274226,,,,20.173124313,20.180744171,234982.000000000,1718090439.274226427
1718090439.274854,256.160095215,47377.000000000,1718090439.274854183,,,,
1718090439.275234,,,,20.074342728,20.080615997,234983.000000000,1718090439.275233507
1718090439.276241,,,,20.014505386,20.018663406,234984.000000000,1718090439.276240587
1718090439.277248,,,,20.088430405,20.095088959,234985.000000000,1718090439.277247667
1718090439.278255,,,,20.214090347,20.222335815,234986.000000000,1718090439.278254747
1718090439.279262,,,,20.358669281,20.366819382,234987.000000000,1718090439.279261827
1718090439.279854,256.416625977,47378.000000000,1718090439.279854298,,,,
1718090439.280269,,,,20.451082230,20.460697174,234988.000000000,1718090439.280268908
1718090439.281276,,,,20.486013412,20.495771408,234989.000000000,1718090439.281275988
1718090439.282283,,,,20.566812515,20.574745178,234990.000000000,1718090439.282283068
1718090439.283290,,,,20.527410507,20.535558701,234991.000000000,1718090439.283290148
1718090439.284297,,,,20.359342575,20.366168976,234992.000000000,1718090439.284297228
1718090439.284854,256.625000000,47379.000000000,1718090439.284854174,,,,
1718090439.285304,,,,20.200050354,20.206949234,234993.000000000,1718090439.285304308
1718090439.286311,,,,20.318954468,20.327272415,234994.000000000,1718090439.286311388
1718090439.287318,,,,20.490556717,20.497045517,234995.000000000,1718090439.287318468
1718090439.288326,,,,20.306188583,20.314291000,234996.000000000,1718090439.288325548
1718090439.289333,,,,20.077972412,20.082876205,234997.000000000,1718090439.289332628
1718090439.289854,256.897552490,47380.000000000,1718090439.289854288,,,,
1718090439.290340,,,,19.945606232,19.951519012,234998.000000000,1718090439.290339708
1718090439.291347,,,,19.972169876,19.982435226,234999.000000000,1718090439.291346788
1718090439.292354,,,,20.035156250,20.043474197,235000.000000000,1718090439.292353868
1718090439.293361,,,,20.003543854,20.011474609,235001.000000000,1718090439.293360949
1718090439.294368,,,,19.971569061,19.980175018,235002.000000000,1718090439.294368029
1718090439.295375,,,,19.967000961,19.977001190,235003.000000000,1718090439.295375109
1718090439.296382,,,,19.956663132,19.964260101,235004.000000000,1718090439.296382189
1718090439.297389,,,,19.959741592,19.967073441,235005.000000000,1718090439.297389269
1718090439.298396,,,,20.076145172,20.084726334,235006.000000000,1718090439.298396349
1718090439.299375,257.170043945,47381.000000000,1718090439.299375057,,,,
1718090439.299403,,,,20.242794037,20.251424789,235007.000000000,1718090439.299403429
1718090439.300411,,,,20.415983200,20.422521591,235008.000000000,1718090439.300410509
1718090439.301418,,,,20.466299057,20.472476959,235009.000000000,1718090439.301417589
1718090439.302425,,,,20.375234604,20.386411667,235010.000000000,1718090439.302424669
1718090439.303432,,,,20.258085251,20.269309998,235011.000000000,1718090439.303431749
1718090439.304375,257.330383301,47382.000000000,1718090439.304375172,,,,
1718090439.304439,,,,20.203392029,20.214473724,235012.000000000,1718090439.304438829
1718090439.305446,,,,20.160743713,20.168483734,235013.000000000,1718090439.305445910
1718090439.306453,,,,20.046455383,20.053787231,235014.000000000,1718090439.306452990
1718090439.307460,,,,19.856822968,19.864467621,235015.000000000,1718090439.307460070
1718090439.308467,,,,19.936182022,19.943849564,235016.000000000,1718090439.308467150
1718090439.309375,257.458618164,47383.000000000,1718090439.309375048,,,,
1718090439.309474,,,,20.195482254,20.205001831,235017.000000000,1718090439.309474230
1718090439.310481,,,,20.328018188,20.336864471,235018.000000000,1718090439.310481310
1718090439.311488,,,,20.252771378,20.261257172,235019.000000000,1718090439.311488390
1718090439.312495,,,,20.110811234,20.117229462,235020.000000000,1718090439.312495470
1718090439.313503,,,,20.152402878,20.159637451,235021.000000000,1718090439.313502550
1718090439.314375,257.586853027,47384.000000000,1718090439.314375162,,,,
1718090439.314510,,,,20.145359039,20.152545929,235022.000000000,1718090439.314509630
1718090439.315517,,,,20.246976852,20.252529144,235023.000000000,1718090439.315516710
1718090439.316524,,,,20.378456116,20.386171341,235024.000000000,1718090439.316523790
1718090439.317531,,,,20.396293640,20.403455734,235025.000000000,1718090439.317530870
1718090439.318538,,,,20.438676834,20.443483353,235026.000000000,1718090439.318537951
1718090439.319375,257.634918213,47385.000000000,1718090439.319375038,,,,
1718090439.319545,,,,20.440649033,20.447570801,235027.000000000,1718090439.319545031
1718090439.320552,,,,20.414228439,20.423650742,235028.000000000,1718090439.320552111
1718090439.321559,,,,20.288591385,20.297990799,235029.000000000,1718090439.321559191
1718090439.322566,,,,20.153724670,20.160863876,235030.000000000,1718090439.322566271
1718090439.323573,,,,20.119827271,20.126749039,235031.000000000,1718090439.323573351
1718090439.324375,257.650970459,47386.000000000,1718090439.324375153,,,,
1718090439.324580,,,,20.128480911,20.134946823,235032.000000000,1718090439.324580431
1718090439.325588,,,,20.355159760,20.363357544,235033.000000000,1718090439.325587511
1718090439.326595,,,,20.552364349,20.562076569,235034.000000000,1718090439.326594591
1718090439.327602,,,,20.522314072,20.529548645,235035.000000000,1718090439.327601671
1718090439.328609,,,,20.359415054,20.366481781,235036.000000000,1718090439.328608751
1718090439.329616,,,,20.283014297,20.289865494,235037.000000000,1718090439.329615831
1718090439.330623,,,,20.086362839,20.093862534,235038.000000000,1718090439.330622911
1718090439.331630,,,,19.942094803,19.951519012,235039.000000000,1718090439.331629992
1718090439.332637,,,,19.863555908,19.872137070,235040.000000000,1718090439.332637072
1718090439.333644,,,,19.853000641,19.860404968,235041.000000000,1718090439.333644152
1718090439.334651,,,,19.982627869,19.989286423,235042.000000000,1718090439.334651232
1718090439.335658,,,,20.080833435,20.086891174,235043.000000000,1718090439.335658312
1718090439.336665,,,,20.038282394,20.043714523,235044.000000000,1718090439.336665392
1718090439.337672,,,,20.042465210,20.048810959,235045.000000000,1718090439.337672472
1718090439.338680,,,,20.004552841,20.012292862,235046.000000000,1718090439.338679552
1718090439.339687,,,,19.954067230,19.960365295,235047.000000000,1718090439.339686632
1718090439.340694,,,,20.081241608,20.088260651,235048.000000000,1718090439.340693712
1718090439.341701,,,,20.291187286,20.299745560,235049.000000000,1718090439.341700792
1718090439.342708,,,,20.297582626,20.306982040,235050.000000000,1718090439.342707872
1718090439.343715,,,,20.279552460,20.286090851,235051.000000000,1718090439.343714952
1718090439.344722,,,,20.348333359,20.356409073,235052.000000000,1718090439.344722033
1718090439.345729,,,,20.382638931,20.388647079,235053.000000000,1718090439.345729113
1718090439.346736,,,,20.360786438,20.367179871,235054.000000000,1718090439.346736193
1718090439.347743,,,,20.277196884,20.286666870,235055.000000000,1718090439.347743273
1718090439.348750,,,,20.290346146,20.297437668,235056.000000000,1718090439.348750353
1718090439.349375,258.532623291,47391.000000000,1718090439.349375010,,,,
1718090439.349757,,,,20.258541107,20.260847092,235057.000000000,1718090439.349757433
1718090439.350765,,,,20.162067413,20.165166855,235058.000000000,1718090439.350764513
1718090439.351772,,,,20.028665543,20.034626007,235059.000000000,1718090439.351771593
1718090439.352779,,,,19.937358856,19.943801880,235060.000000000,1718090439.352778673
1718090439.353786,,,,19.934402466,19.943681717,235061.000000000,1718090439.353785753
1718090439.354375,258.724945068,47392.000000000,1718090439.354375124,,,,
1718090439.354793,,,,19.976089478,19.985704422,235062.000000000,1718090439.354792833
1718090439.355800,,,,20.089849472,20.100257874,235063.000000000,1718090439.355799913
1718090439.356807,,,,20.319915771,20.330013275,235064.000000000,1718090439.356806993
1718090439.357814,,,,20.447715759,20.454782486,235065.000000000,1718090439.357814074
1718090439.358821,,,,20.380764008,20.386386871,235066.000000000,1718090439.358821154
1718090439.359375,258.853179932,47393.000000000,1718090439.359375000,,,,
1718090439.359828,,,,20.305780411,20.312606812,235067.000000000,1718090439.359828234
1718090439.360835,,,,20.148410797,20.154636383,235068.000000000,1718090439.360835314
1718090439.361842,,,,19.999238968,20.008686066,235069.000000000,1718090439.361842394
1718090439.362849,,,,19.947937012,19.957889557,235070.000000000,1718090439.362849474
1718090439.363857,,,,19.947696686,19.958225250,235071.000000000,1718090439.363856554
1718090439.364375,259.109619141,47394.000000000,1718090439.364375114,,,,
1718090439.364864,,,,19.948707581,19.958610535,235072.000000000,1718090439.364863634
1718090439.365871,,,,19.918367386,19.925674438,235073.000000000,1718090439.365870714
1718090439.366878,,,,19.927263260,19.936084747,235074.000000000,1718090439.366877794
1718090439.367885,,,,20.049942017,20.053066254,235075.000000000,1718090439.367884874
1718090439.368892,,,,20.111461639,20.119634628,235076.000000000,1718090439.368891954
1718090439.369375,259.269958496,47395.000000000,1718090439.369374990,,,,
1718090439.369899,,,,20.139469147,20.150068283,235077.000000000,1718090439.369899035
1718090439.370906,,,,20.139324188,20.146991730,235078.000000000,1718090439.370906115
1718090439.371913,,,,20.154012680,20.162378311,235079.000000000,1718090439.371913195
1718090439.372920,,,,20.170145035,20.179542542,235080.000000000,1718090439.372920275
1718090439.373927,,,,20.202886581,20.211950302,235081.000000000,1718090439.373927355
1718090439.374375,259.462310791,47396.000000000,1718090439.374375105,,,,
1718090439.374934,,,,20.290466309,20.298591614,235082.000000000,1718090439.374934435
1718090439.375942,,,,20.354053497,20.361169815,235083.000000000,1718090439.375941515
1718090439.376949,,,,20.378744125,20.387180328,235084.000000000,1718090439.376948595
1718090439.377956,,,,20.475217819,20.483631134,235085.000000000,1718090439.377955675
1718090439.378963,,,,20.618476868,20.625638962,235086.000000000,1718090439.378962755
1718090439.379375,259.590515137,47397.000000000,1718090439.379374981,,,,
1718090439.379970,,,,20.473800659,20.482767105,235087.000000000,1718090439.379969835
1718090439.380977,,,,20.292510986,20.300394058,235088.000000000,1718090439.380976915
1718090439.381984,,,,20.068019867,20.072177887,235089.000000000,1718090439.381983995
1718090439.382991,,,,19.879493713,19.885503769,235090.000000000,1718090439.382991076
1718090439.383998,,,,19.845933914,19.854923248,235091.000000000,1718090439.383998156
1718090439.384375,259.542419434,47398.000000000,1718090439.384375095,,,,
1718090439.385005,,,,20.135934830,20.141559601,235092.000000000,1718090439.385005236
1718090439.386012,,,,20.542652130,20.547916412,235093.000000000,1718090439.386012316
1718090439.387019,,,,20.696271896,20.704324722,235094.000000000,1718090439.387019396
1718090439.388026,,,,20.701007843,20.709924698,235095.000000000,1718090439.388026476
1718090439.389034,,,,20.735073090,20.743654251,235096.000000000,1718090439.389033556
1718090439.389375,259.430236816,47399.000000000,1718090439.389374971,,,,
1718090439.390041,,,,20.712860107,20.719060898,235097.000000000,1718090439.390040636
1718090439.391048,,,,20.444494247,20.451873779,235098.000000000,1718090439.391047716
1718090439.392055,,,,20.097181320,20.103694916,235099.000000000,1718090439.392054796
1718090439.393062,,,,19.953105927,19.962408066,235100.000000000,1718090439.393061876
1718090439.394069,,,,19.827085495,19.834632874,235101.000000000,1718090439.394068956
1718090439.394375,259.285980225,47400.000000000,1718090439.394375086,,,,
1718090439.395076,,,,19.804775238,19.813646317,235102.000000000,1718090439.395076036
1718090439.396083,,,,19.961568832,19.973972321,235103.000000000,1718090439.396083117
1718090439.397090,,,,20.156105042,20.167642593,235104.000000000,1718090439.397090197
1718090439.398097,,,,20.335567474,20.344749451,235105.000000000,1718090439.398097277
1718090439.399104,,,,20.433460236,20.440479279,235106.000000000,1718090439.399104357
1718090439.400111,,,,20.381557465,20.390739441,235107.000000000,1718090439.400111437
1718090439.401119,,,,20.346769333,20.354534149,235108.000000000,1718090439.401118517
1718090439.402126,,,,20.417257309,20.422472000,235109.000000000,1718090439.402125597
1718090439.403133,,,,20.448629379,20.454902649,235110.000000000,1718090439.403132677
1718090439.404140,,,,20.288087845,20.295225143,235111.000000000,1718090439.404139757
1718090439.405147,,,,20.172380447,20.180120468,235112.000000000,1718090439.405146837
1718090439.406154,,,,20.248083115,20.253131866,235113.000000000,1718090439.406153917
1718090439.407161,,,,20.341239929,20.345397949,235114.000000000,1718090439.407160997
1718090439.408168,,,,20.379585266,20.385931015,235115.000000000,1718090439.408168077
1718090439.409175,,,,20.344053268,20.351457596,235116.000000000,1718090439.409175158
1718090439.410182,,,,20.365617752,20.373765945,235117.000000000,1718090439.410182238
1718090439.411189,,,,20.373119354,20.379152298,235118.000000000,1718090439.411189318
1718090439.412196,,,,19.998495102,20.004407883,235119.000000000,1718090439.412196398
1718090439.413203,,,,19.726043701,19.732196808,235120.000000000,1718090439.413203478
1718090439.414211,,,,19.645988464,19.653535843,235121.000000000,1718090439.414210558
1718090439.415218,,,,19.723999023,19.732509613,235122.000000000,1718090439.415217638
1718090439.416225,,,,20.128217697,20.136726379,235123.000000000,1718090439.416224718
1718090439.417232,,,,20.466659546,20.473197937,235124.000000000,1718090439.417231798
1718090439.418239,,,,20.541257858,20.550825119,235125.000000000,1718090439.418238878
1718090439.419246,,,,20.511568069,20.518009186,235126.000000000,1718090439.419245958
1718090439.420253,,,,20.460626602,20.467308044,235127.000000000,1718090439.420253038
1718090439.421260,,,,20.478679657,20.485338211,235128.000000000,1718090439.421260118
1718090439.422267,,,,20.450504303,20.458221436,235129.000000000,1718090439.422267199
1718090439.423274,,,,20.324003220,20.333425522,235130.000000000,1718090439.423274279
1718090439.424281,,,,20.159975052,20.168773651,235131.000000000,1718090439.424281359
1718090439.425288,,,,19.943561554,19.951013565,235132.000000000,1718090439.425288439
1718090439.426296,,,,19.794174194,19.802154541,235133.000000000,1718090439.426295519
1718090439.427303,,,,19.982387543,19.989429474,235134.000000000,1718090439.427302599
1718090439.428310,,,,20.059244156,20.063426971,235135.000000000,1718090439.428309679
1718090439.429317,,,,19.958803177,19.965990067,235136.000000000,1718090439.429316759
1718090439.430324,,,,19.989095688,19.996089935,235137.000000000,1718090439.430323839
1718090439.431331,,,,20.103384018,20.109609604,235138.000000000,1718090439.431330919
1718090439.432338,,,,20.209136963,20.218368530,235139.000000000,1718090439.432337999
1718090439.433345,,,,20.275657654,20.285009384,235140.000000000,1718090439.433345079
1718090439.434352,,,,20.250488281,20.258539200,235141.000000000,1718090439.434352160
1718090439.435359,,,,20.186347961,20.192333221,235142.000000000,1718090439.435359240
1718090439.436366,,,,20.129203796,20.135597229,235143.000000000,1718090439.436366320
1718090439.437373,,,,20.124563217,20.134178162,235144.000000000,1718090439.437373400
1718090439.438380,,,,20.140933990,20.148483276,235145.000000000,1718090439.438380480
1718090439.439388,,,,20.163509369,20.170503616,235146.000000000,1718090439.439387560
1718090439.440395,,,,20.205171585,20.211036682,235147.000000000,1718090439.440394640
1718090439.441402,,,,20.235654831,20.243370056,235148.000000000,1718090439.441401720
1718090439.442409,,,,20.244668961,20.254789352,235149.000000000,1718090439.442408800
1718090439.443416,,,,20.231880188,20.240486145,235150.000000000,1718090439.443415880
1718090439.444423,,,,20.221086502,20.229932785,235151.000000000,1718090439.444422960
1718090439.445430,,,,20.230245590,20.237432480,235152.000000000,1718090439.445430040
1718090439.446437,,,,20.248901367,20.256521225,235153.000000000,1718090439.446437120
1718090439.447444,,,,20.252843857,20.260536194,235154.000000000,1718090439.447444201
1718090439.448451,,,,20.236230850,20.246351242,235155.000000000,1718090439.448451281
1718090439.449458,,,,20.250463486,20.258203506,235156.000000000,1718090439.449458361
1718090439.450465,,,,20.310853958,20.319868088,235157.000000000,1718090439.450465441
1718090439.451473,,,,20.338909149,20.346672058,235158.000000000,1718090439.451472521
1718090439.452480,,,,20.391965866,20.398649216,235159.000000000,1718090439.452479601
1718090439.453487,,,,20.368286133,20.375930786,235160.000000000,1718090439.453486681
1718090439.454281,260.504089355,47411.000000000,1718090439.454280853,,,,
1718090439.454494,,,,20.142137527,20.152135849,235161.000000000,1718090439.454493761
1718090439.455501,,,,19.970703125,19.980390549,235162.000000000,1718090439.455500841
1718090439.456508,,,,19.978157043,19.987098694,235163.000000000,1718090439.456507921
1718090439.457515,,,,20.226398468,20.233562469,235164.000000000,1718090439.457515001
1718090439.458522,,,,20.434734344,20.442138672,235165.000000000,1718090439.458522081
1718090439.459281,260.680419922,47412.000000000,1718090439.459280968,,,,
1718090439.459529,,,,20.507698059,20.515172958,235166.000000000,1718090439.459529161
1718090439.460536,,,,20.481132507,20.488607407,235167.000000000,1718090439.460536242
1718090439.461543,,,,20.435167313,20.442739487,235168.000000000,1718090439.461543322
1718090439.462550,,,,20.332586288,20.341745377,235169.000000000,1718090439.462550402
1718090439.463557,,,,20.267196655,20.273517609,235170.000000000,1718090439.463557482
1718090439.464281,260.920837402,47413.000000000,1718090439.464280844,,,,
1718090439.464565,,,,20.224884033,20.229282379,235171.000000000,1718090439.464564562
1718090439.465572,,,,20.247169495,20.253562927,235172.000000000,1718090439.465571642
1718090439.466579,,,,20.323642731,20.331695557,235173.000000000,1718090439.466578722
1718090439.467586,,,,20.378190994,20.386051178,235174.000000000,1718090439.467585802
1718090439.468593,,,,20.415477753,20.424564362,235175.000000000,1718090439.468592882
1718090439.469281,261.049072266,47414.000000000,1718090439.469280958,,,,
1718090439.469600,,,,20.388143539,20.397037506,235176.000000000,1718090439.469599962
1718090439.470607,,,,20.432138443,20.438917160,235177.000000000,1718090439.470607042
1718090439.471614,,,,20.547147751,20.554311752,235178.000000000,1718090439.471614122
1718090439.472621,,,,20.428939819,20.436103821,235179.000000000,1718090439.472621202
1718090439.473628,,,,20.145502090,20.151271820,235180.000000000,1718090439.473628283
1718090439.474281,261.161285400,47415.000000000,1718090439.474280834,,,,
1718090439.474635,,,,19.901803970,19.908725739,235181.000000000,1718090439.474635363
1718090439.475642,,,,19.955606461,19.964115143,235182.000000000,1718090439.475642443
1718090439.476650,,,,20.144275665,20.149204254,235183.000000000,1718090439.476649523
1718090439.477657,,,,20.057682037,20.063186646,235184.000000000,1718090439.477656603
1718090439.478664,,,,20.082323074,20.087997437,235185.000000000,1718090439.478663683
1718090439.479281,261.145233154,47416.000000000,1718090439.479280949,,,,
1718090439.479671,,,,20.289384842,20.299600601,235186.000000000,1718090439.479670763
1718090439.480678,,,,20.313304901,20.324436188,235187.000000000,1718090439.480677843
1718090439.481685,,,,20.218248367,20.227600098,235188.000000000,1718090439.481684923
1718090439.482692,,,,20.181684494,20.189928055,235189.000000000,1718090439.482692003
1718090439.483699,,,,20.117206573,20.124586105,235190.000000000,1718090439.483699083
1718090439.484281,261.321533203,47417.000000000,1718090439.484280825,,,,
1718090439.484706,,,,20.037609100,20.045131683,235191.000000000,1718090439.484706163
1718090439.485713,,,,20.013135910,20.022100449,235192.000000000,1718090439.485713243
1718090439.486720,,,,20.116220474,20.122062683,235193.000000000,1718090439.486720324
1718090439.487727,,,,20.213176727,20.217382431,235194.000000000,1718090439.487727404
1718090439.488734,,,,20.261835098,20.267820358,235195.000000000,1718090439.488734484
1718090439.489281,261.401641846,47418.000000000,1718090439.489280939,,,,
1718090439.489742,,,,20.196060181,20.200386047,235196.000000000,1718090439.489741564
1718090439.490749,,,,20.098720551,20.104583740,235197.000000000,1718090439.490748644
1718090439.491756,,,,20.119009018,20.123672485,235198.000000000,1718090439.491755724
1718090439.492763,,,,20.134923935,20.140092850,235199.000000000,1718090439.492762804
1718090439.493770,,,,20.187742233,20.195194244,235200.000000000,1718090439.493769884
1718090439.494281,261.658111572,47419.000000000,1718090439.494280815,,,,
1718090439.494777,,,,20.230438232,20.240533829,235201.000000000,1718090439.494776964
1718090439.495784,,,,20.246400833,20.254789352,235202.000000000,1718090439.495784044
1718090439.496791,,,,20.404466629,20.410043716,235203.000000000,1718090439.496791124
1718090439.497798,,,,20.556474686,20.565008163,235204.000000000,1718090439.497798204
1718090439.498805,,,,20.551282883,20.561403275,235205.000000000,1718090439.498805285
1718090439.499281,261.978637695,47420.000000000,1718090439.499280930,,,,
1718090439.499812,,,,20.476301193,20.485290527,235206.000000000,1718090439.499812365
1718090439.500819,,,,20.440168381,20.450984955,235207.000000000,1718090439.500819445
1718090439.501827,,,,20.237409592,20.246471405,235208.000000000,1718090439.501826525
1718090439.502834,,,,19.949739456,19.957889557,235209.000000000,1718090439.502833605
1718090439.503841,,,,19.919376373,19.924785614,235210.000000000,1718090439.503840685
1718090439.504848,,,,19.950172424,19.957744598,235211.000000000,1718090439.504847765
1718090439.505855,,,,19.794366837,19.803043365,235212.000000000,1718090439.505854845
1718090439.506862,,,,19.796649933,19.804487228,235213.000000000,1718090439.506861925
1718090439.507869,,,,19.808334351,19.816795349,235214.000000000,1718090439.507869005
1718090439.508876,,,,19.747871399,19.753976822,235215.000000000,1718090439.508876085
1718090439.509883,,,,19.783140182,19.789148331,235216.000000000,1718090439.509883165
1718090439.510890,,,,19.874011993,19.881631851,235217.000000000,1718090439.510890245
1718090439.511897,,,,19.947937012,19.955869675,235218.000000000,1718090439.511897326
1718090439.512904,,,,20.082492828,20.091409683,235219.000000000,1718090439.512904406
1718090439.513911,,,,20.216157913,20.222743988,235220.000000000,1718090439.513911486
1718090439.514919,,,,20.287895203,20.293640137,235221.000000000,1718090439.514918566
1718090439.515926,,,,20.255727768,20.264478683,235222.000000000,1718090439.515925646
1718090439.516933,,,,20.195049286,20.204425812,235223.000000000,1718090439.516932726
1718090439.517940,,,,20.151824951,20.158868790,235224.000000000,1718090439.517939806
1718090439.518947,,,,20.166633606,20.172138214,235225.000000000,1718090439.518946886
1718090439.519954,,,,20.193439484,20.199232101,235226.000000000,1718090439.519953966
1718090439.520961,,,,20.200387955,20.206974030,235227.000000000,1718090439.520961046
1718090439.521968,,,,20.250198364,20.255847931,235228.000000000,1718090439.521968126
1718090439.522975,,,,20.321214676,20.329988480,235229.000000000,1718090439.522975206
1718090439.523982,,,,20.313785553,20.321765900,235230.000000000,1718090439.523982286
1718090439.524989,,,,20.313690186,20.321790695,235231.000000000,1718090439.524989367
1718090439.525996,,,,20.353404999,20.361745834,235232.000000000,1718090439.525996447
1718090439.527004,,,,20.403072357,20.414178848,235233.000000000,1718090439.527003527
1718090439.528011,,,,20.435359955,20.443243027,235234.000000000,1718090439.528010607
1718090439.529018,,,,20.324821472,20.332008362,235235.000000000,1718090439.529017687
1718090439.530025,,,,20.204713821,20.212718964,235236.000000000,1718090439.530024767
1718090439.531032,,,,20.097877502,20.106098175,235237.000000000,1718090439.531031847
1718090439.532039,,,,20.023736954,20.029506683,235238.000000000,1718090439.532038927
1718090439.533046,,,,19.941734314,19.946470261,235239.000000000,1718090439.533046007
1718090439.534053,,,,19.983301163,19.988998413,235240.000000000,1718090439.534053087
1718090439.535060,,,,19.998662949,20.007028580,235241.000000000,1718090439.535060167
1718090439.536067,,,,20.051239014,20.059339523,235242.000000000,1718090439.536067247
1718090439.537074,,,,20.303977966,20.309938431,235243.000000000,1718090439.537074327
1718090439.538081,,,,20.492383957,20.499691010,235244.000000000,1718090439.538081408
1718090439.539088,,,,20.582559586,20.591861725,235245.000000000,1718090439.539088488
1718090439.540096,,,,20.673408508,20.681581497,235246.000000000,1718090439.540095568
1718090439.541103,,,,20.761756897,20.770027161,235247.000000000,1718090439.541102648
1718090439.542110,,,,20.780990601,20.791664124,235248.000000000,1718090439.542109728
1718090439.543117,,,,20.582126617,20.590251923,235249.000000000,1718090439.543116808
1718090439.544124,,,,20.306671143,20.313568115,235250.000000000,1718090439.544123888
1718090439.545131,,,,20.074991226,20.081024170,235251.000000000,1718090439.545130968
1718090439.546138,,,,19.946207047,19.952888489,235252.000000000,1718090439.546138048
1718090439.547145,,,,20.111221313,20.116556168,235253.000000000,1718090439.547145128
1718090439.547760,264.879333496,47431.000000000,1718090439.547759533,,,,
1718090439.548152,,,,20.212528229,20.219209671,235254.000000000,1718090439.548152208
1718090439.549159,,,,19.955245972,19.962818146,235255.000000000,1718090439.549159288
1718090439.550166,,,,19.913103104,19.920818329,235256.000000000,1718090439.550166368
1718090439.551173,,,,20.209066391,20.217454910,235257.000000000,1718090439.551173449
1718090439.552181,,,,20.455360413,20.464374542,235258.000000000,1718090439.552180529
1718090439.552760,264.847290039,47432.000000000,1718090439.552759647,,,,
1718090439.553188,,,,20.398143768,20.407302856,235259.000000000,1718090439.553187609
1718090439.554195,,,,20.325637817,20.335926056,235260.000000000,1718090439.554194689
1718090439.555202,,,,20.344318390,20.354005814,235261.000000000,1718090439.555201769
1718090439.556209,,,,20.409322739,20.418025970,235262.000000000,1718090439.556208849
1718090439.557216,,,,20.299770355,20.311933517,235263.000000000,1718090439.557215929
1718090439.557760,264.943420410,47433.000000000,1718090439.557759523,,,,
1718090439.558223,,,,20.098695755,20.110403061,235264.000000000,1718090439.558223009
1718090439.559230,,,,19.931829453,19.940700531,235265.000000000,1718090439.559230089
1718090439.560237,,,,19.886344910,19.893989563,235266.000000000,1718090439.560237169
1718090439.561244,,,,19.854444504,19.861293793,235267.000000000,1718090439.561244249
1718090439.562251,,,,20.011571884,20.015056610,235268.000000000,1718090439.562251329
1718090439.562760,265.087677002,47434.000000000,1718090439.562759638,,,,
1718090439.563258,,,,20.223777771,20.230724335,235269.000000000,1718090439.563258410
1718090439.564265,,,,20.307367325,20.313087463,235270.000000000,1718090439.564265490
1718090439.565273,,,,20.118095398,20.122013092,235271.000000000,1718090439.565272570
1718090439.566280,,,,19.877017975,19.885023117,235272.000000000,1718090439.566279650
1718090439.567287,,,,19.918439865,19.925674438,235273.000000000,1718090439.567286730
1718090439.567760,265.296020508,47435.000000000,1718090439.567759514,,,,
1718090439.568294,,,,20.057561874,20.066528320,235274.000000000,1718090439.568293810
1718090439.569301,,,,20.127399445,20.135429382,235275.000000000,1718090439.569300890
1718090439.570308,,,,20.081651688,20.087972641,235276.000000000,1718090439.570307970
1718090439.571315,,,,20.109609604,20.117013931,235277.000000000,1718090439.571315050
1718090439.572322,,,,20.182716370,20.189952850,235278.000000000,1718090439.572322130
1718090439.572760,265.520355225,47436.000000000,1718090439.572759628,,,,
1718090439.573329,,,,20.209041595,20.218969345,235279.000000000,1718090439.573329210
1718090439.574336,,,,20.359920502,20.369270325,235280.000000000,1718090439.574336290
1718090439.575343,,,,20.538108826,20.546522141,235281.000000000,1718090439.575343370
1718090439.576350,,,,20.706512451,20.715454102,235282.000000000,1718090439.576350451
1718090439.577358,,,,20.802507401,20.813011169,235283.000000000,1718090439.577357531
1718090439.577760,265.776733398,47437.000000000,1718090439.577759504,,,,
1718090439.578365,,,,20.848880768,20.858062744,235284.000000000,1718090439.578364611
1718090439.579372,,,,20.758657455,20.768272400,235285.000000000,1718090439.579371691
1718090439.580379,,,,20.559865952,20.568902969,235286.000000000,1718090439.580378771
1718090439.581386,,,,20.357324600,20.365064621,235287.000000000,1718090439.581385851
1718090439.582393,,,,20.045469284,20.051454544,235288.000000000,1718090439.582392931
1718090439.582760,265.936981201,47438.000000000,1718090439.582759619,,,,
1718090439.583400,,,,19.915313721,19.923919678,235289.000000000,1718090439.583400011
1718090439.584407,,,,19.847976685,19.857015610,235290.000000000,1718090439.584407091
1718090439.585414,,,,19.770109177,19.776863098,235291.000000000,1718090439.585414171
1718090439.586421,,,,19.800880432,19.809726715,235292.000000000,1718090439.586421251
1718090439.587428,,,,19.855140686,19.864179611,235293.000000000,1718090439.587428331
1718090439.587759,266.065185547,47439.000000000,1718090439.587759495,,,,
1718090439.588435,,,,19.826124191,19.833766937,235294.000000000,1718090439.588435411
1718090439.589442,,,,19.830259323,19.839105606,235295.000000000,1718090439.589442492
1718090439.590450,,,,19.898605347,19.907043457,235296.000000000,1718090439.590449572
1718090439.591457,,,,19.943128586,19.951686859,235297.000000000,1718090439.591456652
1718090439.591881,266.353668213,47441.000000000,1718090439.591880798,,,,
1718090439.592464,,,,19.969141006,19.979381561,235298.000000000,1718090439.592463732
1718090439.592760,266.257537842,47440.000000000,1718090439.592759609,,,,
1718090439.593471,,,,20.020755768,20.031885147,235299.000000000,1718090439.593470812
1718090439.594478,,,,20.058500290,20.068162918,235300.000000000,1718090439.594477892
1718090439.595485,,,,20.101989746,20.109872818,235301.000000000,1718090439.595484972
1718090439.596492,,,,20.144636154,20.154781342,235302.000000000,1718090439.596492052
1718090439.596881,266.257537842,47442.000000000,1718090439.596880913,,,,
1718090439.597499,,,,20.165672302,20.174110413,235303.000000000,1718090439.597499132
1718090439.598506,,,,20.171129227,20.176225662,235304.000000000,1718090439.598506212
1718090439.599513,,,,20.150888443,20.155717850,235305.000000000,1718090439.599513292
1718090439.600520,,,,20.129154205,20.136077881,235306.000000000,1718090439.600520372
1718090439.601527,,,,20.150718689,20.157184601,235307.000000000,1718090439.601527452
1718090439.601881,266.145324707,47443.000000000,1718090439.601880789,,,,
1718090439.602535,,,,20.195674896,20.205314636,235308.000000000,1718090439.602534533
1718090439.603542,,,,20.194280624,20.202068329,235309.000000000,1718090439.603541613
1718090439.604549,,,,20.193344116,20.200481415,235310.000000000,1718090439.604548693
1718090439.605556,,,,20.285923004,20.295082092,235311.000000000,1718090439.605555773
1718090439.606563,,,,20.351409912,20.363620758,235312.000000000,1718090439.606562853
1718090439.606881,265.840850830,47444.000000000,1718090439.606880903,,,,
1718090439.607570,,,,20.254285812,20.264982224,235313.000000000,1718090439.607569933
1718090439.608577,,,,20.130165100,20.139322281,235314.000000000,1718090439.608577013
1718090439.609584,,,,20.248180389,20.255247116,235315.000000000,1718090439.609584093
1718090439.610591,,,,20.457838058,20.464279175,235316.000000000,1718090439.610591173
1718090439.611598,,,,20.393287659,20.397663116,235317.000000000,1718090439.611598253
1718090439.611881,265.392150879,47445.000000000,1718090439.611880779,,,,
1718090439.612605,,,,20.147834778,20.153940201,235318.000000000,1718090439.612605333
1718090439.613612,,,,20.196853638,20.202669144,235319.000000000,1718090439.613612413
1718090439.614619,,,,20.283254623,20.291091919,235320.000000000,1718090439.614619493
1718090439.615627,,,,20.265464783,20.273998260,235321.000000000,1718090439.615626574
1718090439.616634,,,,20.327224731,20.336624146,235322.000000000,1718090439.616633654
1718090439.617641,,,,20.399250031,20.405763626,235323.000000000,1718090439.617640734
1718090439.618648,,,,20.431993484,20.442138672,235324.000000000,1718090439.618647814
1718090439.619655,,,,20.451875687,20.459590912,235325.000000000,1718090439.619654894
1718090439.620662,,,,20.519308090,20.527458191,235326.000000000,1718090439.620661974
1718090439.621669,,,,20.594797134,20.601165771,235327.000000000,1718090439.621669054
1718090439.622676,,,,20.495508194,20.503105164,235328.000000000,1718090439.622676134
1718090439.623683,,,,20.338571548,20.347032547,235329.000000000,1718090439.623683214
1718090439.624690,,,,20.308448792,20.316429138,235330.000000000,1718090439.624690294
1718090439.625697,,,,20.396005630,20.404970169,235331.000000000,1718090439.625697374
1718090439.626704,,,,20.356721878,20.363260269,235332.000000000,1718090439.626704454
1718090439.627712,,,,20.248371124,20.255342484,235333.000000000,1718090439.627711535
1718090439.628719,,,,20.194185257,20.202308655,235334.000000000,1718090439.628718615
1718090439.629726,,,,19.973852158,19.979621887,235335.000000000,1718090439.629725695
1718090439.630733,,,,19.679981232,19.686759949,235336.000000000,1718090439.630732775
1718090439.631740,,,,19.541772842,19.549968719,235337.000000000,1718090439.631739855
1718090439.632747,,,,19.610456467,19.619493484,235338.000000000,1718090439.632746935
1718090439.633754,,,,19.751525879,19.759170532,235339.000000000,1718090439.633754015
1718090439.634761,,,,19.993228912,20.000728607,235340.000000000,1718090439.634761095
1718090439.635768,,,,20.188823700,20.196731567,235341.000000000,1718090439.635768175
1718090439.636775,,,,20.316022873,20.323810577,235342.000000000,1718090439.636775255
1718090439.637782,,,,20.389274597,20.396484375,235343.000000000,1718090439.637782335
1718090439.638789,,,,20.582487106,20.592054367,235344.000000000,1718090439.638789415
1718090439.639796,,,,20.726249695,20.738677979,235345.000000000,1718090439.639796495
1718090439.640804,,,,20.523059845,20.531784058,235346.000000000,1718090439.640803576
1718090439.641811,,,,20.052272797,20.062297821,235347.000000000,1718090439.641810656
1718090439.641881,263.901794434,47451.000000000,1718090439.641880751,,,,
1718090439.642818,,,,19.815378189,19.821987152,235348.000000000,1718090439.642817736
1718090439.643825,,,,19.894952774,19.902908325,235349.000000000,1718090439.643824816
1718090439.644832,,,,19.735227585,19.740346909,235350.000000000,1718090439.644831896
1718090439.645839,,,,19.456115723,19.463207245,235351.000000000,1718090439.645838976
1718090439.646846,,,,19.668659210,19.677553177,235352.000000000,1718090439.646846056
1718090439.646881,263.965881348,47452.000000000,1718090439.646880865,,,,
1718090439.647853,,,,20.184255600,20.194087982,235353.000000000,1718090439.647853136
1718090439.648860,,,,20.406871796,20.417087555,235354.000000000,1718090439.648860216
1718090439.649867,,,,20.288904190,20.298231125,235355.000000000,1718090439.649867296
1718090439.650874,,,,20.230581284,20.240653992,235356.000000000,1718090439.650874376
1718090439.651881,263.965881348,47453.000000000,1718090439.651880741,,,,
1718090439.651881,,,,20.161584854,20.168941498,235357.000000000,1718090439.651881456
1718090439.652889,,,,20.060640335,20.065687180,235358.000000000,1718090439.652888536
1718090439.653896,,,,20.019939423,20.025371552,235359.000000000,1718090439.653895617
1718090439.654903,,,,19.922382355,19.930698395,235360.000000000,1718090439.654902697
1718090439.655910,,,,19.910650253,19.917020798,235361.000000000,1718090439.655909777
1718090439.656881,264.174255371,47454.000000000,1718090439.656880856,,,,
1718090439.656917,,,,20.063379288,20.068691254,235362.000000000,1718090439.656916857
1718090439.657924,,,,20.074197769,20.080495834,235363.000000000,1718090439.657923937
1718090439.658931,,,,19.999551773,20.007221222,235364.000000000,1718090439.658931017
1718090439.659938,,,,20.038352966,20.045637131,235365.000000000,1718090439.659938097
1718090439.660945,,,,20.104778290,20.112590790,235366.000000000,1718090439.660945177
1718090439.661881,264.222290039,47455.000000000,1718090439.661880732,,,,
1718090439.661952,,,,20.030660629,20.039409637,235367.000000000,1718090439.661952257
1718090439.662959,,,,20.012943268,20.021404266,235368.000000000,1718090439.662959337
1718090439.663966,,,,20.075231552,20.082923889,235369.000000000,1718090439.663966417
1718090439.664973,,,,20.103166580,20.112157822,235370.000000000,1718090439.664973497
1718090439.665981,,,,20.095474243,20.101314545,235371.000000000,1718090439.665980577
1718090439.666881,264.350494385,47456.000000000,1718090439.666880846,,,,
1718090439.666988,,,,20.020732880,20.023399353,235372.000000000,1718090439.666987658
1718090439.667995,,,,19.980319977,19.986738205,235373.000000000,1718090439.667994738
1718090439.669002,,,,20.102926254,20.110643387,235374.000000000,1718090439.669001818
1718090439.670009,,,,20.108407974,20.117326736,235375.000000000,1718090439.670008898
1718090439.671016,,,,19.985008240,19.993564606,235376.000000000,1718090439.671015978
1718090439.671881,264.366546631,47457.000000000,1718090439.671880722,,,,
1718090439.672023,,,,20.009674072,20.019096375,235377.000000000,1718090439.672023058
1718090439.673030,,,,20.110980988,20.121219635,235378.000000000,1718090439.673030138
1718090439.674037,,,,20.208946228,20.215820313,235379.000000000,1718090439.674037218
1718090439.675044,,,,20.192237854,20.198944092,235380.000000000,1718090439.675044298
1718090439.676051,,,,20.153051376,20.162666321,235381.000000000,1718090439.676051378
1718090439.676881,264.222290039,47458.000000000,1718090439.676880836,,,,
1718090439.677058,,,,20.151271820,20.159036636,235382.000000000,1718090439.677058458
1718090439.678066,,,,20.198295593,20.205074310,235383.000000000,1718090439.678065538
1718090439.679073,,,,20.210027695,20.219282150,235384.000000000,1718090439.679072618
1718090439.680080,,,,20.205844879,20.214931488,235385.000000000,1718090439.680079699
1718090439.681087,,,,20.186851501,20.195144653,235386.000000000,1718090439.681086779
1718090439.681881,263.821655273,47459.000000000,1718090439.681880713,,,,
1718090439.682094,,,,20.208152771,20.215026855,235387.000000000,1718090439.682093859
1718090439.683101,,,,20.278976440,20.287532806,235388.000000000,1718090439.683100939
1718090439.684108,,,,20.188077927,20.196563721,235389.000000000,1718090439.684108019
1718090439.685115,,,,20.045734406,20.051551819,235390.000000000,1718090439.685115099
1718090439.686122,,,,20.111436844,20.117710114,235391.000000000,1718090439.686122179
1718090439.686881,263.453033447,47460.000000000,1718090439.686880827,,,,
1718090439.687129,,,,20.277893066,20.283710480,235392.000000000,1718090439.687129259
1718090439.688136,,,,20.406173706,20.411823273,235393.000000000,1718090439.688136339
1718090439.689143,,,,20.518659592,20.526086807,235394.000000000,1718090439.689143419
1718090439.690150,,,,20.715335846,20.724037170,235395.000000000,1718090439.690150499
1718090439.691158,,,,20.866670609,20.873714447,235396.000000000,1718090439.691157579
1718090439.692165,,,,20.901626587,20.908668518,235397.000000000,1718090439.692164660
1718090439.693172,,,,20.827941895,20.835081100,235398.000000000,1718090439.693171740
1718090439.694179,,,,20.637010574,20.646457672,235399.000000000,1718090439.694178820
1718090439.695186,,,,20.377590179,20.385305405,235400.000000000,1718090439.695185900
1718090439.696193,,,,20.069246292,20.074028015,235401.000000000,1718090439.696192980
1718090439.697200,,,,19.818935394,19.823959351,235402.000000000,1718090439.697200060
1718090439.698207,,,,19.718421936,19.725585938,235403.000000000,1718090439.698207140
1718090439.699214,,,,19.657575607,19.666854858,235404.000000000,1718090439.699214220
1718090439.700221,,,,19.782587051,19.791481018,235405.000000000,1718090439.700221300
1718090439.701228,,,,19.958179474,19.965679169,235406.000000000,1718090439.701228380
1718090439.702235,,,,20.031646729,20.039867401,235407.000000000,1718090439.702235460
1718090439.703243,,,,19.991498947,19.999767303,235408.000000000,1718090439.703242540
1718090439.704250,,,,20.056192398,20.065589905,235409.000000000,1718090439.704249620
1718090439.705257,,,,20.011957169,20.021236420,235410.000000000,1718090439.705256701
1718090439.706264,,,,19.954259872,19.961374283,235411.000000000,1718090439.706263781
1718090439.707271,,,,20.043281555,20.050300598,235412.000000000,1718090439.707270861
1718090439.708278,,,,20.064125061,20.073451996,235413.000000000,1718090439.708277941
1718090439.709285,,,,20.083166122,20.092155457,235414.000000000,1718090439.709285021
1718090439.710292,,,,20.153411865,20.162714005,235415.000000000,1718090439.710292101
1718090439.711299,,,,20.200050354,20.209136963,235416.000000000,1718090439.711299181
1718090439.712306,,,,20.233587265,20.242120743,235417.000000000,1718090439.712306261
1718090439.713313,,,,20.279216766,20.287940979,235418.000000000,1718090439.713313341
1718090439.714320,,,,20.222888947,20.233152390,235419.000000000,1718090439.714320421
1718090439.715328,,,,20.116918564,20.126220703,235420.000000000,1718090439.715327501
1718090439.716335,,,,20.092107773,20.099657059,235421.000000000,1718090439.716334581
1718090439.717342,,,,20.086603165,20.094896317,235422.000000000,1718090439.717341661
1718090439.718349,,,,20.120115280,20.128143311,235423.000000000,1718090439.718348742
1718090439.719356,,,,20.177043915,20.185432434,235424.000000000,1718090439.719355822
1718090439.720363,,,,20.169061661,20.175817490,235425.000000000,1718090439.720362902
1718090439.721370,,,,20.065544128,20.070278168,235426.000000000,1718090439.721369982
1718090439.722377,,,,19.830282211,19.838815689,235427.000000000,1718090439.722377062
1718090439.723384,,,,19.709575653,19.717027664,235428.000000000,1718090439.723384142
1718090439.724391,,,,19.991331100,19.998350143,235429.000000000,1718090439.724391222
1718090439.725398,,,,20.108768463,20.117975235,235430.000000000,1718090439.725398302
1718090439.726405,,,,20.064966202,20.072753906,235431.000000000,1718090439.726405382
1718090439.727412,,,,20.074174881,20.082227707,235432.000000000,1718090439.727412462
1718090439.728420,,,,20.147907257,20.153099060,235433.000000000,1718090439.728419542
1718090439.729427,,,,20.354343414,20.359415054,235434.000000000,1718090439.729426622
1718090439.730434,,,,20.604604721,20.611791611,235435.000000000,1718090439.730433702
1718090439.731441,,,,20.698602676,20.706752777,235436.000000000,1718090439.731440783
1718090439.732448,,,,20.701007843,20.710357666,235437.000000000,1718090439.732447863
1718090439.733455,,,,20.653623581,20.661315918,235438.000000000,1718090439.733454943
1718090439.734462,,,,20.449207306,20.456754684,235439.000000000,1718090439.734462023
1718090439.735469,,,,20.109754562,20.116195679,235440.000000000,1718090439.735469103
1718090439.736476,,,,19.846317291,19.851366043,235441.000000000,1718090439.736476183
1718090439.737483,,,,19.778884888,19.785711288,235442.000000000,1718090439.737483263
1718090439.738490,,,,19.730899811,19.736812592,235443.000000000,1718090439.738490343
1718090439.739497,,,,19.679115295,19.685894012,235444.000000000,1718090439.739497423
1718090439.740505,,,,19.729888916,19.741909027,235445.000000000,1718090439.740504503
1718090439.741512,,,,19.854492188,19.864009857,235446.000000000,1718090439.741511583
1718090439.742519,,,,19.876129150,19.884685516,235447.000000000,1718090439.742518663
1718090439.743526,,,,19.862522125,19.865814209,235448.000000000,1718090439.743525743
1718090439.744533,,,,19.946615219,19.951374054,235449.000000000,1718090439.744532824
1718090439.745540,,,,19.961521149,19.968107224,235450.000000000,1718090439.745539904
1718090439.746547,,,,20.008880615,20.015609741,235451.000000000,1718090439.746546984
1718090439.747000,258.789062500,47471.000000000,1718090439.746999502,,,,
1718090439.747554,,,,20.205219269,20.210556030,235452.000000000,1718090439.747554064
1718090439.748561,,,,20.113311768,20.118120193,235453.000000000,1718090439.748561144
1718090439.749568,,,,20.038089752,20.045084000,235454.000000000,1718090439.749568224
1718090439.750575,,,,20.032873154,20.039121628,235455.000000000,1718090439.750575304
1718090439.751582,,,,20.049316406,20.057416916,235456.000000000,1718090439.751582384
1718090439.752000,258.548614502,47472.000000000,1718090439.751999617,,,,
1718090439.752589,,,,20.014169693,20.024217606,235457.000000000,1718090439.752589464
1718090439.753597,,,,19.980392456,19.988780975,235458.000000000,1718090439.753596544
1718090439.754604,,,,20.030998230,20.037559509,235459.000000000,1718090439.754603624
1718090439.755611,,,,20.078620911,20.085159302,235460.000000000,1718090439.755610704
1718090439.756618,,,,20.101051331,20.109945297,235461.000000000,1718090439.756617785
1718090439.756999,258.228057861,47473.000000000,1718090439.756999493,,,,
1718090439.757625,,,,20.173004150,20.185289383,235462.000000000,1718090439.757624865
1718090439.758632,,,,20.174638748,20.181514740,235463.000000000,1718090439.758631945
1718090439.759639,,,,20.165216446,20.171464920,235464.000000000,1718090439.759639025
1718090439.760646,,,,20.224523544,20.231037140,235465.000000000,1718090439.760646105
1718090439.761653,,,,20.251617432,20.260751724,235466.000000000,1718090439.761653185
1718090439.762000,257.907470703,47474.000000000,1718090439.761999607,,,,
1718090439.762660,,,,20.332538605,20.339965820,235467.000000000,1718090439.762660265
1718090439.763667,,,,20.485002518,20.492021561,235468.000000000,1718090439.763667345
1718090439.764674,,,,20.492216110,20.502264023,235469.000000000,1718090439.764674425
1718090439.765682,,,,20.404153824,20.412519455,235470.000000000,1718090439.765681505
1718090439.766689,,,,20.294528961,20.301717758,235471.000000000,1718090439.766688585
1718090439.766999,257.394500732,47475.000000000,1718090439.766999483,,,,
1718090439.767696,,,,20.168869019,20.177980423,235472.000000000,1718090439.767695665
1718090439.768703,,,,20.093334198,20.100448608,235473.000000000,1718090439.768702745
1718090439.769710,,,,19.895721436,19.903173447,235474.000000000,1718090439.769709826
1718090439.770717,,,,19.909111023,19.918510437,235475.000000000,1718090439.770716906
1718090439.771724,,,,20.046575546,20.057056427,235476.000000000,1718090439.771723986
1718090439.772000,256.833435059,47476.000000000,1718090439.771999598,,,,
1718090439.772731,,,,20.011764526,20.020130157,235477.000000000,1718090439.772731066
1718090439.773738,,,,19.994262695,20.001522064,235478.000000000,1718090439.773738146
1718090439.774745,,,,20.009336472,20.018880844,235479.000000000,1718090439.774745226
1718090439.775752,,,,20.083213806,20.090425491,235480.000000000,1718090439.775752306
1718090439.776759,,,,20.123577118,20.131437302,235481.000000000,1718090439.776759386
1718090439.776999,256.336456299,47477.000000000,1718090439.776999474,,,,
1718090439.777766,,,,20.230751038,20.238418579,235482.000000000,1718090439.777766466
1718090439.778774,,,,20.317680359,20.324819565,235483.000000000,1718090439.778773546
1718090439.779781,,,,20.385570526,20.391460419,235484.000000000,1718090439.779780626
1718090439.780788,,,,20.574386597,20.580059052,235485.000000000,1718090439.780787706
1718090439.781795,,,,20.716705322,20.721897125,235486.000000000,1718090439.781794786
1718090439.782000,255.727264404,47478.000000000,1718090439.781999588,,,,
1718090439.782802,,,,20.527025223,20.533300400,235487.000000000,1718090439.782801867
1718090439.783809,,,,20.282869339,20.290946960,235488.000000000,1718090439.783808947
1718090439.784816,,,,20.160575867,20.169757843,235489.000000000,1718090439.784816027
1718090439.785823,,,,20.142377853,20.151655197,235490.000000000,1718090439.785823107
1718090439.786830,,,,20.095739365,20.103189468,235491.000000000,1718090439.786830187
1718090439.786999,255.246292114,47479.000000000,1718090439.786999464,,,,
1718090439.787837,,,,20.061794281,20.067562103,235492.000000000,1718090439.787837267
1718090439.788844,,,,20.059413910,20.064773560,235493.000000000,1718090439.788844347
1718090439.789851,,,,19.991523743,19.997724533,235494.000000000,1718090439.789851427
1718090439.790859,,,,20.067586899,20.076913834,235495.000000000,1718090439.790858507
1718090439.791866,,,,20.169279099,20.179061890,235496.000000000,1718090439.791865587
1718090439.792000,254.733245850,47480.000000000,1718090439.791999578,,,,
1718090439.792873,,,,20.123481750,20.131029129,235497.000000000,1718090439.792872667
1718090439.793880,,,,20.051959991,20.056358337,235498.000000000,1718090439.793879747
1718090439.794887,,,,19.919353485,19.928150177,235499.000000000,1718090439.794886827
1718090439.795894,,,,19.851896286,19.859611511,235500.000000000,1718090439.795893908
1718090439.796901,,,,19.877426147,19.884710312,235501.000000000,1718090439.796900988
1718090439.797908,,,,20.009120941,20.016883850,235502.000000000,1718090439.797908068
1718090439.798915,,,,20.155574799,20.161632538,235503.000000000,1718090439.798915148
1718090439.799922,,,,20.148508072,20.154493332,235504.000000000,1718090439.799922228
1718090439.800929,,,,20.065927505,20.073259354,235505.000000000,1718090439.800929308
1718090439.801936,,,,20.036455154,20.043497086,235506.000000000,1718090439.801936388
1718090439.802299,254.332397461,47481.000000000,1718090439.802299023,,,,
1718090439.802943,,,,20.053306580,20.058858871,235507.000000000,1718090439.802943468
1718090439.803951,,,,20.089439392,20.098814011,235508.000000000,1718090439.803950548
1718090439.804958,,,,20.099561691,20.107252121,235509.000000000,1718090439.804957628
1718090439.805965,,,,20.160936356,20.170984268,235510.000000000,1718090439.805964708
1718090439.806972,,,,20.087709427,20.096530914,235511.000000000,1718090439.806971788
1718090439.807299,253.755187988,47482.000000000,1718090439.807299137,,,,
1718090439.807979,,,,19.978830338,19.987314224,235512.000000000,1718090439.807978868
1718090439.808986,,,,19.966327667,19.973323822,235513.000000000,1718090439.808985949
1718090439.809993,,,,19.957313538,19.963874817,235514.000000000,1718090439.809993029
1718090439.811000,,,,19.796241760,19.804294586,235515.000000000,1718090439.811000109
1718090439.812007,,,,19.697628021,19.704381943,235516.000000000,1718090439.812007189
1718090439.812299,253.386383057,47483.000000000,1718090439.812299013,,,,
1718090439.813014,,,,19.866174698,19.879156113,235517.000000000,1718090439.813014269
1718090439.814021,,,,20.083454132,20.095762253,235518.000000000,1718090439.814021349
1718090439.815028,,,,20.072708130,20.081024170,235519.000000000,1718090439.815028429
1718090439.816036,,,,20.065013885,20.073043823,235520.000000000,1718090439.816035509
1718090439.817043,,,,20.066673279,20.074005127,235521.000000000,1718090439.817042589
1718090439.817299,252.953430176,47484.000000000,1718090439.817299128,,,,
1718090439.818050,,,,20.046888351,20.053739548,235522.000000000,1718090439.818049669
1718090439.819057,,,,20.061241150,20.069702148,235523.000000000,1718090439.819056749
1718090439.820064,,,,20.092252731,20.098863602,235524.000000000,1718090439.820063829
1718090439.821071,,,,20.133049011,20.135957718,235525.000000000,1718090439.821070910
1718090439.822078,,,,20.171321869,20.175577164,235526.000000000,1718090439.822077990
1718090439.822299,252.600646973,47485.000000000,1718090439.822299004,,,,
1718090439.823085,,,,20.171634674,20.179470062,235527.000000000,1718090439.823085070
1718090439.824092,,,,20.147401810,20.152498245,235528.000000000,1718090439.824092150
1718090439.825099,,,,20.161537170,20.170623779,235529.000000000,1718090439.825099230
1718090439.826106,,,,20.163629532,20.171873093,235530.000000000,1718090439.826106310
1718090439.827113,,,,20.060062408,20.067153931,235531.000000000,1718090439.827113390
1718090439.827299,252.199737549,47486.000000000,1718090439.827299118,,,,
1718090439.828120,,,,20.040853500,20.048450470,235532.000000000,1718090439.828120470
1718090439.829128,,,,20.051095963,20.057632446,235533.000000000,1718090439.829127550
1718090439.830135,,,,20.033233643,20.041887283,235534.000000000,1718090439.830134630
1718090439.831142,,,,20.018640518,20.026908875,235535.000000000,1718090439.831141710
1718090439.832149,,,,20.089151382,20.097660065,235536.000000000,1718090439.832148790
1718090439.832299,251.798843384,47487.000000000,1718090439.832298994,,,,
1718090439.833156,,,,20.208393097,20.217262268,235537.000000000,1718090439.833155870
1718090439.834163,,,,20.166225433,20.175407410,235538.000000000,1718090439.834162951
1718090439.835170,,,,20.109226227,20.114320755,235539.000000000,1718090439.835170031
1718090439.836177,,,,20.198295593,20.206108093,235540.000000000,1718090439.836177111
1718090439.837184,,,,20.240173340,20.247385025,235541.000000000,1718090439.837184191
1718090439.837299,251.285659790,47488.000000000,1718090439.837299109,,,,
1718090439.838191,,,,20.218994141,20.225027084,235542.000000000,1718090439.838191271
1718090439.839198,,,,20.268085480,20.275585175,235543.000000000,1718090439.839198351
1718090439.840205,,,,20.276884079,20.285610199,235544.000000000,1718090439.840205431
1718090439.841213,,,,20.252555847,20.260271072,235545.000000000,1718090439.841212511
1718090439.842220,,,,20.213970184,20.220363617,235546.000000000,1718090439.842219591
1718090439.843227,,,,20.204978943,20.213079453,235547.000000000,1718090439.843226671
1718090439.844234,,,,20.176755905,20.186779022,235548.000000000,1718090439.844233751
1718090439.845241,,,,20.129346848,20.137617111,235549.000000000,1718090439.845240831
1718090439.846248,,,,20.100017548,20.106941223,235550.000000000,1718090439.846247911
1718090439.847255,,,,20.115211487,20.123624802,235551.000000000,1718090439.847254992
1718090439.848262,,,,20.154493332,20.160696030,235552.000000000,1718090439.848262072
1718090439.849269,,,,20.159469604,20.164758682,235553.000000000,1718090439.849269152
1718090439.850276,,,,20.163965225,20.170022964,235554.000000000,1718090439.850276232
1718090439.851283,,,,20.251762390,20.260005951,235555.000000000,1718090439.851283312
1718090439.852290,,,,20.336120605,20.344123840,235556.000000000,1718090439.852290392
1718090439.852299,249.344940186,47491.000000000,1718090439.852298975,,,,
1718090439.853297,,,,20.445312500,20.450286865,235557.000000000,1718090439.853297472
1718090439.854305,,,,20.475170135,20.482814789,235558.000000000,1718090439.854304552
1718090439.855312,,,,20.376003265,20.383743286,235559.000000000,1718090439.855311632
1718090439.856319,,,,20.317970276,20.324867249,235560.000000000,1718090439.856318712
1718090439.857299,248.607040405,47492.000000000,1718090439.857299089,,,,
1718090439.857326,,,,20.285081863,20.289768219,235561.000000000,1718090439.857325792
1718090439.858333,,,,20.168773651,20.177114487,235562.000000000,1718090439.858332872
1718090439.859340,,,,19.911371231,19.919832230,235563.000000000,1718090439.859339952
1718090439.860347,,,,19.764820099,19.772056580,235564.000000000,1718090439.860347033
1718090439.861354,,,,19.858819962,19.862953186,235565.000000000,1718090439.861354113
1718090439.862299,247.820999146,47493.000000000,1718090439.862298965,,,,
1718090439.862361,,,,19.831628799,19.841508865,235566.000000000,1718090439.862361193
1718090439.863368,,,,19.767538071,19.776960373,235567.000000000,1718090439.863368273
1718090439.864375,,,,19.823863983,19.828647614,235568.000000000,1718090439.864375353
1718090439.865382,,,,19.946542740,19.951446533,235569.000000000,1718090439.865382433
1718090439.866390,,,,20.153507233,20.160045624,235570.000000000,1718090439.866389513
1718090439.867299,247.147155762,47494.000000000,1718090439.867299080,,,,
1718090439.867397,,,,20.159181595,20.166440964,235571.000000000,1718090439.867396593
1718090439.868404,,,,20.089416504,20.095041275,235572.000000000,1718090439.868403673
1718090439.869411,,,,20.049964905,20.057825089,235573.000000000,1718090439.869410753
1718090439.870418,,,,20.122470856,20.132471085,235574.000000000,1718090439.870417833
1718090439.871425,,,,20.124490738,20.131484985,235575.000000000,1718090439.871424913
1718090439.872299,246.601654053,47495.000000000,1718090439.872298956,,,,
1718090439.872432,,,,20.156778336,20.163867950,235576.000000000,1718090439.872431993
1718090439.873439,,,,20.197502136,20.205242157,235577.000000000,1718090439.873439074
1718090439.874446,,,,20.150382996,20.157281876,235578.000000000,1718090439.874446154
1718090439.875453,,,,20.197574615,20.202260971,235579.000000000,1718090439.875453234
1718090439.876460,,,,20.317945480,20.323762894,235580.000000000,1718090439.876460314
1718090439.877299,246.120300293,47496.000000000,1718090439.877299070,,,,
1718090439.877467,,,,20.269527435,20.278398514,235581.000000000,1718090439.877467394
1718090439.878474,,,,20.163557053,20.172931671,235582.000000000,1718090439.878474474
1718090439.879482,,,,20.040493011,20.047584534,235583.000000000,1718090439.879481554
1718090439.880489,,,,19.900384903,19.908966064,235584.000000000,1718090439.880488634
1718090439.881496,,,,19.862016678,19.869997025,235585.000000000,1718090439.881495714
1718090439.882299,245.735183716,47497.000000000,1718090439.882298946,,,,
1718090439.882503,,,,19.860502243,19.866895676,235586.000000000,1718090439.882502794
1718090439.883510,,,,19.865718842,19.872039795,235587.000000000,1718090439.883509874
1718090439.884517,,,,19.964597702,19.970197678,235588.000000000,1718090439.884516954
1718090439.885524,,,,20.040372849,20.046525955,235589.000000000,1718090439.885524035
1718090439.886531,,,,19.955581665,19.962144852,235590.000000000,1718090439.886531115
1718090439.887299,245.366134644,47498.000000000,1718090439.887299061,,,,
1718090439.887538,,,,19.928272247,19.933368683,235591.000000000,1718090439.887538195
1718090439.888545,,,,19.987651825,19.992242813,235592.000000000,1718090439.888545275
1718090439.889552,,,,20.094007492,20.100425720,235593.000000000,1718090439.889552355
1718090439.890559,,,,20.176130295,20.183895111,235594.000000000,1718090439.890559435
1718090439.891567,,,,20.064630508,20.069917679,235595.000000000,1718090439.891566515
1718090439.892299,244.932846069,47499.000000000,1718090439.892298937,,,,
1718090439.892574,,,,19.997053146,20.003086090,235596.000000000,1718090439.892573595
1718090439.893581,,,,19.989238739,19.998685837,235597.000000000,1718090439.893580675
1718090439.894588,,,,19.927694321,19.937334061,235598.000000000,1718090439.894587755
1718090439.895595,,,,19.951351166,19.960870743,235599.000000000,1718090439.895594835
1718090439.896602,,,,20.021934509,20.030948639,235600.000000000,1718090439.896601915
1718090439.896987,244.274841309,47501.000000000,1718090439.896986961,,,,
1718090439.897299,244.579788208,47500.000000000,1718090439.897299051,,,,
1718090439.897609,,,,20.050470352,20.057224274,235601.000000000,1718090439.897608995
1718090439.898616,,,,20.043931961,20.053041458,235602.000000000,1718090439.898616076
1718090439.899623,,,,20.003999710,20.010633469,235603.000000000,1718090439.899623156
1718090439.900630,,,,20.041479111,20.047006607,235604.000000000,1718090439.900630236
1718090439.901637,,,,20.149734497,20.157714844,235605.000000000,1718090439.901637316
1718090439.901987,244.050170898,47502.000000000,1718090439.901987076,,,,
1718090439.902644,,,,20.060014725,20.070566177,235606.000000000,1718090439.902644396
1718090439.903651,,,,20.049676895,20.058835983,235607.000000000,1718090439.903651476
1718090439.904659,,,,20.059316635,20.065134048,235608.000000000,1718090439.904658556
1718090439.905666,,,,20.033161163,20.040588379,235609.000000000,1718090439.905665636
1718090439.906673,,,,20.115957260,20.123456955,235610.000000000,1718090439.906672716
1718090439.906987,243.664962769,47503.000000000,1718090439.906986952,,,,
1718090439.907680,,,,20.212575912,20.219497681,235611.000000000,1718090439.907679796
1718090439.908687,,,,20.301069260,20.305154800,235612.000000000,1718090439.908686876
1718090439.909694,,,,20.238899231,20.246110916,235613.000000000,1718090439.909693956
1718090439.910701,,,,20.197982788,20.205001831,235614.000000000,1718090439.910701036
1718090439.911708,,,,20.222673416,20.228273392,235615.000000000,1718090439.911708117
1718090439.911987,243.247650146,47504.000000000,1718090439.911987066,,,,
1718090439.912715,,,,20.227937698,20.235437393,235616.000000000,1718090439.912715197
1718090439.913722,,,,20.063451767,20.071720123,235617.000000000,1718090439.913722277
1718090439.914729,,,,19.954740524,19.963514328,235618.000000000,1718090439.914729357
1718090439.915736,,,,20.149108887,20.158676147,235619.000000000,1718090439.915736437
1718090439.916744,,,,20.357900620,20.365592957,235620.000000000,1718090439.916743517
1718090439.917751,,,,20.289697647,20.296428680,235621.000000000,1718090439.917750597
1718090439.918758,,,,20.150117874,20.159036636,235622.000000000,1718090439.918757677
1718090439.919765,,,,20.145526886,20.154443741,235623.000000000,1718090439.919764757
1718090439.920772,,,,20.211229324,20.219617844,235624.000000000,1718090439.920771837
1718090439.921779,,,,20.332538605,20.339700699,235625.000000000,1718090439.921778917
1718090439.922786,,,,20.408601761,20.414754868,235626.000000000,1718090439.922785997
1718090439.923793,,,,20.396100998,20.405139923,235627.000000000,1718090439.923793077
1718090439.924800,,,,20.305805206,20.312294006,235628.000000000,1718090439.924800158
1718090439.925807,,,,20.318714142,20.327873230,235629.000000000,1718090439.925807238
1718090439.926814,,,,20.272075653,20.281354904,235630.000000000,1718090439.926814318
1718090439.927821,,,,20.126438141,20.134683609,235631.000000000,1718090439.927821398
1718090439.928828,,,,20.015058517,20.022918701,235632.000000000,1718090439.928828478
1718090439.929836,,,,19.926132202,19.936347961,235633.000000000,1718090439.929835558
1718090439.930843,,,,20.033809662,20.041406631,235634.000000000,1718090439.930842638
1718090439.931850,,,,20.088983536,20.096986771,235635.000000000,1718090439.931849718
1718090439.932857,,,,20.058427811,20.061431885,235636.000000000,1718090439.932856798
1718090439.933864,,,,19.977458954,19.981929779,235637.000000000,1718090439.933863878
1718090439.934871,,,,19.979310989,19.985416412,235638.000000000,1718090439.934870958
1718090439.935878,,,,20.068813324,20.076698303,235639.000000000,1718090439.935878038
1718090439.936885,,,,20.147233963,20.154155731,235640.000000000,1718090439.936885118
1718090439.937892,,,,20.177429199,20.184230804,235641.000000000,1718090439.937892199
1718090439.938899,,,,20.181201935,20.187404633,235642.000000000,1718090439.938899279
1718090439.939906,,,,20.164350510,20.171489716,235643.000000000,1718090439.939906359
1718090439.940913,,,,20.119514465,20.128168106,235644.000000000,1718090439.940913439
1718090439.941921,,,,19.915554047,19.923871994,235645.000000000,1718090439.941920519
1718090439.942928,,,,19.805906296,19.811698914,235646.000000000,1718090439.942927599
1718090439.943935,,,,19.948104858,19.955171585,235647.000000000,1718090439.943934679
1718090439.944942,,,,20.062034607,20.071912766,235648.000000000,1718090439.944941759
1718090439.945949,,,,20.034435272,20.044387817,235649.000000000,1718090439.945948839
1718090439.946956,,,,19.882787704,19.889253616,235650.000000000,1718090439.946955919
1718090439.946987,240.309753418,47511.000000000,1718090439.946986914,,,,
1718090439.947963,,,,19.845523834,19.852592468,235651.000000000,1718090439.947962999
1718090439.948970,,,,20.039676666,20.048738480,235652.000000000,1718090439.948970079
1718090439.949977,,,,20.032247543,20.041406631,235653.000000000,1718090439.949977160
1718090439.950984,,,,19.953826904,19.961999893,235654.000000000,1718090439.950984240
1718090439.951987,240.020736694,47512.000000000,1718090439.951987028,,,,
1718090439.951991,,,,19.919521332,19.928367615,235655.000000000,1718090439.951991320
1718090439.952998,,,,19.885721207,19.894710541,235656.000000000,1718090439.952998400
1718090439.954005,,,,19.967361450,19.976039886,235657.000000000,1718090439.954005480
1718090439.955013,,,,20.118024826,20.123960495,235658.000000000,1718090439.955012560
1718090439.956020,,,,20.175529480,20.183029175,235659.000000000,1718090439.956019640
1718090439.956987,239.779861450,47513.000000000,1718090439.956986904,,,,
1718090439.957027,,,,20.168773651,20.178869247,235660.000000000,1718090439.957026720
1718090439.958034,,,,20.207239151,20.213127136,235661.000000000,1718090439.958033800
1718090439.959041,,,,20.276571274,20.284118652,235662.000000000,1718090439.959040880
1718090439.960048,,,,20.333740234,20.342514038,235663.000000000,1718090439.960047960
1718090439.961055,,,,20.303785324,20.310756683,235664.000000000,1718090439.961055040
1718090439.961987,239.555053711,47514.000000000,1718090439.961987019,,,,
1718090439.962062,,,,20.154373169,20.162090302,235665.000000000,1718090439.962062120
1718090439.963069,,,,20.016620636,20.025804520,235666.000000000,1718090439.963069201
1718090439.964076,,,,19.977916718,19.986232758,235667.000000000,1718090439.964076281
1718090439.965083,,,,19.897691727,19.905841827,235668.000000000,1718090439.965083361
1718090439.966090,,,,19.870599747,19.878795624,235669.000000000,1718090439.966090441
1718090439.966987,239.201751709,47515.000000000,1718090439.966986895,,,,
1718090439.967098,,,,19.888917923,19.895311356,235670.000000000,1718090439.967097521
1718090439.968105,,,,20.005634308,20.016380310,235671.000000000,1718090439.968104601
1718090439.969112,,,,20.133890152,20.144371033,235672.000000000,1718090439.969111681
1718090439.970119,,,,20.224090576,20.234043121,235673.000000000,1718090439.970118761
1718090439.971126,,,,20.254478455,20.259572983,235674.000000000,1718090439.971125841
1718090439.971987,238.896621704,47516.000000000,1718090439.971987009,,,,
1718090439.972133,,,,20.318641663,20.322704315,235675.000000000,1718090439.972132921
1718090439.973140,,,,20.338235855,20.347705841,235676.000000000,1718090439.973140001
1718090439.974147,,,,20.260848999,20.270175934,235677.000000000,1718090439.974147081
1718090439.975154,,,,20.183799744,20.191923141,235678.000000000,1718090439.975154161
1718090439.976161,,,,20.170600891,20.178894043,235679.000000000,1718090439.976161242
1718090439.976987,238.623580933,47517.000000000,1718090439.976986885,,,,
1718090439.977168,,,,20.117952347,20.127567291,235680.000000000,1718090439.977168322
1718090439.978175,,,,20.087324142,20.096818924,235681.000000000,1718090439.978175402
1718090439.979182,,,,19.918945313,19.926540375,235682.000000000,1718090439.979182482
1718090439.980190,,,,19.681303024,19.687698364,235683.000000000,1718090439.980189562
1718090439.981197,,,,19.729024887,19.735754013,235684.000000000,1718090439.981196642
1718090439.981987,238.382675171,47518.000000000,1718090439.981987000,,,,
1718090439.982204,,,,19.855020523,19.862833023,235685.000000000,1718090439.982203722
1718090439.983211,,,,19.926637650,19.931444168,235686.000000000,1718090439.983210802
1718090439.984218,,,,20.026502609,20.033016205,235687.000000000,1718090439.984217882
1718090439.985225,,,,20.120212555,20.130020142,235688.000000000,1718090439.985224962
1718090439.986232,,,,20.183727264,20.191610336,235689.000000000,1718090439.986232042
1718090439.986987,238.109619141,47519.000000000,1718090439.986986876,,,,
1718090439.987239,,,,20.240991592,20.251039505,235690.000000000,1718090439.987239122
1718090439.988246,,,,20.294626236,20.304866791,235691.000000000,1718090439.988246202
1718090439.989253,,,,20.270608902,20.277845383,235692.000000000,1718090439.989253283
1718090439.990260,,,,20.244501114,20.253107071,235693.000000000,1718090439.990260363
1718090439.991267,,,,20.252290726,20.260606766,235694.000000000,1718090439.991267443
1718090439.991987,237.804428101,47520.000000000,1718090439.991986990,,,,
1718090439.992275,,,,20.230413437,20.237264633,235695.000000000,1718090439.992274523
1718090439.993282,,,,20.217144012,20.226228714,235696.000000000,1718090439.993281603
1718090439.994289,,,,20.208465576,20.218608856,235697.000000000,1718090439.994288683
1718090439.995296,,,,20.056648254,20.065158844,235698.000000000,1718090439.995295763
1718090439.996303,,,,19.893606186,19.901008606,235699.000000000,1718090439.996302843
1718090439.997310,,,,20.027559280,20.034963608,235700.000000000,1718090439.997309923
1718090439.998317,,,,20.254453659,20.261400223,235701.000000000,1718090439.998317003
1718090439.999324,,,,20.302125931,20.308158875,235702.000000000,1718090439.999324083
1718090440.000331,,,,20.277219772,20.285945892,235703.000000000,1718090440.000331163
1718090440.001338,,,,20.315444946,20.323930740,235704.000000000,1718090440.001338243
1718090440.002345,,,,20.398143768,20.406221390,235705.000000000,1718090440.002345324
1718090440.003352,,,,20.391437531,20.400403976,235706.000000000,1718090440.003352404
1718090440.004359,,,,20.186130524,20.193847656,235707.000000000,1718090440.004359484
1718090440.005367,,,,19.921733856,19.928295135,235708.000000000,1718090440.005366564
1718090440.006374,,,,19.704118729,19.711280823,235709.000000000,1718090440.006373644
1718090440.007381,,,,19.678226471,19.688467026,235710.000000000,1718090440.007380724
1718090440.008388,,,,19.839994431,19.851486206,235711.000000000,1718090440.008387804
1718090440.009395,,,,20.019266129,20.029987335,235712.000000000,1718090440.009394884
1718090440.010402,,,,20.044820786,20.055782318,235713.000000000,1718090440.010401964
1718090440.011409,,,,20.048547745,20.055902481,235714.000000000,1718090440.011409044
1718090440.012416,,,,20.178726196,20.185913086,235715.000000000,1718090440.012416124
1718090440.013423,,,,20.313257217,20.321550369,235716.000000000,1718090440.013423204
1718090440.014430,,,,20.240270615,20.246519089,235717.000000000,1718090440.014430285
1718090440.015437,,,,20.079246521,20.086723328,235718.000000000,1718090440.015437365
1718090440.016444,,,,20.043378830,20.050205231,235719.000000000,1718090440.016444445
1718090440.017452,,,,20.078044891,20.088260651,235720.000000000,1718090440.017451525
1718090440.018459,,,,20.031791687,20.040107727,235721.000000000,1718090440.018458605
1718090440.019466,,,,19.942192078,19.950172424,235722.000000000,1718090440.019465685
1718090440.020473,,,,19.954788208,19.962745667,235723.000000000,1718090440.020472765
1718090440.021480,,,,20.019746780,20.028856277,235724.000000000,1718090440.021479845
1718090440.022487,,,,20.143795013,20.153314590,235725.000000000,1718090440.022486925
1718090440.023494,,,,20.196636200,20.204666138,235726.000000000,1718090440.023494005
1718090440.024501,,,,20.230894089,20.237216949,235727.000000000,1718090440.024501085
1718090440.025508,,,,20.164470673,20.172618866,235728.000000000,1718090440.025508165
1718090440.026515,,,,20.000417709,20.007629395,235729.000000000,1718090440.026515245
1718090440.027522,,,,19.887451172,19.895671844,235730.000000000,1718090440.027522326
1718090440.028529,,,,19.810617447,19.817852020,235731.000000000,1718090440.028529406
1718090440.029536,,,,19.838336945,19.847373962,235732.000000000,1718090440.029536486
1718090440.030544,,,,19.937671661,19.949281693,235733.000000000,1718090440.030543566
1718090440.031551,,,,20.010297775,20.017484665,235734.000000000,1718090440.031550646
1718090440.032558,,,,20.047561646,20.052440643,235735.000000000,1718090440.032557726
1718090440.033565,,,,20.176202774,20.184326172,235736.000000000,1718090440.033564806
1718090440.034572,,,,20.292390823,20.299097061,235737.000000000,1718090440.034571886
1718090440.035579,,,,20.352083206,20.357250214,235738.000000000,1718090440.035578966
1718090440.036586,,,,20.425527573,20.431776047,235739.000000000,1718090440.036586046
1718090440.037593,,,,20.530416489,20.540079117,235740.000000000,1718090440.037593126
1718090440.038600,,,,20.609292984,20.616119385,235741.000000000,1718090440.038600206
1718090440.039607,,,,20.474737167,20.480770111,235742.000000000,1718090440.039607286
1718090440.040614,,,,20.342874527,20.350566864,235743.000000000,1718090440.040614367
1718090440.041621,,,,20.301164627,20.310684204,235744.000000000,1718090440.041621447
1718090440.042629,,,,20.297246933,20.306020737,235745.000000000,1718090440.042628527
1718090440.043636,,,,20.078958511,20.087371826,235746.000000000,1718090440.043635607
1718090440.044643,,,,19.767080307,19.778162003,235747.000000000,1718090440.044642687
1718090440.045650,,,,19.585645676,19.594684601,235748.000000000,1718090440.045649767
1718090440.046657,,,,19.538864136,19.547372818,235749.000000000,1718090440.046656847
1718090440.047664,,,,19.621417999,19.630912781,235750.000000000,1718090440.047663927
1718090440.048671,,,,19.744602203,19.752967834,235751.000000000,1718090440.048671007
1718090440.049678,,,,19.888124466,19.892738342,235752.000000000,1718090440.049678087
1718090440.050685,,,,19.974670410,19.980775833,235753.000000000,1718090440.050685167
1718090440.051340,236.535369873,47531.000000000,1718090440.051340342,,,,
1718090440.051692,,,,20.004144669,20.011283875,235754.000000000,1718090440.051692247
1718090440.052699,,,,20.015659332,20.025033951,235755.000000000,1718090440.052699327
1718090440.053706,,,,20.011283875,20.020395279,235756.000000000,1718090440.053706408
1718090440.054713,,,,19.996620178,20.002363205,235757.000000000,1718090440.054713488
1718090440.055721,,,,20.043354034,20.050180435,235758.000000000,1718090440.055720568
1718090440.056340,236.390777588,47532.000000000,1718090440.056340456,,,,
1718090440.056728,,,,20.087108612,20.093814850,235759.000000000,1718090440.056727648
1718090440.057735,,,,20.109369278,20.115186691,235760.000000000,1718090440.057734728
1718090440.058742,,,,20.142498016,20.150140762,235761.000000000,1718090440.058741808
1718090440.059749,,,,20.141416550,20.146535873,235762.000000000,1718090440.059748888
1718090440.060756,,,,20.141992569,20.145814896,235763.000000000,1718090440.060755968
1718090440.061340,236.406845093,47533.000000000,1718090440.061340332,,,,
1718090440.061763,,,,20.159542084,20.166248322,235764.000000000,1718090440.061763048
1718090440.062770,,,,20.126005173,20.134466171,235765.000000000,1718090440.062770128
1718090440.063777,,,,20.084535599,20.091289520,235766.000000000,1718090440.063777208
1718090440.064784,,,,20.064029694,20.071048737,235767.000000000,1718090440.064784288
1718090440.065791,,,,20.009746552,20.020298004,235768.000000000,1718090440.065791368
1718090440.066340,236.230102539,47534.000000000,1718090440.066340446,,,,
1718090440.066798,,,,20.028593063,20.040468216,235769.000000000,1718090440.066798449
1718090440.067806,,,,20.069702148,20.078741074,235770.000000000,1718090440.067805529
1718090440.068813,,,,20.066865921,20.073884964,235771.000000000,1718090440.068812609
1718090440.069820,,,,20.053113937,20.061672211,235772.000000000,1718090440.069819689
1718090440.070827,,,,20.065904617,20.075326920,235773.000000000,1718090440.070826769
1718090440.071340,236.053375244,47535.000000000,1718090440.071340322,,,,
1718090440.071834,,,,20.071073532,20.079582214,235774.000000000,1718090440.071833849
1718090440.072841,,,,20.112758636,20.119009018,235775.000000000,1718090440.072840929
1718090440.073848,,,,20.175289154,20.181034088,235776.000000000,1718090440.073848009
1718090440.074855,,,,20.201877594,20.210578918,235777.000000000,1718090440.074855089
1718090440.075862,,,,20.155574799,20.163988113,235778.000000000,1718090440.075862169
1718090440.076340,235.828414917,47536.000000000,1718090440.076340437,,,,
1718090440.076869,,,,20.150455475,20.159276962,235779.000000000,1718090440.076869249
1718090440.077876,,,,20.211709976,20.220941544,235780.000000000,1718090440.077876329
1718090440.078883,,,,20.312223434,20.319482803,235781.000000000,1718090440.078883410
1718090440.079890,,,,20.354534149,20.361890793,235782.000000000,1718090440.079890490
1718090440.080898,,,,20.321599960,20.328762054,235783.000000000,1718090440.080897570
1718090440.081340,235.507080078,47537.000000000,1718090440.081340313,,,,
1718090440.081905,,,,20.356819153,20.363670349,235784.000000000,1718090440.081904650
1718090440.082912,,,,20.318954468,20.323978424,235785.000000000,1718090440.082911730
1718090440.083919,,,,20.241737366,20.249429703,235786.000000000,1718090440.083918810
1718090440.084926,,,,20.140213013,20.148363113,235787.000000000,1718090440.084925890
1718090440.085933,,,,20.032247543,20.039915085,235788.000000000,1718090440.085932970
1718090440.086340,235.121429443,47538.000000000,1718090440.086340427,,,,
1718090440.086940,,,,19.941133499,19.950387955,235789.000000000,1718090440.086940050
1718090440.087947,,,,19.867858887,19.876487732,235790.000000000,1718090440.087947130
1718090440.088954,,,,19.872184753,19.878387451,235791.000000000,1718090440.088954210
1718090440.089961,,,,19.897140503,19.901178360,235792.000000000,1718090440.089961290
1718090440.090968,,,,19.998998642,20.006187439,235793.000000000,1718090440.090968370
1718090440.091340,234.800018311,47539.000000000,1718090440.091340303,,,,
1718090440.091975,,,,20.237216949,20.245149612,235794.000000000,1718090440.091975451
1718090440.092983,,,,20.436441422,20.448291779,235795.000000000,1718090440.092982531
1718090440.093990,,,,20.562582016,20.570177078,235796.000000000,1718090440.093989611
1718090440.094997,,,,20.642372131,20.647781372,235797.000000000,1718090440.094996691
1718090440.096004,,,,20.633045197,20.639799118,235798.000000000,1718090440.096003771
1718090440.096340,234.414352417,47540.000000000,1718090440.096340418,,,,
1718090440.097011,,,,20.474906921,20.483463287,235799.000000000,1718090440.097010851
1718090440.098018,,,,20.254238129,20.260919571,235800.000000000,1718090440.098017931
1718090440.099025,,,,20.076385498,20.082323074,235801.000000000,1718090440.099025011
1718090440.100032,,,,19.931974411,19.942117691,235802.000000000,1718090440.100032091
1718090440.101039,,,,19.858940125,19.866991043,235803.000000000,1718090440.101039171
1718090440.102046,,,,19.739025116,19.744096756,235804.000000000,1718090440.102046251
1718090440.103053,,,,19.665773392,19.672912598,235805.000000000,1718090440.103053331
1718090440.104060,,,,19.801218033,19.810567856,235806.000000000,1718090440.104060411
1718090440.105067,,,,20.038232803,20.046598434,235807.000000000,1718090440.105067492
1718090440.106075,,,,20.118625641,20.126028061,235808.000000000,1718090440.106074572
1718090440.107082,,,,20.136367798,20.143434525,235809.000000000,1718090440.107081652
1718090440.108089,,,,20.150117874,20.157835007,235810.000000000,1718090440.108088732
1718090440.109096,,,,20.134059906,20.141895294,235811.000000000,1718090440.109095812
1718090440.110103,,,,20.041406631,20.046936035,235812.000000000,1718090440.110102892
1718090440.111110,,,,20.050758362,20.059772491,235813.000000000,1718090440.111109972
1718090440.112117,,,,20.061937332,20.072753906,235814.000000000,1718090440.112117052
1718090440.113124,,,,20.036382675,20.041549683,235815.000000000,1718090440.113124132
1718090440.114131,,,,19.997964859,20.001762390,235816.000000000,1718090440.114131212
1718090440.115138,,,,19.914472580,19.920482635,235817.000000000,1718090440.115138292
1718090440.116145,,,,19.923007965,19.932670593,235818.000000000,1718090440.116145372
1718090440.117152,,,,19.934402466,19.942790985,235819.000000000,1718090440.117152452
1718090440.118160,,,,19.960414886,19.968347549,235820.000000000,1718090440.118159533
