__time,/gdx/grip_force_stream/grip_force,/gdx/grip_force_stream/header/seq,/gdx/grip_force_stream/header/stamp,/shimmer0/emg_stream/emg_ch1,/shimmer0/emg_stream/emg_ch2,/shimmer0/emg_stream/header/seq,/shimmer0/emg_stream/header/stamp
1718090988.932134,,,,7.323535442,7.324660778,42130.000000000,1718090988.932133913
1718090988.933141,,,,7.296610355,7.298913479,42131.000000000,1718090988.933140993
1718090988.934148,,,,7.297836304,7.300524235,42132.000000000,1718090988.934148073
1718090988.935155,,,,7.300889492,7.305308342,42133.000000000,1718090988.935155153
1718090988.936162,,,,7.300072193,7.301822186,42134.000000000,1718090988.936162233
1718090988.937169,,,,7.296057224,7.296293259,42135.000000000,1718090988.937169313
1718090988.938176,,,,7.290647984,7.291316509,42136.000000000,1718090988.938176394
1718090988.938190,0.019037334,8496.000000000,1718090988.938189983,,,,
1718090988.939183,,,,7.291850090,7.296004772,42137.000000000,1718090988.939183474
1718090988.940191,,,,7.301971436,7.307760239,42138.000000000,1718090988.940190554
1718090988.941198,,,,7.309183598,7.313578129,42139.000000000,1718090988.941197634
1718090988.942205,,,,7.314063549,7.315765858,42140.000000000,1718090988.942204714
1718090988.943190,0.036723401,8497.000000000,1718090988.943189859,,,,
1718090988.943212,,,,7.319881439,7.321535587,42141.000000000,1718090988.943211794
1718090988.944219,,,,7.326396465,7.330935478,42142.000000000,1718090988.944218874
1718090988.945226,,,,7.335892677,7.337090015,42143.000000000,1718090988.945225954
1718090988.946233,,,,7.340580463,7.343123913,42144.000000000,1718090988.946233034
1718090988.947240,,,,7.343008518,7.346225262,42145.000000000,1718090988.947240114
1718090988.948190,0.054401219,8498.000000000,1718090988.948189974,,,,
1718090988.948247,,,,7.342648029,7.344133854,42146.000000000,1718090988.948247194
1718090988.949254,,,,7.340964794,7.342595100,42147.000000000,1718090988.949254274
1718090988.950261,,,,7.335844517,7.339686394,42148.000000000,1718090988.950261354
1718090988.951268,,,,7.334113598,7.336897373,42149.000000000,1718090988.951268435
1718090988.952276,,,,7.334209442,7.335359097,42150.000000000,1718090988.952275515
1718090988.953190,0.213503227,8499.000000000,1718090988.953189850,,,,
1718090988.953283,,,,7.332142353,7.333075047,42151.000000000,1718090988.953282595
1718090988.954290,,,,7.327405930,7.328627586,42152.000000000,1718090988.954289675
1718090988.955297,,,,7.323944092,7.327281475,42153.000000000,1718090988.955296755
1718090988.956304,,,,7.323054790,7.324853420,42154.000000000,1718090988.956303835
1718090988.957311,,,,7.319857597,7.322737694,42155.000000000,1718090988.957310915
1718090988.958190,0.337242991,8500.000000000,1718090988.958189964,,,,
1718090988.958318,,,,7.315842628,7.319444180,42156.000000000,1718090988.958317995
1718090988.959325,,,,7.320939064,7.322425365,42157.000000000,1718090988.959325075
1718090988.960332,,,,7.324545383,7.327233315,42158.000000000,1718090988.960332155
1718090988.961339,,,,7.332262516,7.334830284,42159.000000000,1718090988.961339235
1718090988.962346,,,,7.338729382,7.344446182,42160.000000000,1718090988.962346315
1718090988.963353,,,,7.336517334,7.343700886,42161.000000000,1718090988.963353395
1718090988.964360,,,,7.337407112,7.338844776,42162.000000000,1718090988.964360476
1718090988.965368,,,,7.337815762,7.338676453,42163.000000000,1718090988.965367556
1718090988.966375,,,,7.331709385,7.333676338,42164.000000000,1718090988.966374636
1718090988.967382,,,,7.337190628,7.339782238,42165.000000000,1718090988.967381716
1718090988.968389,,,,7.355773926,7.359086990,42166.000000000,1718090988.968388796
1718090988.969396,,,,7.362721920,7.367861748,42167.000000000,1718090988.969395876
1718090988.970403,,,,7.362721920,7.367260933,42168.000000000,1718090988.970402956
1718090988.971410,,,,7.357120037,7.361058235,42169.000000000,1718090988.971410036
1718090988.972417,,,,7.375222683,7.378463745,42170.000000000,1718090988.972417116
1718090988.973424,,,,7.404696465,7.406062126,42171.000000000,1718090988.973424196
1718090988.974431,,,,7.417221546,7.419909477,42172.000000000,1718090988.974431276
1718090988.975438,,,,7.402148247,7.404234886,42173.000000000,1718090988.975438356
1718090988.976445,,,,7.389094353,7.389354229,42174.000000000,1718090988.976445436
1718090988.977453,,,,7.368491650,7.371371746,42175.000000000,1718090988.977452517
1718090988.978460,,,,7.373491764,7.376179695,42176.000000000,1718090988.978459597
1718090988.979467,,,,7.392508030,7.393008232,42177.000000000,1718090988.979466677
1718090988.980474,,,,7.398085117,7.399066448,42178.000000000,1718090988.980473757
1718090988.981481,,,,7.398758411,7.401302338,42179.000000000,1718090988.981480837
1718090988.982488,,,,7.414865494,7.420342445,42180.000000000,1718090988.982487917
1718090988.983495,,,,7.429698467,7.431208611,42181.000000000,1718090988.983494997
1718090988.984502,,,,7.412581921,7.413082123,42182.000000000,1718090988.984502077
1718090988.985509,,,,7.413615704,7.414788723,42183.000000000,1718090988.985509157
1718090988.986516,,,,7.418399811,7.421279907,42184.000000000,1718090988.986516237
1718090988.987523,,,,7.427390575,7.433179855,42185.000000000,1718090988.987523317
1718090988.988530,,,,7.502637863,7.506599903,42186.000000000,1718090988.988530397
1718090988.989537,,,,7.578533649,7.581293583,42187.000000000,1718090988.989537477
1718090988.990545,,,,7.546006680,7.546747684,42188.000000000,1718090988.990544558
1718090988.991552,,,,7.521389484,7.525158882,42189.000000000,1718090988.991551638
1718090988.992559,,,,7.498719215,7.500060558,42190.000000000,1718090988.992558718
1718090988.993566,,,,7.487876892,7.492007256,42191.000000000,1718090988.993565798
1718090988.994573,,,,7.450349331,7.452676773,42192.000000000,1718090988.994572878
1718090988.995580,,,,7.376304626,7.377814770,42193.000000000,1718090988.995579958
1718090988.996587,,,,7.345027924,7.347908020,42194.000000000,1718090988.996587038
1718090988.997594,,,,7.338104248,7.343484879,42195.000000000,1718090988.997594118
1718090988.998601,,,,7.293725491,7.300427914,42196.000000000,1718090988.998601198
1718090988.999608,,,,7.277497768,7.280426502,42197.000000000,1718090988.999608278
1718090989.000615,,,,7.331228733,7.331536293,42198.000000000,1718090989.000615358
1718090989.001622,,,,7.375078678,7.376540184,42199.000000000,1718090989.001622438
1718090989.002630,,,,7.380271435,7.385555744,42200.000000000,1718090989.002629519
1718090989.003637,,,,7.385896683,7.387406826,42201.000000000,1718090989.003636599
1718090989.004644,,,,7.385608196,7.387887478,42202.000000000,1718090989.004643679
1718090989.005651,,,,7.423327923,7.424405098,42203.000000000,1718090989.005650759
1718090989.006658,,,,7.503479004,7.504964828,42204.000000000,1718090989.006657839
1718090989.007665,,,,7.547400951,7.548165798,42205.000000000,1718090989.007664919
1718090989.008097,3.693185091,8511.000000000,1718090989.008097172,,,,
1718090989.008672,,,,7.493093491,7.496094227,42206.000000000,1718090989.008671999
1718090989.009679,,,,7.414721489,7.417697906,42207.000000000,1718090989.009679079
1718090989.010686,,,,7.360004902,7.364856720,42208.000000000,1718090989.010686159
1718090989.011693,,,,7.351182461,7.354158878,42209.000000000,1718090989.011693239
1718090989.012700,,,,7.349595547,7.352499962,42210.000000000,1718090989.012700319
1718090989.013097,4.716603279,8512.000000000,1718090989.013097286,,,,
1718090989.013707,,,,7.364981651,7.368775368,42211.000000000,1718090989.013707399
1718090989.014714,,,,7.379189491,7.380242825,42212.000000000,1718090989.014714479
1718090989.015722,,,,7.375391006,7.377838612,42213.000000000,1718090989.015721560
1718090989.016729,,,,7.330435276,7.333676338,42214.000000000,1718090989.016728640
1718090989.017736,,,,7.292980194,7.295643806,42215.000000000,1718090989.017735720
1718090989.018097,6.215560436,8513.000000000,1718090989.018097162,,,,
1718090989.018743,,,,7.286008358,7.286989212,42216.000000000,1718090989.018742800
1718090989.019750,,,,7.289614201,7.289850235,42217.000000000,1718090989.019749880
1718090989.020757,,,,7.280334949,7.283575535,42218.000000000,1718090989.020756960
1718090989.021764,,,,7.279421329,7.283070564,42219.000000000,1718090989.021764040
1718090989.022771,,,,7.296514034,7.296557426,42220.000000000,1718090989.022771120
1718090989.023097,7.836789608,8514.000000000,1718090989.023097277,,,,
1718090989.023778,,,,7.332334518,7.334685802,42221.000000000,1718090989.023778200
1718090989.024785,,,,7.377747059,7.380771637,42222.000000000,1718090989.024785280
1718090989.026799,,,,7.459340572,7.461307526,42224.000000000,1718090989.026799440
1718090989.027807,,,,7.427126408,7.427987099,42225.000000000,1718090989.027806520
1718090989.028097,9.773611069,8515.000000000,1718090989.028097153,,,,
1718090989.028814,,,,7.400321007,7.399931908,42226.000000000,1718090989.028813601
1718090989.029821,,,,7.394142628,7.395821095,42227.000000000,1718090989.029820681
1718090989.030828,,,,7.444892406,7.447940826,42228.000000000,1718090989.030827761
1718090989.031835,,,,7.488982677,7.486886501,42229.000000000,1718090989.031834841
1718090989.032842,,,,7.448955059,7.450320721,42230.000000000,1718090989.032841921
1718090989.033097,11.972424507,8516.000000000,1718090989.033097267,,,,
1718090989.033849,,,,7.410586357,7.413682938,42231.000000000,1718090989.033849001
1718090989.034856,,,,7.391233921,7.393537045,42232.000000000,1718090989.034856081
1718090989.035863,,,,7.386858463,7.386469364,42233.000000000,1718090989.035863161
1718090989.036870,,,,7.352191925,7.352836609,42234.000000000,1718090989.036870241
1718090989.037877,,,,7.312525272,7.315717697,42235.000000000,1718090989.037877321
1718090989.038097,14.467542648,8517.000000000,1718090989.038097143,,,,
1718090989.038884,,,,7.289878845,7.293480396,42236.000000000,1718090989.038884401
1718090989.039891,,,,7.314087868,7.318891048,42237.000000000,1718090989.039891481
1718090989.040899,,,,7.353754520,7.358942509,42238.000000000,1718090989.040898561
1718090989.041906,,,,7.355701923,7.360192776,42239.000000000,1718090989.041905642
1718090989.042913,,,,7.352384090,7.353942394,42240.000000000,1718090989.042912722
1718090989.043097,17.029890060,8518.000000000,1718090989.043097258,,,,
1718090989.043920,,,,7.366327763,7.368895531,42241.000000000,1718090989.043919802
1718090989.044927,,,,7.388276577,7.391421318,42242.000000000,1718090989.044926882
1718090989.045934,,,,7.381185055,7.383752346,42243.000000000,1718090989.045933962
1718090989.046941,,,,7.388974190,7.392094612,42244.000000000,1718090989.046941042
1718090989.047948,,,,7.472707272,7.477775097,42245.000000000,1718090989.047948122
1718090989.048097,19.992046356,8519.000000000,1718090989.048097134,,,,
1718090989.048955,,,,7.590096951,7.592712879,42246.000000000,1718090989.048955202
1718090989.049962,,,,7.610435486,7.611392498,42247.000000000,1718090989.049962282
1718090989.050969,,,,7.562498569,7.565955639,42248.000000000,1718090989.050969362
1718090989.051976,,,,7.594640732,7.599684715,42249.000000000,1718090989.051976442
1718090989.052984,,,,7.611444950,7.614637852,42250.000000000,1718090989.052983522
1718090989.053097,23.089977264,8520.000000000,1718090989.053097248,,,,
1718090989.053991,,,,7.548723221,7.548718929,42251.000000000,1718090989.053990602
1718090989.054998,,,,7.419337273,7.420654774,42252.000000000,1718090989.054997683
1718090989.056005,,,,7.322574139,7.324420452,42253.000000000,1718090989.056004763
1718090989.057012,,,,7.248456955,7.251024723,42254.000000000,1718090989.057011843
1718090989.058019,,,,7.242735386,7.246505260,42255.000000000,1718090989.058018923
1718090989.059026,,,,7.299687386,7.303120613,42256.000000000,1718090989.059026003
1718090989.060033,,,,7.352913380,7.357836723,42257.000000000,1718090989.060033083
1718090989.061040,,,,7.324425220,7.326704502,42258.000000000,1718090989.061040163
1718090989.062047,,,,7.303942680,7.305140018,42259.000000000,1718090989.062047243
1718090989.063054,,,,7.355677605,7.358221531,42260.000000000,1718090989.063054323
1718090989.063117,26.375457764,8521.000000000,1718090989.063117266,,,,
1718090989.064061,,,,7.397171974,7.399306774,42261.000000000,1718090989.064061403
1718090989.065068,,,,7.425827980,7.428997040,42262.000000000,1718090989.065068483
1718090989.066076,,,,7.426837921,7.432050228,42263.000000000,1718090989.066075563
1718090989.067083,,,,7.446863651,7.450849533,42264.000000000,1718090989.067082644
1718090989.068090,,,,7.493670464,7.497368336,42265.000000000,1718090989.068089724
1718090989.068117,29.864995956,8522.000000000,1718090989.068117380,,,,
1718090989.069097,,,,7.545429707,7.547444820,42266.000000000,1718090989.069096804
1718090989.070104,,,,7.541150570,7.545040607,42267.000000000,1718090989.070103884
1718090989.071111,,,,7.478621006,7.481813908,42268.000000000,1718090989.071110964
1718090989.072118,,,,7.437800407,7.441040993,42269.000000000,1718090989.072118044
1718090989.073117,33.487953186,8523.000000000,1718090989.073117256,,,,
1718090989.073125,,,,7.396739006,7.400220394,42270.000000000,1718090989.073125124
1718090989.074132,,,,7.361255169,7.367308617,42271.000000000,1718090989.074132204
1718090989.075139,,,,7.381954193,7.386517048,42272.000000000,1718090989.075139284
1718090989.076146,,,,7.417750359,7.421664715,42273.000000000,1718090989.076146364
1718090989.077153,,,,7.372914791,7.374929905,42274.000000000,1718090989.077153444
1718090989.078117,37.330455780,8524.000000000,1718090989.078117371,,,,
1718090989.078161,,,,7.333728790,7.334228992,42275.000000000,1718090989.078160524
1718090989.079168,,,,7.349715710,7.350624561,42276.000000000,1718090989.079167604
1718090989.080175,,,,7.375631332,7.377478123,42277.000000000,1718090989.080174685
1718090989.081182,,,,7.403277874,7.405773640,42278.000000000,1718090989.081181765
1718090989.082189,,,,7.373660088,7.378175259,42279.000000000,1718090989.082188845
1718090989.083117,41.252552032,8525.000000000,1718090989.083117247,,,,
1718090989.083196,,,,7.337912083,7.340695858,42280.000000000,1718090989.083195925
1718090989.084203,,,,7.352240086,7.355072021,42281.000000000,1718090989.084203005
1718090989.085210,,,,7.397508144,7.402624607,42282.000000000,1718090989.085210085
1718090989.086217,,,,7.455590248,7.460610390,42283.000000000,1718090989.086217165
1718090989.087224,,,,7.491699219,7.495156288,42284.000000000,1718090989.087224245
1718090989.088117,45.236450195,8526.000000000,1718090989.088117361,,,,
1718090989.088231,,,,7.559349537,7.563143253,42285.000000000,1718090989.088231325
1718090989.089238,,,,7.611156464,7.615839958,42286.000000000,1718090989.089238405
1718090989.090245,,,,7.580889702,7.584899902,42287.000000000,1718090989.090245485
1718090989.091253,,,,7.569350243,7.570836067,42288.000000000,1718090989.091252565
1718090989.092260,,,,7.528673649,7.530496120,42289.000000000,1718090989.092259645
1718090989.093117,49.229957581,8527.000000000,1718090989.093117237,,,,
1718090989.093267,,,,7.485857487,7.492536068,42290.000000000,1718090989.093266726
1718090989.094274,,,,7.463018894,7.467774391,42291.000000000,1718090989.094273806
1718090989.095281,,,,7.449940681,7.450945854,42292.000000000,1718090989.095280886
1718090989.096288,,,,7.440420628,7.443108559,42293.000000000,1718090989.096287966
1718090989.097295,,,,7.459412575,7.461764336,42294.000000000,1718090989.097295046
1718090989.098117,53.267452240,8528.000000000,1718090989.098117352,,,,
1718090989.098302,,,,7.434434414,7.435487747,42295.000000000,1718090989.098302126
1718090989.099309,,,,7.368203163,7.370770454,42296.000000000,1718090989.099309206
1718090989.100316,,,,7.336998463,7.340551853,42297.000000000,1718090989.100316286
1718090989.101323,,,,7.325410843,7.331223965,42298.000000000,1718090989.101323366
1718090989.102330,,,,7.285936356,7.291845798,42299.000000000,1718090989.102330446
1718090989.103338,,,,7.350653172,7.355673313,42300.000000000,1718090989.103337526
1718090989.104345,,,,7.412125111,7.413130283,42301.000000000,1718090989.104344606
1718090989.105352,,,,7.413519382,7.413394451,42302.000000000,1718090989.105351686
1718090989.106359,,,,7.429891109,7.431088448,42303.000000000,1718090989.106358767
1718090989.107366,,,,7.445781708,7.447580338,42304.000000000,1718090989.107365847
1718090989.108373,,,,7.460927486,7.463855743,42305.000000000,1718090989.108372927
1718090989.109380,,,,7.490617275,7.492656231,42306.000000000,1718090989.109380007
1718090989.110387,,,,7.492540836,7.496214390,42307.000000000,1718090989.110387087
1718090989.111394,,,,7.478693485,7.481549740,42308.000000000,1718090989.111394167
1718090989.112401,,,,7.448546410,7.453686714,42309.000000000,1718090989.112401247
1718090989.113117,65.075576782,8531.000000000,1718090989.113117218,,,,
1718090989.113408,,,,7.440060139,7.442771912,42310.000000000,1718090989.113408327
1718090989.114415,,,,7.414024353,7.414572716,42311.000000000,1718090989.114415407
1718090989.115422,,,,7.374501705,7.375819206,42312.000000000,1718090989.115422487
1718090989.116430,,,,7.387290955,7.390940666,42313.000000000,1718090989.116429567
1718090989.117437,,,,7.440949440,7.446618557,42314.000000000,1718090989.117436647
1718090989.118117,68.825561523,8532.000000000,1718090989.118117332,,,,
1718090989.118444,,,,7.385416031,7.388777256,42315.000000000,1718090989.118443727
1718090989.119451,,,,7.373107433,7.376708508,42316.000000000,1718090989.119450808
1718090989.120458,,,,7.452368736,7.451378822,42317.000000000,1718090989.120457888
1718090989.121465,,,,7.482275486,7.484073639,42318.000000000,1718090989.121464968
1718090989.122472,,,,7.520644188,7.524990559,42319.000000000,1718090989.122472048
1718090989.123117,72.551635742,8533.000000000,1718090989.123117208,,,,
1718090989.123479,,,,7.502397060,7.503113747,42320.000000000,1718090989.123479128
1718090989.124486,,,,7.532784462,7.532852173,42321.000000000,1718090989.124486208
1718090989.125493,,,,7.525572300,7.528500557,42322.000000000,1718090989.125493288
1718090989.126500,,,,7.431237221,7.432314396,42323.000000000,1718090989.126500368
1718090989.127507,,,,7.421837330,7.424477100,42324.000000000,1718090989.127507448
1718090989.128117,76.202812195,8534.000000000,1718090989.128117323,,,,
1718090989.128515,,,,7.468067169,7.473784447,42325.000000000,1718090989.128514528
1718090989.129522,,,,7.533698082,7.537900448,42326.000000000,1718090989.129521608
1718090989.130529,,,,7.562498569,7.567494392,42327.000000000,1718090989.130528688
1718090989.131536,,,,7.548386574,7.550906658,42328.000000000,1718090989.131535769
1718090989.132543,,,,7.539179325,7.540400982,42329.000000000,1718090989.132542849
1718090989.133117,79.626319885,8535.000000000,1718090989.133117199,,,,
1718090989.133550,,,,7.505907059,7.507176876,42330.000000000,1718090989.133549929
1718090989.134557,,,,7.469654083,7.471236229,42331.000000000,1718090989.134557009
1718090989.135564,,,,7.450397491,7.453301907,42332.000000000,1718090989.135564089
1718090989.136571,,,,7.421741009,7.423900127,42333.000000000,1718090989.136571169
1718090989.137578,,,,7.422799110,7.423948288,42334.000000000,1718090989.137578249
1718090989.138117,83.061164856,8536.000000000,1718090989.138117313,,,,
1718090989.138585,,,,7.424842358,7.427145958,42335.000000000,1718090989.138585329
1718090989.139592,,,,7.378324032,7.379497528,42336.000000000,1718090989.139592409
1718090989.140599,,,,7.370943546,7.372405529,42337.000000000,1718090989.140599489
1718090989.141607,,,,7.386377811,7.391662121,42338.000000000,1718090989.141606569
1718090989.142614,,,,7.433424950,7.437723637,42339.000000000,1718090989.142613649
1718090989.143117,86.524261475,8537.000000000,1718090989.143117189,,,,
1718090989.143621,,,,7.469341278,7.471861362,42340.000000000,1718090989.143620729
1718090989.144628,,,,7.454316139,7.455129147,42341.000000000,1718090989.144627810
1718090989.145635,,,,7.417654514,7.421400070,42342.000000000,1718090989.145634890
1718090989.146642,,,,7.414937973,7.418707371,42343.000000000,1718090989.146641970
1718090989.147649,,,,7.430011272,7.432458878,42344.000000000,1718090989.147649050
1718090989.148117,89.676773071,8538.000000000,1718090989.148117304,,,,
1718090989.148656,,,,7.428087711,7.432386398,42345.000000000,1718090989.148656130
1718090989.149663,,,,7.433761597,7.436978340,42346.000000000,1718090989.149663210
1718090989.150670,,,,7.451287270,7.453445911,42347.000000000,1718090989.150670290
1718090989.151677,,,,7.486866951,7.488184929,42348.000000000,1718090989.151677370
1718090989.152684,,,,7.515595436,7.515951633,42349.000000000,1718090989.152684450
1718090989.153117,92.739990234,8539.000000000,1718090989.153117180,,,,
1718090989.153692,,,,7.464148521,7.467702389,42350.000000000,1718090989.153691530
1718090989.154699,,,,7.440228462,7.444671154,42351.000000000,1718090989.154698610
1718090989.155706,,,,7.430876732,7.436016560,42352.000000000,1718090989.155705690
1718090989.156713,,,,7.432102680,7.433492661,42353.000000000,1718090989.156712770
1718090989.157465,98.768722534,8541.000000000,1718090989.157465219,,,,
1718090989.157720,,,,7.406018734,7.410485744,42354.000000000,1718090989.157719851
1718090989.158117,95.798721313,8540.000000000,1718090989.158117294,,,,
1718090989.158727,,,,7.472514629,7.478977203,42355.000000000,1718090989.158726931
1718090989.159734,,,,7.579687595,7.585813522,42356.000000000,1718090989.159734011
1718090989.160741,,,,7.620604515,7.626225471,42357.000000000,1718090989.160741091
1718090989.161748,,,,7.596443653,7.600550175,42358.000000000,1718090989.161748171
1718090989.162755,,,,7.539659977,7.540304661,42359.000000000,1718090989.162755251
1718090989.163762,,,,7.525043488,7.526216984,42360.000000000,1718090989.163762331
1718090989.164769,,,,7.510450840,7.514989853,42361.000000000,1718090989.164769411
1718090989.165776,,,,7.380078793,7.385363102,42362.000000000,1718090989.165776491
1718090989.166784,,,,7.336974144,7.339613914,42363.000000000,1718090989.166783571
1718090989.167791,,,,7.424241543,7.426736832,42364.000000000,1718090989.167790651
1718090989.168798,,,,7.429409981,7.431785583,42365.000000000,1718090989.168797731
1718090989.169805,,,,7.432271004,7.435343742,42366.000000000,1718090989.169804811
1718090989.170812,,,,7.418399811,7.420895100,42367.000000000,1718090989.170811892
1718090989.171819,,,,7.440132141,7.442916393,42368.000000000,1718090989.171818972
1718090989.172826,,,,7.506027222,7.505686283,42369.000000000,1718090989.172826052
1718090989.173833,,,,7.580769539,7.582327366,42370.000000000,1718090989.173833132
1718090989.174840,,,,7.627504349,7.628942013,42371.000000000,1718090989.174840212
1718090989.175847,,,,7.564830780,7.568840504,42372.000000000,1718090989.175847292
1718090989.176854,,,,7.555671215,7.560378551,42373.000000000,1718090989.176854372
1718090989.177861,,,,7.597765923,7.602449417,42374.000000000,1718090989.177861452
1718090989.178869,,,,7.527615547,7.530207634,42375.000000000,1718090989.178868532
1718090989.179876,,,,7.397315979,7.401422501,42376.000000000,1718090989.179875612
1718090989.180883,,,,7.372145653,7.375386238,42377.000000000,1718090989.180882692
1718090989.181890,,,,7.378997326,7.380242825,42378.000000000,1718090989.181889772
1718090989.182897,,,,7.370871544,7.371371746,42379.000000000,1718090989.182896852
1718090989.183904,,,,7.422871113,7.425823689,42380.000000000,1718090989.183903933
1718090989.184911,,,,7.445901871,7.450345039,42381.000000000,1718090989.184911013
1718090989.185918,,,,7.406162739,7.409836769,42382.000000000,1718090989.185918093
1718090989.186925,,,,7.354403496,7.358245373,42383.000000000,1718090989.186925173
1718090989.187932,,,,7.381449223,7.384642124,42384.000000000,1718090989.187932253
1718090989.188939,,,,7.440011978,7.441786289,42385.000000000,1718090989.188939333
1718090989.189946,,,,7.462177277,7.465129852,42386.000000000,1718090989.189946413
1718090989.190953,,,,7.434915543,7.439382553,42387.000000000,1718090989.190953493
1718090989.191961,,,,7.445324898,7.450609207,42388.000000000,1718090989.191960573
1718090989.192968,,,,7.464605331,7.467485905,42389.000000000,1718090989.192967653
1718090989.193975,,,,7.502373219,7.505445957,42390.000000000,1718090989.193974733
1718090989.194982,,,,7.470759869,7.474986553,42391.000000000,1718090989.194981813
1718090989.195989,,,,7.408999920,7.409692287,42392.000000000,1718090989.195988894
1718090989.196996,,,,7.456287384,7.457172394,42393.000000000,1718090989.196995974
1718090989.198003,,,,7.542857647,7.545425415,42394.000000000,1718090989.198003054
1718090989.199010,,,,7.510619164,7.511744499,42395.000000000,1718090989.199010134
1718090989.200017,,,,7.461816788,7.466500282,42396.000000000,1718090989.200017214
1718090989.201024,,,,7.494704247,7.500156879,42397.000000000,1718090989.201024294
1718090989.202031,,,,7.539636135,7.543910503,42398.000000000,1718090989.202031374
1718090989.203038,,,,7.507830620,7.510662556,42399.000000000,1718090989.203038454
1718090989.204046,,,,7.390464306,7.394618988,42400.000000000,1718090989.204045534
1718090989.205053,,,,7.325915813,7.331584454,42401.000000000,1718090989.205052614
1718090989.206060,,,,7.419601440,7.424597263,42402.000000000,1718090989.206059694
1718090989.207067,,,,7.458090305,7.461379528,42403.000000000,1718090989.207066774
1718090989.207465,125.914695740,8551.000000000,1718090989.207465172,,,,
1718090989.208074,,,,7.450157166,7.454648018,42404.000000000,1718090989.208073854
1718090989.209081,,,,7.512830734,7.516240120,42405.000000000,1718090989.209080935
1718090989.210088,,,,7.548891544,7.551315308,42406.000000000,1718090989.210088015
1718090989.211095,,,,7.513864517,7.515446663,42407.000000000,1718090989.211095095
1718090989.212102,,,,7.454219818,7.455080986,42408.000000000,1718090989.212102175
1718090989.212465,128.477828979,8552.000000000,1718090989.212465286,,,,
1718090989.213109,,,,7.373996735,7.375819206,42409.000000000,1718090989.213109255
1718090989.214116,,,,7.350653172,7.350552559,42410.000000000,1718090989.214116335
1718090989.215123,,,,7.427366734,7.428203583,42411.000000000,1718090989.215123415
1718090989.216130,,,,7.534178734,7.536866665,42412.000000000,1718090989.216130495
1718090989.217138,,,,7.569181919,7.572470665,42413.000000000,1718090989.217137575
1718090989.217465,130.971618652,8553.000000000,1718090989.217465162,,,,
1718090989.218145,,,,7.521365166,7.523692608,42414.000000000,1718090989.218144655
1718090989.219152,,,,7.557546139,7.558118820,42415.000000000,1718090989.219151735
1718090989.220159,,,,7.511869431,7.514605045,42416.000000000,1718090989.220158815
1718090989.221166,,,,7.394382954,7.397095203,42417.000000000,1718090989.221165895
1718090989.222173,,,,7.376352787,7.380242825,42418.000000000,1718090989.222172976
1718090989.222465,133.529067993,8554.000000000,1718090989.222465277,,,,
1718090989.223180,,,,7.466697216,7.466572285,42419.000000000,1718090989.223180056
1718090989.224187,,,,7.468331814,7.469769478,42420.000000000,1718090989.224187136
1718090989.225194,,,,7.381473541,7.383680344,42421.000000000,1718090989.225194216
1718090989.226201,,,,7.358298302,7.360817909,42422.000000000,1718090989.226201296
1718090989.227208,,,,7.534250736,7.537203312,42423.000000000,1718090989.227208376
1718090989.227465,136.000778198,8555.000000000,1718090989.227465153,,,,
1718090989.228215,,,,7.574855328,7.579514503,42424.000000000,1718090989.228215456
1718090989.229223,,,,7.583414078,7.587808609,42425.000000000,1718090989.229222536
1718090989.230230,,,,7.553843975,7.554777145,42426.000000000,1718090989.230229616
1718090989.231237,,,,7.617647648,7.619325638,42427.000000000,1718090989.231236696
1718090989.232244,,,,7.848677158,7.852350712,42428.000000000,1718090989.232243776
1718090989.232465,138.469833374,8556.000000000,1718090989.232465267,,,,
1718090989.233251,,,,7.836296558,7.836700439,42429.000000000,1718090989.233250856
1718090989.234258,,,,7.612021923,7.612786770,42430.000000000,1718090989.234257936
1718090989.235265,,,,7.470038891,7.473928452,42431.000000000,1718090989.235265017
1718090989.236272,,,,7.481049061,7.484049797,42432.000000000,1718090989.236272097
1718090989.237279,,,,7.433713436,7.436161041,42433.000000000,1718090989.237279177
1718090989.237465,141.019012451,8557.000000000,1718090989.237465143,,,,
1718090989.238286,,,,7.312212467,7.314059258,42434.000000000,1718090989.238286257
1718090989.239293,,,,7.206314087,7.208785534,42435.000000000,1718090989.239293337
1718090989.240300,,,,7.177320957,7.180706024,42436.000000000,1718090989.240300417
1718090989.241307,,,,7.326468468,7.330021858,42437.000000000,1718090989.241307497
1718090989.242315,,,,7.421308517,7.424813747,42438.000000000,1718090989.242314577
1718090989.242465,143.598495483,8558.000000000,1718090989.242465258,,,,
1718090989.243322,,,,7.457777977,7.459744930,42439.000000000,1718090989.243321657
1718090989.244329,,,,7.484366894,7.488305092,42440.000000000,1718090989.244328737
1718090989.245336,,,,7.488742352,7.493497849,42441.000000000,1718090989.245335817
1718090989.246343,,,,7.491507053,7.496334553,42442.000000000,1718090989.246342897
1718090989.247350,,,,7.522495270,7.525351524,42443.000000000,1718090989.247349977
1718090989.247465,146.109146118,8559.000000000,1718090989.247465134,,,,
1718090989.248357,,,,7.409648895,7.412505150,42444.000000000,1718090989.248357058
1718090989.249364,,,,7.544444084,7.550041199,42445.000000000,1718090989.249364138
1718090989.250371,,,,7.581683159,7.584731579,42446.000000000,1718090989.250371218
1718090989.251378,,,,7.618921757,7.621129036,42447.000000000,1718090989.251378298
1718090989.252385,,,,7.738643646,7.741331577,42448.000000000,1718090989.252385378
1718090989.252465,148.551223755,8560.000000000,1718090989.252465248,,,,
1718090989.253392,,,,7.672700405,7.672816277,42449.000000000,1718090989.253392458
1718090989.254400,,,,7.478909492,7.479674339,42450.000000000,1718090989.254399538
1718090989.255407,,,,7.339113712,7.342306614,42451.000000000,1718090989.255406618
1718090989.256414,,,,7.358803272,7.362188339,42452.000000000,1718090989.256413698
1718090989.257421,,,,7.359211922,7.360433102,42453.000000000,1718090989.257420778
1718090989.258428,,,,7.272569656,7.274343967,42454.000000000,1718090989.258427858
1718090989.259435,,,,7.250380039,7.251409531,42455.000000000,1718090989.259434938
1718090989.260442,,,,7.262833118,7.263669968,42456.000000000,1718090989.260442019
1718090989.261449,,,,7.312116146,7.316102505,42457.000000000,1718090989.261449099
1718090989.261815,151.023803711,8561.000000000,1718090989.261814594,,,,
1718090989.262456,,,,7.421308517,7.423347473,42458.000000000,1718090989.262456179
1718090989.263463,,,,7.486169815,7.490828991,42459.000000000,1718090989.263463259
1718090989.264470,,,,7.506820679,7.511287689,42460.000000000,1718090989.264470339
1718090989.265477,,,,7.496891975,7.498834610,42461.000000000,1718090989.265477419
1718090989.266484,,,,7.506892681,7.509484768,42462.000000000,1718090989.266484499
1718090989.266815,153.526794434,8562.000000000,1718090989.266814709,,,,
1718090989.267492,,,,7.507133007,7.509171963,42463.000000000,1718090989.267491579
1718090989.268499,,,,7.487420082,7.488305092,42464.000000000,1718090989.268498659
1718090989.269506,,,,7.445517540,7.448709965,42465.000000000,1718090989.269505739
1718090989.270513,,,,7.396667004,7.400508881,42466.000000000,1718090989.270512819
1718090989.271520,,,,7.381521225,7.382886887,42467.000000000,1718090989.271519899
1718090989.271815,155.961517334,8563.000000000,1718090989.271814585,,,,
1718090989.272527,,,,7.414745331,7.418370724,42468.000000000,1718090989.272526979
1718090989.273534,,,,7.455518246,7.461042881,42469.000000000,1718090989.273534060
1718090989.274541,,,,7.449195385,7.452316284,42470.000000000,1718090989.274541140
1718090989.275548,,,,7.407052517,7.409211636,42471.000000000,1718090989.275548220
1718090989.276555,,,,7.359019279,7.363197803,42472.000000000,1718090989.276555300
1718090989.276815,158.196762085,8564.000000000,1718090989.276814699,,,,
1718090989.277562,,,,7.336493492,7.342210293,42473.000000000,1718090989.277562380
1718090989.278569,,,,7.360317707,7.363799095,42474.000000000,1718090989.278569460
1718090989.279577,,,,7.376785278,7.378992558,42475.000000000,1718090989.279576540
1718090989.280584,,,,7.384358406,7.385531425,42476.000000000,1718090989.280583620
1718090989.281591,,,,7.412220955,7.411399364,42477.000000000,1718090989.281590700
1718090989.281815,160.413635254,8565.000000000,1718090989.281814575,,,,
1718090989.282598,,,,7.415875435,7.418274879,42478.000000000,1718090989.282597780
1718090989.283605,,,,7.379045010,7.382839203,42479.000000000,1718090989.283604860
1718090989.284612,,,,7.440901756,7.445825100,42480.000000000,1718090989.284611940
1718090989.285619,,,,7.552305222,7.556123257,42481.000000000,1718090989.285619020
1718090989.286626,,,,7.581178188,7.584659576,42482.000000000,1718090989.286626101
1718090989.286815,162.497390747,8566.000000000,1718090989.286814690,,,,
1718090989.287633,,,,7.479967594,7.483689308,42483.000000000,1718090989.287633181
1718090989.288640,,,,7.389983654,7.391902447,42484.000000000,1718090989.288640261
1718090989.289647,,,,7.462345600,7.462124825,42485.000000000,1718090989.289647341
1718090989.290654,,,,7.423760414,7.425823689,42486.000000000,1718090989.290654421
1718090989.291662,,,,7.386281490,7.389329910,42487.000000000,1718090989.291661501
1718090989.291815,164.448364258,8567.000000000,1718090989.291814566,,,,
1718090989.292669,,,,7.445878029,7.448614120,42488.000000000,1718090989.292668581
1718090989.293676,,,,7.469461918,7.473087311,42489.000000000,1718090989.293675661
1718090989.294683,,,,7.504777431,7.507657528,42490.000000000,1718090989.294682741
1718090989.295690,,,,7.511893272,7.514316559,42491.000000000,1718090989.295689821
1718090989.296697,,,,7.464509487,7.467702389,42492.000000000,1718090989.296696901
1718090989.296815,166.283279419,8568.000000000,1718090989.296814680,,,,
1718090989.297704,,,,7.472682953,7.478087902,42493.000000000,1718090989.297703981
1718090989.298711,,,,7.564301491,7.568624496,42494.000000000,1718090989.298711061
1718090989.299718,,,,7.564085484,7.568840504,42495.000000000,1718090989.299718142
1718090989.300725,,,,7.573701382,7.576557636,42496.000000000,1718090989.300725222
1718090989.301732,,,,7.494391918,7.495397091,42497.000000000,1718090989.301732302
1718090989.301815,168.018722534,8569.000000000,1718090989.301814556,,,,
1718090989.302739,,,,7.521148682,7.523692608,42498.000000000,1718090989.302739382
1718090989.303746,,,,7.524466515,7.527058125,42499.000000000,1718090989.303746462
1718090989.304754,,,,7.474606514,7.476597309,42500.000000000,1718090989.304753542
1718090989.305761,,,,7.523745060,7.525567532,42501.000000000,1718090989.305760622
1718090989.306768,,,,7.504777431,7.506551743,42502.000000000,1718090989.306767702
1718090989.306815,169.687622070,8570.000000000,1718090989.306814671,,,,
1718090989.307775,,,,7.402268410,7.404403210,42503.000000000,1718090989.307774782
1718090989.308782,,,,7.427871704,7.430992126,42504.000000000,1718090989.308781862
1718090989.309789,,,,7.479005814,7.481669903,42505.000000000,1718090989.309788942
1718090989.310796,,,,7.482563972,7.484530449,42506.000000000,1718090989.310796022
1718090989.311803,,,,7.442921162,7.446306229,42507.000000000,1718090989.311803102
1718090989.311815,171.241073608,8571.000000000,1718090989.311814547,,,,
1718090989.312810,,,,7.466047764,7.471067905,42508.000000000,1718090989.312810183
1718090989.313817,,,,7.526173115,7.529197693,42509.000000000,1718090989.313817263
1718090989.314824,,,,7.493838787,7.495300770,42510.000000000,1718090989.314824343
1718090989.315831,,,,7.263843060,7.266386509,42511.000000000,1718090989.315831423
1718090989.316815,172.760971069,8572.000000000,1718090989.316814661,,,,
1718090989.316839,,,,7.239321709,7.243091583,42512.000000000,1718090989.316838503
1718090989.317846,,,,7.307308197,7.308698177,42513.000000000,1718090989.317845583
1718090989.318853,,,,7.281392574,7.282902718,42514.000000000,1718090989.318852663
1718090989.319860,,,,7.265477657,7.266674995,42515.000000000,1718090989.319859743
1718090989.320867,,,,7.382002354,7.384714127,42516.000000000,1718090989.320866823
1718090989.321815,174.345367432,8573.000000000,1718090989.321814537,,,,
1718090989.321874,,,,7.493045330,7.496118069,42517.000000000,1718090989.321873903
1718090989.322881,,,,7.544179916,7.547660828,42518.000000000,1718090989.322880983
1718090989.323888,,,,7.616060734,7.620600224,42519.000000000,1718090989.323888063
1718090989.324895,,,,7.670224190,7.673561096,42520.000000000,1718090989.324895144
1718090989.325902,,,,7.681859970,7.683225632,42521.000000000,1718090989.325902224
1718090989.326815,175.781967163,8574.000000000,1718090989.326814651,,,,
1718090989.326909,,,,7.550935268,7.552901745,42522.000000000,1718090989.326909304
1718090989.327916,,,,7.383805275,7.387719154,42523.000000000,1718090989.327916384
1718090989.328923,,,,7.300336361,7.302711964,42524.000000000,1718090989.328923464
1718090989.329931,,,,7.228239059,7.227873802,42525.000000000,1718090989.329930544
1718090989.330938,,,,7.291032791,7.293384075,42526.000000000,1718090989.330937624
1718090989.331815,177.201538086,8575.000000000,1718090989.331814528,,,,
1718090989.331945,,,,7.399311543,7.401134014,42527.000000000,1718090989.331944704
1718090989.332952,,,,7.469389439,7.469505310,42528.000000000,1718090989.332951784
1718090989.333959,,,,7.480520248,7.481453419,42529.000000000,1718090989.333958864
1718090989.334966,,,,7.520235538,7.523427963,42530.000000000,1718090989.334965944
1718090989.335973,,,,7.554661274,7.555618286,42531.000000000,1718090989.335973024
1718090989.336815,178.571487427,8576.000000000,1718090989.336814642,,,,
1718090989.336980,,,,7.538818836,7.543189526,42532.000000000,1718090989.336980104
1718090989.337987,,,,7.516557217,7.521985531,42533.000000000,1718090989.337987185
1718090989.338994,,,,7.530452728,7.531601906,42534.000000000,1718090989.338994265
1718090989.340001,,,,7.453691006,7.455922127,42535.000000000,1718090989.340001345
1718090989.341008,,,,7.348345280,7.348869801,42536.000000000,1718090989.341008425
1718090989.341815,179.989685059,8577.000000000,1718090989.341814518,,,,
1718090989.342016,,,,7.296970844,7.296966076,42537.000000000,1718090989.342015505
1718090989.343023,,,,7.263987064,7.265833855,42538.000000000,1718090989.343022585
1718090989.344030,,,,7.255933762,7.257900238,42539.000000000,1718090989.344029665
1718090989.345037,,,,7.292234898,7.297254562,42540.000000000,1718090989.345036745
1718090989.346044,,,,7.463307381,7.464624882,42541.000000000,1718090989.346043825
1718090989.346815,181.179138184,8578.000000000,1718090989.346814632,,,,
1718090989.347051,,,,7.440829277,7.441786289,42542.000000000,1718090989.347050905
1718090989.348058,,,,7.382002354,7.383993149,42543.000000000,1718090989.348057985
1718090989.349065,,,,7.413567543,7.416015148,42544.000000000,1718090989.349065065
1718090989.350072,,,,7.461528301,7.462341309,42545.000000000,1718090989.350072145
1718090989.351079,,,,7.500305653,7.502536774,42546.000000000,1718090989.351079226
1718090989.351815,182.368118286,8579.000000000,1718090989.351814508,,,,
1718090989.352086,,,,7.489295006,7.491814613,42547.000000000,1718090989.352086306
1718090989.353093,,,,7.499848843,7.503041744,42548.000000000,1718090989.353093386
1718090989.354100,,,,7.484246731,7.486165524,42549.000000000,1718090989.354100466
1718090989.355108,,,,7.469389439,7.471116066,42550.000000000,1718090989.355107546
1718090989.356115,,,,7.468500137,7.472438335,42551.000000000,1718090989.356114626
1718090989.356815,183.393829346,8580.000000000,1718090989.356814623,,,,
1718090989.357122,,,,7.532183647,7.536386013,42552.000000000,1718090989.357121706
1718090989.358129,,,,7.569325924,7.570187092,42553.000000000,1718090989.358128786
1718090989.359136,,,,7.499416351,7.501479149,42554.000000000,1718090989.359135866
1718090989.360143,,,,7.460590839,7.462557316,42555.000000000,1718090989.360142946
1718090989.361150,,,,7.356350899,7.357644558,42556.000000000,1718090989.361150026
1718090989.362157,,,,7.297259331,7.301197529,42557.000000000,1718090989.362157106
1718090989.363164,,,,7.320602894,7.323026180,42558.000000000,1718090989.363164186
1718090989.364171,,,,7.346855164,7.349687099,42559.000000000,1718090989.364171267
1718090989.365178,,,,7.350797653,7.354110718,42560.000000000,1718090989.365178347
1718090989.366185,,,,7.372145653,7.376492500,42561.000000000,1718090989.366185427
1718090989.367193,,,,7.453162193,7.455201149,42562.000000000,1718090989.367192507
1718090989.367366,184.337844849,8581.000000000,1718090989.367365837,,,,
1718090989.368200,,,,7.505234241,7.508739471,42563.000000000,1718090989.368199587
1718090989.369207,,,,7.528120518,7.531048775,42564.000000000,1718090989.369206667
1718090989.370214,,,,7.662723541,7.666517258,42565.000000000,1718090989.370213747
1718090989.371221,,,,7.712295055,7.714141846,42566.000000000,1718090989.371220827
1718090989.372228,,,,7.610675812,7.614709854,42567.000000000,1718090989.372227907
1718090989.372366,185.183914185,8582.000000000,1718090989.372365952,,,,
1718090989.373235,,,,7.563315868,7.569850445,42568.000000000,1718090989.373234987
1718090989.374242,,,,7.554781437,7.559729576,42569.000000000,1718090989.374242067
1718090989.375249,,,,7.499848843,7.502945423,42570.000000000,1718090989.375249147
1718090989.376256,,,,7.444531441,7.447892666,42571.000000000,1718090989.376256227
1718090989.377263,,,,7.504849434,7.508450985,42572.000000000,1718090989.377263308
1718090989.377366,185.915954590,8583.000000000,1718090989.377365828,,,,
1718090989.378270,,,,7.532495975,7.535015583,42573.000000000,1718090989.378270388
1718090989.379277,,,,7.577644348,7.579202175,42574.000000000,1718090989.379277468
1718090989.380285,,,,7.565551758,7.567686558,42575.000000000,1718090989.380284548
1718090989.381292,,,,7.458066463,7.461427689,42576.000000000,1718090989.381291628
1718090989.382299,,,,7.412365437,7.412841797,42577.000000000,1718090989.382298708
1718090989.382366,186.598999023,8584.000000000,1718090989.382365942,,,,
1718090989.383306,,,,7.404840946,7.408850670,42578.000000000,1718090989.383305788
1718090989.384313,,,,7.357048035,7.361298561,42579.000000000,1718090989.384312868
1718090989.385320,,,,7.313318253,7.317016125,42580.000000000,1718090989.385319948
1718090989.386327,,,,7.292739868,7.295259476,42581.000000000,1718090989.386327028
1718090989.387334,,,,7.289422035,7.292326450,42582.000000000,1718090989.387334108
1718090989.387366,187.151824951,8585.000000000,1718090989.387365818,,,,
1718090989.388341,,,,7.413014412,7.414500237,42583.000000000,1718090989.388341188
1718090989.389348,,,,7.567715645,7.570162773,42584.000000000,1718090989.389348269
1718090989.390355,,,,7.641111374,7.645121574,42585.000000000,1718090989.390355349
1718090989.391362,,,,7.628706455,7.630744934,42586.000000000,1718090989.391362429
1718090989.392366,187.704559326,8586.000000000,1718090989.392365932,,,,
1718090989.392370,,,,7.565648079,7.569465637,42587.000000000,1718090989.392369509
1718090989.393377,,,,7.453763008,7.455561638,42588.000000000,1718090989.393376589
1718090989.394384,,,,7.392676353,7.392888069,42589.000000000,1718090989.394383669
1718090989.395391,,,,7.350941658,7.353581905,42590.000000000,1718090989.395390749
1718090989.396398,,,,7.268410683,7.269800186,42591.000000000,1718090989.396397829
1718090989.397366,188.257202148,8587.000000000,1718090989.397365808,,,,
1718090989.397405,,,,7.241581440,7.243331909,42592.000000000,1718090989.397404909
1718090989.398412,,,,7.284517765,7.286171913,42593.000000000,1718090989.398411989
1718090989.399419,,,,7.266030788,7.268718719,42594.000000000,1718090989.399419069
1718090989.400426,,,,7.248601437,7.252515316,42595.000000000,1718090989.400426149
1718090989.401433,,,,7.377482414,7.380242825,42596.000000000,1718090989.401433229
1718090989.402366,188.777236938,8588.000000000,1718090989.402365923,,,,
1718090989.402440,,,,7.486698627,7.488737583,42597.000000000,1718090989.402440310
1718090989.403447,,,,7.347744465,7.350985527,42598.000000000,1718090989.403447390
1718090989.404454,,,,7.348345280,7.350504398,42599.000000000,1718090989.404454470
1718090989.405462,,,,7.436694622,7.438805580,42600.000000000,1718090989.405461550
1718090989.406469,,,,7.458715439,7.462533474,42601.000000000,1718090989.406468630
1718090989.407366,189.280960083,8589.000000000,1718090989.407365799,,,,
1718090989.407476,,,,7.436526299,7.440632343,42602.000000000,1718090989.407475710
1718090989.408483,,,,7.433160305,7.432362556,42603.000000000,1718090989.408482790
1718090989.409490,,,,7.465663433,7.465538502,42604.000000000,1718090989.409489870
1718090989.410497,,,,7.477995872,7.482703686,42605.000000000,1718090989.410496950
1718090989.411504,,,,7.483333111,7.485564232,42606.000000000,1718090989.411504030
1718090989.412366,189.784591675,8590.000000000,1718090989.412365913,,,,
1718090989.412511,,,,7.453522682,7.455753803,42607.000000000,1718090989.412511110
1718090989.413518,,,,7.434290409,7.436353207,42608.000000000,1718090989.413518190
1718090989.414525,,,,7.402965546,7.403393745,42609.000000000,1718090989.414525270
1718090989.415532,,,,7.335435867,7.336272717,42610.000000000,1718090989.415532351
1718090989.416539,,,,7.380126953,7.382550716,42611.000000000,1718090989.416539431
1718090989.417366,190.255645752,8591.000000000,1718090989.417365789,,,,
1718090989.417547,,,,7.457177162,7.461523533,42612.000000000,1718090989.417546511
1718090989.418554,,,,7.564758301,7.568552017,42613.000000000,1718090989.418553591
1718090989.419561,,,,7.567835808,7.570090771,42614.000000000,1718090989.419560671
1718090989.420568,,,,7.523047924,7.526962280,42615.000000000,1718090989.420567751
1718090989.421575,,,,7.523601055,7.528500557,42616.000000000,1718090989.421574831
1718090989.422366,190.694168091,8592.000000000,1718090989.422365904,,,,
1718090989.422582,,,,7.448666573,7.451642990,42617.000000000,1718090989.422581911
1718090989.423589,,,,7.355845928,7.358029366,42618.000000000,1718090989.423588991
1718090989.424596,,,,7.438545704,7.441978931,42619.000000000,1718090989.424596071
1718090989.425603,,,,7.456744194,7.461163044,42620.000000000,1718090989.425603151
1718090989.426610,,,,7.432487488,7.435175419,42621.000000000,1718090989.426610231
1718090989.427366,191.051452637,8593.000000000,1718090989.427365780,,,,
1718090989.427617,,,,7.453402519,7.455633640,42622.000000000,1718090989.427617311
1718090989.428624,,,,7.498887539,7.501430988,42623.000000000,1718090989.428624392
1718090989.429631,,,,7.513576031,7.516648769,42624.000000000,1718090989.429631472
1718090989.430639,,,,7.519898891,7.524750233,42625.000000000,1718090989.430638552
1718090989.431646,,,,7.526582241,7.527875423,42626.000000000,1718090989.431645632
1718090989.432366,191.392440796,8594.000000000,1718090989.432365894,,,,
1718090989.432653,,,,7.605507374,7.607786179,42627.000000000,1718090989.432652712
1718090989.433660,,,,7.408975601,7.411375046,42628.000000000,1718090989.433659792
1718090989.434667,,,,7.252495766,7.252323151,42629.000000000,1718090989.434666872
1718090989.435674,,,,7.315577984,7.315068722,42630.000000000,1718090989.435673952
1718090989.436681,,,,7.357553005,7.357836723,42631.000000000,1718090989.436681032
1718090989.437366,191.603500366,8595.000000000,1718090989.437365770,,,,
1718090989.437688,,,,7.344138145,7.344205856,42632.000000000,1718090989.437688112
1718090989.438695,,,,7.389334679,7.390171528,42633.000000000,1718090989.438695192
1718090989.439702,,,,7.515835762,7.519773960,42634.000000000,1718090989.439702272
1718090989.440709,,,,7.653852463,7.654376984,42635.000000000,1718090989.440709352
1718090989.441716,,,,7.737369537,7.742725849,42636.000000000,1718090989.441716433
1718090989.442366,191.814575195,8596.000000000,1718090989.442365885,,,,
1718090989.442724,,,,7.646424294,7.650410175,42637.000000000,1718090989.442723513
1718090989.443731,,,,7.489102840,7.491766930,42638.000000000,1718090989.443730593
1718090989.444738,,,,7.488502026,7.491790771,42639.000000000,1718090989.444737673
1718090989.445745,,,,7.390103817,7.393465042,42640.000000000,1718090989.445744753
1718090989.446752,,,,7.279829979,7.283864021,42641.000000000,1718090989.446751833
1718090989.447366,191.911972046,8597.000000000,1718090989.447365761,,,,
1718090989.447759,,,,7.426549435,7.429574013,42642.000000000,1718090989.447758913
1718090989.448766,,,,7.542496681,7.546723366,42643.000000000,1718090989.448765993
1718090989.449773,,,,7.409937382,7.411567688,42644.000000000,1718090989.449773073
1718090989.450780,,,,7.380078793,7.381155968,42645.000000000,1718090989.450780153
1718090989.451787,,,,7.484174728,7.490925312,42646.000000000,1718090989.451787233
1718090989.452366,192.041839600,8598.000000000,1718090989.452365875,,,,
1718090989.452794,,,,7.534491539,7.538429260,42647.000000000,1718090989.452794313
1718090989.453801,,,,7.388421059,7.391902447,42648.000000000,1718090989.453801394
1718090989.454808,,,,7.307188034,7.308481693,42649.000000000,1718090989.454808474
1718090989.455816,,,,7.304928303,7.306894779,42650.000000000,1718090989.455815554
1718090989.456823,,,,7.254779816,7.257876396,42651.000000000,1718090989.456822634
1718090989.457366,192.090530396,8599.000000000,1718090989.457365751,,,,
1718090989.457830,,,,7.261631012,7.269127369,42652.000000000,1718090989.457829714
1718090989.458837,,,,7.314520359,7.319252014,42653.000000000,1718090989.458836794
1718090989.459844,,,,7.442079544,7.445152283,42654.000000000,1718090989.459843874
1718090989.460851,,,,7.630533218,7.634206772,42655.000000000,1718090989.460850954
1718090989.461809,192.366500854,8601.000000000,1718090989.461808681,,,,
1718090989.461858,,,,7.766963482,7.769891739,42656.000000000,1718090989.461858034
1718090989.462366,192.155471802,8600.000000000,1718090989.462365866,,,,
1718090989.462865,,,,7.742730618,7.746957302,42657.000000000,1718090989.462865114
1718090989.463872,,,,7.642722130,7.648535252,42658.000000000,1718090989.463872194
1718090989.464879,,,,7.667483807,7.669810772,42659.000000000,1718090989.464879274
1718090989.465886,,,,7.622984409,7.622908115,42660.000000000,1718090989.465886354
1718090989.466809,192.658645630,8602.000000000,1718090989.466808796,,,,
1718090989.466893,,,,7.362769604,7.365938663,42661.000000000,1718090989.466893435
1718090989.467901,,,,7.401114464,7.405629635,42662.000000000,1718090989.467900515
1718090989.468908,,,,7.468379974,7.472149849,42663.000000000,1718090989.468907595
1718090989.469915,,,,7.538650513,7.542780876,42664.000000000,1718090989.469914675
1718090989.470922,,,,7.527399540,7.529678822,42665.000000000,1718090989.470921755
1718090989.471809,193.080612183,8603.000000000,1718090989.471808672,,,,
1718090989.471929,,,,7.463451385,7.463062286,42666.000000000,1718090989.471928835
1718090989.472936,,,,7.364043713,7.363317966,42667.000000000,1718090989.472935915
1718090989.473943,,,,7.291129112,7.292230129,42668.000000000,1718090989.473942995
1718090989.474950,,,,7.277786255,7.282878399,42669.000000000,1718090989.474950075
1718090989.475957,,,,7.258746147,7.263117313,42670.000000000,1718090989.475957155
1718090989.476964,,,,7.164916039,7.166450024,42671.000000000,1718090989.476964235
1718090989.477971,,,,7.146452904,7.147386074,42672.000000000,1718090989.477971315
1718090989.478978,,,,7.247687817,7.250255585,42673.000000000,1718090989.478978395
1718090989.479985,,,,7.466216087,7.466788769,42674.000000000,1718090989.479985476
1718090989.480993,,,,7.609954834,7.613291740,42675.000000000,1718090989.480992556
1718090989.482000,,,,7.449556351,7.452508450,42676.000000000,1718090989.481999636
1718090989.483007,,,,7.366135597,7.369207859,42677.000000000,1718090989.483006716
1718090989.484014,,,,7.464629650,7.466860771,42678.000000000,1718090989.484013796
1718090989.485021,,,,7.445229053,7.448157310,42679.000000000,1718090989.485020876
1718090989.486028,,,,7.414745331,7.416375637,42680.000000000,1718090989.486027956
1718090989.487035,,,,7.384045601,7.386565208,42681.000000000,1718090989.487035036
1718090989.488042,,,,7.378997326,7.383223534,42682.000000000,1718090989.488042116
1718090989.489049,,,,7.391618252,7.395460129,42683.000000000,1718090989.489049196
1718090989.490056,,,,7.381785870,7.384762287,42684.000000000,1718090989.490056276
1718090989.491063,,,,7.384598732,7.386805534,42685.000000000,1718090989.491063356
1718090989.492070,,,,7.408134460,7.408490181,42686.000000000,1718090989.492070436
1718090989.493078,,,,7.426020622,7.429766178,42687.000000000,1718090989.493077517
1718090989.494085,,,,7.432919979,7.437194824,42688.000000000,1718090989.494084597
1718090989.495092,,,,7.429770947,7.433901310,42689.000000000,1718090989.495091677
1718090989.496099,,,,7.465831757,7.469192505,42690.000000000,1718090989.496098757
1718090989.497106,,,,7.498599052,7.502416611,42691.000000000,1718090989.497105837
1718090989.498113,,,,7.480784893,7.482751369,42692.000000000,1718090989.498112917
1718090989.499120,,,,7.459052086,7.460369587,42693.000000000,1718090989.499119997
1718090989.500127,,,,7.420371056,7.424020290,42694.000000000,1718090989.500127077
1718090989.501134,,,,7.376232624,7.377141476,42695.000000000,1718090989.501134157
1718090989.502141,,,,7.377867222,7.379617691,42696.000000000,1718090989.502141237
1718090989.503148,,,,7.441670895,7.445873260,42697.000000000,1718090989.503148317
1718090989.504155,,,,7.433328629,7.434045315,42698.000000000,1718090989.504155397
1718090989.505162,,,,7.357889652,7.357788563,42699.000000000,1718090989.505162477
1718090989.506170,,,,7.399118900,7.402552128,42700.000000000,1718090989.506169558
1718090989.507177,,,,7.568917274,7.571220875,42701.000000000,1718090989.507176638
1718090989.508184,,,,7.520524025,7.522418499,42702.000000000,1718090989.508183718
1718090989.509191,,,,7.396955490,7.398753643,42703.000000000,1718090989.509190798
1718090989.510198,,,,7.445613384,7.448277473,42704.000000000,1718090989.510197878
1718090989.511205,,,,7.428640842,7.433348179,42705.000000000,1718090989.511204958
1718090989.511809,197.005554199,8611.000000000,1718090989.511808634,,,,
1718090989.512212,,,,7.406884193,7.411495209,42706.000000000,1718090989.512212038
1718090989.513219,,,,7.367289543,7.369448662,42707.000000000,1718090989.513219118
1718090989.514226,,,,7.334329605,7.335647583,42708.000000000,1718090989.514226198
1718090989.515233,,,,7.385944843,7.386156559,42709.000000000,1718090989.515233278
1718090989.516240,,,,7.517422676,7.521889687,42710.000000000,1718090989.516240358
1718090989.516809,197.313491821,8612.000000000,1718090989.516808748,,,,
1718090989.517247,,,,7.638322353,7.641587257,42711.000000000,1718090989.517247438
1718090989.518255,,,,7.698808670,7.701905251,42712.000000000,1718090989.518254519
1718090989.519262,,,,7.727032185,7.730513573,42713.000000000,1718090989.519261599
1718090989.520269,,,,7.642192841,7.646082878,42714.000000000,1718090989.520268679
1718090989.521276,,,,7.513335705,7.515470505,42715.000000000,1718090989.521275759
1718090989.521809,197.572830200,8613.000000000,1718090989.521808624,,,,
1718090989.522283,,,,7.497517109,7.500325203,42716.000000000,1718090989.522282839
1718090989.523290,,,,7.480279922,7.481429100,42717.000000000,1718090989.523289919
1718090989.524297,,,,7.426404953,7.426905155,42718.000000000,1718090989.524296999
1718090989.525304,,,,7.417149544,7.420246124,42719.000000000,1718090989.525304079
1718090989.526311,,,,7.382843494,7.385194778,42720.000000000,1718090989.526311159
1718090989.526809,197.864547729,8614.000000000,1718090989.526808739,,,,
1718090989.527318,,,,7.384478569,7.386950016,42721.000000000,1718090989.527318239
1718090989.528325,,,,7.463331223,7.468591690,42722.000000000,1718090989.528325319
1718090989.529332,,,,7.526317596,7.528909206,42723.000000000,1718090989.529332399
1718090989.530339,,,,7.499031544,7.503594875,42724.000000000,1718090989.530339479
1718090989.531347,,,,7.540381432,7.542540550,42725.000000000,1718090989.531346560
1718090989.531809,198.123794556,8615.000000000,1718090989.531808615,,,,
1718090989.532354,,,,7.473164082,7.474986553,42726.000000000,1718090989.532353640
1718090989.533361,,,,7.250452518,7.256505966,42727.000000000,1718090989.533360720
1718090989.534368,,,,7.231916904,7.235855103,42728.000000000,1718090989.534367800
1718090989.535375,,,,7.261727333,7.264872074,42729.000000000,1718090989.535374880
1718090989.536382,,,,7.288075924,7.292158127,42730.000000000,1718090989.536381960
1718090989.536809,198.464080811,8616.000000000,1718090989.536808729,,,,
1718090989.537389,,,,7.326877117,7.331127644,42731.000000000,1718090989.537389040
1718090989.538396,,,,7.388276577,7.393729210,42732.000000000,1718090989.538396120
1718090989.539403,,,,7.404600143,7.409812450,42733.000000000,1718090989.539403200
1718090989.540410,,,,7.391738415,7.395171642,42734.000000000,1718090989.540410280
1718090989.541417,,,,7.373251438,7.375987530,42735.000000000,1718090989.541417360
1718090989.541809,198.852920532,8617.000000000,1718090989.541808605,,,,
1718090989.542424,,,,7.374645710,7.377862453,42736.000000000,1718090989.542424440
1718090989.543432,,,,7.392531872,7.393537045,42737.000000000,1718090989.543431520
1718090989.544439,,,,7.392820358,7.393633366,42738.000000000,1718090989.544438601
1718090989.545446,,,,7.381569386,7.383175373,42739.000000000,1718090989.545445681
1718090989.546453,,,,7.339715004,7.341777802,42740.000000000,1718090989.546452761
1718090989.546809,199.274093628,8618.000000000,1718090989.546808720,,,,
1718090989.547460,,,,7.305577278,7.308866501,42741.000000000,1718090989.547459841
1718090989.548467,,,,7.239129066,7.238595963,42742.000000000,1718090989.548466921
1718090989.549474,,,,7.272834301,7.272949696,42743.000000000,1718090989.549474001
1718090989.550481,,,,7.377987385,7.379906178,42744.000000000,1718090989.550481081
1718090989.551488,,,,7.492107868,7.492415905,42745.000000000,1718090989.551488161
1718090989.551809,199.824798584,8619.000000000,1718090989.551808596,,,,
1718090989.552495,,,,7.534419060,7.536578178,42746.000000000,1718090989.552495241
1718090989.553502,,,,7.506460190,7.512249470,42747.000000000,1718090989.553502321
1718090989.554509,,,,7.470399380,7.471019745,42748.000000000,1718090989.554509401
1718090989.555516,,,,7.422871113,7.424669743,42749.000000000,1718090989.555516481
1718090989.556524,,,,7.391786575,7.392983913,42750.000000000,1718090989.556523561
1718090989.556781,200.925979614,8621.000000000,1718090989.556781292,,,,
1718090989.556809,200.391632080,8620.000000000,1718090989.556808710,,,,
1718090989.557531,,,,7.388084412,7.392142773,42751.000000000,1718090989.557530642
1718090989.558538,,,,7.515932083,7.518668175,42752.000000000,1718090989.558537722
1718090989.559545,,,,7.526774406,7.529197693,42753.000000000,1718090989.559544802
1718090989.560552,,,,7.506243706,7.509725094,42754.000000000,1718090989.560551882
1718090989.561559,,,,7.626614571,7.630889416,42755.000000000,1718090989.561558962
1718090989.561781,201.476425171,8622.000000000,1718090989.561781406,,,,
1718090989.562566,,,,7.632552624,7.637476444,42756.000000000,1718090989.562566042
1718090989.563573,,,,7.579350948,7.584154606,42757.000000000,1718090989.563573122
1718090989.564580,,,,7.596972942,7.603795528,42758.000000000,1718090989.564580202
1718090989.565587,,,,7.639380455,7.643270016,42759.000000000,1718090989.565587282
1718090989.566594,,,,7.429794788,7.432050228,42760.000000000,1718090989.566594362
1718090989.566781,202.042984009,8623.000000000,1718090989.566781282,,,,
1718090989.567601,,,,7.217156410,7.221502781,42761.000000000,1718090989.567601442
1718090989.568609,,,,7.195567608,7.200731754,42762.000000000,1718090989.568608522
1718090989.569616,,,,7.259034634,7.261915207,42763.000000000,1718090989.569615602
1718090989.570623,,,,7.324905872,7.328122616,42764.000000000,1718090989.570622683
1718090989.571630,,,,7.341421604,7.345888615,42765.000000000,1718090989.571629763
1718090989.571781,202.641815186,8624.000000000,1718090989.571781397,,,,
1718090989.572637,,,,7.348104954,7.353076935,42766.000000000,1718090989.572636843
1718090989.573644,,,,7.364284515,7.368246555,42767.000000000,1718090989.573643923
1718090989.574651,,,,7.362265110,7.366178989,42768.000000000,1718090989.574651003
1718090989.575658,,,,7.482179165,7.484939098,42769.000000000,1718090989.575658083
1718090989.576665,,,,7.560455322,7.564369202,42770.000000000,1718090989.576665163
1718090989.576781,203.192001343,8625.000000000,1718090989.576781273,,,,
1718090989.577672,,,,7.468307972,7.473976612,42771.000000000,1718090989.577672243
1718090989.578679,,,,7.404672623,7.409644127,42772.000000000,1718090989.578679323
1718090989.579686,,,,7.362216949,7.364616394,42773.000000000,1718090989.579686403
1718090989.580693,,,,7.288821220,7.291604996,42774.000000000,1718090989.580693483
1718090989.581701,,,,7.312525272,7.317280293,42775.000000000,1718090989.581700563
1718090989.581781,203.790634155,8626.000000000,1718090989.581781387,,,,
1718090989.582708,,,,7.354764462,7.360889912,42776.000000000,1718090989.582707644
1718090989.583715,,,,7.420707703,7.424164772,42777.000000000,1718090989.583714724
1718090989.584722,,,,7.487059593,7.490949154,42778.000000000,1718090989.584721804
1718090989.585729,,,,7.507926464,7.512153149,42779.000000000,1718090989.585728884
1718090989.586736,,,,7.446190357,7.452701092,42780.000000000,1718090989.586735964
1718090989.586781,204.340682983,8627.000000000,1718090989.586781263,,,,
1718090989.587743,,,,7.433401108,7.436449528,42781.000000000,1718090989.587743044
1718090989.588750,,,,7.547353268,7.547829151,42782.000000000,1718090989.588750124
1718090989.589757,,,,7.596852779,7.599925041,42783.000000000,1718090989.589757204
1718090989.590764,,,,7.589640617,7.592833042,42784.000000000,1718090989.590764284
1718090989.591771,,,,7.658804893,7.662189960,42785.000000000,1718090989.591771364
1718090989.591781,204.858276367,8628.000000000,1718090989.591781378,,,,
1718090989.592778,,,,7.661737919,7.664425850,42786.000000000,1718090989.592778444
1718090989.593786,,,,7.521365166,7.523355961,42787.000000000,1718090989.593785524
1718090989.594793,,,,7.353562355,7.357043743,42788.000000000,1718090989.594792604
1718090989.595800,,,,7.237590790,7.239990234,42789.000000000,1718090989.595799685
1718090989.596781,205.278747559,8629.000000000,1718090989.596781254,,,,
1718090989.596807,,,,7.311995983,7.314804077,42790.000000000,1718090989.596806765
1718090989.597814,,,,7.445589542,7.450825691,42791.000000000,1718090989.597813845
1718090989.598821,,,,7.442031384,7.444983959,42792.000000000,1718090989.598820925
1718090989.599828,,,,7.495810032,7.498089314,42793.000000000,1718090989.599828005
1718090989.600835,,,,7.707992077,7.710728168,42794.000000000,1718090989.600835085
1718090989.601781,205.683029175,8630.000000000,1718090989.601781368,,,,
1718090989.601842,,,,7.715709209,7.719671249,42795.000000000,1718090989.601842165
1718090989.602849,,,,7.518552303,7.520711422,42796.000000000,1718090989.602849245
1718090989.603856,,,,7.413399220,7.414788723,42797.000000000,1718090989.603856325
1718090989.604863,,,,7.292523384,7.294321537,42798.000000000,1718090989.604863405
1718090989.605870,,,,7.212732792,7.216069698,42799.000000000,1718090989.605870485
1718090989.606781,205.990249634,8631.000000000,1718090989.606781244,,,,
1718090989.606878,,,,7.327382088,7.331320286,42800.000000000,1718090989.606877565
1718090989.607885,,,,7.465134621,7.467004776,42801.000000000,1718090989.607884645
1718090989.608892,,,,7.505113602,7.509123802,42802.000000000,1718090989.608891726
1718090989.609899,,,,7.454244137,7.455393314,42803.000000000,1718090989.609898806
1718090989.610906,,,,7.331877708,7.337090015,42804.000000000,1718090989.610905886
1718090989.611781,206.248931885,8632.000000000,1718090989.611781359,,,,
1718090989.611913,,,,7.230955601,7.237321854,42805.000000000,1718090989.611912966
1718090989.612920,,,,7.234417439,7.237514019,42806.000000000,1718090989.612920046
1718090989.613927,,,,7.297187328,7.300163746,42807.000000000,1718090989.613927126
1718090989.614934,,,,7.318390846,7.322665691,42808.000000000,1718090989.614934206
1718090989.615941,,,,7.411403656,7.413322449,42809.000000000,1718090989.615941286
1718090989.616781,206.523788452,8633.000000000,1718090989.616781235,,,,
1718090989.616948,,,,7.555743217,7.559392929,42810.000000000,1718090989.616948366
1718090989.617955,,,,7.596611977,7.599973202,42811.000000000,1718090989.617955446
1718090989.618963,,,,7.557257652,7.558382988,42812.000000000,1718090989.618962526
1718090989.619970,,,,7.530332565,7.533380985,42813.000000000,1718090989.619969606
1718090989.620977,,,,7.536582947,7.541819096,42814.000000000,1718090989.620976686
1718090989.621781,206.701599121,8634.000000000,1718090989.621781349,,,,
1718090989.621984,,,,7.487179756,7.489891529,42815.000000000,1718090989.621983767
1718090989.622991,,,,7.431814194,7.433564663,42816.000000000,1718090989.622990847
1718090989.623998,,,,7.271487713,7.273358345,42817.000000000,1718090989.623997927
1718090989.625005,,,,7.286320686,7.287205696,42818.000000000,1718090989.625005007
1718090989.626012,,,,7.399984360,7.400749207,42819.000000000,1718090989.626012087
1718090989.626781,206.911758423,8635.000000000,1718090989.626781225,,,,
1718090989.627019,,,,7.437704086,7.438372612,42820.000000000,1718090989.627019167
1718090989.628026,,,,7.346278191,7.350576401,42821.000000000,1718090989.628026247
1718090989.629033,,,,7.265092850,7.267372131,42822.000000000,1718090989.629033327
1718090989.630040,,,,7.282041550,7.280570507,42823.000000000,1718090989.630040407
1718090989.631047,,,,7.445781708,7.449575424,42824.000000000,1718090989.631047487
1718090989.631781,207.170379639,8636.000000000,1718090989.631781340,,,,
1718090989.632055,,,,7.496988297,7.499483585,42825.000000000,1718090989.632054567
1718090989.633062,,,,7.461961269,7.464216232,42826.000000000,1718090989.633061647
1718090989.634069,,,,7.510691166,7.514533043,42827.000000000,1718090989.634068727
1718090989.635076,,,,7.538145542,7.541602612,42828.000000000,1718090989.635075808
1718090989.636083,,,,7.510859489,7.515014172,42829.000000000,1718090989.636082888
1718090989.636781,207.283508301,8637.000000000,1718090989.636781216,,,,
1718090989.637090,,,,7.453691006,7.455537796,42830.000000000,1718090989.637089968
1718090989.638097,,,,7.418423653,7.422818661,42831.000000000,1718090989.638097048
1718090989.639104,,,,7.438882351,7.442651749,42832.000000000,1718090989.639104128
1718090989.640111,,,,7.394984245,7.397167206,42833.000000000,1718090989.640111208
1718090989.641118,,,,7.370823383,7.372453690,42834.000000000,1718090989.641118288
1718090989.641781,207.445159912,8638.000000000,1718090989.641781330,,,,
1718090989.642125,,,,7.470351219,7.473039150,42835.000000000,1718090989.642125368
1718090989.643132,,,,7.488549709,7.491959095,42836.000000000,1718090989.643132448
1718090989.644140,,,,7.518840790,7.519461632,42837.000000000,1718090989.644139528
1718090989.645147,,,,7.528890133,7.530159473,42838.000000000,1718090989.645146608
1718090989.646154,,,,7.578822136,7.579971313,42839.000000000,1718090989.646153688
1718090989.646781,207.639099121,8639.000000000,1718090989.646781206,,,,
1718090989.647161,,,,7.620195866,7.623725414,42840.000000000,1718090989.647160769
1718090989.648168,,,,7.493574142,7.498065472,42841.000000000,1718090989.648167849
1718090989.649175,,,,7.249466896,7.253308773,42842.000000000,1718090989.649174929
1718090989.650182,,,,7.192442417,7.194169044,42843.000000000,1718090989.650182009
1718090989.651189,,,,7.223719120,7.226094723,42844.000000000,1718090989.651189089
1718090989.651781,207.784545898,8640.000000000,1718090989.651781321,,,,
1718090989.652196,,,,7.246582031,7.249990940,42845.000000000,1718090989.652196169
1718090989.653203,,,,7.297932625,7.299538612,42846.000000000,1718090989.653203249
1718090989.654210,,,,7.371328354,7.372742176,42847.000000000,1718090989.654210329
1718090989.655217,,,,7.418279171,7.419308662,42848.000000000,1718090989.655217409
1718090989.656224,,,,7.434170246,7.435343742,42849.000000000,1718090989.656224489
1718090989.657232,,,,7.404119492,7.406470776,42850.000000000,1718090989.657231569
1718090989.658239,,,,7.428424358,7.431929588,42851.000000000,1718090989.658238649
1718090989.659246,,,,7.448834896,7.453373909,42852.000000000,1718090989.659245729
1718090989.660253,,,,7.394070625,7.397143364,42853.000000000,1718090989.660252810
1718090989.660925,207.994644165,8641.000000000,1718090989.660924673,,,,
1718090989.661260,,,,7.380247116,7.383993149,42854.000000000,1718090989.661259890
1718090989.662267,,,,7.401739597,7.403946400,42855.000000000,1718090989.662266970
1718090989.663274,,,,7.294134140,7.297399044,42856.000000000,1718090989.663274050
1718090989.664281,,,,7.269179821,7.272805691,42857.000000000,1718090989.664281130
1718090989.665288,,,,7.315073490,7.316174507,42858.000000000,1718090989.665288210
1718090989.665925,208.123916626,8642.000000000,1718090989.665924788,,,,
1718090989.666295,,,,7.334209442,7.334469318,42859.000000000,1718090989.666295290
1718090989.667302,,,,7.340964794,7.344398022,42860.000000000,1718090989.667302370
1718090989.668309,,,,7.337743759,7.340840340,42861.000000000,1718090989.668309450
1718090989.669317,,,,7.386041164,7.387887478,42862.000000000,1718090989.669316530
1718090989.670324,,,,7.476289272,7.478640556,42863.000000000,1718090989.670323610
1718090989.671331,,,,7.543073654,7.545593739,42864.000000000,1718090989.671330690
1718090989.672338,,,,7.578966618,7.581438065,42865.000000000,1718090989.672337770
1718090989.673345,,,,7.630533218,7.630721092,42866.000000000,1718090989.673344851
1718090989.674352,,,,7.649284840,7.651732445,42867.000000000,1718090989.674351931
1718090989.675359,,,,7.647217274,7.650025845,42868.000000000,1718090989.675359011
1718090989.676366,,,,7.641231537,7.644111633,42869.000000000,1718090989.676366091
1718090989.677373,,,,7.497300625,7.500493526,42870.000000000,1718090989.677373171
1718090989.678380,,,,7.326708794,7.328867912,42871.000000000,1718090989.678380251
1718090989.679387,,,,7.351350307,7.351706505,42872.000000000,1718090989.679387331
1718090989.680394,,,,7.304111004,7.305957317,42873.000000000,1718090989.680394411
1718090989.681401,,,,7.267689228,7.270329475,42874.000000000,1718090989.681401491
1718090989.682409,,,,7.225690842,7.230109692,42875.000000000,1718090989.682408571
1718090989.683416,,,,7.271944523,7.276579857,42876.000000000,1718090989.683415651
1718090989.684423,,,,7.382483006,7.384521961,42877.000000000,1718090989.684422731
1718090989.685430,,,,7.489751816,7.490204334,42878.000000000,1718090989.685429811
1718090989.686437,,,,7.490376949,7.492920876,42879.000000000,1718090989.686436892
1718090989.687444,,,,7.552016735,7.552180767,42880.000000000,1718090989.687443972
1718090989.688451,,,,7.568532944,7.569441795,42881.000000000,1718090989.688451052
1718090989.689458,,,,7.505666733,7.509196281,42882.000000000,1718090989.689458132
1718090989.690465,,,,7.470399380,7.474601746,42883.000000000,1718090989.690465212
1718090989.691472,,,,7.432535648,7.436184883,42884.000000000,1718090989.691472292
1718090989.692479,,,,7.349715710,7.354543209,42885.000000000,1718090989.692479372
1718090989.693486,,,,7.343056679,7.347980022,42886.000000000,1718090989.693486452
1718090989.694494,,,,7.403398514,7.407480717,42887.000000000,1718090989.694493532
1718090989.695501,,,,7.353634357,7.358750343,42888.000000000,1718090989.695500612
1718090989.696508,,,,7.340460300,7.344037533,42889.000000000,1718090989.696507692
1718090989.697515,,,,7.453715324,7.456306934,42890.000000000,1718090989.697514772
1718090989.698522,,,,7.494704247,7.498762608,42891.000000000,1718090989.698521852
1718090989.699529,,,,7.533433437,7.535135746,42892.000000000,1718090989.699528933
1718090989.700536,,,,7.574254513,7.575331688,42893.000000000,1718090989.700536013
1718090989.701543,,,,7.564950943,7.566653252,42894.000000000,1718090989.701543093
1718090989.702550,,,,7.503166676,7.506551743,42895.000000000,1718090989.702550173
1718090989.703557,,,,7.490473270,7.491862774,42896.000000000,1718090989.703557253
1718090989.704564,,,,7.301706791,7.302278996,42897.000000000,1718090989.704564333
1718090989.705571,,,,7.209174633,7.214002132,42898.000000000,1718090989.705571413
1718090989.706578,,,,7.313318253,7.317328453,42899.000000000,1718090989.706578493
1718090989.707586,,,,7.308029652,7.309347153,42900.000000000,1718090989.707585573
1718090989.708593,,,,7.264275551,7.264511585,42901.000000000,1718090989.708592653
1718090989.709600,,,,7.241773605,7.242730618,42902.000000000,1718090989.709599733
1718090989.710607,,,,7.257568359,7.259462833,42903.000000000,1718090989.710606813
1718090989.710925,208.220870972,8651.000000000,1718090989.710924625,,,,
1718090989.711614,,,,7.284565926,7.288022995,42904.000000000,1718090989.711613894
1718090989.712621,,,,7.340700626,7.346658230,42905.000000000,1718090989.712620974
1718090989.713628,,,,7.419866085,7.425390720,42906.000000000,1718090989.713628054
1718090989.714635,,,,7.513552189,7.517994881,42907.000000000,1718090989.714635134
1718090989.715642,,,,7.554974079,7.556724072,42908.000000000,1718090989.715642214
1718090989.715925,208.204711914,8652.000000000,1718090989.715924740,,,,
1718090989.716649,,,,7.538482189,7.538501740,42909.000000000,1718090989.716649294
1718090989.717656,,,,7.536534786,7.540689468,42910.000000000,1718090989.717656374
1718090989.718663,,,,7.381449223,7.383680344,42911.000000000,1718090989.718663454
1718090989.719671,,,,7.282041550,7.284104347,42912.000000000,1718090989.719670534
1718090989.720678,,,,7.291441441,7.293528557,42913.000000000,1718090989.720677614
1718090989.720925,208.220870972,8653.000000000,1718090989.720924616,,,,
1718090989.721685,,,,7.294855118,7.294562340,42914.000000000,1718090989.721684694
1718090989.722692,,,,7.291417599,7.295451641,42915.000000000,1718090989.722691774
1718090989.723699,,,,7.283243656,7.283191204,42916.000000000,1718090989.723698854
1718090989.724706,,,,7.303173065,7.306029320,42917.000000000,1718090989.724705935
1718090989.725713,,,,7.357817650,7.362596989,42918.000000000,1718090989.725713015
1718090989.725925,208.220870972,8654.000000000,1718090989.725924730,,,,
1718090989.726720,,,,7.366159439,7.369544506,42919.000000000,1718090989.726720095
1718090989.727727,,,,7.380126953,7.381396770,42920.000000000,1718090989.727727175
1718090989.728734,,,,7.407292843,7.407913208,42921.000000000,1718090989.728734255
1718090989.729741,,,,7.419697762,7.421111584,42922.000000000,1718090989.729741335
1718090989.730748,,,,7.427535057,7.430366993,42923.000000000,1718090989.730748415
1718090989.730925,208.204711914,8655.000000000,1718090989.730924606,,,,
1718090989.731755,,,,7.420419216,7.420895100,42924.000000000,1718090989.731755495
1718090989.732763,,,,7.425587654,7.428227425,42925.000000000,1718090989.732762575
1718090989.733770,,,,7.487828732,7.492127419,42926.000000000,1718090989.733769655
1718090989.734777,,,,7.536462784,7.538790226,42927.000000000,1718090989.734776735
1718090989.735784,,,,7.606925488,7.608387470,42928.000000000,1718090989.735783815
1718090989.735925,208.140075684,8656.000000000,1718090989.735924721,,,,
1718090989.736791,,,,7.660968781,7.663320065,42929.000000000,1718090989.736790895
1718090989.737798,,,,7.554084301,7.557950497,42930.000000000,1718090989.737797976
1718090989.738805,,,,7.442031384,7.445609093,42931.000000000,1718090989.738805056
1718090989.739812,,,,7.461768627,7.462893963,42932.000000000,1718090989.739812136
1718090989.740819,,,,7.373900414,7.375506878,42933.000000000,1718090989.740819216
1718090989.740925,208.075439453,8657.000000000,1718090989.740924597,,,,
1718090989.741826,,,,7.170277119,7.173878670,42934.000000000,1718090989.741826296
1718090989.742833,,,,7.108492851,7.113488674,42935.000000000,1718090989.742833376
1718090989.743840,,,,7.253457546,7.258116722,42936.000000000,1718090989.743840456
1718090989.744848,,,,7.366544247,7.369616508,42937.000000000,1718090989.744847536
1718090989.745855,,,,7.407533169,7.412000179,42938.000000000,1718090989.745854616
1718090989.745925,207.946166992,8658.000000000,1718090989.745924711,,,,
1718090989.746862,,,,7.441742897,7.446979046,42939.000000000,1718090989.746861696
1718090989.747869,,,,7.477948189,7.480154991,42940.000000000,1718090989.747868776
1718090989.748876,,,,7.524682999,7.528717041,42941.000000000,1718090989.748875856
1718090989.749883,,,,7.536510944,7.541650772,42942.000000000,1718090989.749882936
1718090989.750890,,,,7.396426678,7.401278019,42943.000000000,1718090989.750890017
1718090989.750925,207.752227783,8659.000000000,1718090989.750924587,,,,
1718090989.751897,,,,7.278988361,7.280426502,42944.000000000,1718090989.751897097
1718090989.752904,,,,7.307091713,7.311342239,42945.000000000,1718090989.752904177
1718090989.753911,,,,7.387772083,7.392888069,42946.000000000,1718090989.753911257
1718090989.754918,,,,7.442873001,7.447700500,42947.000000000,1718090989.754918337
1718090989.755925,207.558288574,8660.000000000,1718090989.755924702,,,,
1718090989.755925,,,,7.449003220,7.451691151,42948.000000000,1718090989.755925417
1718090989.756932,,,,7.401426792,7.400605202,42949.000000000,1718090989.756932497
1718090989.757940,,,,7.411235332,7.414284229,42950.000000000,1718090989.757939577
1718090989.758947,,,,7.455061436,7.460417747,42951.000000000,1718090989.758946657
1718090989.759954,,,,7.419289112,7.422000885,42952.000000000,1718090989.759953737
1718090989.760961,,,,7.352768898,7.352259636,42953.000000000,1718090989.760960817
1718090989.761968,,,,7.388853550,7.391397476,42954.000000000,1718090989.761967897
1718090989.762975,,,,7.542665005,7.545280933,42955.000000000,1718090989.762974977
1718090989.763982,,,,7.575576782,7.579442501,42956.000000000,1718090989.763982058
1718090989.764989,,,,7.483573437,7.486526012,42957.000000000,1718090989.764989138
1718090989.765996,,,,7.436934948,7.438973904,42958.000000000,1718090989.765996218
1718090989.766752,207.380523682,8661.000000000,1718090989.766752481,,,,
1718090989.767003,,,,7.438377380,7.439959526,42959.000000000,1718090989.767003298
1718090989.768010,,,,7.467442513,7.471644878,42960.000000000,1718090989.768010378
1718090989.769017,,,,7.526582241,7.528957367,42961.000000000,1718090989.769017458
1718090989.770025,,,,7.471313000,7.473928452,42962.000000000,1718090989.770024538
1718090989.771032,,,,7.327285767,7.329228401,42963.000000000,1718090989.771031618
1718090989.771753,207.024902344,8662.000000000,1718090989.771752596,,,,
1718090989.772039,,,,7.277497768,7.281507969,42964.000000000,1718090989.772038698
1718090989.773046,,,,7.403614521,7.407913208,42965.000000000,1718090989.773045778
1718090989.774053,,,,7.484583378,7.486381531,42966.000000000,1718090989.774052858
1718090989.775060,,,,7.447993279,7.452556610,42967.000000000,1718090989.775059938
1718090989.776067,,,,7.377747059,7.381348610,42968.000000000,1718090989.776067019
1718090989.776752,206.814743042,8663.000000000,1718090989.776752472,,,,
1718090989.777074,,,,7.347263813,7.352595806,42969.000000000,1718090989.777074099
1718090989.778081,,,,7.298629761,7.300307751,42970.000000000,1718090989.778081179
1718090989.779088,,,,7.244274139,7.243644238,42971.000000000,1718090989.779088259
1718090989.780095,,,,7.208669662,7.209266186,42972.000000000,1718090989.780095339
1718090989.781102,,,,7.213021278,7.212584019,42973.000000000,1718090989.781102419
1718090989.781753,206.539947510,8664.000000000,1718090989.781752586,,,,
1718090989.782109,,,,7.218887329,7.221166611,42974.000000000,1718090989.782109499
1718090989.783117,,,,7.193019390,7.196789265,42975.000000000,1718090989.783116579
1718090989.784124,,,,7.311948299,7.314106941,42976.000000000,1718090989.784123659
1718090989.785131,,,,7.485977650,7.488785744,42977.000000000,1718090989.785130739
1718090989.786138,,,,7.611397266,7.615190983,42978.000000000,1718090989.786137819
1718090989.786752,206.394454956,8665.000000000,1718090989.786752462,,,,
1718090989.787145,,,,7.719555378,7.721185684,42979.000000000,1718090989.787144899
1718090989.788152,,,,7.658276081,7.660795689,42980.000000000,1718090989.788151979
1718090989.789159,,,,7.654068947,7.657430172,42981.000000000,1718090989.789159060
1718090989.790166,,,,7.622383595,7.626970768,42982.000000000,1718090989.790166140
1718090989.791173,,,,7.542544842,7.544752121,42983.000000000,1718090989.791173220
1718090989.791753,206.232757568,8666.000000000,1718090989.791752577,,,,
1718090989.792180,,,,7.425227165,7.427602291,42984.000000000,1718090989.792180300
1718090989.793187,,,,7.336517334,7.338267803,42985.000000000,1718090989.793187380
1718090989.794194,,,,7.293244362,7.297422886,42986.000000000,1718090989.794194460
1718090989.795202,,,,7.251606464,7.257299423,42987.000000000,1718090989.795201540
1718090989.796209,,,,7.348658085,7.352307320,42988.000000000,1718090989.796208620
1718090989.796752,206.216598511,8667.000000000,1718090989.796752453,,,,
1718090989.797216,,,,7.400922298,7.401566505,42989.000000000,1718090989.797215700
1718090989.798223,,,,7.297067165,7.297735691,42990.000000000,1718090989.798222780
1718090989.799230,,,,7.266799927,7.271964073,42991.000000000,1718090989.799229860
1718090989.800237,,,,7.240042686,7.244149208,42992.000000000,1718090989.800236940
1718090989.801244,,,,7.245788574,7.249053478,42993.000000000,1718090989.801244020
1718090989.801753,206.216598511,8668.000000000,1718090989.801752567,,,,
1718090989.802251,,,,7.275214195,7.279104233,42994.000000000,1718090989.802251101
1718090989.803258,,,,7.380367279,7.383608341,42995.000000000,1718090989.803258181
1718090989.804265,,,,7.423471928,7.426280499,42996.000000000,1718090989.804265261
1718090989.805272,,,,7.386281490,7.390460014,42997.000000000,1718090989.805272341
1718090989.806279,,,,7.349283218,7.355576992,42998.000000000,1718090989.806279421
1718090989.807287,,,,7.338825226,7.344013691,42999.000000000,1718090989.807286501
1718090989.808294,,,,7.367073059,7.371011257,43000.000000000,1718090989.808293581
1718090989.809301,,,,7.371544361,7.373775959,43001.000000000,1718090989.809300661
1718090989.811315,,,,7.294542789,7.299346447,43003.000000000,1718090989.811314821
1718090989.812322,,,,7.323006630,7.326488018,43004.000000000,1718090989.812321901
1718090989.813329,,,,7.353177547,7.355889797,43005.000000000,1718090989.813328981
1718090989.814336,,,,7.356735706,7.360914230,43006.000000000,1718090989.814336061
1718090989.815343,,,,7.373516083,7.376852989,43007.000000000,1718090989.815343142
1718090989.816350,,,,7.369621277,7.372429371,43008.000000000,1718090989.816350222
1718090989.816752,206.362121582,8671.000000000,1718090989.816752434,,,,
1718090989.817357,,,,7.403037548,7.406639099,43009.000000000,1718090989.817357302
1718090989.818364,,,,7.461672783,7.463639259,43010.000000000,1718090989.818364382
1718090989.819371,,,,7.477178574,7.479650497,43011.000000000,1718090989.819371462
1718090989.820379,,,,7.388132572,7.390291691,43012.000000000,1718090989.820378542
1718090989.821386,,,,7.378852844,7.380074501,43013.000000000,1718090989.821385622
1718090989.821753,206.362121582,8672.000000000,1718090989.821752548,,,,
1718090989.822393,,,,7.384069920,7.387286663,43014.000000000,1718090989.822392702
1718090989.823400,,,,7.318174362,7.321030617,43015.000000000,1718090989.823399782
1718090989.824407,,,,7.289902687,7.293985367,43016.000000000,1718090989.824406862
1718090989.825414,,,,7.295383930,7.298624992,43017.000000000,1718090989.825413942
1718090989.826421,,,,7.280911922,7.282926559,43018.000000000,1718090989.826421022
1718090989.826752,206.345962524,8673.000000000,1718090989.826752424,,,,
1718090989.827428,,,,7.319256306,7.321848392,43019.000000000,1718090989.827428102
1718090989.828435,,,,7.424409866,7.426977634,43020.000000000,1718090989.828435183
1718090989.829442,,,,7.520042896,7.522033691,43021.000000000,1718090989.829442263
1718090989.830449,,,,7.606108189,7.609252930,43022.000000000,1718090989.830449343
1718090989.831456,,,,7.599352837,7.603771687,43023.000000000,1718090989.831456423
1718090989.831753,206.362121582,8674.000000000,1718090989.831752539,,,,
1718090989.832464,,,,7.558051109,7.560570717,43024.000000000,1718090989.832463503
1718090989.833471,,,,7.458114624,7.460586071,43025.000000000,1718090989.833470583
1718090989.834478,,,,7.356110573,7.354543209,43026.000000000,1718090989.834477663
1718090989.835485,,,,7.257231712,7.257154942,43027.000000000,1718090989.835484743
1718090989.836492,,,,7.227878094,7.230975151,43028.000000000,1718090989.836491823
1718090989.836752,206.265090942,8675.000000000,1718090989.836752415,,,,
1718090989.837499,,,,7.274035931,7.276579857,43029.000000000,1718090989.837498903
1718090989.838506,,,,7.329185009,7.332041264,43030.000000000,1718090989.838505983
1718090989.839513,,,,7.368996143,7.371660233,43031.000000000,1718090989.839513063
1718090989.840520,,,,7.400585651,7.401926994,43032.000000000,1718090989.840520144
1718090989.841527,,,,7.377819061,7.378223419,43033.000000000,1718090989.841527224
1718090989.841753,206.022583008,8676.000000000,1718090989.841752529,,,,
1718090989.842534,,,,7.308005333,7.308986664,43034.000000000,1718090989.842534304
1718090989.843541,,,,7.202178955,7.203472614,43035.000000000,1718090989.843541384
1718090989.844548,,,,7.247735977,7.252563477,43036.000000000,1718090989.844548464
1718090989.845556,,,,7.400561333,7.404499531,43037.000000000,1718090989.845555544
1718090989.846563,,,,7.529947758,7.532876015,43038.000000000,1718090989.846562624
1718090989.846752,205.780029297,8677.000000000,1718090989.846752405,,,,
1718090989.847570,,,,7.496963978,7.499026775,43039.000000000,1718090989.847569704
1718090989.848577,,,,7.505306244,7.505926609,43040.000000000,1718090989.848576784
1718090989.849584,,,,7.475687981,7.478953362,43041.000000000,1718090989.849583864
1718090989.850591,,,,7.438809872,7.443181038,43042.000000000,1718090989.850590944
1718090989.851598,,,,7.522567272,7.524678230,43043.000000000,1718090989.851598024
1718090989.851753,205.440475464,8678.000000000,1718090989.851752520,,,,
1718090989.852605,,,,7.558219433,7.563143253,43044.000000000,1718090989.852605104
1718090989.853612,,,,7.521677971,7.524726391,43045.000000000,1718090989.853612185
1718090989.854619,,,,7.453162193,7.453542233,43046.000000000,1718090989.854619265
1718090989.855626,,,,7.415538788,7.418178558,43047.000000000,1718090989.855626345
1718090989.856633,,,,7.298365116,7.301221371,43048.000000000,1718090989.856633425
1718090989.856752,205.036178589,8679.000000000,1718090989.856752396,,,,
1718090989.857641,,,,7.355629921,7.358149529,43049.000000000,1718090989.857640505
1718090989.858648,,,,7.334017277,7.336392879,43050.000000000,1718090989.858647585
1718090989.859655,,,,7.264371872,7.267756939,43051.000000000,1718090989.859654665
1718090989.860662,,,,7.265573978,7.265280724,43052.000000000,1718090989.860661745
1718090989.861669,,,,7.279349327,7.280570507,43053.000000000,1718090989.861668825
1718090989.861753,204.777389526,8680.000000000,1718090989.861752510,,,,
1718090989.862676,,,,7.305288792,7.306342125,43054.000000000,1718090989.862675905
1718090989.863683,,,,7.369140625,7.370554447,43055.000000000,1718090989.863682985
1718090989.864690,,,,7.387892246,7.392286777,43056.000000000,1718090989.864690065
1718090989.865697,,,,7.385776520,7.389450073,43057.000000000,1718090989.865697145
1718090989.866704,,,,7.383252144,7.387478828,43058.000000000,1718090989.866704226
1718090989.867711,,,,7.254659653,7.255592346,43059.000000000,1718090989.867711306
1718090989.868718,,,,7.211145878,7.212992668,43060.000000000,1718090989.868718386
1718090989.869725,,,,7.280046463,7.283623695,43061.000000000,1718090989.869725466
1718090989.870733,,,,7.375583172,7.378559589,43062.000000000,1718090989.870732546
1718090989.871740,,,,7.461648464,7.464769363,43063.000000000,1718090989.871739626
1718090989.872747,,,,7.479029655,7.484121799,43064.000000000,1718090989.872746706
1718090989.873754,,,,7.537953377,7.541819096,43065.000000000,1718090989.873753786
1718090989.874761,,,,7.480544567,7.486526012,43066.000000000,1718090989.874760866
1718090989.875768,,,,7.387772083,7.394378662,43067.000000000,1718090989.875767946
1718090989.876775,,,,7.419889927,7.423227310,43068.000000000,1718090989.876775026
1718090989.877782,,,,7.336277008,7.340936184,43069.000000000,1718090989.877782106
1718090989.878789,,,,7.265934467,7.270617962,43070.000000000,1718090989.878789186
1718090989.879796,,,,7.175157547,7.179744720,43071.000000000,1718090989.879796267
1718090989.880803,,,,7.198693275,7.200876236,43072.000000000,1718090989.880803347
1718090989.881810,,,,7.300673008,7.303817749,43073.000000000,1718090989.881810427
1718090989.882818,,,,7.349186897,7.351057529,43074.000000000,1718090989.882817507
1718090989.883825,,,,7.382434845,7.385483265,43075.000000000,1718090989.883824587
1718090989.884832,,,,7.353033543,7.356394291,43076.000000000,1718090989.884831667
1718090989.885839,,,,7.368491650,7.373631477,43077.000000000,1718090989.885838747
1718090989.886846,,,,7.381809711,7.387959480,43078.000000000,1718090989.886845827
1718090989.887853,,,,7.261318684,7.265545368,43079.000000000,1718090989.887852907
1718090989.888860,,,,7.234152794,7.236792564,43080.000000000,1718090989.888859987
1718090989.889867,,,,7.337647438,7.339373589,43081.000000000,1718090989.889867067
1718090989.890874,,,,7.403422356,7.402816772,43082.000000000,1718090989.890874147
1718090989.891881,,,,7.393157005,7.394570827,43083.000000000,1718090989.891881227
1718090989.892888,,,,7.362697601,7.366299152,43084.000000000,1718090989.892888308
1718090989.893895,,,,7.362337112,7.364640236,43085.000000000,1718090989.893895388
1718090989.894902,,,,7.357120037,7.358966827,43086.000000000,1718090989.894902468
1718090989.895910,,,,7.273699760,7.276074886,43087.000000000,1718090989.895909548
1718090989.896917,,,,7.231195927,7.232224941,43088.000000000,1718090989.896916628
1718090989.897924,,,,7.319304466,7.319780827,43089.000000000,1718090989.897923708
1718090989.898931,,,,7.389262676,7.392911911,43090.000000000,1718090989.898930788
1718090989.899938,,,,7.340219975,7.345888615,43091.000000000,1718090989.899937868
1718090989.900945,,,,7.311058521,7.314708233,43092.000000000,1718090989.900944948
1718090989.901952,,,,7.325026035,7.325574398,43093.000000000,1718090989.901952028
1718090989.902959,,,,7.305962086,7.307616234,43094.000000000,1718090989.902959108
1718090989.903966,,,,7.348009109,7.350264072,43095.000000000,1718090989.903966188
1718090989.904973,,,,7.406571865,7.405797958,43096.000000000,1718090989.904973269
1718090989.905980,,,,7.428809166,7.426424503,43097.000000000,1718090989.905980349
1718090989.906987,,,,7.405441761,7.408153534,43098.000000000,1718090989.906987429
1718090989.907995,,,,7.408879757,7.412937641,43099.000000000,1718090989.907994509
1718090989.909002,,,,7.350677490,7.355648994,43100.000000000,1718090989.909001589
1718090989.910009,,,,7.320506573,7.323506832,43101.000000000,1718090989.910008669
1718090989.911016,,,,7.369765759,7.371491909,43102.000000000,1718090989.911015749
1718090989.911553,203.742111206,8691.000000000,1718090989.911553383,,,,
1718090989.912023,,,,7.442873001,7.444647312,43103.000000000,1718090989.912022829
1718090989.913030,,,,7.506580353,7.509941578,43104.000000000,1718090989.913029909
1718090989.914037,,,,7.595842838,7.597448826,43105.000000000,1718090989.914036989
1718090989.915044,,,,7.570432186,7.572518826,43106.000000000,1718090989.915044069
1718090989.916051,,,,7.531101704,7.533981800,43107.000000000,1718090989.916051149
1718090989.916553,203.450897217,8692.000000000,1718090989.916553497,,,,
1718090989.917058,,,,7.463139057,7.464408398,43108.000000000,1718090989.917058229
1718090989.918065,,,,7.382963657,7.386853695,43109.000000000,1718090989.918065310
1718090989.919072,,,,7.354908466,7.358125210,43110.000000000,1718090989.919072390
1718090989.920079,,,,7.190927982,7.196645260,43111.000000000,1718090989.920079470
1718090989.921087,,,,7.228743553,7.234508991,43112.000000000,1718090989.921086550
1718090989.921553,203.127273560,8693.000000000,1718090989.921553373,,,,
1718090989.922094,,,,7.341878414,7.345456123,43113.000000000,1718090989.922093630
1718090989.923101,,,,7.369837761,7.376660824,43114.000000000,1718090989.923100710
1718090989.924108,,,,7.340532303,7.346297264,43115.000000000,1718090989.924107790
1718090989.925115,,,,7.406595707,7.410245419,43116.000000000,1718090989.925114870
1718090989.926122,,,,7.424409866,7.428395748,43117.000000000,1718090989.926121950
1718090989.926553,202.803634644,8694.000000000,1718090989.926553488,,,,
1718090989.927129,,,,7.397989273,7.400220394,43118.000000000,1718090989.927129030
1718090989.928136,,,,7.415947437,7.415702343,43119.000000000,1718090989.928136110
1718090989.929143,,,,7.382506847,7.382670879,43120.000000000,1718090989.929143190
1718090989.930150,,,,7.309135437,7.308794022,43121.000000000,1718090989.930150270
1718090989.931157,,,,7.359548569,7.361538887,43122.000000000,1718090989.931157351
1718090989.931553,202.512344360,8695.000000000,1718090989.931553364,,,,
1718090989.932164,,,,7.319544792,7.322881699,43123.000000000,1718090989.932164431
1718090989.933172,,,,7.182754040,7.184288025,43124.000000000,1718090989.933171511
1718090989.934179,,,,7.132173061,7.133899212,43125.000000000,1718090989.934178591
1718090989.935186,,,,7.236797333,7.240951538,43126.000000000,1718090989.935185671
1718090989.936193,,,,7.326300144,7.328026772,43127.000000000,1718090989.936192751
1718090989.936553,202.237197876,8696.000000000,1718090989.936553478,,,,
1718090989.937200,,,,7.388637543,7.391685963,43128.000000000,1718090989.937199831
1718090989.938207,,,,7.391810894,7.396373749,43129.000000000,1718090989.938206911
1718090989.939214,,,,7.420298576,7.423900127,43130.000000000,1718090989.939213991
1718090989.940221,,,,7.408615112,7.412240505,43131.000000000,1718090989.940221071
1718090989.941228,,,,7.318703651,7.319780827,43132.000000000,1718090989.941228151
1718090989.941553,202.026794434,8697.000000000,1718090989.941553354,,,,
1718090989.942235,,,,7.254587173,7.256145477,43133.000000000,1718090989.942235231
1718090989.943242,,,,7.198765278,7.201261044,43134.000000000,1718090989.943242311
1718090989.944249,,,,7.209871769,7.213521481,43135.000000000,1718090989.944249392
1718090989.945256,,,,7.271944523,7.276387691,43136.000000000,1718090989.945256472
1718090989.946264,,,,7.284637928,7.291028023,43137.000000000,1718090989.946263552
1718090989.946553,201.881134033,8698.000000000,1718090989.946553469,,,,
1718090989.947271,,,,7.342527866,7.349206448,43138.000000000,1718090989.947270632
1718090989.948278,,,,7.432583332,7.436521530,43139.000000000,1718090989.948277712
1718090989.949285,,,,7.452849865,7.453902721,43140.000000000,1718090989.949284792
1718090989.950292,,,,7.445901871,7.451282501,43141.000000000,1718090989.950291872
1718090989.951299,,,,7.460326195,7.463711262,43142.000000000,1718090989.951298952
1718090989.951553,201.816360474,8699.000000000,1718090989.951553345,,,,
1718090989.952306,,,,7.471793652,7.474313259,43143.000000000,1718090989.952306032
1718090989.953313,,,,7.441622734,7.444334984,43144.000000000,1718090989.953313112
1718090989.954320,,,,7.346710682,7.349615097,43145.000000000,1718090989.954320192
1718090989.955327,,,,7.206314087,7.208665371,43146.000000000,1718090989.955327272
1718090989.956334,,,,7.144217014,7.147914886,43147.000000000,1718090989.956334352
1718090989.956553,201.767791748,8700.000000000,1718090989.956553459,,,,
1718090989.957341,,,,7.116402149,7.119234562,43148.000000000,1718090989.957341433
1718090989.958349,,,,7.154266357,7.156497478,43149.000000000,1718090989.958348513
1718090989.959356,,,,7.200448036,7.200251102,43150.000000000,1718090989.959355593
1718090989.960363,,,,7.282546520,7.283022881,43151.000000000,1718090989.960362673
1718090989.961370,,,,7.435853004,7.440296173,43152.000000000,1718090989.961369753
1718090989.962377,,,,7.466264248,7.473544121,43153.000000000,1718090989.962376833
1718090989.963384,,,,7.365486145,7.371371746,43154.000000000,1718090989.963383913
1718090989.964391,,,,7.407124519,7.411856174,43155.000000000,1718090989.964390993
1718090989.965398,,,,7.416380405,7.418851852,43156.000000000,1718090989.965398073
1718090989.966035,201.638305664,8701.000000000,1718090989.966034651,,,,
1718090989.966405,,,,7.332238197,7.336416721,43157.000000000,1718090989.966405153
1718090989.967412,,,,7.338416576,7.343123913,43158.000000000,1718090989.967412233
1718090989.968419,,,,7.404888630,7.408081532,43159.000000000,1718090989.968419313
1718090989.969426,,,,7.441454411,7.446330070,43160.000000000,1718090989.969426394
1718090989.970433,,,,7.431742191,7.434117317,43161.000000000,1718090989.970433474
1718090989.971035,201.573562622,8702.000000000,1718090989.971034765,,,,
1718090989.971441,,,,7.415442467,7.418923855,43162.000000000,1718090989.971440554
1718090989.972448,,,,7.450469494,7.455561638,43163.000000000,1718090989.972447634
1718090989.973455,,,,7.367217064,7.369929314,43164.000000000,1718090989.973454714
1718090989.974462,,,,7.314785004,7.314323425,43165.000000000,1718090989.974461794
1718090989.975469,,,,7.354499817,7.353653908,43166.000000000,1718090989.975468874
1718090989.976035,201.541183472,8703.000000000,1718090989.976034641,,,,
1718090989.976476,,,,7.272257328,7.275017262,43167.000000000,1718090989.976475954
1718090989.977483,,,,7.255548954,7.257828236,43168.000000000,1718090989.977483034
1718090989.978490,,,,7.315818787,7.316414833,43169.000000000,1718090989.978490114
1718090989.979497,,,,7.314448357,7.314924717,43170.000000000,1718090989.979497194
1718090989.980504,,,,7.361711979,7.362885475,43171.000000000,1718090989.980504274
1718090989.981035,201.314529419,8704.000000000,1718090989.981034756,,,,
1718090989.981511,,,,7.356711388,7.359807968,43172.000000000,1718090989.981511354
1718090989.982518,,,,7.270598412,7.273021698,43173.000000000,1718090989.982518435
1718090989.983526,,,,7.185158253,7.187269211,43174.000000000,1718090989.983525515
1718090989.984533,,,,7.289927006,7.294249535,43175.000000000,1718090989.984532595
1718090989.985540,,,,7.319208145,7.319996834,43176.000000000,1718090989.985539675
1718090989.986035,201.282150269,8705.000000000,1718090989.986034632,,,,
1718090989.986547,,,,7.311323166,7.312784672,43177.000000000,1718090989.986546755
1718090989.987554,,,,7.281272411,7.285835266,43178.000000000,1718090989.987553835
1718090989.988561,,,,7.304231167,7.307784557,43179.000000000,1718090989.988560915
1718090989.989568,,,,7.402028084,7.406518936,43180.000000000,1718090989.989567995
1718090989.990575,,,,7.526437759,7.530736446,43181.000000000,1718090989.990575075
1718090989.991035,201.055496216,8706.000000000,1718090989.991034746,,,,
1718090989.991582,,,,7.570479870,7.576245308,43182.000000000,1718090989.991582155
1718090989.992589,,,,7.534731865,7.538140774,43183.000000000,1718090989.992589235
1718090989.993596,,,,7.483789921,7.484698772,43184.000000000,1718090989.993596315
1718090989.994603,,,,7.428568840,7.431593418,43185.000000000,1718090989.994603395
1718090989.995610,,,,7.339763165,7.344374180,43186.000000000,1718090989.995610476
1718090989.996035,200.958358765,8707.000000000,1718090989.996034622,,,,
1718090989.996618,,,,7.301562786,7.304322720,43187.000000000,1718090989.996617556
1718090989.997625,,,,7.328319550,7.329516888,43188.000000000,1718090989.997624636
1718090989.998632,,,,7.331757545,7.335959911,43189.000000000,1718090989.998631716
1718090989.999639,,,,7.328223705,7.331151962,43190.000000000,1718090989.999638796
1718090990.000646,,,,7.363010406,7.364279747,43191.000000000,1718090990.000645876
1718090990.001035,200.715469360,8708.000000000,1718090990.001034737,,,,
1718090990.001653,,,,7.431117058,7.435007095,43192.000000000,1718090990.001652956
1718090990.002660,,,,7.352047920,7.356081963,43193.000000000,1718090990.002660036
1718090990.003667,,,,7.259876251,7.264679909,43194.000000000,1718090990.003667116
1718090990.004674,,,,7.167993069,7.169503212,43195.000000000,1718090990.004674196
1718090990.005681,,,,7.254851818,7.254871368,43196.000000000,1718090990.005681276
1718090990.006688,,,,7.411427975,7.413250446,43197.000000000,1718090990.006688356
1718090990.007695,,,,7.515234947,7.517946720,43198.000000000,1718090990.007695436
1718090990.008703,,,,7.564325809,7.567494392,43199.000000000,1718090990.008702517
1718090990.009710,,,,7.558267593,7.562638283,43200.000000000,1718090990.009709597
1718090990.010717,,,,7.410129547,7.414331913,43201.000000000,1718090990.010716677
1718090990.011724,,,,7.209006310,7.212992668,43202.000000000,1718090990.011723757
1718090990.012731,,,,7.219079494,7.223137856,43203.000000000,1718090990.012730837
1718090990.013738,,,,7.255356789,7.258958340,43204.000000000,1718090990.013737917
1718090990.014745,,,,7.252976418,7.255664349,43205.000000000,1718090990.014744997
1718090990.015752,,,,7.263289928,7.265400887,43206.000000000,1718090990.015752077
1718090990.016035,199.889602661,8711.000000000,1718090990.016034603,,,,
1718090990.016759,,,,7.285166740,7.284585476,43207.000000000,1718090990.016759157
1718090990.017766,,,,7.311491489,7.311246395,43208.000000000,1718090990.017766237
1718090990.018773,,,,7.242206573,7.244654179,43209.000000000,1718090990.018773317
1718090990.019780,,,,7.220329762,7.221406937,43210.000000000,1718090990.019780397
1718090990.020787,,,,7.305793762,7.310789585,43211.000000000,1718090990.020787477
1718090990.021035,199.743820190,8712.000000000,1718090990.021034718,,,,
1718090990.021795,,,,7.413543224,7.418082237,43212.000000000,1718090990.021794558
1718090990.022802,,,,7.404720306,7.408442020,43213.000000000,1718090990.022801638
1718090990.023809,,,,7.370631218,7.374352932,43214.000000000,1718090990.023808718
1718090990.024816,,,,7.314880848,7.318987370,43215.000000000,1718090990.024815798
1718090990.025823,,,,7.318054199,7.319924831,43216.000000000,1718090990.025822878
1718090990.026035,199.549468994,8713.000000000,1718090990.026034594,,,,
1718090990.026830,,,,7.360245705,7.363750935,43217.000000000,1718090990.026829958
1718090990.027837,,,,7.377626896,7.383848667,43218.000000000,1718090990.027837038
1718090990.028844,,,,7.322934628,7.326295853,43219.000000000,1718090990.028844118
1718090990.029851,,,,7.362288952,7.362909317,43220.000000000,1718090990.029851198
1718090990.030858,,,,7.411211491,7.413057804,43221.000000000,1718090990.030858278
1718090990.031035,199.468475342,8714.000000000,1718090990.031034708,,,,
1718090990.031865,,,,7.395633221,7.399980068,43222.000000000,1718090990.031865358
1718090990.032872,,,,7.388541222,7.390027046,43223.000000000,1718090990.032872438
1718090990.033880,,,,7.369164467,7.370578289,43224.000000000,1718090990.033879519
1718090990.034887,,,,7.303822517,7.307760239,43225.000000000,1718090990.034886599
1718090990.035894,,,,7.271944523,7.276387691,43226.000000000,1718090990.035893679
1718090990.036035,199.306488037,8715.000000000,1718090990.036034584,,,,
1718090990.036901,,,,7.285479546,7.287350178,43227.000000000,1718090990.036900759
1718090990.037908,,,,7.221026897,7.224483967,43228.000000000,1718090990.037907839
1718090990.038915,,,,7.165084362,7.168205261,43229.000000000,1718090990.038914919
1718090990.039922,,,,7.216050148,7.219147205,43230.000000000,1718090990.039921999
1718090990.040929,,,,7.262689114,7.265857697,43231.000000000,1718090990.040929079
1718090990.041035,199.209289551,8716.000000000,1718090990.041034698,,,,
1718090990.041936,,,,7.281609058,7.283551693,43232.000000000,1718090990.041936159
1718090990.042943,,,,7.291441441,7.294922829,43233.000000000,1718090990.042943239
1718090990.043950,,,,7.309832573,7.313313961,43234.000000000,1718090990.043950319
1718090990.044957,,,,7.325386524,7.328195095,43235.000000000,1718090990.044957399
1718090990.045964,,,,7.305360794,7.309082508,43236.000000000,1718090990.045964479
1718090990.046035,199.079711914,8717.000000000,1718090990.046034575,,,,
1718090990.046972,,,,7.284445763,7.288479805,43237.000000000,1718090990.046971560
1718090990.047979,,,,7.306130409,7.310116291,43238.000000000,1718090990.047978640
1718090990.048986,,,,7.377362251,7.379737854,43239.000000000,1718090990.048985720
1718090990.049993,,,,7.423592567,7.427963257,43240.000000000,1718090990.049992800
1718090990.051000,,,,7.437728405,7.443902016,43241.000000000,1718090990.050999880
1718090990.051035,198.933914185,8718.000000000,1718090990.051034689,,,,
1718090990.052007,,,,7.443498135,7.448662281,43242.000000000,1718090990.052006960
1718090990.053014,,,,7.434482574,7.434525967,43243.000000000,1718090990.053014040
1718090990.054021,,,,7.433016300,7.434069633,43244.000000000,1718090990.054021120
1718090990.055028,,,,7.455878735,7.457076073,43245.000000000,1718090990.055028200
1718090990.056035,198.852920532,8719.000000000,1718090990.056034565,,,,
1718090990.056035,,,,7.461888790,7.461211205,43246.000000000,1718090990.056035280
1718090990.057042,,,,7.430732250,7.432122231,43247.000000000,1718090990.057042360
1718090990.058049,,,,7.347576141,7.349590778,43248.000000000,1718090990.058049440
1718090990.059057,,,,7.231869221,7.231552124,43249.000000000,1718090990.059056520
1718090990.060064,,,,7.113348961,7.113681316,43250.000000000,1718090990.060063601
1718090990.061035,198.755691528,8720.000000000,1718090990.061034679,,,,
1718090990.061071,,,,7.060652256,7.059445858,43251.000000000,1718090990.061070681
1718090990.061142,198.626083374,8721.000000000,1718090990.061142206,,,,
1718090990.062078,,,,7.156453609,7.156809807,43252.000000000,1718090990.062077761
1718090990.063085,,,,7.279757977,7.283238888,43253.000000000,1718090990.063084841
1718090990.064092,,,,7.326035976,7.329180717,43254.000000000,1718090990.064091921
1718090990.065099,,,,7.366928577,7.368078232,43255.000000000,1718090990.065099001
1718090990.066106,,,,7.409913063,7.412288666,43256.000000000,1718090990.066106081
1718090990.066142,198.496475220,8722.000000000,1718090990.066142321,,,,
1718090990.067113,,,,7.462369919,7.463783741,43257.000000000,1718090990.067113161
1718090990.068120,,,,7.421981812,7.424861908,43258.000000000,1718090990.068120241
1718090990.069127,,,,7.315457821,7.320285320,43259.000000000,1718090990.069127321
1718090990.070134,,,,7.277065277,7.279656887,43260.000000000,1718090990.070134401
1718090990.071141,,,,7.286296844,7.288624287,43261.000000000,1718090990.071141481
1718090990.071142,198.285827637,8723.000000000,1718090990.071142197,,,,
1718090990.072149,,,,7.299326897,7.304659367,43262.000000000,1718090990.072148561
1718090990.073156,,,,7.282570362,7.288888454,43263.000000000,1718090990.073155642
1718090990.074163,,,,7.263338089,7.268093586,43264.000000000,1718090990.074162722
1718090990.075170,,,,7.242518902,7.245808125,43265.000000000,1718090990.075169802
1718090990.076142,197.961761475,8724.000000000,1718090990.076142311,,,,
1718090990.076177,,,,7.243649006,7.245278835,43266.000000000,1718090990.076176882
1718090990.077184,,,,7.274853706,7.277709961,43267.000000000,1718090990.077183962
1718090990.078191,,,,7.314880848,7.319324017,43268.000000000,1718090990.078191042
1718090990.079198,,,,7.339738846,7.341801643,43269.000000000,1718090990.079198122
1718090990.080205,,,,7.406235218,7.407889366,43270.000000000,1718090990.080205202
1718090990.081212,,,,7.483789921,7.487823963,43271.000000000,1718090990.081212282
1718090990.082219,,,,7.458138466,7.461355686,43272.000000000,1718090990.082219362
1718090990.083226,,,,7.478068352,7.477678776,43273.000000000,1718090990.083226442
1718090990.084234,,,,7.539780140,7.539583206,43274.000000000,1718090990.084233522
1718090990.085241,,,,7.545429707,7.545232773,43275.000000000,1718090990.085240602
1718090990.086248,,,,7.524033546,7.526817799,43276.000000000,1718090990.086247683
1718090990.087255,,,,7.450878143,7.451931477,43277.000000000,1718090990.087254763
1718090990.088262,,,,7.326828957,7.327882290,43278.000000000,1718090990.088261843
1718090990.089269,,,,7.315938950,7.316583157,43279.000000000,1718090990.089268923
1718090990.090276,,,,7.370511055,7.370626450,43280.000000000,1718090990.090276003
1718090990.091283,,,,7.291417599,7.293744564,43281.000000000,1718090990.091283083
1718090990.092290,,,,7.187634468,7.192990780,43282.000000000,1718090990.092290163
1718090990.093297,,,,7.126451015,7.131783485,43283.000000000,1718090990.093297243
1718090990.094304,,,,7.085654259,7.088462353,43284.000000000,1718090990.094304323
1718090990.095311,,,,7.160180092,7.163998127,43285.000000000,1718090990.095311403
1718090990.096318,,,,7.179869175,7.181691647,43286.000000000,1718090990.096318483
1718090990.097326,,,,7.277041435,7.278743267,43287.000000000,1718090990.097325563
1718090990.098333,,,,7.410057545,7.412841797,43288.000000000,1718090990.098332644
1718090990.099340,,,,7.345292091,7.348845482,43289.000000000,1718090990.099339724
1718090990.100347,,,,7.292042732,7.295596123,43290.000000000,1718090990.100346804
1718090990.101354,,,,7.378300190,7.380939960,43291.000000000,1718090990.101353884
1718090990.102361,,,,7.469413757,7.473231316,43292.000000000,1718090990.102360964
1718090990.103368,,,,7.486771107,7.489290714,43293.000000000,1718090990.103368044
1718090990.104375,,,,7.391065598,7.390219688,43294.000000000,1718090990.104375124
1718090990.105382,,,,7.298316956,7.300067425,43295.000000000,1718090990.105382204
1718090990.106389,,,,7.275815010,7.278142452,43296.000000000,1718090990.106389284
1718090990.107396,,,,7.328656197,7.330598831,43297.000000000,1718090990.107396364
1718090990.108403,,,,7.386713982,7.388873100,43298.000000000,1718090990.108403444
1718090990.109411,,,,7.346710682,7.348148346,43299.000000000,1718090990.109410524
1718090990.110418,,,,7.230570793,7.233787537,43300.000000000,1718090990.110417604
1718090990.111142,195.416671753,8731.000000000,1718090990.111142159,,,,
1718090990.111425,,,,7.215834141,7.220060349,43301.000000000,1718090990.111424685
1718090990.112432,,,,7.257400036,7.261674881,43302.000000000,1718090990.112431765
1718090990.113439,,,,7.297980309,7.301173210,43303.000000000,1718090990.113438845
1718090990.114446,,,,7.338296413,7.340551853,43304.000000000,1718090990.114445925
1718090990.115453,,,,7.314183712,7.316367149,43305.000000000,1718090990.115453005
1718090990.116142,195.059875488,8732.000000000,1718090990.116142273,,,,
1718090990.116460,,,,7.293485165,7.291869640,43306.000000000,1718090990.116460085
1718090990.117467,,,,7.320987225,7.319564342,43307.000000000,1718090990.117467165
1718090990.118474,,,,7.326588631,7.325983047,43308.000000000,1718090990.118474245
1718090990.119481,,,,7.222204685,7.222488403,43309.000000000,1718090990.119481325
1718090990.120488,,,,7.184677601,7.187509537,43310.000000000,1718090990.120488405
1718090990.121142,194.751693726,8733.000000000,1718090990.121142149,,,,
1718090990.121495,,,,7.209727764,7.212319374,43311.000000000,1718090990.121495485
1718090990.122503,,,,7.304543495,7.308794022,43312.000000000,1718090990.122502565
1718090990.123510,,,,7.366568089,7.371900558,43313.000000000,1718090990.123509645
1718090990.124517,,,,7.386930466,7.391036987,43314.000000000,1718090990.124516726
1718090990.125524,,,,7.440180302,7.442483425,43315.000000000,1718090990.125523806
1718090990.126142,194.411071777,8734.000000000,1718090990.126142263,,,,
1718090990.126531,,,,7.497445107,7.500685692,43316.000000000,1718090990.126530886
1718090990.127538,,,,7.483309269,7.485612392,43317.000000000,1718090990.127537966
1718090990.128545,,,,7.444339275,7.443781853,43318.000000000,1718090990.128545046
1718090990.129552,,,,7.347071171,7.348461151,43319.000000000,1718090990.129552126
1718090990.130559,,,,7.253529549,7.257708073,43320.000000000,1718090990.130559206
1718090990.131142,194.167724609,8735.000000000,1718090990.131142139,,,,
1718090990.131566,,,,7.260212898,7.265280724,43321.000000000,1718090990.131566286
1718090990.132573,,,,7.278531551,7.281556129,43322.000000000,1718090990.132573366
1718090990.133580,,,,7.328079224,7.327377319,43323.000000000,1718090990.133580446
1718090990.134588,,,,7.344787598,7.347547531,43324.000000000,1718090990.134587526
1718090990.135595,,,,7.366712570,7.372669697,43325.000000000,1718090990.135594606
1718090990.136142,193.924392700,8736.000000000,1718090990.136142254,,,,
1718090990.136602,,,,7.325434685,7.330334663,43326.000000000,1718090990.136601686
1718090990.137609,,,,7.274637222,7.277709961,43327.000000000,1718090990.137608767
1718090990.138616,,,,7.259443760,7.261915207,43328.000000000,1718090990.138615847
1718090990.139623,,,,7.230018139,7.232104778,43329.000000000,1718090990.139622927
1718090990.140630,,,,7.197082520,7.198688507,43330.000000000,1718090990.140630007
1718090990.141142,193.729675293,8737.000000000,1718090990.141142130,,,,
1718090990.141637,,,,7.176551819,7.181451321,43331.000000000,1718090990.141637087
1718090990.142644,,,,7.114262581,7.115508080,43332.000000000,1718090990.142644167
1718090990.143651,,,,7.167368412,7.169695377,43333.000000000,1718090990.143651247
1718090990.144658,,,,7.256823063,7.260761261,43334.000000000,1718090990.144658327
1718090990.145665,,,,7.291561604,7.297663212,43335.000000000,1718090990.145665407
1718090990.146142,193.551208496,8738.000000000,1718090990.146142244,,,,
1718090990.146672,,,,7.315361977,7.316439152,43336.000000000,1718090990.146672487
1718090990.147680,,,,7.359043598,7.360264778,43337.000000000,1718090990.147679567
1718090990.148687,,,,7.385151386,7.386301041,43338.000000000,1718090990.148686647
1718090990.149694,,,,7.439747810,7.442964554,43339.000000000,1718090990.149693727
1718090990.150701,,,,7.477298737,7.480539799,43340.000000000,1718090990.150700808
1718090990.151142,193.275329590,8739.000000000,1718090990.151142120,,,,
1718090990.151708,,,,7.385127544,7.388079643,43341.000000000,1718090990.151707888
1718090990.152715,,,,7.322021008,7.324997425,43342.000000000,1718090990.152714968
1718090990.153722,,,,7.303197384,7.307424068,43343.000000000,1718090990.153722048
1718090990.154729,,,,7.304928303,7.307952881,43344.000000000,1718090990.154729128
1718090990.154808,192.788482666,8741.000000000,1718090990.154808044,,,,
1718090990.155736,,,,7.303534031,7.306437969,43345.000000000,1718090990.155736208
1718090990.156142,192.999481201,8740.000000000,1718090990.156142235,,,,
1718090990.156743,,,,7.320578575,7.324420452,43346.000000000,1718090990.156743288
1718090990.157750,,,,7.287474632,7.291484833,43347.000000000,1718090990.157750368
1718090990.158757,,,,7.321203709,7.323362827,43348.000000000,1718090990.158757448
1718090990.159765,,,,7.357432842,7.357740879,43349.000000000,1718090990.159764528
1718090990.159808,192.463882446,8742.000000000,1718090990.159808159,,,,
1718090990.160772,,,,7.369429111,7.374665260,43350.000000000,1718090990.160771608
1718090990.161779,,,,7.399792194,7.404836178,43351.000000000,1718090990.161778688
1718090990.162786,,,,7.386641979,7.389474392,43352.000000000,1718090990.162785769
1718090990.163793,,,,7.344787598,7.347331047,43353.000000000,1718090990.163792849
1718090990.164800,,,,7.352961063,7.355024338,43354.000000000,1718090990.164799929
1718090990.164808,192.204162598,8743.000000000,1718090990.164808035,,,,
1718090990.165807,,,,7.344066143,7.350408554,43355.000000000,1718090990.165807009
1718090990.166814,,,,7.396787167,7.401109695,43356.000000000,1718090990.166814089
1718090990.167821,,,,7.384334087,7.389955044,43357.000000000,1718090990.167821169
1718090990.168828,,,,7.433232784,7.435247421,43358.000000000,1718090990.168828249
1718090990.169808,191.879516602,8744.000000000,1718090990.169808149,,,,
1718090990.169835,,,,7.401787758,7.404523373,43359.000000000,1718090990.169835329
1718090990.170842,,,,7.260525227,7.263790131,43360.000000000,1718090990.170842409
1718090990.171849,,,,7.194870472,7.196933746,43361.000000000,1718090990.171849489
1718090990.172857,,,,7.131668091,7.133033752,43362.000000000,1718090990.172856569
1718090990.173864,,,,7.177104473,7.180297375,43363.000000000,1718090990.173863649
1718090990.174808,191.571029663,8745.000000000,1718090990.174808025,,,,
1718090990.174871,,,,7.225089550,7.229340076,43364.000000000,1718090990.174870729
1718090990.175878,,,,7.220353603,7.223666668,43365.000000000,1718090990.175877810
1718090990.176885,,,,7.195375443,7.198376179,43366.000000000,1718090990.176884890
1718090990.177892,,,,7.147126198,7.151040077,43367.000000000,1718090990.177891970
1718090990.178899,,,,7.123037338,7.126206398,43368.000000000,1718090990.178899050
1718090990.179906,,,,7.139745712,7.142193317,43369.000000000,1718090990.179906130
1718090990.180913,,,,7.275262356,7.279681206,43370.000000000,1718090990.180913210
1718090990.181920,,,,7.409047604,7.411615372,43371.000000000,1718090990.181920290
1718090990.182927,,,,7.468019485,7.470995903,43372.000000000,1718090990.182927370
1718090990.183934,,,,7.580240726,7.584394932,43373.000000000,1718090990.183934450
1718090990.184942,,,,7.589544296,7.593266010,43374.000000000,1718090990.184941530
1718090990.185949,,,,7.444796085,7.447219849,43375.000000000,1718090990.185948610
1718090990.186956,,,,7.333440304,7.335310936,43376.000000000,1718090990.186955690
1718090990.187963,,,,7.301947117,7.304274559,43377.000000000,1718090990.187962770
1718090990.188970,,,,7.326251984,7.330743313,43378.000000000,1718090990.188969851
1718090990.189977,,,,7.281200409,7.284032345,43379.000000000,1718090990.189976931
1718090990.190984,,,,7.229513168,7.229460239,43380.000000000,1718090990.190984011
1718090990.191991,,,,7.243528843,7.245880127,43381.000000000,1718090990.191991091
1718090990.192998,,,,7.256246090,7.259967804,43382.000000000,1718090990.192998171
1718090990.194005,,,,7.276873112,7.278815746,43383.000000000,1718090990.194005251
1718090990.195012,,,,7.304111004,7.307952881,43384.000000000,1718090990.195012331
1718090990.196019,,,,7.322381496,7.326584339,43385.000000000,1718090990.196019411
1718090990.197026,,,,7.321997166,7.325742722,43386.000000000,1718090990.197026491
1718090990.198034,,,,7.302932739,7.304995537,43387.000000000,1718090990.198033571
1718090990.199041,,,,7.300072193,7.301750183,43388.000000000,1718090990.199040651
1718090990.200048,,,,7.309351921,7.311486721,43389.000000000,1718090990.200047731
1718090990.201055,,,,7.312765598,7.313241482,43390.000000000,1718090990.201054811
1718090990.202062,,,,7.347672462,7.349182129,43391.000000000,1718090990.202061892
1718090990.203069,,,,7.248745441,7.248380184,43392.000000000,1718090990.203068972
1718090990.204076,,,,7.186985493,7.189505100,43393.000000000,1718090990.204076052
1718090990.204808,190.288131714,8751.000000000,1718090990.204807997,,,,
1718090990.205083,,,,7.235042572,7.237826347,43394.000000000,1718090990.205083132
1718090990.206090,,,,7.263338089,7.265617371,43395.000000000,1718090990.206090212
1718090990.207097,,,,7.328343868,7.330839157,43396.000000000,1718090990.207097292
1718090990.208104,,,,7.335940361,7.336969852,43397.000000000,1718090990.208104372
1718090990.209111,,,,7.306274414,7.308578014,43398.000000000,1718090990.209111452
1718090990.209808,190.028259277,8752.000000000,1718090990.209808111,,,,
1718090990.210119,,,,7.241918087,7.244774342,43399.000000000,1718090990.210118532
1718090990.211126,,,,7.230595112,7.232706070,43400.000000000,1718090990.211125612
1718090990.212133,,,,7.280911922,7.284512997,43401.000000000,1718090990.212132692
1718090990.213140,,,,7.312717438,7.316174507,43402.000000000,1718090990.213139772
1718090990.214147,,,,7.303269386,7.304803371,43403.000000000,1718090990.214146852
1718090990.214808,189.752090454,8753.000000000,1718090990.214807987,,,,
1718090990.215154,,,,7.298052788,7.304539204,43404.000000000,1718090990.215153933
1718090990.216161,,,,7.318150520,7.324059963,43405.000000000,1718090990.216161013
1718090990.217168,,,,7.291489601,7.295908451,43406.000000000,1718090990.217168093
1718090990.218175,,,,7.218670845,7.222440720,43407.000000000,1718090990.218175173
1718090990.219182,,,,7.182946682,7.185153484,43408.000000000,1718090990.219182253
1718090990.219808,189.459686279,8754.000000000,1718090990.219808102,,,,
1718090990.220189,,,,7.196000576,7.196957588,43409.000000000,1718090990.220189333
1718090990.221196,,,,7.241893768,7.244197369,43410.000000000,1718090990.221196413
1718090990.222203,,,,7.325266361,7.327738285,43411.000000000,1718090990.222203493
1718090990.223211,,,,7.362505436,7.364736557,43412.000000000,1718090990.223210573
1718090990.224218,,,,7.379670143,7.383656502,43413.000000000,1718090990.224217653
1718090990.224808,189.167221069,8755.000000000,1718090990.224807978,,,,
1718090990.225225,,,,7.369308949,7.374352932,43414.000000000,1718090990.225224733
1718090990.226232,,,,7.407485008,7.409932613,43415.000000000,1718090990.226231813
1718090990.227239,,,,7.433088303,7.436978340,43416.000000000,1718090990.227238894
1718090990.228246,,,,7.342166901,7.345720291,43417.000000000,1718090990.228245974
