__time,/gdx/grip_force_stream/grip_force,/gdx/grip_force_stream/header/seq,/gdx/grip_force_stream/header/stamp,/shimmer0/emg_stream/emg_ch1,/shimmer0/emg_stream/emg_ch2,/shimmer0/emg_stream/header/seq,/shimmer0/emg_stream/header/stamp
1718096567.196814,,,,-1.145031214,-1.145582080,87591.000000000,1718096567.196813822
1718096567.197821,,,,-1.141593456,-1.140293241,87592.000000000,1718096567.197820902
1718096567.198828,,,,-1.137362242,-1.136663079,87593.000000000,1718096567.198827982
1718096567.199835,,,,-1.130943418,-1.132504106,87594.000000000,1718096567.199835062
1718096567.200842,,,,-1.135246754,-1.137961268,87595.000000000,1718096567.200842142
1718096567.201151,2.093810320,18098.000000000,1718096567.201151371,,,,
1718096567.201849,,,,-1.134285092,-1.136206269,87596.000000000,1718096567.201849222
1718096567.202856,,,,-1.134116769,-1.137095809,87597.000000000,1718096567.202856302
1718096567.203863,,,,-1.138371944,-1.139644146,87598.000000000,1718096567.203863382
1718096567.204870,,,,-1.146521688,-1.146495700,87599.000000000,1718096567.204870462
1718096567.205878,,,,-1.167701483,-1.168156147,87600.000000000,1718096567.205877542
1718096567.206151,2.040817976,18099.000000000,1718096567.206151247,,,,
1718096567.206885,,,,-1.182318091,-1.180801511,87601.000000000,1718096567.206884623
1718096567.207892,,,,-1.181428671,-1.181114078,87602.000000000,1718096567.207891703
1718096567.208899,,,,-1.184553862,-1.185297132,87603.000000000,1718096567.208898783
1718096567.211151,2.040817976,18100.000000000,1718096567.211151361,,,,
1718096567.216955,,,,-1.159599781,-1.160559416,87611.000000000,1718096567.216955423
1718096567.217963,,,,-1.155464768,-1.157722592,87612.000000000,1718096567.217962503
1718096567.218970,,,,-1.162412524,-1.164453983,87613.000000000,1718096567.218969584
1718096567.219977,,,,-1.168086052,-1.165776134,87614.000000000,1718096567.219976664
1718096567.220323,2.076141119,18101.000000000,1718096567.220322609,,,,
1718096567.220984,,,,-1.180274725,-1.182364106,87615.000000000,1718096567.220983744
1718096567.221991,,,,-1.199290752,-1.200033903,87616.000000000,1718096567.221990824
1718096567.222998,,,,-1.218018293,-1.217222929,87617.000000000,1718096567.222997904
1718096567.224005,,,,-1.218330860,-1.219218254,87618.000000000,1718096567.224004984
1718096567.225012,,,,-1.210854292,-1.212847590,87619.000000000,1718096567.225012064
1718096567.225323,1.970170379,18102.000000000,1718096567.225322723,,,,
1718096567.226019,,,,-1.213618875,-1.214265943,87620.000000000,1718096567.226019144
1718096567.227026,,,,-1.240856886,-1.241888523,87621.000000000,1718096567.227026224
1718096567.228033,,,,-1.316752791,-1.318601847,87622.000000000,1718096567.228033304
1718096567.229040,,,,-1.362165451,-1.361826777,87623.000000000,1718096567.229040384
1718096567.230047,,,,-1.408347249,-1.408080816,87624.000000000,1718096567.230047464
1718096567.230323,2.058479548,18103.000000000,1718096567.230322599,,,,
1718096567.231055,,,,-1.448158383,-1.449959397,87625.000000000,1718096567.231054544
1718096567.232062,,,,-1.459337234,-1.460585356,87626.000000000,1718096567.232061625
1718096567.233069,,,,-1.440273166,-1.440439343,87627.000000000,1718096567.233068705
1718096567.234076,,,,-1.444335938,-1.445079207,87628.000000000,1718096567.234075785
1718096567.235083,,,,-1.435128450,-1.433756113,87629.000000000,1718096567.235082865
1718096567.235323,2.058479548,18104.000000000,1718096567.235322714,,,,
1718096567.236090,,,,-1.378609180,-1.377501249,87630.000000000,1718096567.236089945
1718096567.237097,,,,-1.312088966,-1.313048482,87631.000000000,1718096567.237097025
1718096567.238104,,,,-1.239895225,-1.241023064,87632.000000000,1718096567.238104105
1718096567.239111,,,,-1.172870159,-1.173805714,87633.000000000,1718096567.239111185
1718096567.240118,,,,-1.120726228,-1.119377971,87634.000000000,1718096567.240118265
1718096567.240323,2.129132509,18105.000000000,1718096567.240322590,,,,
1718096567.241125,,,,-1.079857349,-1.080143809,87635.000000000,1718096567.241125345
1718096567.242132,,,,-1.054807067,-1.055550337,87636.000000000,1718096567.242132425
1718096567.243140,,,,-1.038531661,-1.040597081,87637.000000000,1718096567.243139505
1718096567.244147,,,,-1.035358310,-1.035428286,87638.000000000,1718096567.244146585
1718096567.245154,,,,-1.052138567,-1.052473068,87639.000000000,1718096567.245153666
1718096567.245323,2.182114601,18106.000000000,1718096567.245322704,,,,
1718096567.249182,,,,-1.114619970,-1.115531445,87643.000000000,1718096567.249181986
1718096567.250189,,,,-1.109427214,-1.112959146,87644.000000000,1718096567.250189066
1718096567.250323,2.164453983,18107.000000000,1718096567.250322580,,,,
1718096567.251196,,,,-1.099258065,-1.101467729,87645.000000000,1718096567.251196146
1718096567.252203,,,,-1.100339890,-1.100145459,87646.000000000,1718096567.252203226
1718096567.253210,,,,-1.098416567,-1.100121498,87647.000000000,1718096567.253210306
1718096567.254217,,,,-1.094401836,-1.093606472,87648.000000000,1718096567.254217386
1718096567.255224,,,,-1.117841363,-1.119450092,87649.000000000,1718096567.255224466
1718096567.255323,2.252763510,18108.000000000,1718096567.255322695,,,,
1718096567.256232,,,,-1.152724147,-1.153515458,87650.000000000,1718096567.256231546
1718096567.257239,,,,-1.175610781,-1.176378012,87651.000000000,1718096567.257238626
1718096567.258246,,,,-1.183760524,-1.182436228,87652.000000000,1718096567.258245707
1718096567.259253,,,,-1.185852051,-1.187100172,87653.000000000,1718096567.259252787
1718096567.260260,,,,-1.189001441,-1.191932321,87654.000000000,1718096567.260259867
1718096567.260323,2.376387358,18109.000000000,1718096567.260322571,,,,
1718096567.261267,,,,-1.186909914,-1.187725186,87655.000000000,1718096567.261266947
1718096567.262274,,,,-1.179938078,-1.178469539,87656.000000000,1718096567.262274027
1718096567.263281,,,,-1.162316322,-1.160054564,87657.000000000,1718096567.263281107
1718096567.264288,,,,-1.138804674,-1.136398673,87658.000000000,1718096567.264288187
1718096567.265295,,,,-1.127217174,-1.124282241,87659.000000000,1718096567.265295267
1718096567.265323,2.570634842,18110.000000000,1718096567.265322685,,,,
1718096567.266302,,,,-1.122024417,-1.121204972,87660.000000000,1718096567.266302347
1718096567.267309,,,,-1.132482052,-1.134403229,87661.000000000,1718096567.267309427
1718096567.268317,,,,-1.156210065,-1.154933929,87662.000000000,1718096567.268316507
1718096567.270323,2.853149891,18111.000000000,1718096567.270322561,,,,
1718096567.273352,,,,-1.206791401,-1.205563307,87667.000000000,1718096567.273351908
1718096567.274359,,,,-1.267373562,-1.268164873,87668.000000000,1718096567.274358988
1718096567.275323,3.012047529,18112.000000000,1718096567.275322676,,,,
1718096567.275366,,,,-1.361323953,-1.362547994,87669.000000000,1718096567.275366068
1718096567.276373,,,,-1.393634439,-1.392526627,87670.000000000,1718096567.276373148
1718096567.277380,,,,-1.370243073,-1.369471669,87671.000000000,1718096567.277380228
1718096567.278387,,,,-1.350000858,-1.349349737,87672.000000000,1718096567.278387308
1718096567.279394,,,,-1.326200724,-1.325501561,87673.000000000,1718096567.279394388
1718096567.280323,3.312156439,18113.000000000,1718096567.280322552,,,,
1718096567.280401,,,,-1.293145061,-1.292373657,87674.000000000,1718096567.280401468
1718096567.281409,,,,-1.294130683,-1.293984413,87675.000000000,1718096567.281408548
1718096567.282416,,,,-1.323460102,-1.324371576,87676.000000000,1718096567.282415628
1718096567.283423,,,,-1.315887332,-1.317303658,87677.000000000,1718096567.283422709
1718096567.284430,,,,-1.315767169,-1.319275022,87678.000000000,1718096567.284429789
1718096567.285323,3.700474501,18114.000000000,1718096567.285322666,,,,
1718096567.285437,,,,-1.340216398,-1.342113495,87679.000000000,1718096567.285436869
1718096567.286444,,,,-1.342957020,-1.343315601,87680.000000000,1718096567.286443949
1718096567.287451,,,,-1.309973359,-1.308649063,87681.000000000,1718096567.287451029
1718096567.288458,,,,-1.268936157,-1.266481996,87682.000000000,1718096567.288458109
1718096567.289465,,,,-1.243284941,-1.241744280,87683.000000000,1718096567.289465189
1718096567.290323,4.194598198,18115.000000000,1718096567.290322542,,,,
1718096567.290472,,,,-1.187246442,-1.185825944,87684.000000000,1718096567.290472269
1718096567.291479,,,,-1.099065661,-1.099808931,87685.000000000,1718096567.291479349
1718096567.292486,,,,-1.020933986,-1.020595312,87686.000000000,1718096567.292486429
1718096567.293494,,,,-0.996797264,-0.996410549,87687.000000000,1718096567.293493509
1718096567.294501,,,,-1.004394054,-1.005425692,87688.000000000,1718096567.294500589
1718096567.295323,4.670960903,18116.000000000,1718096567.295322657,,,,
1718096567.295508,,,,-1.009490609,-1.010281920,87689.000000000,1718096567.295507669
1718096567.296515,,,,-1.018313527,-1.018503785,87690.000000000,1718096567.296514750
1718096567.297522,,,,-1.025814176,-1.024778366,87691.000000000,1718096567.297521830
1718096567.298529,,,,-1.054782987,-1.054588675,87692.000000000,1718096567.298528910
1718096567.299536,,,,-1.085146189,-1.086081743,87693.000000000,1718096567.299535990
1718096567.300323,5.129590988,18117.000000000,1718096567.300322533,,,,
1718096567.300543,,,,-1.092550755,-1.093991160,87694.000000000,1718096567.300543070
1718096567.301550,,,,-1.092694998,-1.093606472,87695.000000000,1718096567.301550150
1718096567.302557,,,,-1.096541405,-1.095241189,87696.000000000,1718096567.302557230
1718096567.303564,,,,-1.094930768,-1.095457554,87697.000000000,1718096567.303564310
1718096567.304571,,,,-1.097358823,-1.100097418,87698.000000000,1718096567.304571390
1718096567.305323,5.711548805,18118.000000000,1718096567.305322647,,,,
1718096567.305578,,,,-1.114956498,-1.118199944,87699.000000000,1718096567.305578470
1718096567.306586,,,,-1.128755808,-1.131878972,87700.000000000,1718096567.306585550
1718096567.307593,,,,-1.133708119,-1.135412931,87701.000000000,1718096567.307592630
1718096567.308600,,,,-1.153613687,-1.153178930,87702.000000000,1718096567.308599710
1718096567.309607,,,,-1.183448076,-1.186090469,87703.000000000,1718096567.309606791
1718096567.310323,6.469629288,18119.000000000,1718096567.310322523,,,,
1718096567.314642,,,,-1.292135358,-1.292109251,87708.000000000,1718096567.314642191
1718096567.314783,8.108279228,18121.000000000,1718096567.314783335,,,,
1718096567.315323,7.209815502,18120.000000000,1718096567.315322638,,,,
1718096567.315649,,,,-1.272662520,-1.274583697,87709.000000000,1718096567.315649271
1718096567.316656,,,,-1.261267304,-1.262659550,87710.000000000,1718096567.316656351
1718096567.317663,,,,-1.251747251,-1.250615239,87711.000000000,1718096567.317663431
1718096567.318671,,,,-1.216047049,-1.215443969,87712.000000000,1718096567.318670511
1718096567.319678,,,,-1.184433699,-1.182844996,87713.000000000,1718096567.319677591
1718096567.319783,9.059181213,18122.000000000,1718096567.319783449,,,,
1718096567.320685,,,,-1.164239645,-1.161160350,87714.000000000,1718096567.320684671
1718096567.321692,,,,-1.161162376,-1.160174727,87715.000000000,1718096567.321691751
1718096567.322699,,,,-1.163374186,-1.160222769,87716.000000000,1718096567.322698832
1718096567.323706,,,,-1.149550796,-1.149356484,87717.000000000,1718096567.323705912
1718096567.324713,,,,-1.114740133,-1.115315080,87718.000000000,1718096567.324712992
1718096567.324783,10.115240097,18123.000000000,1718096567.324783325,,,,
1718096567.325720,,,,-1.116014242,-1.115363121,87719.000000000,1718096567.325720072
1718096567.326727,,,,-1.130679011,-1.130100012,87720.000000000,1718096567.326727152
1718096567.327734,,,,-1.129140377,-1.129378796,87721.000000000,1718096567.327734232
1718096567.328741,,,,-1.150680780,-1.154765606,87722.000000000,1718096567.328741312
1718096567.329748,,,,-1.177966833,-1.182748795,87723.000000000,1718096567.329748392
1718096567.329783,11.329071999,18124.000000000,1718096567.329783440,,,,
1718096567.330755,,,,-1.192415118,-1.193446875,87724.000000000,1718096567.330755472
1718096567.331763,,,,-1.198978186,-1.200659037,87725.000000000,1718096567.331762552
1718096567.332770,,,,-1.215566158,-1.213881254,87726.000000000,1718096567.332769632
1718096567.333777,,,,-1.231697440,-1.231478930,87727.000000000,1718096567.333776712
1718096567.334783,12.542216301,18125.000000000,1718096567.334783316,,,,
1718096567.334784,,,,-1.254848480,-1.252706766,87728.000000000,1718096567.334783792
1718096567.335791,,,,-1.293337345,-1.290522575,87729.000000000,1718096567.335790873
1718096567.336798,,,,-1.355890870,-1.356297493,87730.000000000,1718096567.336797953
1718096567.337805,,,,-1.385340452,-1.385891438,87731.000000000,1718096567.337805033
1718096567.338812,,,,-1.386542559,-1.384208560,87732.000000000,1718096567.338812113
1718096567.339783,13.895201683,18126.000000000,1718096567.339783430,,,,
1718096567.339819,,,,-1.372430682,-1.365480900,87733.000000000,1718096567.339819193
1718096567.340826,,,,-1.328941345,-1.325429440,87734.000000000,1718096567.340826273
1718096567.341833,,,,-1.291654468,-1.292037129,87735.000000000,1718096567.341833353
1718096567.342840,,,,-1.251747251,-1.253596306,87736.000000000,1718096567.342840433
1718096567.343848,,,,-1.215662360,-1.216573834,87737.000000000,1718096567.343847513
1718096567.344783,15.264882088,18127.000000000,1718096567.344783306,,,,
1718096567.344855,,,,-1.174408793,-1.173132539,87738.000000000,1718096567.344854593
1718096567.345862,,,,-1.104955673,-1.103751540,87739.000000000,1718096567.345861673
1718096567.346869,,,,-1.038483500,-1.040765405,87740.000000000,1718096567.346868753
1718096567.347876,,,,-1.003817081,-1.003574610,87741.000000000,1718096567.347875834
1718096567.348883,,,,-1.022424459,-1.023624420,87742.000000000,1718096567.348882914
1718096567.349783,16.703855515,18128.000000000,1718096567.349783421,,,,
1718096567.349890,,,,-1.069856405,-1.072210431,87743.000000000,1718096567.349889994
1718096567.350897,,,,-1.116086364,-1.116589189,87744.000000000,1718096567.350897074
1718096567.351904,,,,-1.204291224,-1.204986334,87745.000000000,1718096567.351904154
1718096567.352911,,,,-1.341586709,-1.342618346,87746.000000000,1718096567.352911234
1718096567.353918,,,,-1.424718857,-1.425197721,87747.000000000,1718096567.353918314
1718096567.354783,18.229501724,18129.000000000,1718096567.354783297,,,,
1718096567.354925,,,,-1.447893977,-1.450007558,87748.000000000,1718096567.354925394
1718096567.355932,,,,-1.440104842,-1.440631747,87749.000000000,1718096567.355932474
1718096567.356940,,,,-1.410631180,-1.411109924,87750.000000000,1718096567.356939554
1718096567.357947,,,,-1.346635222,-1.346200466,87751.000000000,1718096567.357946634
1718096567.358954,,,,-1.268022656,-1.268429279,87752.000000000,1718096567.358953714
1718096567.359783,19.789091110,18130.000000000,1718096567.359783411,,,,
1718096567.359961,,,,-1.217513442,-1.217174888,87753.000000000,1718096567.359960794
1718096567.360968,,,,-1.183760524,-1.183758497,87754.000000000,1718096567.360967875
1718096567.361975,,,,-1.169336200,-1.170800686,87755.000000000,1718096567.361974955
1718096567.362982,,,,-1.177101374,-1.178397417,87756.000000000,1718096567.362982035
1718096567.363989,,,,-1.195973158,-1.197293282,87757.000000000,1718096567.363989115
1718096567.364783,21.330018997,18131.000000000,1718096567.364783287,,,,
1718096567.364996,,,,-1.176836848,-1.181186199,87758.000000000,1718096567.364996195
1718096567.369783,22.939790726,18132.000000000,1718096567.369783401,,,,
1718096567.371039,,,,-1.096204877,-1.094688296,87764.000000000,1718096567.371038675
1718096567.372046,,,,-1.045287013,-1.045669675,87765.000000000,1718096567.372045755
1718096567.373053,,,,-1.012063026,-1.012397528,87766.000000000,1718096567.373052835
1718096567.374060,,,,-1.020885825,-1.020354867,87767.000000000,1718096567.374059916
1718096567.374783,24.513380051,18133.000000000,1718096567.374783278,,,,
1718096567.375067,,,,-1.035815001,-1.036606312,87768.000000000,1718096567.375066996
1718096567.376074,,,,-1.057403445,-1.057329297,87769.000000000,1718096567.376074076
1718096567.377081,,,,-1.080626607,-1.082139134,87770.000000000,1718096567.377081156
1718096567.378088,,,,-1.089882255,-1.092260242,87771.000000000,1718096567.378088236
1718096567.379095,,,,-1.099618673,-1.099544525,87772.000000000,1718096567.379095316
1718096567.379783,26.225496292,18134.000000000,1718096567.379783392,,,,
1718096567.380102,,,,-1.106398106,-1.103703499,87773.000000000,1718096567.380102396
1718096567.381109,,,,-1.117480755,-1.117214322,87774.000000000,1718096567.381109476
1718096567.382117,,,,-1.149045944,-1.149596930,87775.000000000,1718096567.382116556
1718096567.383124,,,,-1.233139873,-1.232969522,87776.000000000,1718096567.383123636
1718096567.384131,,,,-1.325167060,-1.327064157,87777.000000000,1718096567.384130716
1718096567.384783,27.761728287,18135.000000000,1718096567.384783268,,,,
1718096567.385138,,,,-1.390941978,-1.393632412,87778.000000000,1718096567.385137796
1718096567.386145,,,,-1.443566680,-1.442867517,87779.000000000,1718096567.386144876
1718096567.387152,,,,-1.470011234,-1.469841003,87780.000000000,1718096567.387151957
1718096567.388159,,,,-1.469770908,-1.470634341,87781.000000000,1718096567.388159037
1718096567.389166,,,,-1.418276072,-1.418586493,87782.000000000,1718096567.389166117
1718096567.389783,29.331699371,18136.000000000,1718096567.389783382,,,,
1718096567.390173,,,,-1.351491451,-1.349878669,87783.000000000,1718096567.390173197
1718096567.391180,,,,-1.301126480,-1.299393535,87784.000000000,1718096567.391180277
1718096567.392187,,,,-1.218883753,-1.217126727,87785.000000000,1718096567.392187357
1718096567.393194,,,,-1.159287214,-1.156039715,87786.000000000,1718096567.393194437
1718096567.394202,,,,-1.149382591,-1.148178458,87787.000000000,1718096567.394201517
1718096567.394783,30.883075714,18137.000000000,1718096567.394783258,,,,
1718096567.395209,,,,-1.147940159,-1.148611188,87788.000000000,1718096567.395208597
1718096567.396216,,,,-1.102767944,-1.105097890,87789.000000000,1718096567.396215677
1718096567.397223,,,,-1.091396809,-1.095121026,87790.000000000,1718096567.397222757
1718096567.398230,,,,-1.117216349,-1.117695093,87791.000000000,1718096567.398229837
1718096567.399237,,,,-1.130342484,-1.129787445,87792.000000000,1718096567.399236917
1718096567.399783,32.224346161,18138.000000000,1718096567.399783373,,,,
1718096567.400244,,,,-1.163494349,-1.164333701,87793.000000000,1718096567.400243998
1718096567.401251,,,,-1.162340403,-1.163203835,87794.000000000,1718096567.401251078
1718096567.402258,,,,-1.131111741,-1.131999254,87795.000000000,1718096567.402258158
1718096567.403265,,,,-1.109835863,-1.109978080,87796.000000000,1718096567.403265238
1718096567.404272,,,,-1.090122581,-1.090216756,87797.000000000,1718096567.404272318
1718096567.404783,33.616958618,18139.000000000,1718096567.404783249,,,,
1718096567.405279,,,,-1.080506444,-1.080937147,87798.000000000,1718096567.405279398
1718096567.406286,,,,-1.104306579,-1.102862120,87799.000000000,1718096567.406286478
1718096567.407294,,,,-1.120581985,-1.116805553,87800.000000000,1718096567.407293558
1718096567.408301,,,,-1.128010511,-1.126974702,87801.000000000,1718096567.408300638
1718096567.409308,,,,-1.149430633,-1.149765134,87802.000000000,1718096567.409307718
1718096567.409783,34.956470490,18140.000000000,1718096567.409783363,,,,
1718096567.410315,,,,-1.187414765,-1.186210632,87803.000000000,1718096567.410314798
1718096567.411322,,,,-1.285355926,-1.284440279,87804.000000000,1718096567.411321878
1718096567.412329,,,,-1.349616289,-1.351657629,87805.000000000,1718096567.412328959
1718096567.413336,,,,-1.380772829,-1.379087925,87806.000000000,1718096567.413336039
1718096567.414343,,,,-1.391542912,-1.391444802,87807.000000000,1718096567.414343119
1718096567.415350,,,,-1.337620020,-1.338098764,87808.000000000,1718096567.415350199
1718096567.416357,,,,-1.273311615,-1.274439454,87809.000000000,1718096567.416357279
1718096567.417364,,,,-1.246939063,-1.248235226,87810.000000000,1718096567.417364359
1718096567.418371,,,,-1.229389548,-1.229483604,87811.000000000,1718096567.418371439
1718096567.419379,,,,-1.188400388,-1.189432025,87812.000000000,1718096567.419378519
1718096567.420199,36.295124054,18141.000000000,1718096567.420199394,,,,
1718096567.420386,,,,-1.110989809,-1.114233255,87813.000000000,1718096567.420385599
1718096567.421393,,,,-1.110509038,-1.112454295,87814.000000000,1718096567.421392679
1718096567.422400,,,,-1.177702308,-1.179166794,87815.000000000,1718096567.422399759
1718096567.423407,,,,-1.213594913,-1.214963078,87816.000000000,1718096567.423406839
1718096567.424414,,,,-1.235808372,-1.238450766,87817.000000000,1718096567.424413919
1718096567.425200,37.511329651,18142.000000000,1718096567.425199509,,,,
1718096567.425421,,,,-1.311656237,-1.312808156,87818.000000000,1718096567.425421000
1718096567.426428,,,,-1.340649128,-1.338747859,87819.000000000,1718096567.426428080
1718096567.427435,,,,-1.344159007,-1.343628049,87820.000000000,1718096567.427435160
1718096567.430199,38.761539459,18143.000000000,1718096567.430199385,,,,
1718096567.435199,39.924259186,18144.000000000,1718096567.435199499,,,,
1718096567.435492,,,,-1.196093321,-1.196211457,87828.000000000,1718096567.435491800
1718096567.436499,,,,-1.186477184,-1.187484741,87829.000000000,1718096567.436498880
1718096567.437506,,,,-1.184313536,-1.183998942,87830.000000000,1718096567.437505960
1718096567.438513,,,,-1.186525226,-1.187003970,87831.000000000,1718096567.438513041
1718096567.439520,,,,-1.162075996,-1.166689754,87832.000000000,1718096567.439520121
1718096567.440199,41.225036621,18145.000000000,1718096567.440199375,,,,
1718096567.440527,,,,-1.193929672,-1.197509646,87833.000000000,1718096567.440527201
1718096567.441534,,,,-1.280042887,-1.282060266,87834.000000000,1718096567.441534281
1718096567.442541,,,,-1.296943426,-1.296652913,87835.000000000,1718096567.442541361
1718096567.443548,,,,-1.211767793,-1.212222457,87836.000000000,1718096567.443548441
1718096567.444556,,,,-1.135871768,-1.137288094,87837.000000000,1718096567.444555521
1718096567.445563,,,,-1.118826985,-1.121469498,87838.000000000,1718096567.445562601
1718096567.446570,,,,-1.121303201,-1.120748281,87839.000000000,1718096567.446569681
1718096567.447577,,,,-1.087574363,-1.089038730,87840.000000000,1718096567.447576761
1718096567.448584,,,,-1.037257433,-1.037976623,87841.000000000,1718096567.448583841
1718096567.449591,,,,-1.023097634,-1.023624420,87842.000000000,1718096567.449590921
1718096567.450598,,,,-1.027088284,-1.028360367,87843.000000000,1718096567.450598001
1718096567.451605,,,,-1.038074851,-1.040549040,87844.000000000,1718096567.451605082
1718096567.452612,,,,-1.059639215,-1.061560392,87845.000000000,1718096567.452612162
1718096567.453619,,,,-1.103657484,-1.103294849,87846.000000000,1718096567.453619242
1718096567.454626,,,,-1.148613214,-1.145726323,87847.000000000,1718096567.454626322
1718096567.455633,,,,-1.173230767,-1.174070120,87848.000000000,1718096567.455633402
1718096567.456640,,,,-1.205517292,-1.207438469,87849.000000000,1718096567.456640482
1718096567.457648,,,,-1.229485631,-1.229796171,87850.000000000,1718096567.457647562
1718096567.458655,,,,-1.251626968,-1.249629617,87851.000000000,1718096567.458654642
1718096567.459662,,,,-1.292303562,-1.291916847,87852.000000000,1718096567.459661722
1718096567.460669,,,,-1.318459749,-1.318770170,87853.000000000,1718096567.460668802
1718096567.461676,,,,-1.372046113,-1.373486519,87854.000000000,1718096567.461675882
1718096567.462683,,,,-1.379330397,-1.381756425,87855.000000000,1718096567.462682962
1718096567.463690,,,,-1.329085588,-1.330237508,87856.000000000,1718096567.463690042
1718096567.464697,,,,-1.276172400,-1.277348280,87857.000000000,1718096567.464697123
1718096567.465704,,,,-1.230904102,-1.230877995,87858.000000000,1718096567.465704203
1718096567.466711,,,,-1.207993388,-1.208183646,87859.000000000,1718096567.466711283
1718096567.467718,,,,-1.162532687,-1.162434578,87860.000000000,1718096567.467718363
1718096567.468725,,,,-1.126688242,-1.126830459,87861.000000000,1718096567.468725443
1718096567.469733,,,,-1.111398458,-1.110627174,87862.000000000,1718096567.469732523
1718096567.470199,49.047092438,18151.000000000,1718096567.470199347,,,,
1718096567.470740,,,,-1.093440175,-1.092909336,87863.000000000,1718096567.470739603
1718096567.471747,,,,-1.083487391,-1.084326863,87864.000000000,1718096567.471746683
1718096567.472754,,,,-1.072140336,-1.074374080,87865.000000000,1718096567.472753763
1718096567.473761,,,,-1.073871255,-1.072595000,87866.000000000,1718096567.473760843
1718096567.474768,,,,-1.096613526,-1.098751187,87867.000000000,1718096567.474767923
1718096567.475199,50.393924713,18152.000000000,1718096567.475199461,,,,
1718096567.475775,,,,-1.097070336,-1.097501040,87868.000000000,1718096567.475775003
1718096567.476782,,,,-1.095171094,-1.095193148,87869.000000000,1718096567.476782084
1718096567.477789,,,,-1.105147958,-1.103222728,87870.000000000,1718096567.477789164
1718096567.478796,,,,-1.139838457,-1.140124917,87871.000000000,1718096567.478796244
1718096567.479803,,,,-1.204002738,-1.206717253,87872.000000000,1718096567.479803324
1718096567.480199,51.688125610,18153.000000000,1718096567.480199337,,,,
1718096567.480810,,,,-1.286461711,-1.285786510,87873.000000000,1718096567.480810404
1718096567.481817,,,,-1.339206696,-1.339300752,87874.000000000,1718096567.481817484
1718096567.482825,,,,-1.348294020,-1.347787142,87875.000000000,1718096567.482824564
1718096567.483832,,,,-1.375243425,-1.374327898,87876.000000000,1718096567.483831644
1718096567.484839,,,,-1.422170639,-1.422048330,87877.000000000,1718096567.484838724
1718096567.485199,52.912551880,18154.000000000,1718096567.485199451,,,,
1718096567.485846,,,,-1.463953018,-1.462797046,87878.000000000,1718096567.485845804
1718096567.486853,,,,-1.483209491,-1.482798815,87879.000000000,1718096567.486852884
1718096567.487860,,,,-1.443518639,-1.441593289,87880.000000000,1718096567.487859964
1718096567.488867,,,,-1.394019127,-1.391757250,87881.000000000,1718096567.488867044
1718096567.489874,,,,-1.329109669,-1.326463103,87882.000000000,1718096567.489874125
1718096567.490199,54.119022369,18155.000000000,1718096567.490199327,,,,
1718096567.490881,,,,-1.268888116,-1.269270658,87883.000000000,1718096567.490881205
1718096567.491888,,,,-1.195612550,-1.195899010,87884.000000000,1718096567.491888285
1718096567.492895,,,,-1.129693389,-1.127143025,87885.000000000,1718096567.492895365
1718096567.493902,,,,-1.106253862,-1.104833364,87886.000000000,1718096567.493902445
1718096567.494910,,,,-1.155633092,-1.157169700,87887.000000000,1718096567.494909525
1718096567.495199,55.324794769,18156.000000000,1718096567.495199442,,,,
1718096567.495917,,,,-1.281196833,-1.282925725,87888.000000000,1718096567.495916605
1718096567.496924,,,,-1.431714654,-1.432530046,87889.000000000,1718096567.496923685
1718096567.497931,,,,-1.517731786,-1.518763423,87890.000000000,1718096567.497930765
1718096567.498938,,,,-1.560043097,-1.559608340,87891.000000000,1718096567.498937845
1718096567.499945,,,,-1.575020432,-1.572734475,87892.000000000,1718096567.499944925
1718096567.500199,56.529842377,18157.000000000,1718096567.500199318,,,,
1718096567.500952,,,,-1.492945910,-1.493641138,87893.000000000,1718096567.500952005
1718096567.501959,,,,-1.381085277,-1.381876588,87894.000000000,1718096567.501959085
1718096567.502966,,,,-1.244294643,-1.244941711,87895.000000000,1718096567.502966166
1718096567.503973,,,,-1.151113510,-1.150149822,87896.000000000,1718096567.503973246
1718096567.504980,,,,-1.082718134,-1.082716107,87897.000000000,1718096567.504980326
1718096567.505199,57.596591949,18158.000000000,1718096567.505199432,,,,
1718096567.505987,,,,-1.084160566,-1.086562634,87898.000000000,1718096567.505987406
1718096567.506994,,,,-1.093680620,-1.095818162,87899.000000000,1718096567.506994486
1718096567.508002,,,,-1.128515363,-1.129739404,87900.000000000,1718096567.508001566
1718096567.509009,,,,-1.164095402,-1.162122011,87901.000000000,1718096567.509008646
1718096567.510016,,,,-1.202704549,-1.200875401,87902.000000000,1718096567.510015726
1718096567.510199,58.748756409,18159.000000000,1718096567.510199308,,,,
1718096567.511023,,,,-1.354015708,-1.353580832,87903.000000000,1718096567.511022806
1718096567.512030,,,,-1.472463369,-1.472124815,87904.000000000,1718096567.512029886
1718096567.513037,,,,-1.492729545,-1.494915247,87905.000000000,1718096567.513036966
1718096567.514044,,,,-1.479771733,-1.481813192,87906.000000000,1718096567.514044046
1718096567.515051,,,,-1.428757668,-1.428635478,87907.000000000,1718096567.515051126
1718096567.515199,59.917442322,18160.000000000,1718096567.515199423,,,,
1718096567.516058,,,,-1.327426791,-1.327737331,87908.000000000,1718096567.516058207
1718096567.517065,,,,-1.196910739,-1.197822213,87909.000000000,1718096567.517065287
1718096567.518072,,,,-1.174913645,-1.175512552,87910.000000000,1718096567.518072367
1718096567.519079,,,,-1.295981765,-1.297710657,87911.000000000,1718096567.519079447
1718096567.520087,,,,-1.370122790,-1.371010303,87912.000000000,1718096567.520086527
1718096567.521094,,,,-1.354929209,-1.357956290,87913.000000000,1718096567.521093607
1718096567.522101,,,,-1.331898332,-1.333122373,87914.000000000,1718096567.522100687
1718096567.523108,,,,-1.326801777,-1.326294899,87915.000000000,1718096567.523107767
1718096567.524115,,,,-1.291942954,-1.290931225,87916.000000000,1718096567.524114847
1718096567.525122,,,,-1.217176914,-1.218376875,87917.000000000,1718096567.525121927
1718096567.525994,61.102634430,18161.000000000,1718096567.525994062,,,,
1718096567.526129,,,,-1.165393591,-1.167651296,87918.000000000,1718096567.526129007
1718096567.527136,,,,-1.065769553,-1.065863729,87919.000000000,1718096567.527136087
1718096567.528143,,,,-0.930805981,-0.929818213,87920.000000000,1718096567.528143167
1718096567.529150,,,,-0.841423213,-0.839714289,87921.000000000,1718096567.529150248
1718096567.530157,,,,-0.852986693,-0.852648079,87922.000000000,1718096567.530157328
1718096567.530994,62.424446106,18162.000000000,1718096567.530994177,,,,
1718096567.531164,,,,-0.899913847,-0.898757875,87923.000000000,1718096567.531164408
1718096567.532171,,,,-0.937946022,-0.937174618,87924.000000000,1718096567.532171488
1718096567.533179,,,,-0.980185211,-0.980688035,87925.000000000,1718096567.533178568
1718096567.534186,,,,-1.005860567,-1.006074786,87926.000000000,1718096567.534185648
1718096567.535193,,,,-1.019948244,-1.021003962,87927.000000000,1718096567.535192728
1718096567.535994,63.865459442,18163.000000000,1718096567.535994053,,,,
1718096567.536200,,,,-1.048243999,-1.051559567,87928.000000000,1718096567.536199808
1718096567.537207,,,,-1.094161391,-1.096443295,87929.000000000,1718096567.537206888
1718096567.538214,,,,-1.117168188,-1.116685390,87930.000000000,1718096567.538213968
1718096567.539221,,,,-1.111470580,-1.111396432,87931.000000000,1718096567.539221048
1718096567.540228,,,,-1.107239485,-1.107117295,87932.000000000,1718096567.540228128
1718096567.540994,65.442550659,18164.000000000,1718096567.540994167,,,,
1718096567.541235,,,,-1.158710241,-1.159165025,87933.000000000,1718096567.541235209
1718096567.542242,,,,-1.238452792,-1.240253806,87934.000000000,1718096567.542242289
1718096567.543249,,,,-1.285091400,-1.285017252,87935.000000000,1718096567.543249369
1718096567.544256,,,,-1.326585412,-1.324155211,87936.000000000,1718096567.544256449
1718096567.545264,,,,-1.373272181,-1.374135613,87937.000000000,1718096567.545263529
1718096567.545994,67.086914063,18165.000000000,1718096567.545994043,,,,
1718096567.546271,,,,-1.399091721,-1.398921371,87938.000000000,1718096567.546270609
1718096567.547278,,,,-1.375099182,-1.373775005,87939.000000000,1718096567.547277689
1718096567.548285,,,,-1.313916087,-1.310932994,87940.000000000,1718096567.548284769
1718096567.549292,,,,-1.234197617,-1.233570457,87941.000000000,1718096567.549291849
1718096567.550299,,,,-1.170345902,-1.172050714,87942.000000000,1718096567.550298929
1718096567.550994,68.815521240,18166.000000000,1718096567.550994158,,,,
1718096567.551306,,,,-1.140078902,-1.140293241,87943.000000000,1718096567.551306009
1718096567.552313,,,,-1.117384553,-1.116805553,87944.000000000,1718096567.552313089
1718096567.553320,,,,-1.120293498,-1.122767687,87945.000000000,1718096567.553320169
1718096567.554327,,,,-1.166331172,-1.169069767,87946.000000000,1718096567.554327250
1718096567.555334,,,,-1.194987535,-1.197461605,87947.000000000,1718096567.555334330
1718096567.555994,70.525566101,18167.000000000,1718096567.555994034,,,,
1718096567.556341,,,,-1.177149415,-1.179286957,87948.000000000,1718096567.556341410
1718096567.557348,,,,-1.170706511,-1.172820091,87949.000000000,1718096567.557348490
1718096567.558356,,,,-1.188015699,-1.185537457,87950.000000000,1718096567.558355570
1718096567.559363,,,,-1.175514698,-1.172627687,87951.000000000,1718096567.559362650
1718096567.560370,,,,-1.193088293,-1.192942023,87952.000000000,1718096567.560369730
1718096567.560994,72.336677551,18168.000000000,1718096567.560994148,,,,
1718096567.561377,,,,-1.317906737,-1.316053629,87953.000000000,1718096567.561376810
1718096567.562384,,,,-1.593988419,-1.591654420,87954.000000000,1718096567.562383890
1718096567.563391,,,,-1.844034076,-1.845955253,87955.000000000,1718096567.563390970
1718096567.564398,,,,-1.879686236,-1.882617116,87956.000000000,1718096567.564398050
1718096567.565405,,,,-1.891634345,-1.898531914,87957.000000000,1718096567.565405130
1718096567.565994,73.941429138,18169.000000000,1718096567.565994024,,,,
1718096567.566412,,,,-1.877234101,-1.879852414,87958.000000000,1718096567.566412210
1718096567.567419,,,,-1.786529064,-1.787536740,87959.000000000,1718096567.567419291
1718096567.568426,,,,-1.622067690,-1.622185826,87960.000000000,1718096567.568426371
1718096567.569433,,,,-1.430031896,-1.431760788,87961.000000000,1718096567.569433451
1718096567.570441,,,,-1.234413981,-1.235565901,87962.000000000,1718096567.570440531
1718096567.571448,,,,-1.038723946,-1.040717244,87963.000000000,1718096567.571447611
1718096567.572455,,,,-0.945807278,-0.948978543,87964.000000000,1718096567.572454691
1718096567.573462,,,,-0.935541928,-0.935395658,87965.000000000,1718096567.573461771
1718096567.574469,,,,-0.969775677,-0.968451381,87966.000000000,1718096567.574468851
1718096567.575476,,,,-0.993647933,-0.991602421,87967.000000000,1718096567.575475931
1718096567.575994,76.721183777,18171.000000000,1718096567.575994015,,,,
1718096567.576483,,,,-1.027641296,-1.028985500,87968.000000000,1718096567.576483011
1718096567.577490,,,,-1.061273932,-1.060310364,87969.000000000,1718096567.577490091
1718096567.578497,,,,-1.060144067,-1.059949756,87970.000000000,1718096567.578497171
1718096567.579504,,,,-1.062163472,-1.061512351,87971.000000000,1718096567.579504251
1718096567.580511,,,,-1.063774228,-1.063074946,87972.000000000,1718096567.580511332
1718096567.580994,77.913787842,18172.000000000,1718096567.580994129,,,,
1718096567.581518,,,,-1.074448228,-1.073340297,87973.000000000,1718096567.581518412
1718096567.582525,,,,-1.048412323,-1.049299717,87974.000000000,1718096567.582525492
1718096567.583533,,,,-1.052018404,-1.051775932,87975.000000000,1718096567.583532572
1718096567.584540,,,,-1.121399403,-1.122310877,87976.000000000,1718096567.584539652
1718096567.585994,78.986541748,18173.000000000,1718096567.585994005,,,,
1718096567.590994,80.007705688,18174.000000000,1718096567.590994120,,,,
1718096567.595994,81.045372009,18175.000000000,1718096567.595993996,,,,
1718096567.600994,81.946525574,18176.000000000,1718096567.600994110,,,,
1718096567.604681,,,,-1.082237363,-1.085793257,87996.000000000,1718096567.604681253
1718096567.605688,,,,-1.090050459,-1.092404485,87997.000000000,1718096567.605688334
1718096567.605994,82.813316345,18177.000000000,1718096567.605993986,,,,
1718096567.606695,,,,-1.089112878,-1.090360999,87998.000000000,1718096567.606695414
1718096567.607702,,,,-1.164648294,-1.163997173,87999.000000000,1718096567.607702494
1718096567.608710,,,,-1.285740495,-1.283021927,88000.000000000,1718096567.608709574
1718096567.609717,,,,-1.375147343,-1.372476697,88001.000000000,1718096567.609716654
1718096567.610724,,,,-1.381253600,-1.382333398,88002.000000000,1718096567.610723734
1718096567.610994,83.526847839,18178.000000000,1718096567.610994101,,,,
1718096567.611731,,,,-1.371925831,-1.373510480,88003.000000000,1718096567.611730814
1718096567.612738,,,,-1.442821383,-1.443516612,88004.000000000,1718096567.612737894
1718096567.613745,,,,-1.537781596,-1.540159583,88005.000000000,1718096567.613744974
1718096567.614752,,,,-1.525256515,-1.526360273,88006.000000000,1718096567.614752054
1718096567.615759,,,,-1.462077856,-1.461595058,88007.000000000,1718096567.615759134
1718096567.615994,84.155258179,18179.000000000,1718096567.615993977,,,,
1718096567.616766,,,,-1.402673721,-1.404090047,88008.000000000,1718096567.616766214
1718096567.617773,,,,-1.326513290,-1.326367021,88009.000000000,1718096567.617773294
1718096567.618780,,,,-1.246915102,-1.246985078,88010.000000000,1718096567.618780375
1718096567.619787,,,,-1.163999200,-1.164694309,88011.000000000,1718096567.619787455
1718096567.620795,,,,-1.066586971,-1.068363905,88012.000000000,1718096567.620794535
1718096567.620994,84.783462524,18180.000000000,1718096567.620994091,,,,
1718096567.621802,,,,-0.996460676,-0.998478055,88013.000000000,1718096567.621801615
1718096567.622809,,,,-0.963885725,-0.965542495,88014.000000000,1718096567.622808695
1718096567.623816,,,,-1.031054974,-1.032086730,88015.000000000,1718096567.623815775
1718096567.624823,,,,-1.169648767,-1.171617985,88016.000000000,1718096567.624822855
1718096567.625830,,,,-1.294322968,-1.296123981,88017.000000000,1718096567.625829935
1718096567.626837,,,,-1.396687627,-1.395387411,88018.000000000,1718096567.626837015
1718096567.627844,,,,-1.513885260,-1.513065815,88019.000000000,1718096567.627844095
1718096567.628851,,,,-1.538719177,-1.537515044,88020.000000000,1718096567.628851175
1718096567.629858,,,,-1.495518327,-1.493352652,88021.000000000,1718096567.629858255
1718096567.630865,,,,-1.480420828,-1.482462287,88022.000000000,1718096567.630865335
1718096567.631872,,,,-1.488354206,-1.491309166,88023.000000000,1718096567.631872416
1718096567.632879,,,,-1.463520288,-1.464071274,88024.000000000,1718096567.632879496
1718096567.633887,,,,-1.346587181,-1.348556399,88025.000000000,1718096567.633886576
1718096567.634894,,,,-1.243188739,-1.245013833,88026.000000000,1718096567.634893656
1718096567.635901,,,,-1.164768457,-1.165367484,88027.000000000,1718096567.635900736
1718096567.636908,,,,-1.079833269,-1.079374433,88028.000000000,1718096567.636907816
1718096567.637915,,,,-1.045118690,-1.046246648,88029.000000000,1718096567.637914896
1718096567.638922,,,,-1.082934499,-1.081994891,88030.000000000,1718096567.638921976
1718096567.639929,,,,-1.106638432,-1.106684566,88031.000000000,1718096567.639929056
1718096567.640936,,,,-1.122865796,-1.125027418,88032.000000000,1718096567.640936136
1718096567.641943,,,,-1.230880022,-1.233041644,88033.000000000,1718096567.641943216
1718096567.642950,,,,-1.370291114,-1.371755481,88034.000000000,1718096567.642950296
1718096567.643957,,,,-1.531194448,-1.531961679,88035.000000000,1718096567.643957376
1718096567.644964,,,,-1.693588376,-1.694355607,88036.000000000,1718096567.644964457
1718096567.645972,,,,-1.780014038,-1.781863213,88037.000000000,1718096567.645971537
1718096567.646979,,,,-1.960486412,-1.963633657,88038.000000000,1718096567.646978617
1718096567.647986,,,,-2.191732407,-2.192066908,88039.000000000,1718096567.647985697
1718096567.648993,,,,-2.296645403,-2.296258688,88040.000000000,1718096567.648992777
1718096567.650000,,,,-2.190289974,-2.188220501,88041.000000000,1718096567.649999857
1718096567.651007,,,,-1.952048182,-1.949377656,88042.000000000,1718096567.651006937
1718096567.652014,,,,-1.693948984,-1.691614985,88043.000000000,1718096567.652014017
1718096567.653021,,,,-1.509606123,-1.509700179,88044.000000000,1718096567.653021097
1718096567.654028,,,,-1.246530414,-1.247754455,88045.000000000,1718096567.654028177
1718096567.655035,,,,-0.976074278,-0.976360738,88046.000000000,1718096567.655035257
1718096567.656042,,,,-0.771657586,-0.769179344,88047.000000000,1718096567.656042337
1718096567.657049,,,,-0.597003043,-0.596784592,88048.000000000,1718096567.657049417
1718096567.658056,,,,-0.590920746,-0.588394463,88049.000000000,1718096567.658056498
1718096567.659064,,,,-0.686770380,-0.687705934,88050.000000000,1718096567.659063578
1718096567.660071,,,,-0.787283897,-0.786801040,88051.000000000,1718096567.660070658
1718096567.661078,,,,-0.858540058,-0.859691978,88052.000000000,1718096567.661077738
1718096567.662085,,,,-0.901404381,-0.899406970,88053.000000000,1718096567.662084818
1718096567.663092,,,,-0.977444589,-0.977250218,88054.000000000,1718096567.663091898
1718096567.664099,,,,-1.043315649,-1.046535134,88055.000000000,1718096567.664098978
1718096567.665106,,,,-1.073606730,-1.074253798,88056.000000000,1718096567.665106058
1718096567.666113,,,,-1.052114487,-1.053290486,88057.000000000,1718096567.666113138
1718096567.667120,,,,-1.017760634,-1.018792272,88058.000000000,1718096567.667120218
1718096567.668127,,,,-1.014899731,-1.013407230,88059.000000000,1718096567.668127298
1718096567.669134,,,,-1.032136798,-1.030019164,88060.000000000,1718096567.669134378
1718096567.670141,,,,-1.028891325,-1.029346108,88061.000000000,1718096567.670141459
1718096567.671149,,,,-1.035117865,-1.034538865,88062.000000000,1718096567.671148539
1718096567.671467,92.831527710,18191.000000000,1718096567.671466589,,,,
1718096567.672156,,,,-1.067428350,-1.068027377,88063.000000000,1718096567.672155619
1718096567.673163,,,,-1.078799486,-1.076970458,88064.000000000,1718096567.673162699
1718096567.674170,,,,-1.088199377,-1.086586595,88065.000000000,1718096567.674169779
1718096567.675177,,,,-1.111879349,-1.110122323,88066.000000000,1718096567.675176859
1718096567.676184,,,,-1.126063228,-1.128609538,88067.000000000,1718096567.676183939
1718096567.676467,94.133247375,18192.000000000,1718096567.676466703,,,,
1718096567.677191,,,,-1.143156052,-1.146760106,88068.000000000,1718096567.677191019
1718096567.678198,,,,-1.180947781,-1.181955457,88069.000000000,1718096567.678198099
1718096567.679205,,,,-1.243573427,-1.241816401,88070.000000000,1718096567.679205179
1718096567.681467,95.535491943,18193.000000000,1718096567.681466579,,,,
1718096567.682226,,,,-1.388946533,-1.388824344,88073.000000000,1718096567.682226419
1718096567.683233,,,,-1.378657222,-1.379376411,88074.000000000,1718096567.683233500
1718096567.684241,,,,-1.366444588,-1.367524385,88075.000000000,1718096567.684240580
1718096567.685248,,,,-1.305357575,-1.304369926,88076.000000000,1718096567.685247660
1718096567.686255,,,,-1.205757618,-1.209073186,88077.000000000,1718096567.686254740
1718096567.686467,96.768028259,18194.000000000,1718096567.686466694,,,,
1718096567.687262,,,,-1.145800471,-1.149140120,88078.000000000,1718096567.687261820
1718096567.688269,,,,-1.119596362,-1.119257689,88079.000000000,1718096567.688268900
1718096567.689276,,,,-1.100195646,-1.096851945,88080.000000000,1718096567.689275980
1718096567.690283,,,,-1.092863202,-1.092332363,88081.000000000,1718096567.690283060
1718096567.691290,,,,-1.103152633,-1.105746984,88082.000000000,1718096567.691290140
1718096567.691467,97.966110229,18195.000000000,1718096567.691466570,,,,
1718096567.692297,,,,-1.133780241,-1.136590958,88083.000000000,1718096567.692297220
1718096567.693304,,,,-1.159551740,-1.160920024,88084.000000000,1718096567.693304300
1718096567.694311,,,,-1.178303361,-1.181787133,88085.000000000,1718096567.694311380
1718096567.695318,,,,-1.172774076,-1.175464511,88086.000000000,1718096567.695318460
1718096567.696326,,,,-1.168903470,-1.169406295,88087.000000000,1718096567.696325541
1718096567.696467,98.978019714,18196.000000000,1718096567.696466684,,,,
1718096567.697333,,,,-1.179914117,-1.181666970,88088.000000000,1718096567.697332621
1718096567.698340,,,,-1.196934819,-1.196067214,88089.000000000,1718096567.698339701
1718096567.699347,,,,-1.252708793,-1.251023889,88090.000000000,1718096567.699346781
1718096567.700354,,,,-1.337139249,-1.333819509,88091.000000000,1718096567.700353861
1718096567.701361,,,,-1.405222058,-1.405340195,88092.000000000,1718096567.701360941
1718096567.701467,99.770378113,18197.000000000,1718096567.701466560,,,,
1718096567.702368,,,,-1.439023018,-1.437794924,88093.000000000,1718096567.702368021
1718096567.703375,,,,-1.473809719,-1.471355557,88094.000000000,1718096567.703375101
1718096567.704382,,,,-1.538959622,-1.538957477,88095.000000000,1718096567.704382181
1718096567.705389,,,,-1.685871363,-1.688081026,88096.000000000,1718096567.705389261
1718096567.706396,,,,-1.776840687,-1.777752280,88097.000000000,1718096567.706396341
1718096567.706467,100.377067566,18198.000000000,1718096567.706466675,,,,
1718096567.707403,,,,-1.739145160,-1.738133430,88098.000000000,1718096567.707403421
1718096567.708411,,,,-1.629664540,-1.628075838,88099.000000000,1718096567.708410501
1718096567.709418,,,,-1.528934717,-1.530591369,88100.000000000,1718096567.709417582
1718096567.710425,,,,-1.490037084,-1.490155220,88101.000000000,1718096567.710424662
1718096567.711432,,,,-1.380291939,-1.379280210,88102.000000000,1718096567.711431742
1718096567.711467,100.764579773,18199.000000000,1718096567.711466551,,,,
1718096567.712439,,,,-1.245136023,-1.244148374,88103.000000000,1718096567.712438822
1718096567.713446,,,,-1.082766175,-1.081706405,88104.000000000,1718096567.713445902
1718096567.714453,,,,-1.014394879,-1.014585137,88105.000000000,1718096567.714452982
1718096567.715460,,,,-1.047787189,-1.048818946,88106.000000000,1718096567.715460062
1718096567.716255,100.899360657,18201.000000000,1718096567.716255188,,,,
1718096567.716467,100.916206360,18200.000000000,1718096567.716466665,,,,
1718096567.716467,,,,-1.066346526,-1.068868756,88107.000000000,1718096567.716467142
1718096567.717474,,,,-1.067356229,-1.067282081,88108.000000000,1718096567.717474222
1718096567.718481,,,,-1.087622404,-1.085576892,88109.000000000,1718096567.718481302
1718096567.719488,,,,-1.065505147,-1.064397216,88110.000000000,1718096567.719488382
1718096567.720495,,,,-1.032281041,-1.032831907,88111.000000000,1718096567.720495462
1718096567.721255,100.916206360,18202.000000000,1718096567.721255302,,,,
1718096567.721503,,,,-1.078991890,-1.080432296,88112.000000000,1718096567.721502542
1718096567.722510,,,,-1.190251470,-1.192220807,88113.000000000,1718096567.722509623
1718096567.723517,,,,-1.311343670,-1.313433170,88114.000000000,1718096567.723516703
1718096567.724524,,,,-1.464385748,-1.463830829,88115.000000000,1718096567.724523783
1718096567.725531,,,,-1.615312338,-1.615286231,88116.000000000,1718096567.725530863
1718096567.726255,100.865669250,18203.000000000,1718096567.726255178,,,,
1718096567.726538,,,,-1.818070292,-1.821409822,88117.000000000,1718096567.726537943
1718096567.727545,,,,-2.004432440,-2.005223751,88118.000000000,1718096567.727545023
1718096567.728552,,,,-2.004216194,-2.004502535,88119.000000000,1718096567.728552103
1718096567.729559,,,,-1.991522789,-1.991833210,88120.000000000,1718096567.729559183
1718096567.730566,,,,-1.903774858,-1.905263305,88121.000000000,1718096567.730566263
1718096567.731255,100.714042664,18204.000000000,1718096567.731255293,,,,
1718096567.731573,,,,-1.691328526,-1.690220594,88122.000000000,1718096567.731573343
1718096567.732580,,,,-1.417867303,-1.416783452,88123.000000000,1718096567.732580423
1718096567.733588,,,,-1.181548834,-1.184912443,88124.000000000,1718096567.733587503
1718096567.734595,,,,-1.053220391,-1.054949284,88125.000000000,1718096567.734594584
1718096567.735602,,,,-1.012399554,-1.011700273,88126.000000000,1718096567.735601664
1718096567.736255,100.646652222,18205.000000000,1718096567.736255169,,,,
1718096567.736609,,,,-1.024059176,-1.023936987,88127.000000000,1718096567.736608744
1718096567.737616,,,,-1.084785581,-1.085697174,88128.000000000,1718096567.737615824
1718096567.738623,,,,-1.136641026,-1.135509133,88129.000000000,1718096567.738622904
1718096567.739630,,,,-1.196862698,-1.197100997,88130.000000000,1718096567.739629984
1718096567.740637,,,,-1.243453264,-1.242826104,88131.000000000,1718096567.740637064
1718096567.741255,100.663497925,18206.000000000,1718096567.741255283,,,,
1718096567.741644,,,,-1.211070657,-1.209698200,88132.000000000,1718096567.741644144
1718096567.742651,,,,-1.140583754,-1.140172958,88133.000000000,1718096567.742651224
1718096567.743658,,,,-1.093007445,-1.093149662,88134.000000000,1718096567.743658304
1718096567.744665,,,,-1.043868661,-1.043169379,88135.000000000,1718096567.744665384
1718096567.745672,,,,-0.977324426,-0.975879908,88136.000000000,1718096567.745672464
1718096567.746255,100.798271179,18207.000000000,1718096567.746255159,,,,
1718096567.746680,,,,-0.923930347,-0.923231125,88137.000000000,1718096567.746679544
1718096567.747687,,,,-0.953067482,-0.952079773,88138.000000000,1718096567.747686625
1718096567.748694,,,,-1.039757729,-1.041823149,88139.000000000,1718096567.748693705
1718096567.749701,,,,-1.128371119,-1.130244255,88140.000000000,1718096567.749700785
1718096567.750708,,,,-1.201550603,-1.201139808,88141.000000000,1718096567.750707865
1718096567.751715,,,,-1.265185833,-1.265784860,88142.000000000,1718096567.751714945
1718096567.752722,,,,-1.283168197,-1.284079671,88143.000000000,1718096567.752722025
1718096567.753729,,,,-1.242419481,-1.244460821,88144.000000000,1718096567.753729105
1718096567.754736,,,,-1.217489481,-1.219410658,88145.000000000,1718096567.754736185
1718096567.755743,,,,-1.210830212,-1.210179090,88146.000000000,1718096567.755743265
1718096567.756750,,,,-1.177942753,-1.178685904,88147.000000000,1718096567.756750345
1718096567.757757,,,,-1.141401052,-1.144043565,88148.000000000,1718096567.757757425
1718096567.758765,,,,-1.106590390,-1.106468201,88149.000000000,1718096567.758764505
1718096567.759772,,,,-1.107071161,-1.106011391,88150.000000000,1718096567.759771585
1718096567.760779,,,,-1.149406552,-1.149452686,88151.000000000,1718096567.760778666
1718096567.761786,,,,-1.158950686,-1.161160350,88152.000000000,1718096567.761785746
1718096567.762793,,,,-1.115942121,-1.118055701,88153.000000000,1718096567.762792826
1718096567.763800,,,,-1.085290432,-1.089279175,88154.000000000,1718096567.763799906
1718096567.764807,,,,-1.101301432,-1.103631377,88155.000000000,1718096567.764806986
1718096567.765814,,,,-1.123082161,-1.124546647,88156.000000000,1718096567.765814066
1718096567.766255,102.212951660,18211.000000000,1718096567.766255140,,,,
1718096567.766821,,,,-1.163927078,-1.162242174,88157.000000000,1718096567.766821146
1718096567.767828,,,,-1.202103496,-1.199697375,88158.000000000,1718096567.767828226
1718096567.768835,,,,-1.218931913,-1.219410658,88159.000000000,1718096567.768835306
1718096567.769842,,,,-1.235543847,-1.235205293,88160.000000000,1718096567.769842386
1718096567.770849,,,,-1.248261333,-1.248066902,88161.000000000,1718096567.770849466
1718096567.771255,102.583297729,18212.000000000,1718096567.771255255,,,,
1718096567.771857,,,,-1.255064845,-1.253187537,88162.000000000,1718096567.771856546
1718096567.772864,,,,-1.258141994,-1.257514834,88163.000000000,1718096567.772863626
1718096567.773871,,,,-1.266940832,-1.267539740,88164.000000000,1718096567.773870707
1718096567.774878,,,,-1.287904143,-1.287084699,88165.000000000,1718096567.774877787
1718096567.775885,,,,-1.284682751,-1.285401940,88166.000000000,1718096567.775884867
1718096567.776255,103.020912170,18213.000000000,1718096567.776255131,,,,
1718096567.776892,,,,-1.299636006,-1.300307035,88167.000000000,1718096567.776891947
1718096567.777899,,,,-1.318796277,-1.321270347,88168.000000000,1718096567.777899027
1718096567.778906,,,,-1.296558738,-1.298263550,88169.000000000,1718096567.778906107
1718096567.779913,,,,-1.257757306,-1.255832076,88170.000000000,1718096567.779913187
1718096567.780920,,,,-1.232490778,-1.231863618,88171.000000000,1718096567.780920267
1718096567.781255,103.374290466,18214.000000000,1718096567.781255245,,,,
1718096567.781927,,,,-1.216335535,-1.215972781,88172.000000000,1718096567.781927347
1718096567.786255,103.593025208,18215.000000000,1718096567.786255121,,,,
1718096567.791255,103.609848022,18216.000000000,1718096567.791255236,,,,
1718096567.793005,,,,-1.904015183,-1.901777387,88183.000000000,1718096567.793005228
1718096567.794012,,,,-1.825402617,-1.826121807,88184.000000000,1718096567.794012308
1718096567.795019,,,,-1.731716633,-1.731017470,88185.000000000,1718096567.795019388
1718096567.796026,,,,-1.714647889,-1.716977715,88186.000000000,1718096567.796026468
1718096567.796255,103.626670837,18217.000000000,1718096567.796255112,,,,
1718096567.797034,,,,-1.580405474,-1.584153771,88187.000000000,1718096567.797033548
1718096567.798041,,,,-1.291630507,-1.293166995,88188.000000000,1718096567.798040628
1718096567.799048,,,,-1.130102038,-1.131109715,88189.000000000,1718096567.799047709
1718096567.800055,,,,-1.120870471,-1.123777390,88190.000000000,1718096567.800054789
1718096567.801062,,,,-1.171884537,-1.172459483,88191.000000000,1718096567.801061869
1718096567.801255,103.475257874,18218.000000000,1718096567.801255226,,,,
1718096567.802069,,,,-1.237250805,-1.236455321,88192.000000000,1718096567.802068949
1718096567.803076,,,,-1.259896994,-1.255880117,88193.000000000,1718096567.803076029
1718096567.804083,,,,-1.271556616,-1.268669724,88194.000000000,1718096567.804083109
1718096567.805090,,,,-1.289827466,-1.288983941,88195.000000000,1718096567.805090189
1718096567.806097,,,,-1.253189683,-1.257154226,88196.000000000,1718096567.806097269
1718096567.806255,103.222854614,18219.000000000,1718096567.806255102,,,,
1718096567.807104,,,,-1.177894711,-1.179671645,88197.000000000,1718096567.807104349
1718096567.808111,,,,-1.106854796,-1.107261539,88198.000000000,1718096567.808111429
1718096567.809119,,,,-1.088295579,-1.086658716,88199.000000000,1718096567.809118509
1718096567.810126,,,,-1.110629201,-1.110482931,88200.000000000,1718096567.810125589
1718096567.811133,,,,-1.170490146,-1.171353579,88201.000000000,1718096567.811132669
1718096567.811255,103.020912170,18220.000000000,1718096567.811255217,,,,
1718096567.812140,,,,-1.244775414,-1.242922306,88202.000000000,1718096567.812139750
1718096567.813147,,,,-1.278071642,-1.277180076,88203.000000000,1718096567.813146830
1718096567.814154,,,,-1.258887291,-1.255880117,88204.000000000,1718096567.814153910
1718096567.815161,,,,-1.201718807,-1.199312687,88205.000000000,1718096567.815160990
1718096567.816168,,,,-1.169600606,-1.168084025,88206.000000000,1718096567.816168070
1718096567.817175,,,,-1.176620483,-1.177772403,88207.000000000,1718096567.817175150
1718096567.818182,,,,-1.221816778,-1.223184943,88208.000000000,1718096567.818182230
1718096567.819189,,,,-1.244991779,-1.245494604,88209.000000000,1718096567.819189310
1718096567.820196,,,,-1.282495022,-1.282012224,88210.000000000,1718096567.820196390
1718096567.821203,,,,-1.310213804,-1.311101198,88211.000000000,1718096567.821203470
1718096567.822211,,,,-1.309925318,-1.310860872,88212.000000000,1718096567.822210550
1718096567.823218,,,,-1.291774750,-1.293070793,88213.000000000,1718096567.823217630
1718096567.824225,,,,-1.242299318,-1.243378997,88214.000000000,1718096567.824224710
1718096567.825232,,,,-1.168350577,-1.167242646,88215.000000000,1718096567.825231791
1718096567.826239,,,,-1.079761147,-1.079975486,88216.000000000,1718096567.826238871
1718096567.827246,,,,-1.010957122,-1.012926340,88217.000000000,1718096567.827245951
1718096567.828253,,,,-1.024011135,-1.026942015,88218.000000000,1718096567.828253031
1718096567.829260,,,,-1.097503066,-1.099929094,88219.000000000,1718096567.829260111
1718096567.830267,,,,-1.175081968,-1.175007701,88220.000000000,1718096567.830267191
1718096567.831274,,,,-1.249992251,-1.249677658,88221.000000000,1718096567.831274271
1718096567.832281,,,,-1.306126952,-1.307999969,88222.000000000,1718096567.832281351
1718096567.833288,,,,-1.328172088,-1.329275846,88223.000000000,1718096567.833288431
1718096567.834296,,,,-1.358535290,-1.358557224,88224.000000000,1718096567.834295511
1718096567.835303,,,,-1.384042263,-1.383847952,88225.000000000,1718096567.835302591
1718096567.836310,,,,-1.391951680,-1.390747547,88226.000000000,1718096567.836309671
1718096567.837317,,,,-1.371517181,-1.368582129,88227.000000000,1718096567.837316751
1718096567.838324,,,,-1.338942289,-1.337329507,88228.000000000,1718096567.838323832
1718096567.839331,,,,-1.276797414,-1.275809765,88229.000000000,1718096567.839330912
1718096567.840338,,,,-1.219388604,-1.221502185,88230.000000000,1718096567.840337992
1718096567.841345,,,,-1.209147334,-1.213568807,88231.000000000,1718096567.841345072
1718096567.842352,,,,-1.197824240,-1.198279023,88232.000000000,1718096567.842352152
1718096567.843359,,,,-1.167028308,-1.165848255,88233.000000000,1718096567.843359232
1718096567.844366,,,,-1.163710713,-1.159958363,88234.000000000,1718096567.844366312
1718096567.845373,,,,-1.279489994,-1.278622508,88235.000000000,1718096567.845373392
1718096567.846380,,,,-1.412073612,-1.413273573,88236.000000000,1718096567.846380472
1718096567.847388,,,,-1.541459799,-1.540207624,88237.000000000,1718096567.847387552
1718096567.848395,,,,-1.777850389,-1.777415633,88238.000000000,1718096567.848394632
1718096567.849402,,,,-2.033088923,-2.036909342,88239.000000000,1718096567.849401712
1718096567.850409,,,,-2.117014408,-2.120498180,88240.000000000,1718096567.850408792
1718096567.851416,,,,-2.149565220,-2.153001070,88241.000000000,1718096567.851415873
1718096567.852423,,,,-2.163028002,-2.165093422,88242.000000000,1718096567.852422953
1718096567.853430,,,,-1.961640358,-1.960580587,88243.000000000,1718096567.853430033
1718096567.854437,,,,-1.666134000,-1.665098190,88244.000000000,1718096567.854437113
1718096567.855444,,,,-1.399115682,-1.399594545,88245.000000000,1718096567.855444193
1718096567.856451,,,,-1.096445322,-1.096803904,88246.000000000,1718096567.856451273
1718096567.857458,,,,-0.848515153,-0.849378586,88247.000000000,1718096567.857458353
1718096567.858465,,,,-0.671480596,-0.673257589,88248.000000000,1718096567.858465433
1718096567.859473,,,,-0.681673825,-0.680397630,88249.000000000,1718096567.859472513
1718096567.860480,,,,-0.775624275,-0.774468243,88250.000000000,1718096567.860479593
1718096567.861487,,,,-0.865463734,-0.866062701,88251.000000000,1718096567.861486673
1718096567.862494,,,,-1.020212770,-1.019417286,88252.000000000,1718096567.862493753
1718096567.863501,,,,-1.147098660,-1.146760106,88253.000000000,1718096567.863500834
1718096567.864508,,,,-1.208474278,-1.208928943,88254.000000000,1718096567.864507914
1718096567.865515,,,,-1.258334279,-1.261457562,88255.000000000,1718096567.865514994
1718096567.871393,103.155548096,18231.000000000,1718096567.871392965,,,,
1718096567.876393,103.525726318,18232.000000000,1718096567.876393080,,,,
1718096567.879614,,,,-1.194771171,-1.198062658,88269.000000000,1718096567.879614115
1718096567.880621,,,,-1.275571346,-1.276506901,88270.000000000,1718096567.880621195
1718096567.881393,104.064071655,18233.000000000,1718096567.881392956,,,,
1718096567.881628,,,,-1.316897035,-1.317616224,88271.000000000,1718096567.881628275
1718096567.882635,,,,-1.351924181,-1.354855061,88272.000000000,1718096567.882635355
1718096567.883642,,,,-1.310814857,-1.311966658,88273.000000000,1718096567.883642435
1718096567.884650,,,,-1.207560658,-1.209001064,88274.000000000,1718096567.884649515
1718096567.885657,,,,-1.113514066,-1.113103390,88275.000000000,1718096567.885656595
1718096567.886393,104.669540405,18234.000000000,1718096567.886393070,,,,
1718096567.886664,,,,-1.058797836,-1.060310364,88276.000000000,1718096567.886663675
1718096567.887671,,,,-1.045936108,-1.048217893,88277.000000000,1718096567.887670755
1718096567.888678,,,,-1.118826985,-1.122286797,88278.000000000,1718096567.888677835
1718096567.889685,,,,-1.201189995,-1.203832388,88279.000000000,1718096567.889684916
1718096567.890692,,,,-1.274826169,-1.276843429,88280.000000000,1718096567.890691996
1718096567.891393,105.375709534,18235.000000000,1718096567.891392946,,,,
1718096567.891699,,,,-1.263022184,-1.263693333,88281.000000000,1718096567.891699076
1718096567.892706,,,,-1.230351090,-1.229147077,88282.000000000,1718096567.892706156
1718096567.893713,,,,-1.166042686,-1.163636565,88283.000000000,1718096567.893713236
1718096567.894720,,,,-1.103489161,-1.099183917,88284.000000000,1718096567.894720316
1718096567.895727,,,,-1.065144539,-1.063676000,88285.000000000,1718096567.895727396
1718096567.896393,106.165664673,18236.000000000,1718096567.896393061,,,,
1718096567.896734,,,,-1.032353163,-1.034009933,88286.000000000,1718096567.896734476
1718096567.897742,,,,-1.033939838,-1.034298420,88287.000000000,1718096567.897741556
1718096567.898749,,,,-1.107239485,-1.107838511,88288.000000000,1718096567.898748636
1718096567.899756,,,,-1.165802240,-1.166665673,88289.000000000,1718096567.899755716
1718096567.900763,,,,-1.190828443,-1.192893863,88290.000000000,1718096567.900762796
1718096567.901393,106.904937744,18237.000000000,1718096567.901392937,,,,
1718096567.901770,,,,-1.216143131,-1.216501713,88291.000000000,1718096567.901769876
1718096567.902777,,,,-1.222465873,-1.223641753,88292.000000000,1718096567.902776957
1718096567.903784,,,,-1.234966874,-1.235854387,88293.000000000,1718096567.903784037
1718096567.904791,,,,-1.259680629,-1.261481524,88294.000000000,1718096567.904791117
1718096567.905798,,,,-1.303867102,-1.305403590,88295.000000000,1718096567.905798197
1718096567.906393,107.660751343,18238.000000000,1718096567.906393051,,,,
1718096567.906805,,,,-1.361708641,-1.361081481,88296.000000000,1718096567.906805277
1718096567.907812,,,,-1.397456884,-1.396589398,88297.000000000,1718096567.907812357
1718096567.908819,,,,-1.405967236,-1.406518221,88298.000000000,1718096567.908819437
1718096567.909827,,,,-1.387768626,-1.386179924,88299.000000000,1718096567.909826517
1718096567.910834,,,,-1.388826370,-1.386949182,88300.000000000,1718096567.910833597
1718096567.911393,108.315559387,18239.000000000,1718096567.911392927,,,,
1718096567.911841,,,,-1.399548411,-1.400964856,88301.000000000,1718096567.911840677
1718096567.912848,,,,-1.378200412,-1.378150344,88302.000000000,1718096567.912847757
1718096567.913855,,,,-1.411472559,-1.414355397,88303.000000000,1718096567.913854837
1718096567.914862,,,,-1.443686843,-1.442554951,88304.000000000,1718096567.914861917
1718096567.915217,109.255470276,18241.000000000,1718096567.915217161,,,,
1718096567.915869,,,,-1.447797775,-1.448204517,88305.000000000,1718096567.915868998
1718096567.916393,108.869499207,18240.000000000,1718096567.916393042,,,,
1718096567.916876,,,,-1.459577680,-1.460176706,88306.000000000,1718096567.916876078
1718096567.917883,,,,-1.520328164,-1.521960855,88307.000000000,1718096567.917883158
1718096567.918890,,,,-1.603556514,-1.601270556,88308.000000000,1718096567.918890238
1718096567.919897,,,,-1.627645135,-1.628196001,88309.000000000,1718096567.919897318
1718096567.920217,109.523941040,18242.000000000,1718096567.920217276,,,,
1718096567.920904,,,,-1.608268499,-1.610958934,88310.000000000,1718096567.920904398
1718096567.921911,,,,-1.558312178,-1.559752584,88311.000000000,1718096567.921911478
1718096567.922919,,,,-1.746165037,-1.747797728,88312.000000000,1718096567.922918558
1718096567.923926,,,,-2.061168194,-2.064868450,88313.000000000,1718096567.923925638
1718096567.924933,,,,-2.040733814,-2.041621208,88314.000000000,1718096567.924932718
1718096567.925217,109.674942017,18243.000000000,1718096567.925217152,,,,
1718096567.925940,,,,-1.841437697,-1.840546131,88315.000000000,1718096567.925939798
1718096567.926947,,,,-1.621178269,-1.619998217,88316.000000000,1718096567.926946878
1718096567.927954,,,,-1.407337546,-1.408104897,88317.000000000,1718096567.927953959
1718096567.928961,,,,-1.186837792,-1.187220335,88318.000000000,1718096567.928961039
1718096567.929968,,,,-1.006533623,-1.005137205,88319.000000000,1718096567.929968119
1718096567.930217,109.742050171,18244.000000000,1718096567.930217266,,,,
1718096567.930975,,,,-0.857602477,-0.856807113,88320.000000000,1718096567.930975199
1718096567.931982,,,,-0.681553602,-0.680445671,88321.000000000,1718096567.931982279
1718096567.932989,,,,-0.602796793,-0.604958355,88322.000000000,1718096567.932989359
1718096567.933996,,,,-0.682996035,-0.685013413,88323.000000000,1718096567.933996439
1718096567.935004,,,,-1.070433378,-1.071344972,88324.000000000,1718096567.935003519
1718096567.935217,109.893020630,18245.000000000,1718096567.935217142,,,,
1718096567.936011,,,,-1.186645389,-1.189768672,88325.000000000,1718096567.936010599
1718096567.937018,,,,-1.251506805,-1.252802968,88326.000000000,1718096567.937017679
1718096567.938025,,,,-1.287928224,-1.286579847,88327.000000000,1718096567.938024759
1718096567.939032,,,,-1.395750046,-1.396084547,88328.000000000,1718096567.939031839
1718096567.940039,,,,-1.544056177,-1.543212652,88329.000000000,1718096567.940038919
1718096567.940217,110.044006348,18246.000000000,1718096567.940217257,,,,
1718096567.941046,,,,-1.574924231,-1.573311448,88330.000000000,1718096567.941046000
1718096567.942053,,,,-1.513885260,-1.514388084,88331.000000000,1718096567.942053080
1718096567.943060,,,,-1.435705423,-1.432770491,88332.000000000,1718096567.943060160
1718096567.944067,,,,-1.426089168,-1.426736236,88333.000000000,1718096567.944067240
1718096567.945074,,,,-1.471718192,-1.472894073,88334.000000000,1718096567.945074320
1718096567.945217,110.396224976,18247.000000000,1718096567.945217133,,,,
1718096567.946081,,,,-1.462943316,-1.464047194,88335.000000000,1718096567.946081400
1718096567.947088,,,,-1.367478371,-1.365913630,88336.000000000,1718096567.947088480
1718096567.948096,,,,-1.288385034,-1.288623333,88337.000000000,1718096567.948095560
1718096567.949103,,,,-1.192775726,-1.195706606,88338.000000000,1718096567.949102640
1718096567.950110,,,,-1.196093321,-1.195826888,88339.000000000,1718096567.950109720
1718096567.950217,110.832244873,18248.000000000,1718096567.950217247,,,,
1718096567.951117,,,,-1.243837833,-1.244364738,88340.000000000,1718096567.951116800
1718096567.952124,,,,-1.194987535,-1.198591471,88341.000000000,1718096567.952123880
1718096567.953131,,,,-1.071923971,-1.071849823,88342.000000000,1718096567.953130960
1718096567.954138,,,,-0.954077184,-0.953017354,88343.000000000,1718096567.954138041
1718096567.955145,,,,-0.919482827,-0.920947254,88344.000000000,1718096567.955145121
1718096567.956152,,,,-0.991195798,-0.994703650,88345.000000000,1718096567.956152201
1718096567.957159,,,,-1.151017308,-1.150678754,88346.000000000,1718096567.957159281
1718096567.958166,,,,-1.386951208,-1.388896465,88347.000000000,1718096567.958166361
1718096567.959173,,,,-1.527732611,-1.527297854,88348.000000000,1718096567.959173441
1718096567.960181,,,,-1.531603217,-1.531577110,88349.000000000,1718096567.960180521
1718096567.961188,,,,-1.539103866,-1.541193247,88350.000000000,1718096567.961187601
1718096567.962195,,,,-1.545690894,-1.546746612,88351.000000000,1718096567.962194681
1718096567.963202,,,,-1.468063951,-1.467797518,88352.000000000,1718096567.963201761
1718096567.964209,,,,-1.325527668,-1.326198697,88353.000000000,1718096567.964208841
1718096567.965216,,,,-1.210878253,-1.212967753,88354.000000000,1718096567.965215921
1718096567.965217,112.424621582,18251.000000000,1718096567.965217113,,,,
1718096567.966223,,,,-1.072933674,-1.075672269,88355.000000000,1718096567.966223001
1718096567.967230,,,,-0.968477488,-0.969725549,88356.000000000,1718096567.967230082
1718096567.968237,,,,-0.940999150,-0.941814482,88357.000000000,1718096567.968237162
1718096567.969244,,,,-0.989849508,-0.988813758,88358.000000000,1718096567.969244242
1718096567.970217,113.111503601,18252.000000000,1718096567.970217228,,,,
1718096567.970251,,,,-1.021102190,-1.022374272,88359.000000000,1718096567.970251322
1718096567.971258,,,,-1.033627391,-1.034226298,88360.000000000,1718096567.971258402
1718096567.972265,,,,-1.038699865,-1.038505554,88361.000000000,1718096567.972265482
1718096567.973273,,,,-1.054855108,-1.056271553,88362.000000000,1718096567.973272562
1718096567.974280,,,,-1.106999040,-1.107045174,88363.000000000,1718096567.974279642
1718096567.975217,113.814910889,18253.000000000,1718096567.975217104,,,,
1718096567.975287,,,,-1.161138415,-1.159958363,88364.000000000,1718096567.975286722
1718096567.976294,,,,-1.175682902,-1.177844524,88365.000000000,1718096567.976293802
1718096567.977301,,,,-1.182630658,-1.182844996,88366.000000000,1718096567.977300882
1718096567.978308,,,,-1.202488184,-1.202101469,88367.000000000,1718096567.978307962
1718096567.979315,,,,-1.224364996,-1.227007389,88368.000000000,1718096567.979315042
1718096567.980217,114.451118469,18254.000000000,1718096567.980217218,,,,
1718096567.980322,,,,-1.255281210,-1.260736346,88369.000000000,1718096567.980322123
1718096567.981329,,,,-1.325287223,-1.327040076,88370.000000000,1718096567.981329203
1718096567.982336,,,,-1.401808262,-1.402936101,88371.000000000,1718096567.982336283
1718096567.983343,,,,-1.483930707,-1.482390165,88372.000000000,1718096567.983343363
1718096567.984350,,,,-1.504124761,-1.504771829,88373.000000000,1718096567.984350443
1718096567.985217,115.053680420,18255.000000000,1718096567.985217094,,,,
1718096567.985358,,,,-1.489676476,-1.489794612,88374.000000000,1718096567.985357523
1718096567.986365,,,,-1.502730489,-1.502271652,88375.000000000,1718096567.986364603
1718096567.990217,115.572418213,18256.000000000,1718096567.990217209,,,,
1718096567.994421,,,,-1.313819885,-1.314322710,88383.000000000,1718096567.994421244
1718096567.995217,116.040847778,18257.000000000,1718096567.995217085,,,,
1718096567.995428,,,,-1.170898795,-1.174382687,88384.000000000,1718096567.995428324
1718096567.996435,,,,-1.105749011,-1.109112620,88385.000000000,1718096567.996435404
1718096567.997442,,,,-1.065168500,-1.065070391,88386.000000000,1718096567.997442484
1718096567.998450,,,,-1.062115431,-1.061632514,88387.000000000,1718096567.998449564
1718096567.999457,,,,-1.176356077,-1.177676201,88388.000000000,1718096567.999456644
1718096568.000217,116.408843994,18258.000000000,1718096568.000217199,,,,
1718096568.000464,,,,-1.345288992,-1.347426534,88389.000000000,1718096568.000463724
1718096568.001471,,,,-1.495806813,-1.496069193,88390.000000000,1718096568.001470804
1718096568.002478,,,,-1.578265905,-1.578768611,88391.000000000,1718096568.002477884
1718096568.003485,,,,-1.567928433,-1.567517638,88392.000000000,1718096568.003484964
1718096568.004492,,,,-1.490806341,-1.490323544,88393.000000000,1718096568.004492044
1718096568.005217,116.776756287,18259.000000000,1718096568.005217075,,,,
1718096568.005499,,,,-1.461308599,-1.461090207,88394.000000000,1718096568.005499125
1718096568.006506,,,,-1.383705735,-1.383487344,88395.000000000,1718096568.006506205
1718096568.007513,,,,-1.320262790,-1.318938494,88396.000000000,1718096568.007513285
1718096568.008520,,,,-1.172774076,-1.172194958,88397.000000000,1718096568.008520365
1718096568.009527,,,,-1.032617688,-1.032855988,88398.000000000,1718096568.009527445
1718096568.010217,117.194778442,18260.000000000,1718096568.010217190,,,,
1718096568.010535,,,,-0.993671954,-0.995809555,88399.000000000,1718096568.010534525
1718096568.011542,,,,-1.134116769,-1.137047768,88400.000000000,1718096568.011541605
1718096568.012549,,,,-1.276508927,-1.276506901,88401.000000000,1718096568.012548685
1718096568.013556,,,,-1.361636519,-1.360408425,88402.000000000,1718096568.013555765
1718096568.014563,,,,-1.363006830,-1.362932682,88403.000000000,1718096568.014562845
1718096568.015570,,,,-1.354640722,-1.354855061,88404.000000000,1718096568.015569925
1718096568.016577,,,,-1.360795140,-1.359254479,88405.000000000,1718096568.016577005
1718096568.017584,,,,-1.270787358,-1.270953536,88406.000000000,1718096568.017584085
1718096568.018591,,,,-1.180995941,-1.178157091,88407.000000000,1718096568.018591166
1718096568.019598,,,,-1.179625630,-1.179022551,88408.000000000,1718096568.019598246
1718096568.020521,117.729721069,18261.000000000,1718096568.020521164,,,,
1718096568.020605,,,,-1.268575549,-1.269847631,88409.000000000,1718096568.020605326
1718096568.021612,,,,-1.291822791,-1.291147590,88410.000000000,1718096568.021612406
1718096568.022619,,,,-1.256002426,-1.255591631,88411.000000000,1718096568.022619486
1718096568.023627,,,,-1.257084250,-1.257490873,88412.000000000,1718096568.023626566
1718096568.024634,,,,-1.261050940,-1.262154698,88413.000000000,1718096568.024633646
1718096568.025521,118.448348999,18262.000000000,1718096568.025521278,,,,
1718096568.025641,,,,-1.218907833,-1.218977928,88414.000000000,1718096568.025640726
1718096568.026648,,,,-1.198785901,-1.199288726,88415.000000000,1718096568.026647806
1718096568.027655,,,,-1.177077293,-1.176281929,88416.000000000,1718096568.027654886
1718096568.028662,,,,-1.171379685,-1.171521902,88417.000000000,1718096568.028661966
1718096568.029669,,,,-1.218907833,-1.218857646,88418.000000000,1718096568.029669046
1718096568.030521,119.300369263,18263.000000000,1718096568.030521154,,,,
1718096568.030676,,,,-1.265834928,-1.268188834,88419.000000000,1718096568.030676126
1718096568.031683,,,,-1.327643156,-1.330694318,88420.000000000,1718096568.031683207
1718096568.032690,,,,-1.415751815,-1.415268898,88421.000000000,1718096568.032690287
1718096568.033697,,,,-1.446451545,-1.446882248,88422.000000000,1718096568.033697367
1718096568.034704,,,,-1.499412894,-1.500420570,88423.000000000,1718096568.034704447
1718096568.035521,120.168746948,18264.000000000,1718096568.035521269,,,,
1718096568.035712,,,,-1.558071852,-1.558766961,88424.000000000,1718096568.035711527
1718096568.036719,,,,-1.541339636,-1.542683840,88425.000000000,1718096568.036718607
1718096568.037726,,,,-1.429527044,-1.431063533,88426.000000000,1718096568.037725687
1718096568.038733,,,,-1.327234507,-1.328194022,88427.000000000,1718096568.038732767
1718096568.039740,,,,-1.230278969,-1.233330131,88428.000000000,1718096568.039739847
1718096568.040521,121.170310974,18265.000000000,1718096568.040521145,,,,
1718096568.040747,,,,-1.068486094,-1.071561337,88429.000000000,1718096568.040746927
1718096568.041754,,,,-0.974006832,-0.974798083,88430.000000000,1718096568.041754007
1718096568.042761,,,,-1.039685607,-1.041318297,88431.000000000,1718096568.042761087
1718096568.043768,,,,-1.053508878,-1.053218365,88432.000000000,1718096568.043768167
1718096568.044775,,,,-1.023265839,-1.024417758,88433.000000000,1718096568.044775248
1718096568.045521,122.138061523,18266.000000000,1718096568.045521259,,,,
1718096568.045782,,,,-1.023362041,-1.025884271,88434.000000000,1718096568.045782328
1718096568.046789,,,,-1.049325824,-1.049900770,88435.000000000,1718096568.046789408
1718096568.047796,,,,-1.081540108,-1.080215931,88436.000000000,1718096568.047796488
1718096568.048804,,,,-1.122721553,-1.121974349,88437.000000000,1718096568.048803568
1718096568.049811,,,,-1.157315969,-1.158852458,88438.000000000,1718096568.049810648
1718096568.050521,123.122062683,18267.000000000,1718096568.050521135,,,,
1718096568.050818,,,,-1.198930144,-1.199913740,88439.000000000,1718096568.050817728
1718096568.051825,,,,-1.265065670,-1.266265631,88440.000000000,1718096568.051824808
1718096568.052832,,,,-1.469073653,-1.472244978,88441.000000000,1718096568.052831888
1718096568.053839,,,,-1.748545051,-1.750394106,88442.000000000,1718096568.053838968
1718096568.054846,,,,-1.878460169,-1.878866792,88443.000000000,1718096568.054846048
1718096568.055521,124.055610657,18268.000000000,1718096568.055521250,,,,
1718096568.055853,,,,-1.939138412,-1.938246846,88444.000000000,1718096568.055853128
1718096568.056860,,,,-1.890215993,-1.889781117,88445.000000000,1718096568.056860209
1718096568.057867,,,,-1.800664902,-1.800566673,88446.000000000,1718096568.057867289
1718096568.058874,,,,-1.650916338,-1.649976730,88447.000000000,1718096568.058874369
1718096568.059881,,,,-1.443566680,-1.443853140,88448.000000000,1718096568.059881449
1718096568.060521,124.838829041,18269.000000000,1718096568.060521126,,,,
1718096568.060889,,,,-1.178159118,-1.178421497,88449.000000000,1718096568.060888529
1718096568.061896,,,,-1.010620594,-1.011628151,88450.000000000,1718096568.061895609
1718096568.062903,,,,-0.928690374,-0.928880632,88451.000000000,1718096568.062902689
1718096568.063910,,,,-0.815339208,-0.813558161,88452.000000000,1718096568.063909769
1718096568.064917,,,,-0.789567769,-0.788772345,88453.000000000,1718096568.064916849
1718096568.065521,125.455223083,18270.000000000,1718096568.065521240,,,,
1718096568.065924,,,,-0.845341802,-0.846229255,88454.000000000,1718096568.065923929
1718096568.066931,,,,-0.948355556,-0.949988246,88455.000000000,1718096568.066931009
1718096568.067938,,,,-1.082357526,-1.081994891,88456.000000000,1718096568.067938089
1718096568.068945,,,,-1.189169645,-1.190369606,88457.000000000,1718096568.068945169
1718096568.069952,,,,-1.295621157,-1.296580791,88458.000000000,1718096568.069952250
1718096568.070521,125.938224792,18271.000000000,1718096568.070521116,,,,
1718096568.070959,,,,-1.371589303,-1.372524858,88459.000000000,1718096568.070959330
1718096568.071966,,,,-1.461140275,-1.462965369,88460.000000000,1718096568.071966410
1718096568.072973,,,,-1.583001852,-1.584874988,88461.000000000,1718096568.072973490
1718096568.073981,,,,-1.663802147,-1.664569378,88462.000000000,1718096568.073980570
1718096568.074988,,,,-1.690511107,-1.693225622,88463.000000000,1718096568.074987650
1718096568.075521,126.321205139,18272.000000000,1718096568.075521231,,,,
1718096568.075995,,,,-1.692242026,-1.694668055,88464.000000000,1718096568.075994730
1718096568.077002,,,,-1.712652445,-1.715583444,88465.000000000,1718096568.077001810
1718096568.078009,,,,-1.724384308,-1.725199580,88466.000000000,1718096568.078008890
1718096568.079016,,,,-1.657551527,-1.659929514,88467.000000000,1718096568.079015970
1718096568.080521,126.737434387,18273.000000000,1718096568.080521107,,,,
1718096568.081030,,,,-1.308386683,-1.308096170,88469.000000000,1718096568.081030130
1718096568.082037,,,,-1.167893767,-1.165704012,88470.000000000,1718096568.082037210
1718096568.083044,,,,-1.095916390,-1.096443295,88471.000000000,1718096568.083044291
1718096568.084051,,,,-1.145752430,-1.148827553,88472.000000000,1718096568.084051371
1718096568.085058,,,,-1.279153466,-1.280112982,88473.000000000,1718096568.085058451
1718096568.085521,127.020416260,18274.000000000,1718096568.085521221,,,,
1718096568.086066,,,,-1.321272492,-1.326246738,88474.000000000,1718096568.086065531
1718096568.087073,,,,-1.355938911,-1.358893871,88475.000000000,1718096568.087072611
1718096568.088080,,,,-1.367045641,-1.366875291,88476.000000000,1718096568.088079691
1718096568.089087,,,,-1.353655100,-1.353701115,88477.000000000,1718096568.089086771
1718096568.090094,,,,-1.359328628,-1.358989954,88478.000000000,1718096568.090093851
1718096568.090521,127.386573792,18275.000000000,1718096568.090521097,,,,
1718096568.091101,,,,-1.337043047,-1.338363171,88479.000000000,1718096568.091100931
1718096568.092108,,,,-1.257084250,-1.256721497,88480.000000000,1718096568.092108011
1718096568.093115,,,,-1.174336672,-1.174190402,88481.000000000,1718096568.093115091
1718096568.094122,,,,-1.188376307,-1.188037753,88482.000000000,1718096568.094122171
1718096568.095129,,,,-1.188592672,-1.187653065,88483.000000000,1718096568.095129251
1718096568.095521,127.785964966,18276.000000000,1718096568.095521212,,,,
1718096568.096136,,,,-1.108994484,-1.108199120,88484.000000000,1718096568.096136332
1718096568.097143,,,,-1.080939174,-1.081393838,88485.000000000,1718096568.097143412
1718096568.098150,,,,-1.058389068,-1.060719013,88486.000000000,1718096568.098150492
1718096568.099158,,,,-1.015043974,-1.015666962,88487.000000000,1718096568.099157572
1718096568.100165,,,,-0.989921629,-0.990592718,88488.000000000,1718096568.100164652
1718096568.100521,128.318359375,18277.000000000,1718096568.100521088,,,,
1718096568.101172,,,,-1.071419120,-1.071489215,88489.000000000,1718096568.101171732
1718096568.102179,,,,-1.166884065,-1.167531133,88490.000000000,1718096568.102178812
1718096568.103186,,,,-1.220278144,-1.219458699,88491.000000000,1718096568.103185892
1718096568.104193,,,,-1.288024426,-1.286483765,88492.000000000,1718096568.104192972
1718096568.105200,,,,-1.280211210,-1.280714035,88493.000000000,1718096568.105200052
1718096568.105521,129.033584595,18278.000000000,1718096568.105521202,,,,
1718096568.106207,,,,-1.284658670,-1.287325144,88494.000000000,1718096568.106207132
1718096568.107214,,,,-1.310454249,-1.310404062,88495.000000000,1718096568.107214212
1718096568.108221,,,,-1.358126640,-1.358989954,88496.000000000,1718096568.108221292
1718096568.109228,,,,-1.413299680,-1.417721033,88497.000000000,1718096568.109228373
1718096568.110235,,,,-1.485180855,-1.489241719,88498.000000000,1718096568.110235453
1718096568.110521,129.731933594,18279.000000000,1718096568.110521078,,,,
1718096568.111243,,,,-1.465443611,-1.466018558,88499.000000000,1718096568.111242533
1718096568.112250,,,,-1.450442314,-1.452627897,88500.000000000,1718096568.112249613
1718096568.113257,,,,-1.462919354,-1.465201139,88501.000000000,1718096568.113256693
1718096568.114264,,,,-1.449504733,-1.448156357,88502.000000000,1718096568.114263773
1718096568.115271,,,,-1.395798087,-1.398007870,88503.000000000,1718096568.115270853
1718096568.115521,130.513183594,18280.000000000,1718096568.115521193,,,,
1718096568.116278,,,,-1.246866941,-1.246143699,88504.000000000,1718096568.116277933
1718096568.117285,,,,-1.151257753,-1.149212241,88505.000000000,1718096568.117285013
1718096568.118292,,,,-1.112576485,-1.112382174,88506.000000000,1718096568.118292093
1718096568.119299,,,,-1.114475727,-1.115315080,88507.000000000,1718096568.119299173
1718096568.120306,,,,-1.195804834,-1.197677970,88508.000000000,1718096568.120306253
1718096568.121313,,,,-1.330528021,-1.331944346,88509.000000000,1718096568.121313334
1718096568.123327,,,,-1.466236949,-1.467220545,88511.000000000,1718096568.123327494
1718096568.124335,,,,-1.454024315,-1.453757882,88512.000000000,1718096568.124334574
1718096568.125342,,,,-1.396399140,-1.396036506,88513.000000000,1718096568.125341654
1718096568.126349,,,,-1.294779778,-1.294032454,88514.000000000,1718096568.126348734
1718096568.127356,,,,-1.217946172,-1.218136430,88515.000000000,1718096568.127355814
1718096568.128363,,,,-1.120413661,-1.121565580,88516.000000000,1718096568.128362894
1718096568.129370,,,,-1.007110596,-1.006892204,88517.000000000,1718096568.129369974
1718096568.130377,,,,-1.035839081,-1.034466743,88518.000000000,1718096568.130377054
1718096568.131384,,,,-1.143853188,-1.143682957,88519.000000000,1718096568.131384134
1718096568.132391,,,,-1.284298062,-1.281819820,88520.000000000,1718096568.132391214
1718096568.133398,,,,-1.362429857,-1.362860560,88521.000000000,1718096568.133398294
1718096568.134405,,,,-1.455106139,-1.457219720,88522.000000000,1718096568.134405375
1718096568.135412,,,,-1.529487610,-1.529221058,88523.000000000,1718096568.135412455
1718096568.136420,,,,-1.465996504,-1.466763735,88524.000000000,1718096568.136419535
1718096568.137427,,,,-1.412410140,-1.414114952,88525.000000000,1718096568.137426615
1718096568.138434,,,,-1.337235332,-1.338170886,88526.000000000,1718096568.138433695
1718096568.139441,,,,-1.218667388,-1.216693997,88527.000000000,1718096568.139440775
1718096568.140448,,,,-1.172028780,-1.171666145,88528.000000000,1718096568.140447855
1718096568.141455,,,,-1.234774590,-1.235734105,88529.000000000,1718096568.141454935
1718096568.142462,,,,-1.390340924,-1.391805410,88530.000000000,1718096568.142462015
1718096568.143469,,,,-1.552326083,-1.553862691,88531.000000000,1718096568.143469095
1718096568.144476,,,,-1.716667295,-1.714814067,88532.000000000,1718096568.144476175
1718096568.145483,,,,-1.775638700,-1.774723172,88533.000000000,1718096568.145483255
1718096568.146490,,,,-1.789894700,-1.789267659,88534.000000000,1718096568.146490335
1718096568.147497,,,,-1.753136754,-1.754769444,88535.000000000,1718096568.147497416
1718096568.148504,,,,-1.685126066,-1.690989852,88536.000000000,1718096568.148504496
1718096568.149512,,,,-1.497441530,-1.499723315,88537.000000000,1718096568.149511576
1718096568.150519,,,,-1.310069561,-1.310307860,88538.000000000,1718096568.150518656
1718096568.151526,,,,-1.231481075,-1.230926037,88539.000000000,1718096568.151525736
1718096568.152533,,,,-1.238981724,-1.239700794,88540.000000000,1718096568.152532816
1718096568.153540,,,,-1.363151073,-1.364543319,88541.000000000,1718096568.153539896
1718096568.154547,,,,-1.514534354,-1.514652491,88542.000000000,1718096568.154546976
1718096568.155554,,,,-1.518885732,-1.519196153,88543.000000000,1718096568.155554056
1718096568.156561,,,,-1.466934085,-1.466234922,88544.000000000,1718096568.156561136
1718096568.157568,,,,-1.350361466,-1.349469900,88545.000000000,1718096568.157568216
1718096568.158575,,,,-1.175995469,-1.176378012,88546.000000000,1718096568.158575296
1718096568.159582,,,,-1.005139351,-1.005377650,88547.000000000,1718096568.159582376
1718096568.160589,,,,-0.831422329,-0.830482721,88548.000000000,1718096568.160589457
1718096568.161597,,,,-0.695400953,-0.695975900,88549.000000000,1718096568.161596537
1718096568.165117,136.869598389,18291.000000000,1718096568.165117264,,,,
1718096568.166632,,,,-1.137025714,-1.138970971,88554.000000000,1718096568.166631937
1718096568.167639,,,,-1.216383576,-1.216405511,88555.000000000,1718096568.167639017
1718096568.168646,,,,-1.252396345,-1.252851009,88556.000000000,1718096568.168646097
1718096568.169653,,,,-1.291462183,-1.290498495,88557.000000000,1718096568.169653177
1718096568.170117,137.515884399,18292.000000000,1718096568.170117378,,,,
1718096568.170660,,,,-1.332763791,-1.331223130,88558.000000000,1718096568.170660257
1718096568.171667,,,,-1.337235332,-1.336968899,88559.000000000,1718096568.171667337
1718096568.172674,,,,-1.309131980,-1.308937550,88560.000000000,1718096568.172674417
1718096568.173681,,,,-1.262877941,-1.262178779,88561.000000000,1718096568.173681498
1718096568.174689,,,,-1.213138103,-1.211116672,88562.000000000,1718096568.174688578
1718096568.175117,138.327621460,18293.000000000,1718096568.175117254,,,,
1718096568.175696,,,,-1.212609172,-1.214698672,88563.000000000,1718096568.175695658
1718096568.176703,,,,-1.350770235,-1.351128697,88564.000000000,1718096568.176702738
1718096568.177710,,,,-1.513813138,-1.512585044,88565.000000000,1718096568.177709818
1718096568.178717,,,,-1.616490364,-1.616488218,88566.000000000,1718096568.178716898
1718096568.179724,,,,-1.692650795,-1.693009257,88567.000000000,1718096568.179723978
1718096568.180117,139.105957031,18294.000000000,1718096568.180117369,,,,
1718096568.180731,,,,-1.741428971,-1.740128756,88568.000000000,1718096568.180731058
1718096568.181738,,,,-1.749819160,-1.749913335,88569.000000000,1718096568.181738138
1718096568.182745,,,,-1.657623649,-1.659641027,88570.000000000,1718096568.182745218
1718096568.183752,,,,-1.476333976,-1.476043463,88571.000000000,1718096568.183752298
1718096568.184759,,,,-1.298337817,-1.294609427,88572.000000000,1718096568.184759378
1718096568.185117,139.867477417,18295.000000000,1718096568.185117245,,,,
1718096568.185766,,,,-1.242227197,-1.241407752,88573.000000000,1718096568.185766459
1718096568.186774,,,,-1.258526683,-1.260952711,88574.000000000,1718096568.186773539
1718096568.187781,,,,-1.278696656,-1.279151320,88575.000000000,1718096568.187780619
1718096568.188788,,,,-1.276436806,-1.277372360,88576.000000000,1718096568.188787699
1718096568.189795,,,,-1.291654468,-1.293191075,88577.000000000,1718096568.189794779
1718096568.190117,140.529464722,18296.000000000,1718096568.190117359,,,,
1718096568.190802,,,,-1.257276535,-1.258332253,88578.000000000,1718096568.190801859
1718096568.191809,,,,-1.124428511,-1.124041796,88579.000000000,1718096568.191808939
1718096568.192816,,,,-0.978622615,-0.978115678,88580.000000000,1718096568.192816019
1718096568.195117,141.141662598,18297.000000000,1718096568.195117235,,,,
1718096568.200117,141.555191040,18298.000000000,1718096568.200117350,,,,
1718096568.204901,,,,-1.567423582,-1.569513083,88592.000000000,1718096568.204900980
1718096568.205117,141.952148438,18299.000000000,1718096568.205117226,,,,
1718096568.205908,,,,-1.612884283,-1.614949703,88593.000000000,1718096568.205908060
1718096568.206915,,,,-1.618942499,-1.618339419,88594.000000000,1718096568.206915140
1718096568.207922,,,,-1.587449312,-1.585067272,88595.000000000,1718096568.207922220
1718096568.208929,,,,-1.497297287,-1.498569369,88596.000000000,1718096568.208929300
1718096568.209936,,,,-1.379642844,-1.380241871,88597.000000000,1718096568.209936380
1718096568.210117,142.365554810,18300.000000000,1718096568.210117340,,,,
1718096568.210943,,,,-1.282302737,-1.283911347,88598.000000000,1718096568.210943460
1718096568.211951,,,,-1.230783820,-1.231935740,88599.000000000,1718096568.211950541
1718096568.212958,,,,-1.190972686,-1.192100525,88600.000000000,1718096568.212957621
1718096568.213965,,,,-1.203161240,-1.200707078,88601.000000000,1718096568.213964701
1718096568.214972,,,,-1.259969115,-1.258981347,88602.000000000,1718096568.214971781
1718096568.215979,,,,-1.264248252,-1.264847279,88603.000000000,1718096568.215978861
1718096568.216986,,,,-1.235736251,-1.236575603,88604.000000000,1718096568.216985941
1718096568.217993,,,,-1.305694222,-1.308625102,88605.000000000,1718096568.217993021
1718096568.219000,,,,-1.417602897,-1.419572234,88606.000000000,1718096568.219000101
1718096568.220007,,,,-1.477680206,-1.478399396,88607.000000000,1718096568.220007181
1718096568.221014,,,,-1.574154973,-1.573744178,88608.000000000,1718096568.221014261
1718096568.222021,,,,-1.668898702,-1.670867920,88609.000000000,1718096568.222021341
1718096568.223028,,,,-1.751045227,-1.754192472,88610.000000000,1718096568.223028421
1718096568.224036,,,,-1.715537310,-1.717939377,88611.000000000,1718096568.224035501
1718096568.225043,,,,-1.628510594,-1.631152987,88612.000000000,1718096568.225042582
1718096568.226050,,,,-1.535449624,-1.535495639,88613.000000000,1718096568.226049662
1718096568.227057,,,,-1.385893464,-1.385194182,88614.000000000,1718096568.227056742
1718096568.228064,,,,-1.246530414,-1.247634172,88615.000000000,1718096568.228063822
1718096568.229071,,,,-1.341610789,-1.343604088,88616.000000000,1718096568.229070902
1718096568.230078,,,,-1.466236949,-1.468446612,88617.000000000,1718096568.230077982
1718096568.231085,,,,-1.557158232,-1.557709098,88618.000000000,1718096568.231085062
1718096568.232092,,,,-1.657888174,-1.658967853,88619.000000000,1718096568.232092142
1718096568.233099,,,,-1.588915825,-1.588481069,88620.000000000,1718096568.233099222
1718096568.234106,,,,-1.471525788,-1.472725868,88621.000000000,1718096568.234106302
1718096568.235113,,,,-1.336490154,-1.337593913,88622.000000000,1718096568.235113382
1718096568.236120,,,,-1.114139080,-1.114377499,88623.000000000,1718096568.236120462
1718096568.237128,,,,-1.054037809,-1.054107904,88624.000000000,1718096568.237127542
1718096568.238135,,,,-1.095892310,-1.093606472,88625.000000000,1718096568.238134623
1718096568.239142,,,,-1.160200834,-1.157938957,88626.000000000,1718096568.239141703
1718096568.240149,,,,-1.305742264,-1.305115104,88627.000000000,1718096568.240148783
1718096568.241156,,,,-1.494556665,-1.494722962,88628.000000000,1718096568.241155863
1718096568.242163,,,,-1.576510906,-1.578335881,88629.000000000,1718096568.242162943
1718096568.243170,,,,-1.590887189,-1.590115786,88630.000000000,1718096568.243170023
1718096568.244177,,,,-1.547734380,-1.547227502,88631.000000000,1718096568.244177103
1718096568.245184,,,,-1.390677452,-1.389593601,88632.000000000,1718096568.245184183
1718096568.246191,,,,-1.252011657,-1.249821901,88633.000000000,1718096568.246191263
1718096568.247198,,,,-1.222778320,-1.223593712,88634.000000000,1718096568.247198343
1718096568.248205,,,,-1.219196320,-1.218424916,88635.000000000,1718096568.248205423
1718096568.249213,,,,-1.284298062,-1.281651616,88636.000000000,1718096568.249212503
1718096568.250220,,,,-1.296390533,-1.296941400,88637.000000000,1718096568.250219584
1718096568.251227,,,,-1.261243224,-1.263116360,88638.000000000,1718096568.251226664
1718096568.252234,,,,-1.322089791,-1.323746562,88639.000000000,1718096568.252233744
1718096568.253241,,,,-1.458664179,-1.460417032,88640.000000000,1718096568.253240824
1718096568.254248,,,,-1.498787761,-1.501021504,88641.000000000,1718096568.254247904
1718096568.255255,,,,-1.403611302,-1.405604601,88642.000000000,1718096568.255254984
1718096568.256262,,,,-1.285692453,-1.288551211,88643.000000000,1718096568.256262064
1718096568.257269,,,,-1.223908305,-1.225492835,88644.000000000,1718096568.257269144
1718096568.258276,,,,-1.028025866,-1.028047919,88645.000000000,1718096568.258276224
1718096568.259283,,,,-0.838297963,-0.838920951,88646.000000000,1718096568.259283304
1718096568.260290,,,,-0.810290694,-0.809831917,88647.000000000,1718096568.260290384
1718096568.261297,,,,-0.898832023,-0.895512402,88648.000000000,1718096568.261297464
1718096568.262305,,,,-0.981122792,-0.979894698,88649.000000000,1718096568.262304544
1718096568.263312,,,,-1.020116568,-1.021412730,88650.000000000,1718096568.263311625
1718096568.264319,,,,-1.198425293,-1.201308131,88651.000000000,1718096568.264318705
1718096568.265326,,,,-1.439864397,-1.440896153,88652.000000000,1718096568.265325785
1718096568.266333,,,,-1.495253801,-1.495540261,88653.000000000,1718096568.266332865
1718096568.267340,,,,-1.465467572,-1.462749004,88654.000000000,1718096568.267339945
1718096568.268347,,,,-1.448687315,-1.446305275,88655.000000000,1718096568.268347025
1718096568.269354,,,,-1.422314882,-1.423178315,88656.000000000,1718096568.269354105
1718096568.269708,145.703216553,18311.000000000,1718096568.269707680,,,,
1718096568.270361,,,,-1.374690533,-1.376034737,88657.000000000,1718096568.270361185
1718096568.271368,,,,-1.302809358,-1.300956130,88658.000000000,1718096568.271368265
1718096568.272375,,,,-1.259800792,-1.258091807,88659.000000000,1718096568.272375345
1718096568.273382,,,,-1.277398467,-1.278117657,88660.000000000,1718096568.273382425
1718096568.274390,,,,-1.266748548,-1.267780185,88661.000000000,1718096568.274389505
1718096568.274708,146.248046875,18312.000000000,1718096568.274707794,,,,
1718096568.275397,,,,-1.131496429,-1.131061673,88662.000000000,1718096568.275396585
1718096568.276404,,,,-0.988960028,-0.986818373,88663.000000000,1718096568.276403666
1718096568.277411,,,,-0.910515726,-0.911595523,88664.000000000,1718096568.277410746
1718096568.278418,,,,-0.903159320,-0.906739295,88665.000000000,1718096568.278417826
1718096568.279425,,,,-0.972179711,-0.971047759,88666.000000000,1718096568.279424906
1718096568.279708,146.908248901,18313.000000000,1718096568.279707670,,,,
1718096568.280432,,,,-1.044998527,-1.046174526,88667.000000000,1718096568.280431986
1718096568.281439,,,,-1.103344917,-1.104833364,88668.000000000,1718096568.281439066
1718096568.282446,,,,-1.139838457,-1.143418431,88669.000000000,1718096568.282446146
1718096568.283453,,,,-1.148420930,-1.149404526,88670.000000000,1718096568.283453226
1718096568.284460,,,,-1.174817443,-1.173781633,88671.000000000,1718096568.284460306
1718096568.284708,147.452819824,18314.000000000,1718096568.284707785,,,,
1718096568.285467,,,,-1.217970252,-1.217295051,88672.000000000,1718096568.285467386
1718096568.286474,,,,-1.262445211,-1.263933659,88673.000000000,1718096568.286474466
1718096568.287482,,,,-1.313266993,-1.312591791,88674.000000000,1718096568.287481546
1718096568.288489,,,,-1.378873587,-1.378558993,88675.000000000,1718096568.288488626
1718096568.289496,,,,-1.425584316,-1.425822735,88676.000000000,1718096568.289495707
1718096568.289708,148.013732910,18315.000000000,1718096568.289707661,,,,
1718096568.290503,,,,-1.432628274,-1.431376100,88677.000000000,1718096568.290502787
1718096568.291510,,,,-1.410703301,-1.409090519,88678.000000000,1718096568.291509867
1718096568.292517,,,,-1.347476602,-1.347811103,88679.000000000,1718096568.292516947
1718096568.293524,,,,-1.318748236,-1.319178820,88680.000000000,1718096568.293524027
1718096568.294531,,,,-1.279081345,-1.278598428,88681.000000000,1718096568.294531107
1718096568.294708,148.459091187,18316.000000000,1718096568.294707775,,,,
1718096568.295538,,,,-1.223691940,-1.225276470,88682.000000000,1718096568.295538187
1718096568.296545,,,,-1.279922724,-1.279127359,88683.000000000,1718096568.296545267
1718096568.297552,,,,-1.385821342,-1.385290384,88684.000000000,1718096568.297552347
1718096568.298559,,,,-1.426329613,-1.425414085,88685.000000000,1718096568.298559427
1718096568.299567,,,,-1.509317636,-1.509580016,88686.000000000,1718096568.299566507
1718096568.299708,148.706451416,18317.000000000,1718096568.299707651,,,,
1718096568.300574,,,,-1.676952243,-1.677286744,88687.000000000,1718096568.300573587
1718096568.301581,,,,-1.825114131,-1.824438930,88688.000000000,1718096568.301580667
1718096568.302588,,,,-1.828047037,-1.826530457,88689.000000000,1718096568.302587748
1718096568.303595,,,,-1.739000916,-1.738133430,88690.000000000,1718096568.303594828
1718096568.304602,,,,-1.676543593,-1.677551270,88691.000000000,1718096568.304601908
1718096568.304708,148.871368408,18318.000000000,1718096568.304707766,,,,
1718096568.305609,,,,-1.655436039,-1.653943419,88692.000000000,1718096568.305608988
1718096568.306616,,,,-1.461044192,-1.457652450,88693.000000000,1718096568.306616068
1718096568.307623,,,,-1.310574412,-1.308745265,88694.000000000,1718096568.307623148
1718096568.308630,,,,-1.302833319,-1.302855372,88695.000000000,1718096568.308630228
1718096568.309637,,,,-1.241289616,-1.242369294,88696.000000000,1718096568.309637308
1718096568.309708,148.821899414,18319.000000000,1718096568.309707642,,,,
1718096568.310644,,,,-1.218859792,-1.220131874,88697.000000000,1718096568.310644388
1718096568.311651,,,,-1.212296724,-1.211837888,88698.000000000,1718096568.311651468
1718096568.312659,,,,-1.222057104,-1.222704172,88699.000000000,1718096568.312658548
1718096568.313666,,,,-1.444408059,-1.444430113,88700.000000000,1718096568.313665628
1718096568.314673,,,,-1.659546971,-1.662021041,88701.000000000,1718096568.314672709
1718096568.314708,148.706451416,18320.000000000,1718096568.314707756,,,,
1718096568.315680,,,,-1.729072213,-1.727243066,88702.000000000,1718096568.315679789
1718096568.316687,,,,-1.651950121,-1.651755691,88703.000000000,1718096568.316686869
1718096568.317694,,,,-1.566053271,-1.567830205,88704.000000000,1718096568.317693949
1718096568.318701,,,,-1.453783870,-1.455296397,88705.000000000,1718096568.318701029
1718096568.319563,148.459091187,18322.000000000,1718096568.319563389,,,,
1718096568.319708,,,,-1.452846289,-1.453445315,88706.000000000,1718096568.319708109
1718096568.320715,,,,-1.382311344,-1.382044911,88707.000000000,1718096568.320715189
1718096568.321722,,,,-1.207007766,-1.205875754,88708.000000000,1718096568.321722269
1718096568.322729,,,,-1.099546552,-1.099736810,88709.000000000,1718096568.322729349
1718096568.323736,,,,-1.166114807,-1.165415525,88710.000000000,1718096568.323736429
1718096568.324563,148.475585938,18323.000000000,1718096568.324563265,,,,
1718096568.324744,,,,-1.196526051,-1.196331739,88711.000000000,1718096568.324743509
1718096568.325751,,,,-1.168110132,-1.165607929,88712.000000000,1718096568.325750589
1718096568.326758,,,,-1.203233361,-1.201861024,88713.000000000,1718096568.326757669
1718096568.327765,,,,-1.321801305,-1.321582913,88714.000000000,1718096568.327764750
1718096568.328772,,,,-1.388393641,-1.386804938,88715.000000000,1718096568.328771830
1718096568.329563,148.310638428,18324.000000000,1718096568.329563379,,,,
1718096568.329779,,,,-1.427435517,-1.426904559,88716.000000000,1718096568.329778910
1718096568.330786,,,,-1.541363597,-1.543477178,88717.000000000,1718096568.330785990
1718096568.331793,,,,-1.585814595,-1.584634542,88718.000000000,1718096568.331793070
1718096568.332800,,,,-1.511601448,-1.507656693,88719.000000000,1718096568.332800150
1718096568.333807,,,,-1.448158383,-1.448637247,88720.000000000,1718096568.333807230
1718096568.334563,148.343627930,18325.000000000,1718096568.334563255,,,,
1718096568.334814,,,,-1.345192790,-1.345358968,88721.000000000,1718096568.334814310
1718096568.335821,,,,-1.239558697,-1.238618970,88722.000000000,1718096568.335821390
1718096568.336828,,,,-1.137867093,-1.138970971,88723.000000000,1718096568.336828470
1718096568.337836,,,,-0.996196210,-0.997131765,88724.000000000,1718096568.337835550
1718096568.338843,,,,-0.806444228,-0.808245242,88725.000000000,1718096568.338842630
1718096568.339563,148.360122681,18326.000000000,1718096568.339563370,,,,
1718096568.339850,,,,-0.765214682,-0.767376304,88726.000000000,1718096568.339849710
1718096568.340857,,,,-0.835461140,-0.835531235,88727.000000000,1718096568.340856791
1718096568.341864,,,,-0.921021461,-0.923880219,88728.000000000,1718096568.341863871
1718096568.342871,,,,-1.003985405,-1.003742933,88729.000000000,1718096568.342870951
1718096568.343878,,,,-1.067837000,-1.067546487,88730.000000000,1718096568.343878031
1718096568.344563,148.393096924,18327.000000000,1718096568.344563246,,,,
1718096568.344885,,,,-1.113586187,-1.115339160,88731.000000000,1718096568.344885111
1718096568.345892,,,,-1.125606418,-1.127239227,88732.000000000,1718096568.345892191
1718096568.346899,,,,-1.099690795,-1.101467729,88733.000000000,1718096568.346899271
1718096568.347906,,,,-1.113778472,-1.114786148,88734.000000000,1718096568.347906351
1718096568.348913,,,,-1.147916079,-1.149572849,88735.000000000,1718096568.348913431
1718096568.349563,148.393096924,18328.000000000,1718096568.349563360,,,,
1718096568.349921,,,,-1.186332941,-1.186114430,88736.000000000,1718096568.349920511
1718096568.350928,,,,-1.206671238,-1.207582712,88737.000000000,1718096568.350927591
1718096568.351935,,,,-1.227105618,-1.228185415,88738.000000000,1718096568.351934671
1718096568.352942,,,,-1.260858536,-1.258933306,88739.000000000,1718096568.352941751
1718096568.353949,,,,-1.266628265,-1.265424252,88740.000000000,1718096568.353948832
1718096568.354563,148.475585938,18329.000000000,1718096568.354563236,,,,
1718096568.354956,,,,-1.270114183,-1.269775510,88741.000000000,1718096568.354955912
1718096568.355963,,,,-1.285980940,-1.282901645,88742.000000000,1718096568.355962992
1718096568.356970,,,,-1.271652818,-1.272035360,88743.000000000,1718096568.356970072
1718096568.357977,,,,-1.281028628,-1.284007549,88744.000000000,1718096568.357977152
1718096568.358984,,,,-1.284562588,-1.288503170,88745.000000000,1718096568.358984232
1718096568.359563,148.492065430,18330.000000000,1718096568.359563351,,,,
1718096568.359991,,,,-1.257613063,-1.259029388,88746.000000000,1718096568.359991312
1718096568.360998,,,,-1.187727213,-1.189744592,88747.000000000,1718096568.360998392
1718096568.362005,,,,-1.164840579,-1.169117808,88748.000000000,1718096568.362005472
1718096568.363013,,,,-1.220181942,-1.220011592,88749.000000000,1718096568.363012552
1718096568.364020,,,,-1.244486928,-1.242898226,88750.000000000,1718096568.364019632
1718096568.364563,148.426086426,18331.000000000,1718096568.364563227,,,,
1718096568.365027,,,,-1.258021832,-1.255663753,88751.000000000,1718096568.365026712
1718096568.366034,,,,-1.285428047,-1.284608603,88752.000000000,1718096568.366033792
1718096568.367041,,,,-1.294948101,-1.292469859,88753.000000000,1718096568.367040873
1718096568.368048,,,,-1.322450399,-1.321775198,88754.000000000,1718096568.368047953
1718096568.369055,,,,-1.444768667,-1.447170734,88755.000000000,1718096568.369055033
1718096568.369563,148.327133179,18332.000000000,1718096568.369563341,,,,
1718096568.370062,,,,-1.588819623,-1.592015028,88756.000000000,1718096568.370062113
1718096568.371069,,,,-1.679404378,-1.678705215,88757.000000000,1718096568.371069193
1718096568.372076,,,,-1.872570157,-1.872520089,88758.000000000,1718096568.372076273
1718096568.373083,,,,-2.088454247,-2.090279341,88759.000000000,1718096568.373083353
1718096568.374090,,,,-2.183558702,-2.186561584,88760.000000000,1718096568.374090433
1718096568.374563,148.063217163,18333.000000000,1718096568.374563217,,,,
1718096568.375098,,,,-2.221206188,-2.220915556,88761.000000000,1718096568.375097513
1718096568.376105,,,,-2.226639271,-2.229690313,88762.000000000,1718096568.376104593
1718096568.377112,,,,-2.069846869,-2.070734262,88763.000000000,1718096568.377111673
1718096568.378119,,,,-1.762560606,-1.762101889,88764.000000000,1718096568.378118753
1718096568.379126,,,,-1.544056177,-1.543453097,88765.000000000,1718096568.379125834
1718096568.379563,147.617797852,18334.000000000,1718096568.379563332,,,,
1718096568.380133,,,,-1.167388916,-1.167843699,88766.000000000,1718096568.380132914
1718096568.381140,,,,-0.803823829,-0.803316891,88767.000000000,1718096568.381139994
1718096568.382147,,,,-0.689438879,-0.688114643,88768.000000000,1718096568.382147074
1718096568.383154,,,,-0.748770952,-0.750668108,88769.000000000,1718096568.383154154
1718096568.384161,,,,-0.982180595,-0.984967232,88770.000000000,1718096568.384161234
1718096568.384563,147.221817017,18335.000000000,1718096568.384563208,,,,
1718096568.385168,,,,-1.232226253,-1.232128024,88771.000000000,1718096568.385168314
1718096568.386175,,,,-1.391831398,-1.392238140,88772.000000000,1718096568.386175394
1718096568.387182,,,,-1.489219666,-1.488424301,88773.000000000,1718096568.387182474
1718096568.388190,,,,-1.530978084,-1.529677868,88774.000000000,1718096568.388189554
1718096568.389197,,,,-1.550763488,-1.549126625,88775.000000000,1718096568.389196634
1718096568.389563,146.957778931,18336.000000000,1718096568.389563322,,,,
1718096568.390204,,,,-1.629111648,-1.630047083,88776.000000000,1718096568.390203714
1718096568.391211,,,,-1.688876390,-1.691038013,88777.000000000,1718096568.391210794
1718096568.392218,,,,-1.650844216,-1.652380824,88778.000000000,1718096568.392217875
1718096568.393225,,,,-1.455226302,-1.457460046,88779.000000000,1718096568.393224955
1718096568.394232,,,,-1.221528292,-1.223329186,88780.000000000,1718096568.394232035
1718096568.394563,146.660690308,18337.000000000,1718096568.394563198,,,,
1718096568.395239,,,,-1.064567566,-1.063988566,88781.000000000,1718096568.395239115
1718096568.396246,,,,-0.976458967,-0.976961732,88782.000000000,1718096568.396246195
1718096568.397253,,,,-0.910443604,-0.910585821,88783.000000000,1718096568.397253275
1718096568.398260,,,,-0.937272847,-0.937463105,88784.000000000,1718096568.398260355
1718096568.399267,,,,-0.994200885,-0.994871974,88785.000000000,1718096568.399267435
1718096568.399563,146.644195557,18338.000000000,1718096568.399563313,,,,
1718096568.400275,,,,-1.236842036,-1.235854387,88786.000000000,1718096568.400274515
1718096568.401282,,,,-1.547445893,-1.548742056,88787.000000000,1718096568.401281595
1718096568.402289,,,,-1.884181738,-1.884973049,88788.000000000,1718096568.402288675
1718096568.403296,,,,-2.150551081,-2.152400017,88789.000000000,1718096568.403295755
1718096568.404303,,,,-2.214330435,-2.216996908,88790.000000000,1718096568.404302835
1718096568.404563,146.875244141,18339.000000000,1718096568.404563189,,,,
1718096568.405310,,,,-2.083790302,-2.084918261,88791.000000000,1718096568.405309916
1718096568.406317,,,,-1.780110240,-1.781165957,88792.000000000,1718096568.406316996
1718096568.407324,,,,-1.467607260,-1.468206167,88793.000000000,1718096568.407324076
1718096568.408331,,,,-1.127553701,-1.126734376,88794.000000000,1718096568.408331156
1718096568.409338,,,,-0.688765764,-0.685085535,88795.000000000,1718096568.409338236
1718096568.409563,147.386810303,18340.000000000,1718096568.409563303,,,,
1718096568.410345,,,,-0.407299101,-0.405638248,88796.000000000,1718096568.410345316
1718096568.411352,,,,-0.555172443,-0.555098295,88797.000000000,1718096568.411352396
1718096568.412359,,,,-0.945590913,-0.945204198,88798.000000000,1718096568.412359476
1718096568.413367,,,,-1.273720264,-1.273117185,88799.000000000,1718096568.413366556
1718096568.414374,,,,-1.417963505,-1.417937398,88800.000000000,1718096568.414373636
1718096568.415381,,,,-1.438037395,-1.440078735,88801.000000000,1718096568.415380716
1718096568.416388,,,,-1.377815843,-1.377933979,88802.000000000,1718096568.416387796
1718096568.417395,,,,-1.162244201,-1.162434578,88803.000000000,1718096568.417394876
1718096568.418344,147.964248657,18341.000000000,1718096568.418344259,,,,
1718096568.418402,,,,-0.992710352,-0.992588103,88804.000000000,1718096568.418401957
1718096568.419409,,,,-0.890369773,-0.891016781,88805.000000000,1718096568.419409037
1718096568.420416,,,,-0.790313005,-0.793171823,88806.000000000,1718096568.420416117
1718096568.421423,,,,-0.785697222,-0.788267493,88807.000000000,1718096568.421423197
1718096568.422430,,,,-0.884912550,-0.886256754,88808.000000000,1718096568.422430277
1718096568.423344,148.821899414,18342.000000000,1718096568.423344374,,,,
1718096568.423437,,,,-1.013601542,-1.012974501,88809.000000000,1718096568.423437357
1718096568.424444,,,,-1.079496741,-1.082619905,88810.000000000,1718096568.424444437
1718096568.425452,,,,-1.111975431,-1.114954472,88811.000000000,1718096568.425451517
1718096568.426459,,,,-1.127866268,-1.128561378,88812.000000000,1718096568.426458597
1718096568.427466,,,,-1.155440807,-1.154116511,88813.000000000,1718096568.427465677
1718096568.428344,149.877044678,18343.000000000,1718096568.428344250,,,,
1718096568.428473,,,,-1.171788335,-1.171738267,88814.000000000,1718096568.428472757
1718096568.429480,,,,-1.193881631,-1.193518996,88815.000000000,1718096568.429479837
1718096568.430487,,,,-1.219220400,-1.218136430,88816.000000000,1718096568.430486917
1718096568.431494,,,,-1.225735307,-1.224603415,88817.000000000,1718096568.431493998
1718096568.432501,,,,-1.242539644,-1.242657781,88818.000000000,1718096568.432501078
1718096568.433344,150.964691162,18344.000000000,1718096568.433344364,,,,
1718096568.433508,,,,-1.280331373,-1.277588725,88819.000000000,1718096568.433508158
1718096568.434515,,,,-1.308603048,-1.310452104,88820.000000000,1718096568.434515238
1718096568.435522,,,,-1.306920290,-1.306966305,88821.000000000,1718096568.435522318
1718096568.436529,,,,-1.304059386,-1.301965833,88822.000000000,1718096568.436529398
1718096568.437536,,,,-1.325984359,-1.324107170,88823.000000000,1718096568.437536478
1718096568.438344,151.887176514,18345.000000000,1718096568.438344240,,,,
1718096568.438544,,,,-1.321176291,-1.322808981,88824.000000000,1718096568.438543558
1718096568.439551,,,,-1.240616441,-1.242273211,88825.000000000,1718096568.439550638
1718096568.440558,,,,-1.221840739,-1.221381903,88826.000000000,1718096568.440557718
1718096568.441565,,,,-1.227706671,-1.228521943,88827.000000000,1718096568.441564798
1718096568.442572,,,,-1.231312752,-1.231046200,88828.000000000,1718096568.442571878
1718096568.443344,152.825775146,18346.000000000,1718096568.443344355,,,,
1718096568.443579,,,,-1.246121764,-1.246985078,88829.000000000,1718096568.443578959
1718096568.444586,,,,-1.253670454,-1.252706766,88830.000000000,1718096568.444586039
1718096568.445593,,,,-1.239847183,-1.242345333,88831.000000000,1718096568.445593119
1718096568.446600,,,,-1.298097372,-1.298528075,88832.000000000,1718096568.446600199
1718096568.447607,,,,-1.440032721,-1.438395977,88833.000000000,1718096568.447607279
1718096568.448344,153.385467529,18347.000000000,1718096568.448344231,,,,
1718096568.448614,,,,-1.638174891,-1.635071635,88834.000000000,1718096568.448614359
1718096568.449621,,,,-1.768618822,-1.768232226,88835.000000000,1718096568.449621439
1718096568.450629,,,,-1.924738169,-1.925890088,88836.000000000,1718096568.450628519
1718096568.451636,,,,-2.191636324,-2.192788124,88837.000000000,1718096568.451635599
1718096568.452643,,,,-2.470121861,-2.470985413,88838.000000000,1718096568.452642679
1718096568.453344,153.780456543,18348.000000000,1718096568.453344345,,,,
1718096568.453650,,,,-2.483512402,-2.484977007,88839.000000000,1718096568.453649759
1718096568.454657,,,,-2.360785484,-2.363548040,88840.000000000,1718096568.454656839
1718096568.455664,,,,-2.050854921,-2.051646233,88841.000000000,1718096568.455663919
1718096568.456671,,,,-1.683539391,-1.682647824,88842.000000000,1718096568.456671000
1718096568.457678,,,,-1.377984047,-1.377188683,88843.000000000,1718096568.457678080
1718096568.458344,153.813385010,18349.000000000,1718096568.458344221,,,,
1718096568.458685,,,,-1.067428350,-1.070888162,88844.000000000,1718096568.458685160
1718096568.459692,,,,-0.870536327,-0.871543944,88845.000000000,1718096568.459692240
1718096568.460699,,,,-0.789086938,-0.787762642,88846.000000000,1718096568.460699320
1718096568.461706,,,,-0.690232217,-0.687393427,88847.000000000,1718096568.461706400
1718096568.462713,,,,-0.676432967,-0.677224278,88848.000000000,1718096568.462713480
1718096568.463344,153.632354736,18350.000000000,1718096568.463344336,,,,
1718096568.463721,,,,-0.805602789,-0.808245242,88849.000000000,1718096568.463720560
1718096568.464728,,,,-0.900995672,-0.902796686,88850.000000000,1718096568.464727640
1718096568.465735,,,,-0.946047664,-0.946911037,88851.000000000,1718096568.465734720
1718096568.466742,,,,-1.009562731,-1.009993434,88852.000000000,1718096568.466741800
1718096568.467749,,,,-1.104354620,-1.103607297,88853.000000000,1718096568.467748880
1718096568.468344,153.418380737,18351.000000000,1718096568.468344212,,,,
1718096568.468756,,,,-1.289058089,-1.291676521,88854.000000000,1718096568.468755960
1718096568.469763,,,,-1.528117299,-1.529197097,88855.000000000,1718096568.469763041
1718096568.470770,,,,-1.667191863,-1.666805148,88856.000000000,1718096568.470770121
1718096568.471777,,,,-1.809247375,-1.809125185,88857.000000000,1718096568.471777201
1718096568.472784,,,,-2.011596680,-2.007579803,88858.000000000,1718096568.472784281
1718096568.473344,153.122100830,18352.000000000,1718096568.473344326,,,,
1718096568.473791,,,,-2.100426435,-2.099438667,88859.000000000,1718096568.473791361
1718096568.474798,,,,-2.166057110,-2.168939829,88860.000000000,1718096568.474798441
1718096568.475806,,,,-2.150719166,-2.154515505,88861.000000000,1718096568.475805521
1718096568.476813,,,,-1.964909911,-1.966590643,88862.000000000,1718096568.476812601
1718096568.477820,,,,-1.703252673,-1.704092026,88863.000000000,1718096568.477819681
1718096568.478344,153.006851196,18353.000000000,1718096568.478344202,,,,
1718096568.478827,,,,-1.382960439,-1.383006573,88864.000000000,1718096568.478826761
1718096568.479834,,,,-1.122625470,-1.122262836,88865.000000000,1718096568.479833841
1718096568.480841,,,,-0.976699352,-0.976985812,88866.000000000,1718096568.480840921
1718096568.481848,,,,-0.820459843,-0.821371377,88867.000000000,1718096568.481848001
1718096568.482855,,,,-0.669581413,-0.672368050,88868.000000000,1718096568.482855082
1718096568.483344,153.023315430,18354.000000000,1718096568.483344316,,,,
1718096568.483862,,,,-0.589286029,-0.593298733,88869.000000000,1718096568.483862162
1718096568.484869,,,,-0.686674237,-0.687633812,88870.000000000,1718096568.484869242
1718096568.485876,,,,-0.846111119,-0.847527444,88871.000000000,1718096568.485876322
1718096568.486883,,,,-0.949918211,-0.952488482,88872.000000000,1718096568.486883402
1718096568.487890,,,,-1.029420257,-1.031341434,88873.000000000,1718096568.487890482
1718096568.488344,153.056259155,18355.000000000,1718096568.488344193,,,,
1718096568.488898,,,,-1.079785228,-1.074999094,88874.000000000,1718096568.488897562
1718096568.489905,,,,-1.098729134,-1.095577836,88875.000000000,1718096568.489904642
1718096568.490912,,,,-1.098368526,-1.096683621,88876.000000000,1718096568.490911722
1718096568.491919,,,,-1.101061106,-1.100626349,88877.000000000,1718096568.491918802
1718096568.492926,,,,-1.136208296,-1.135557175,88878.000000000,1718096568.492925882
1718096568.493344,153.319625854,18356.000000000,1718096568.493344307,,,,
1718096568.493933,,,,-1.190179348,-1.191018701,88879.000000000,1718096568.493932962
1718096568.494940,,,,-1.184121132,-1.184888363,88880.000000000,1718096568.494940042
1718096568.495947,,,,-1.159142971,-1.159405470,88881.000000000,1718096568.495947123
1718096568.496954,,,,-1.205204725,-1.206573009,88882.000000000,1718096568.496954203
1718096568.497961,,,,-1.306631804,-1.307903886,88883.000000000,1718096568.497961283
1718096568.498344,153.829849243,18357.000000000,1718096568.498344183,,,,
1718096568.498968,,,,-1.389427423,-1.390987992,88884.000000000,1718096568.498968363
1718096568.499975,,,,-1.408756018,-1.409330964,88885.000000000,1718096568.499975443
1718096568.500983,,,,-1.397384763,-1.398969412,88886.000000000,1718096568.500982523
1718096568.501990,,,,-1.421281099,-1.421759844,88887.000000000,1718096568.501989603
1718096568.502997,,,,-1.673057675,-1.674353838,88888.000000000,1718096568.502996683
1718096568.503344,154.339950562,18358.000000000,1718096568.503344297,,,,
1718096568.504004,,,,-1.844755292,-1.846267819,88889.000000000,1718096568.504003763
1718096568.505011,,,,-1.781672835,-1.779891849,88890.000000000,1718096568.505010843
1718096568.506018,,,,-1.712388039,-1.713467836,88891.000000000,1718096568.506017923
1718096568.507025,,,,-1.693251729,-1.693201661,88892.000000000,1718096568.507025003
1718096568.508032,,,,-1.575741649,-1.575883746,88893.000000000,1718096568.508032084
1718096568.508344,154.948654175,18359.000000000,1718096568.508344173,,,,
1718096568.509039,,,,-1.389715910,-1.390098453,88894.000000000,1718096568.509039164
1718096568.510046,,,,-1.247299671,-1.249317050,88895.000000000,1718096568.510046244
1718096568.511053,,,,-1.105628729,-1.106708527,88896.000000000,1718096568.511053324
1718096568.512060,,,,-0.954533994,-0.954435766,88897.000000000,1718096568.512060404
1718096568.513067,,,,-0.991099656,-0.989727259,88898.000000000,1718096568.513067484
1718096568.513344,155.590103149,18360.000000000,1718096568.513344288,,,,
1718096568.514075,,,,-1.177990794,-1.176354051,88899.000000000,1718096568.514074564
1718096568.515082,,,,-1.313026547,-1.312255144,88900.000000000,1718096568.515081644
1718096568.516089,,,,-1.324085236,-1.322640657,88901.000000000,1718096568.516088724
1718096568.517096,,,,-1.272830725,-1.272179604,88902.000000000,1718096568.517095804
1718096568.518103,,,,-1.224172711,-1.223473430,88903.000000000,1718096568.518102884
1718096568.519110,,,,-1.214099765,-1.216525793,88904.000000000,1718096568.519109964
1718096568.520117,,,,-1.221095562,-1.226214051,88905.000000000,1718096568.520117044
1718096568.521124,,,,-1.162556767,-1.163492322,88906.000000000,1718096568.521124125
1718096568.522131,,,,-1.082790256,-1.082235336,88907.000000000,1718096568.522131205
1718096568.523138,,,,-0.997446358,-0.997444272,88908.000000000,1718096568.523138285
1718096568.524145,,,,-0.964029968,-0.966672421,88909.000000000,1718096568.524145365
1718096568.525152,,,,-1.013914108,-1.016652703,88910.000000000,1718096568.525152445
1718096568.526160,,,,-1.086252093,-1.085096121,88911.000000000,1718096568.526159525
1718096568.527167,,,,-1.147363186,-1.145173430,88912.000000000,1718096568.527166605
1718096568.528174,,,,-1.191814184,-1.193278551,88913.000000000,1718096568.528173685
1718096568.529181,,,,-1.221191645,-1.221021295,88914.000000000,1718096568.529180765
1718096568.530188,,,,-1.235447764,-1.235036969,88915.000000000,1718096568.530187845
1718096568.531195,,,,-1.240760684,-1.242946267,88916.000000000,1718096568.531194925
1718096568.532202,,,,-1.266772509,-1.267900348,88917.000000000,1718096568.532202005
1718096568.533209,,,,-1.286750197,-1.289008021,88918.000000000,1718096568.533209085
1718096568.534216,,,,-1.323364019,-1.324323535,88919.000000000,1718096568.534216166
1718096568.535223,,,,-1.387335896,-1.387021303,88920.000000000,1718096568.535223246
1718096568.536230,,,,-1.476141572,-1.475057721,88921.000000000,1718096568.536230326
1718096568.537237,,,,-1.591656446,-1.592640042,88922.000000000,1718096568.537237406
1718096568.542273,,,,-1.440874100,-1.441617370,88927.000000000,1718096568.542272806
1718096568.543280,,,,-1.281725764,-1.278430104,88928.000000000,1718096568.543279886
1718096568.544287,,,,-1.192294955,-1.193326592,88929.000000000,1718096568.544286966
1718096568.545294,,,,-1.140415430,-1.143178105,88930.000000000,1718096568.545294046
1718096568.546301,,,,-1.184698105,-1.183494091,88931.000000000,1718096568.546301126
1718096568.547308,,,,-1.347428560,-1.345935941,88932.000000000,1718096568.547308207
1718096568.548315,,,,-1.510471582,-1.510156989,88933.000000000,1718096568.548315287
1718096568.549322,,,,-1.531771421,-1.533115625,88934.000000000,1718096568.549322367
1718096568.550329,,,,-1.468520761,-1.469191909,88935.000000000,1718096568.550329447
