__time,/gdx/grip_force_stream/grip_force,/gdx/grip_force_stream/header/seq,/gdx/grip_force_stream/header/stamp,/shimmer0/emg_stream/emg_ch1,/shimmer0/emg_stream/emg_ch2,/shimmer0/emg_stream/header/seq,/shimmer0/emg_stream/header/stamp
1718096646.687659,,,,-0.800626397,-0.800840735,138499.000000000,1718096646.687658548
1718096646.688666,,,,-0.798030019,-0.799590647,138500.000000000,1718096646.688665628
1718096646.689673,,,,-0.800698519,-0.798460722,138501.000000000,1718096646.689672709
1718096646.690680,,,,-0.800554276,-0.799879134,138502.000000000,1718096646.690679789
1718096646.691687,,,,-0.795049012,-0.795551836,138503.000000000,1718096646.691686869
1718096646.692640,1.422540784,28396.000000000,1718096646.692639589,,,,
1718096646.692694,,,,-0.791827559,-0.792907357,138504.000000000,1718096646.692693949
1718096646.693701,,,,-0.787884951,-0.788219452,138505.000000000,1718096646.693701029
1718096646.694708,,,,-0.789014816,-0.786969304,138506.000000000,1718096646.694708109
1718096646.695715,,,,-0.790505350,-0.791368783,138507.000000000,1718096646.695715189
1718096646.696722,,,,-0.791130424,-0.792162120,138508.000000000,1718096646.696722269
1718096646.697639,1.387199044,28397.000000000,1718096646.697639465,,,,
1718096646.697729,,,,-0.786466539,-0.787065506,138509.000000000,1718096646.697729349
1718096646.698736,,,,-0.789495647,-0.788940668,138510.000000000,1718096646.698736429
1718096646.699744,,,,-0.790457249,-0.789806128,138511.000000000,1718096646.699743509
1718096646.700751,,,,-0.791899681,-0.791176438,138512.000000000,1718096646.700750589
1718096646.701758,,,,-0.794544160,-0.794253647,138513.000000000,1718096646.701757669
1718096646.702640,1.404865861,28398.000000000,1718096646.702639580,,,,
1718096646.702765,,,,-0.795698106,-0.794013202,138514.000000000,1718096646.702764750
1718096646.703772,,,,-0.795385599,-0.794854641,138515.000000000,1718096646.703771830
1718096646.704779,,,,-0.794976890,-0.796994269,138516.000000000,1718096646.704778910
1718096646.705786,,,,-0.801467836,-0.800552249,138517.000000000,1718096646.705785990
1718096646.706793,,,,-0.801347613,-0.801922560,138518.000000000,1718096646.706793070
1718096646.707639,1.440207362,28399.000000000,1718096646.707639456,,,,
1718096646.707800,,,,-0.804545045,-0.803941965,138519.000000000,1718096646.707800150
1718096646.708807,,,,-0.802597761,-0.802836120,138520.000000000,1718096646.708807230
1718096646.709814,,,,-0.799063802,-0.801730216,138521.000000000,1718096646.709814310
1718096646.710821,,,,-0.798030019,-0.799470425,138522.000000000,1718096646.710821390
1718096646.711828,,,,-0.793943167,-0.793868959,138523.000000000,1718096646.711828470
1718096646.711829,1.387199044,28401.000000000,1718096646.711828709,,,,
1718096646.712640,1.404865861,28400.000000000,1718096646.712639570,,,,
1718096646.712836,,,,-0.787957072,-0.790503323,138524.000000000,1718096646.712835550
1718096646.713843,,,,-0.787452221,-0.789181054,138525.000000000,1718096646.713842630
1718096646.714850,,,,-0.785480857,-0.784829736,138526.000000000,1718096646.714849710
1718096646.715857,,,,-0.781153560,-0.780406237,138527.000000000,1718096646.715856791
1718096646.716829,1.440207362,28402.000000000,1718096646.716828823,,,,
1718096646.716864,,,,-0.780408323,-0.778987885,138528.000000000,1718096646.716863871
1718096646.717871,,,,-0.779110134,-0.779733121,138529.000000000,1718096646.717870951
1718096646.718878,,,,-0.785120249,-0.786079824,138530.000000000,1718096646.718878031
1718096646.719885,,,,-0.788702309,-0.789806128,138531.000000000,1718096646.719885111
1718096646.720892,,,,-0.792356491,-0.794109404,138532.000000000,1718096646.720892191
1718096646.721829,1.422540784,28403.000000000,1718096646.721828699,,,,
1718096646.721899,,,,-0.799135923,-0.798003972,138533.000000000,1718096646.721899271
1718096646.722906,,,,-0.802862167,-0.802018702,138534.000000000,1718096646.722906351
1718096646.723913,,,,-0.797356904,-0.797042310,138535.000000000,1718096646.723913431
1718096646.724921,,,,-0.793558478,-0.790335000,138536.000000000,1718096646.724920511
1718096646.725928,,,,-0.794207573,-0.793748796,138537.000000000,1718096646.725927591
1718096646.726829,1.440207362,28404.000000000,1718096646.726828814,,,,
1718096646.726935,,,,-0.800193667,-0.798653066,138538.000000000,1718096646.726934671
1718096646.727942,,,,-0.801467836,-0.801585972,138539.000000000,1718096646.727941751
1718096646.728949,,,,-0.805338383,-0.803268850,138540.000000000,1718096646.728948832
1718096646.729956,,,,-0.813223660,-0.814808309,138541.000000000,1718096646.729955912
1718096646.730963,,,,-0.810218573,-0.809134722,138542.000000000,1718096646.730962992
1718096646.731829,1.440207362,28405.000000000,1718096646.731828690,,,,
1718096646.731970,,,,-0.808511734,-0.808004797,138543.000000000,1718096646.731970072
1718096646.732977,,,,-0.810290694,-0.811009884,138544.000000000,1718096646.732977152
1718096646.733984,,,,-0.809353113,-0.812019587,138545.000000000,1718096646.733984232
1718096646.734991,,,,-0.801107228,-0.801634073,138546.000000000,1718096646.734991312
1718096646.735998,,,,-0.794688404,-0.793340087,138547.000000000,1718096646.735998392
1718096646.736829,1.404865861,28406.000000000,1718096646.736828804,,,,
1718096646.737005,,,,-0.792741120,-0.788892567,138548.000000000,1718096646.737005472
1718096646.738013,,,,-0.790216863,-0.791128337,138549.000000000,1718096646.738012552
1718096646.739020,,,,-0.787812829,-0.789397418,138550.000000000,1718096646.739019632
1718096646.740027,,,,-0.785120249,-0.787281871,138551.000000000,1718096646.740026712
1718096646.741034,,,,-0.792043924,-0.794397891,138552.000000000,1718096646.741033792
1718096646.741829,1.422540784,28407.000000000,1718096646.741828680,,,,
1718096646.742041,,,,-0.800049424,-0.801778316,138553.000000000,1718096646.742040873
1718096646.743048,,,,-0.792741120,-0.793267965,138554.000000000,1718096646.743047953
1718096646.744055,,,,-0.780576587,-0.779805243,138555.000000000,1718096646.744055033
1718096646.745062,,,,-0.775215566,-0.773506641,138556.000000000,1718096646.745062113
1718096646.746069,,,,-0.780240059,-0.779035926,138557.000000000,1718096646.746069193
1718096646.746829,1.457873702,28408.000000000,1718096646.746828794,,,,
1718096646.747076,,,,-0.790048599,-0.787233770,138558.000000000,1718096646.747076273
1718096646.748083,,,,-0.790361106,-0.787642479,138559.000000000,1718096646.748083353
1718096646.749090,,,,-0.787860870,-0.789373398,138560.000000000,1718096646.749090433
1718096646.750098,,,,-0.789135039,-0.790887952,138561.000000000,1718096646.750097513
1718096646.751105,,,,-0.790024519,-0.788051128,138562.000000000,1718096646.751104593
1718096646.751829,1.440207362,28409.000000000,1718096646.751828671,,,,
1718096646.752112,,,,-0.789207160,-0.789012790,138563.000000000,1718096646.752111673
1718096646.753119,,,,-0.787932992,-0.789421499,138564.000000000,1718096646.753118753
1718096646.754126,,,,-0.788846552,-0.790383101,138565.000000000,1718096646.754125834
1718096646.755133,,,,-0.800121546,-0.801081121,138566.000000000,1718096646.755132914
1718096646.756140,,,,-0.818536639,-0.816370904,138567.000000000,1718096646.756139994
1718096646.757147,,,,-0.828825951,-0.829689384,138568.000000000,1718096646.757147074
1718096646.758154,,,,-0.831638694,-0.833559930,138569.000000000,1718096646.758154154
1718096646.759161,,,,-0.833658099,-0.836108208,138570.000000000,1718096646.759161234
1718096646.760168,,,,-0.836735308,-0.832862735,138571.000000000,1718096646.760168314
1718096646.761175,,,,-0.828513443,-0.826155424,138572.000000000,1718096646.761175394
1718096646.761829,1.457873702,28411.000000000,1718096646.761828661,,,,
1718096646.762182,,,,-0.818656802,-0.816827714,138573.000000000,1718096646.762182474
1718096646.763190,,,,-0.810963869,-0.811250269,138574.000000000,1718096646.763189554
1718096646.764197,,,,-0.799256086,-0.798220336,138575.000000000,1718096646.764196634
1718096646.765204,,,,-0.782115221,-0.780863047,138576.000000000,1718096646.765203714
1718096646.766211,,,,-0.761824965,-0.762375832,138577.000000000,1718096646.766210794
1718096646.766829,1.475540042,28412.000000000,1718096646.766828775,,,,
1718096646.767218,,,,-0.750982702,-0.751317203,138578.000000000,1718096646.767217875
1718096646.768225,,,,-0.749660432,-0.752663493,138579.000000000,1718096646.768224955
1718096646.769232,,,,-0.751126945,-0.754827142,138580.000000000,1718096646.769232035
1718096646.770239,,,,-0.753579080,-0.754586697,138581.000000000,1718096646.770239115
1718096646.771246,,,,-0.757810235,-0.756533980,138582.000000000,1718096646.771246195
1718096646.771829,1.493206143,28413.000000000,1718096646.771828651,,,,
1718096646.772253,,,,-0.763002992,-0.761197865,138583.000000000,1718096646.772253275
1718096646.773260,,,,-0.762546182,-0.762015224,138584.000000000,1718096646.773260355
1718096646.774267,,,,-0.764733911,-0.766823351,138585.000000000,1718096646.774267435
1718096646.775275,,,,-0.768772721,-0.771391034,138586.000000000,1718096646.775274515
1718096646.776282,,,,-0.774975181,-0.776151061,138587.000000000,1718096646.776281595
1718096646.776829,1.528538108,28414.000000000,1718096646.776828766,,,,
1718096646.777289,,,,-0.779687107,-0.778555155,138588.000000000,1718096646.777288675
1718096646.778296,,,,-0.777018607,-0.775862575,138589.000000000,1718096646.778295755
1718096646.779303,,,,-0.775119424,-0.774420142,138590.000000000,1718096646.779302835
1718096646.780310,,,,-0.778172553,-0.779516757,138591.000000000,1718096646.780309916
1718096646.781317,,,,-0.780672789,-0.778891683,138592.000000000,1718096646.781316996
1718096646.781829,1.634538293,28415.000000000,1718096646.781828642,,,,
1718096646.782324,,,,-0.776633978,-0.775790453,138593.000000000,1718096646.782324076
1718096646.783331,,,,-0.777763844,-0.777401209,138594.000000000,1718096646.783331156
1718096646.784338,,,,-0.785216451,-0.784589291,138595.000000000,1718096646.784338236
1718096646.785345,,,,-0.785817444,-0.785983682,138596.000000000,1718096646.785345316
1718096646.786352,,,,-0.788678288,-0.789565742,138597.000000000,1718096646.786352396
1718096646.786829,1.687540531,28416.000000000,1718096646.786828756,,,,
1718096646.787359,,,,-0.794904768,-0.796104729,138598.000000000,1718096646.787359476
1718096646.788367,,,,-0.794303775,-0.795143127,138599.000000000,1718096646.788366556
1718096646.789374,,,,-0.798102140,-0.796753824,138600.000000000,1718096646.789373636
1718096646.790381,,,,-0.805025816,-0.802667797,138601.000000000,1718096646.790380716
1718096646.791388,,,,-0.805146039,-0.804230452,138602.000000000,1718096646.791387796
1718096646.791829,1.811188579,28417.000000000,1718096646.791828632,,,,
1718096646.792395,,,,-0.801684201,-0.800239742,138603.000000000,1718096646.792394876
1718096646.793402,,,,-0.796010613,-0.796561539,138604.000000000,1718096646.793401957
1718096646.794409,,,,-0.788101315,-0.788171351,138605.000000000,1718096646.794409037
1718096646.795416,,,,-0.779614985,-0.779901385,138606.000000000,1718096646.795416117
1718096646.796423,,,,-0.767570674,-0.770766020,138607.000000000,1718096646.796423197
1718096646.796829,1.846523404,28418.000000000,1718096646.796828747,,,,
1718096646.797430,,,,-0.765887856,-0.766558886,138608.000000000,1718096646.797430277
1718096646.798437,,,,-0.766657114,-0.767207980,138609.000000000,1718096646.798437357
1718096646.799444,,,,-0.771873951,-0.771391034,138610.000000000,1718096646.799444437
1718096646.800452,,,,-0.771873951,-0.772232473,138611.000000000,1718096646.800451517
1718096646.801459,,,,-0.772643209,-0.772496939,138612.000000000,1718096646.801458597
1718096646.801829,1.934837580,28419.000000000,1718096646.801828623,,,,
1718096646.802466,,,,-0.774277985,-0.774372101,138613.000000000,1718096646.802465677
1718096646.803473,,,,-0.773821235,-0.773819149,138614.000000000,1718096646.803472757
1718096646.804480,,,,-0.769878566,-0.768530250,138615.000000000,1718096646.804479837
1718096646.805487,,,,-0.779086113,-0.779300392,138616.000000000,1718096646.805486917
1718096646.806494,,,,-0.785601079,-0.786392331,138617.000000000,1718096646.806493998
1718096646.806829,1.881849527,28420.000000000,1718096646.806828737,,,,
1718096646.807501,,,,-0.781153560,-0.779925466,138618.000000000,1718096646.807501078
1718096646.808508,,,,-0.775480032,-0.775309682,138619.000000000,1718096646.808508158
1718096646.809515,,,,-0.780841053,-0.779949486,138620.000000000,1718096646.809515238
1718096646.810522,,,,-0.786057830,-0.786945283,138621.000000000,1718096646.810522318
1718096646.811529,,,,-0.782403708,-0.784925878,138622.000000000,1718096646.811529398
1718096646.812536,,,,-0.780913174,-0.782834351,138623.000000000,1718096646.812536478
1718096646.813544,,,,-0.781730533,-0.782209277,138624.000000000,1718096646.813543558
1718096646.814551,,,,-0.779350519,-0.778386831,138625.000000000,1718096646.814550638
1718096646.815558,,,,-0.775864661,-0.773001790,138626.000000000,1718096646.815557718
1718096646.816565,,,,-0.781081438,-0.782497764,138627.000000000,1718096646.816564798
1718096646.817572,,,,-0.793366194,-0.795359492,138628.000000000,1718096646.817571878
1718096646.818579,,,,-0.793029606,-0.794373810,138629.000000000,1718096646.818578959
1718096646.819586,,,,-0.797356904,-0.796585560,138630.000000000,1718096646.819586039
1718096646.820593,,,,-0.811877370,-0.810384810,138631.000000000,1718096646.820593119
1718096646.821600,,,,-0.821036816,-0.819688499,138632.000000000,1718096646.821600199
1718096646.822607,,,,-0.815146923,-0.815818012,138633.000000000,1718096646.822607279
1718096646.823614,,,,-0.806324005,-0.808942378,138634.000000000,1718096646.823614359
1718096646.824621,,,,-0.802982390,-0.806490242,138635.000000000,1718096646.824621439
1718096646.825629,,,,-0.805843234,-0.807211459,138636.000000000,1718096646.825628519
1718096646.826636,,,,-0.794063330,-0.790936053,138637.000000000,1718096646.826635599
1718096646.827643,,,,-0.764277101,-0.764299095,138638.000000000,1718096646.827642679
1718096646.828650,,,,-0.757545769,-0.758793831,138639.000000000,1718096646.828649759
1718096646.829657,,,,-0.763099134,-0.760043919,138640.000000000,1718096646.829656839
1718096646.830664,,,,-0.769109249,-0.767688811,138641.000000000,1718096646.830663919
1718096646.831671,,,,-0.774398208,-0.775429845,138642.000000000,1718096646.831671000
1718096646.832678,,,,-0.775239587,-0.775838554,138643.000000000,1718096646.832678080
1718096646.833685,,,,-0.769397736,-0.767977297,138644.000000000,1718096646.833685160
1718096646.834692,,,,-0.766272485,-0.765260696,138645.000000000,1718096646.834692240
1718096646.835699,,,,-0.759396911,-0.762207568,138646.000000000,1718096646.835699320
1718096646.836706,,,,-0.759781539,-0.762135446,138647.000000000,1718096646.836706400
1718096646.837713,,,,-0.760598898,-0.761029601,138648.000000000,1718096646.837713480
1718096646.838721,,,,-0.764613688,-0.764611602,138649.000000000,1718096646.838720560
1718096646.839728,,,,-0.766705215,-0.766462743,138650.000000000,1718096646.839727640
1718096646.840735,,,,-0.776682019,-0.778050303,138651.000000000,1718096646.840734720
1718096646.841742,,,,-0.796900153,-0.798412621,138652.000000000,1718096646.841741800
1718096646.842749,,,,-0.817142248,-0.818342268,138653.000000000,1718096646.842748880
1718096646.843756,,,,-0.821421504,-0.822381079,138654.000000000,1718096646.843755960
1718096646.844763,,,,-0.816589355,-0.818774998,138655.000000000,1718096646.844763041
1718096646.845770,,,,-0.818656802,-0.819568336,138656.000000000,1718096646.845770121
1718096646.846777,,,,-0.818801045,-0.818029702,138657.000000000,1718096646.846777201
1718096646.847619,2.641271114,28427.000000000,1718096646.847619295,,,,
1718096646.847784,,,,-0.814497828,-0.814904451,138658.000000000,1718096646.847784281
1718096646.848791,,,,-0.817671180,-0.817380607,138659.000000000,1718096646.848791361
1718096646.849798,,,,-0.836086214,-0.832718492,138660.000000000,1718096646.849798441
1718096646.850806,,,,-0.848635375,-0.850171924,138661.000000000,1718096646.850805521
1718096646.851813,,,,-0.848875761,-0.848897755,138662.000000000,1718096646.851812601
1718096646.852619,2.764864922,28428.000000000,1718096646.852619410,,,,
1718096646.852820,,,,-0.832119524,-0.834401309,138663.000000000,1718096646.852819681
1718096646.853827,,,,-0.828104734,-0.830626965,138664.000000000,1718096646.853826761
1718096646.854834,,,,-0.832239747,-0.833199322,138665.000000000,1718096646.854833841
1718096646.855841,,,,-0.839475930,-0.839209437,138666.000000000,1718096646.855840921
1718096646.856848,,,,-0.847241044,-0.848032296,138667.000000000,1718096646.856848001
1718096646.857619,2.976739645,28429.000000000,1718096646.857619286,,,,
1718096646.857855,,,,-0.846495748,-0.846998572,138668.000000000,1718096646.857855082
1718096646.858862,,,,-0.829883754,-0.828799903,138669.000000000,1718096646.858862162
1718096646.859869,,,,-0.816757619,-0.817164242,138670.000000000,1718096646.859869242
1718096646.860876,,,,-0.805963397,-0.807043195,138671.000000000,1718096646.860876322
1718096646.861883,,,,-0.799039721,-0.797619283,138672.000000000,1718096646.861883402
1718096646.862619,3.047362804,28430.000000000,1718096646.862619400,,,,
1718096646.862890,,,,-0.794183552,-0.797378898,138673.000000000,1718096646.862890482
1718096646.863898,,,,-0.811204255,-0.815769911,138674.000000000,1718096646.863897562
1718096646.864905,,,,-0.885826111,-0.886689484,138675.000000000,1718096646.864904642
1718096646.865912,,,,-0.940662563,-0.939746976,138676.000000000,1718096646.865911722
1718096646.866919,,,,-0.951168299,-0.950108469,138677.000000000,1718096646.866918802
1718096646.867619,3.206246138,28431.000000000,1718096646.867619276,,,,
1718096646.867926,,,,-0.928714454,-0.928856611,138678.000000000,1718096646.867925882
1718096646.868933,,,,-0.897197247,-0.896786511,138679.000000000,1718096646.868932962
1718096646.869940,,,,-0.865415692,-0.865942538,138680.000000000,1718096646.869940042
1718096646.870947,,,,-0.846591949,-0.848104417,138681.000000000,1718096646.870947123
1718096646.871954,,,,-0.834739923,-0.836540937,138682.000000000,1718096646.871954203
1718096646.872619,3.471028328,28432.000000000,1718096646.872619390,,,,
1718096646.872961,,,,-0.805939376,-0.808341384,138683.000000000,1718096646.872961283
1718096646.873968,,,,-0.791587174,-0.793316066,138684.000000000,1718096646.873968363
1718096646.874975,,,,-0.824979484,-0.824761093,138685.000000000,1718096646.874975443
1718096646.875983,,,,-0.860102713,-0.860148728,138686.000000000,1718096646.875982523
1718096646.876990,,,,-0.889432192,-0.888107896,138687.000000000,1718096646.876989603
1718096646.877619,3.735778570,28433.000000000,1718096646.877619267,,,,
1718096646.877997,,,,-0.913112104,-0.913807213,138688.000000000,1718096646.877996683
1718096646.879004,,,,-0.934940934,-0.934866726,138689.000000000,1718096646.879003763
1718096646.880011,,,,-0.975497305,-0.974942327,138690.000000000,1718096646.880010843
1718096646.881018,,,,-1.022208095,-1.020210624,138691.000000000,1718096646.881017923
1718096646.882025,,,,-1.027593136,-1.026389122,138692.000000000,1718096646.882025003
1718096646.882619,4.088722706,28434.000000000,1718096646.882619381,,,,
1718096646.883032,,,,-1.009923339,-1.007877827,138693.000000000,1718096646.883032084
1718096646.884039,,,,-0.996244311,-0.995641232,138694.000000000,1718096646.884039164
1718096646.885046,,,,-0.974607825,-0.971793056,138695.000000000,1718096646.885046244
1718096646.886053,,,,-0.903736293,-0.898325145,138696.000000000,1718096646.886053324
1718096646.887060,,,,-0.815699816,-0.814519823,138697.000000000,1718096646.887060404
1718096646.887619,4.318111420,28435.000000000,1718096646.887619257,,,,
1718096646.888067,,,,-0.769638181,-0.771511257,138698.000000000,1718096646.888067484
1718096646.889075,,,,-0.758795857,-0.758889973,138699.000000000,1718096646.889074564
1718096646.890082,,,,-0.717662513,-0.717876792,138700.000000000,1718096646.890081644
1718096646.891089,,,,-0.659003556,-0.658328414,138701.000000000,1718096646.891088724
1718096646.892096,,,,-0.607268333,-0.608203828,138702.000000000,1718096646.892095804
1718096646.892619,4.829733372,28436.000000000,1718096646.892619371,,,,
1718096646.893103,,,,-0.577169538,-0.577023268,138703.000000000,1718096646.893102884
1718096646.894110,,,,-0.569212139,-0.568681180,138704.000000000,1718096646.894109964
1718096646.895117,,,,-0.596570313,-0.598587632,138705.000000000,1718096646.895117044
1718096646.896124,,,,-0.641550124,-0.642461658,138706.000000000,1718096646.896124125
1718096646.897131,,,,-0.711724460,-0.711361825,138707.000000000,1718096646.897131205
1718096646.897619,5.323591709,28437.000000000,1718096646.897619247,,,,
1718096646.898138,,,,-0.777355194,-0.776463628,138708.000000000,1718096646.898138285
1718096646.899145,,,,-0.817791343,-0.817044079,138709.000000000,1718096646.899145365
1718096646.900152,,,,-0.831037700,-0.829641283,138710.000000000,1718096646.900152445
1718096646.901160,,,,-0.858395815,-0.858297646,138711.000000000,1718096646.901159525
1718096646.902167,,,,-0.888230145,-0.888300240,138712.000000000,1718096646.902166605
1718096646.902619,5.870236874,28438.000000000,1718096646.902619362,,,,
1718096646.903174,,,,-0.884479821,-0.883444011,138713.000000000,1718096646.903173685
1718096646.904181,,,,-0.859213233,-0.857432187,138714.000000000,1718096646.904180765
1718096646.905188,,,,-0.859165132,-0.858345687,138715.000000000,1718096646.905187845
1718096646.906195,,,,-0.844404221,-0.844955146,138716.000000000,1718096646.906194925
1718096646.907202,,,,-0.769109249,-0.769900560,138717.000000000,1718096646.907202005
1718096646.907619,6.663509846,28439.000000000,1718096646.907619238,,,,
1718096646.908209,,,,-0.724393845,-0.725762129,138718.000000000,1718096646.908209085
1718096646.909216,,,,-0.714417040,-0.714679420,138719.000000000,1718096646.909216166
1718096646.910223,,,,-0.696338534,-0.697225988,138720.000000000,1718096646.910223246
1718096646.911230,,,,-0.722326338,-0.725521684,138721.000000000,1718096646.911230326
1718096646.911926,8.354843140,28441.000000000,1718096646.911926270,,,,
1718096646.912237,,,,-0.820123315,-0.820025086,138722.000000000,1718096646.912237406
1718096646.912619,7.474108219,28440.000000000,1718096646.912619352,,,,
1718096646.913244,,,,-0.852602065,-0.852575958,138723.000000000,1718096646.913244486
1718096646.914252,,,,-0.814425707,-0.816659391,138724.000000000,1718096646.914251566
1718096646.915259,,,,-0.827119112,-0.830194235,138725.000000000,1718096646.915258646
1718096646.916266,,,,-0.849596977,-0.852263451,138726.000000000,1718096646.916265726
1718096646.916926,9.393654823,28442.000000000,1718096646.916926384,,,,
1718096646.917273,,,,-0.812382221,-0.812259972,138727.000000000,1718096646.917272806
1718096646.918280,,,,-0.729754865,-0.730017304,138728.000000000,1718096646.918279886
1718096646.919287,,,,-0.661768258,-0.660395861,138729.000000000,1718096646.919286966
1718096646.920294,,,,-0.657032251,-0.657078266,138730.000000000,1718096646.920294046
1718096646.921301,,,,-0.662080765,-0.663256705,138731.000000000,1718096646.921301126
1718096646.921926,10.537527084,28443.000000000,1718096646.921926260,,,,
1718096646.922308,,,,-0.646214008,-0.645683050,138732.000000000,1718096646.922308207
1718096646.923315,,,,-0.663090467,-0.664242387,138733.000000000,1718096646.923315287
1718096646.924322,,,,-0.713888109,-0.715689123,138734.000000000,1718096646.924322367
1718096646.925329,,,,-0.765863776,-0.768410027,138735.000000000,1718096646.925329447
1718096646.926337,,,,-0.802333295,-0.803605378,138736.000000000,1718096646.926336527
1718096646.926926,11.839030266,28444.000000000,1718096646.926926374,,,,
1718096646.927344,,,,-0.805049896,-0.806009471,138737.000000000,1718096646.927343607
1718096646.928351,,,,-0.806732714,-0.809038579,138738.000000000,1718096646.928350687
1718096646.929358,,,,-0.785817444,-0.787738621,138739.000000000,1718096646.929357767
1718096646.930365,,,,-0.753266513,-0.751942277,138740.000000000,1718096646.930364847
1718096646.931372,,,,-0.750309527,-0.748913169,138741.000000000,1718096646.931371927
1718096646.931926,13.087027550,28445.000000000,1718096646.931926250,,,,
1718096646.932379,,,,-0.747304499,-0.748744845,138742.000000000,1718096646.932379007
1718096646.933386,,,,-0.745188892,-0.750019014,138743.000000000,1718096646.933386087
1718096646.934393,,,,-0.724393845,-0.726218879,138744.000000000,1718096646.934393167
1718096646.935400,,,,-0.698406041,-0.697826982,138745.000000000,1718096646.935400248
1718096646.936407,,,,-0.677394569,-0.677176178,138746.000000000,1718096646.936407328
1718096646.937414,,,,-0.676456988,-0.677945495,138747.000000000,1718096646.937414408
1718096646.938421,,,,-0.685424149,-0.684604704,138748.000000000,1718096646.938421488
1718096646.939429,,,,-0.706026852,-0.704438150,138749.000000000,1718096646.939428568
1718096646.940436,,,,-0.740645230,-0.742542386,138750.000000000,1718096646.940435648
1718096646.941443,,,,-0.751102865,-0.751437426,138751.000000000,1718096646.941442728
1718096646.942450,,,,-0.763219357,-0.762255669,138752.000000000,1718096646.942449808
1718096646.943457,,,,-0.770215154,-0.768890858,138753.000000000,1718096646.943456888
1718096646.944464,,,,-0.747304499,-0.748071730,138754.000000000,1718096646.944463968
1718096646.945471,,,,-0.721677244,-0.725834250,138755.000000000,1718096646.945471048
1718096646.946478,,,,-0.730115473,-0.735378325,138756.000000000,1718096646.946478128
1718096646.947485,,,,-0.733072460,-0.737397730,138757.000000000,1718096646.947485209
1718096646.948492,,,,-0.740981817,-0.741869271,138758.000000000,1718096646.948492289
1718096646.949499,,,,-0.749492168,-0.751245081,138759.000000000,1718096646.949499369
1718096646.950506,,,,-0.759733438,-0.759442925,138760.000000000,1718096646.950506449
1718096646.951514,,,,-0.763411641,-0.765380919,138761.000000000,1718096646.951513529
1718096646.952521,,,,-0.759565175,-0.761294007,138762.000000000,1718096646.952520609
1718096646.953528,,,,-0.731726229,-0.730906785,138763.000000000,1718096646.953527689
1718096646.954535,,,,-0.721893609,-0.721290588,138764.000000000,1718096646.954534769
1718096646.955542,,,,-0.739707649,-0.739513278,138765.000000000,1718096646.955541849
1718096646.956549,,,,-0.748242080,-0.745258987,138766.000000000,1718096646.956548929
1718096646.957556,,,,-0.732856095,-0.730978906,138767.000000000,1718096646.957556009
1718096646.958563,,,,-0.749371946,-0.749730527,138768.000000000,1718096646.958563089
1718096646.959570,,,,-0.824907362,-0.824280262,138769.000000000,1718096646.959570169
1718096646.960577,,,,-0.979319751,-0.977562785,138770.000000000,1718096646.960577250
1718096646.961584,,,,-1.141016483,-1.138177633,138771.000000000,1718096646.961584330
1718096646.961926,22.257537842,28451.000000000,1718096646.961926222,,,,
1718096646.962591,,,,-1.206526995,-1.203567863,138772.000000000,1718096646.962591410
1718096646.963598,,,,-1.219917536,-1.219723105,138773.000000000,1718096646.963598490
1718096646.964606,,,,-1.215325832,-1.216381550,138774.000000000,1718096646.964605570
1718096646.965613,,,,-1.145608187,-1.146303296,138775.000000000,1718096646.965612650
1718096646.966620,,,,-1.044133067,-1.046631217,138776.000000000,1718096646.966619730
1718096646.966926,23.901565552,28452.000000000,1718096646.966926336,,,,
1718096646.967627,,,,-0.946672738,-0.948161185,138777.000000000,1718096646.967626810
1718096646.968634,,,,-0.845341802,-0.845580161,138778.000000000,1718096646.968633890
1718096646.969641,,,,-0.699656129,-0.699029028,138779.000000000,1718096646.969640970
1718096646.970648,,,,-0.550821126,-0.550097883,138780.000000000,1718096646.970648050
1718096646.971655,,,,-0.470886320,-0.470956385,138781.000000000,1718096646.971655130
1718096646.971926,25.631656647,28453.000000000,1718096646.971926212,,,,
1718096646.972662,,,,-0.501682281,-0.503531337,138782.000000000,1718096646.972662210
1718096646.973669,,,,-0.568202436,-0.568657160,138783.000000000,1718096646.973669291
1718096646.974676,,,,-0.593036354,-0.593803585,138784.000000000,1718096646.974676371
1718096646.975683,,,,-0.606162488,-0.608227909,138785.000000000,1718096646.975683451
1718096646.976691,,,,-0.659436285,-0.659025550,138786.000000000,1718096646.976690531
1718096646.976926,27.290500641,28454.000000000,1718096646.976926327,,,,
1718096646.977698,,,,-0.712638021,-0.712611914,138787.000000000,1718096646.977697611
1718096646.978705,,,,-0.735236108,-0.734993696,138788.000000000,1718096646.978704691
1718096646.979712,,,,-0.742664635,-0.742085636,138789.000000000,1718096646.979711771
1718096646.980719,,,,-0.762498140,-0.762351811,138790.000000000,1718096646.980718851
1718096646.981726,,,,-0.850149930,-0.851566255,138791.000000000,1718096646.981725931
1718096646.981926,29.087564468,28455.000000000,1718096646.981926203,,,,
1718096646.982733,,,,-0.913737178,-0.911884010,138792.000000000,1718096646.982733011
1718096646.983740,,,,-0.917199016,-0.915514112,138793.000000000,1718096646.983740091
1718096646.984747,,,,-0.896524131,-0.895488322,138794.000000000,1718096646.984747171
1718096646.985754,,,,-0.809160829,-0.810456932,138795.000000000,1718096646.985754251
1718096646.986761,,,,-0.712157190,-0.712756157,138796.000000000,1718096646.986761332
1718096646.986926,30.900499344,28456.000000000,1718096646.986926317,,,,
1718096646.987768,,,,-0.636790097,-0.637268901,138797.000000000,1718096646.987768412
1718096646.988775,,,,-0.625467002,-0.624984145,138798.000000000,1718096646.988775492
1718096646.989783,,,,-0.654243529,-0.654674232,138799.000000000,1718096646.989782572
1718096646.990790,,,,-0.710690737,-0.709510684,138800.000000000,1718096646.990789652
1718096646.991797,,,,-0.753987730,-0.755139649,138801.000000000,1718096646.991796732
1718096646.991926,32.781501770,28457.000000000,1718096646.991926193,,,,
1718096646.996926,34.660812378,28458.000000000,1718096646.996926308,,,,
1718096647.001926,36.468906403,28459.000000000,1718096647.001926184,,,,
1718096647.006926,38.275440216,28460.000000000,1718096647.006926298,,,,
1718096647.009924,,,,-0.753555000,-0.752903879,138819.000000000,1718096647.009924173
1718096647.010931,,,,-0.776465654,-0.774852872,138820.000000000,1718096647.010931253
1718096647.011938,,,,-0.792693019,-0.792763114,138821.000000000,1718096647.011938334
1718096647.012945,,,,-0.820868552,-0.822429121,138822.000000000,1718096647.012945414
1718096647.013952,,,,-0.823873639,-0.825193822,138823.000000000,1718096647.013952494
1718096647.014960,,,,-0.755237877,-0.751749933,138824.000000000,1718096647.014959574
1718096647.015967,,,,-0.694078743,-0.693451643,138825.000000000,1718096647.015966654
1718096647.016974,,,,-0.725355446,-0.725305319,138826.000000000,1718096647.016973734
1718096647.017223,40.132442474,28461.000000000,1718096647.017222643,,,,
1718096647.017981,,,,-0.774662614,-0.775261581,138827.000000000,1718096647.017980814
1718096647.018988,,,,-0.814906478,-0.812500417,138828.000000000,1718096647.018987894
1718096647.019995,,,,-0.851928949,-0.851590335,138829.000000000,1718096647.019994974
1718096647.021002,,,,-0.886691570,-0.885703862,138830.000000000,1718096647.021002054
1718096647.022009,,,,-0.910395503,-0.906931639,138831.000000000,1718096647.022009134
1718096647.022223,41.918449402,28462.000000000,1718096647.022222757,,,,
1718096647.023016,,,,-0.913953543,-0.913013875,138832.000000000,1718096647.023016214
1718096647.024023,,,,-0.935277522,-0.935756266,138833.000000000,1718096647.024023294
1718096647.025030,,,,-0.930541515,-0.930130780,138834.000000000,1718096647.025030375
1718096647.026037,,,,-0.854982078,-0.857696593,138835.000000000,1718096647.026037455
1718096647.027045,,,,-0.775912762,-0.775670290,138836.000000000,1718096647.027044535
1718096647.027223,43.702915192,28463.000000000,1718096647.027222633,,,,
1718096647.028052,,,,-0.768267870,-0.767328203,138837.000000000,1718096647.028051615
1718096647.029059,,,,-0.787259877,-0.787810743,138838.000000000,1718096647.029058695
1718096647.030066,,,,-0.758819938,-0.758938074,138839.000000000,1718096647.030065775
1718096647.031073,,,,-0.676985919,-0.677055955,138840.000000000,1718096647.031072855
1718096647.032080,,,,-0.615922928,-0.614526510,138841.000000000,1718096647.032079935
1718096647.032223,45.433937073,28464.000000000,1718096647.032222748,,,,
1718096647.033087,,,,-0.578419685,-0.578225315,138842.000000000,1718096647.033087015
1718096647.034094,,,,-0.583780706,-0.584956646,138843.000000000,1718096647.034094095
1718096647.035101,,,,-0.630659759,-0.632965624,138844.000000000,1718096647.035101175
1718096647.036108,,,,-0.688934028,-0.691576481,138845.000000000,1718096647.036108255
1718096647.037115,,,,-0.737279594,-0.737493873,138846.000000000,1718096647.037115335
1718096647.037223,47.198093414,28465.000000000,1718096647.037222624,,,,
1718096647.038122,,,,-0.767089844,-0.765092432,138847.000000000,1718096647.038122416
1718096647.039129,,,,-0.768700600,-0.767424345,138848.000000000,1718096647.039129496
1718096647.040137,,,,-0.795289397,-0.792258263,138849.000000000,1718096647.040136576
1718096647.041144,,,,-0.866449416,-0.864716470,138850.000000000,1718096647.041143656
1718096647.042151,,,,-0.860222936,-0.859980464,138851.000000000,1718096647.042150736
1718096647.042223,49.047092438,28466.000000000,1718096647.042222738,,,,
1718096647.043158,,,,-0.824354410,-0.824785113,138852.000000000,1718096647.043157816
1718096647.044165,,,,-0.781514168,-0.782113135,138853.000000000,1718096647.044164896
1718096647.045172,,,,-0.720739663,-0.720689535,138854.000000000,1718096647.045171976
1718096647.046179,,,,-0.658763170,-0.658184171,138855.000000000,1718096647.046179056
1718096647.047186,,,,-0.661984622,-0.663785577,138856.000000000,1718096647.047186136
1718096647.047223,50.808162689,28467.000000000,1718096647.047222614,,,,
1718096647.048193,,,,-0.691386163,-0.694533467,138857.000000000,1718096647.048193216
1718096647.049200,,,,-0.681361258,-0.680589914,138858.000000000,1718096647.049200296
1718096647.050207,,,,-0.687106967,-0.686648130,138859.000000000,1718096647.050207376
1718096647.051214,,,,-0.711772561,-0.711962819,138860.000000000,1718096647.051214457
1718096647.052222,,,,-0.747857392,-0.746677399,138861.000000000,1718096647.052221537
1718096647.052223,52.653930664,28468.000000000,1718096647.052222729,,,,
1718096647.053229,,,,-0.785937667,-0.784613371,138862.000000000,1718096647.053228617
1718096647.054236,,,,-0.833682179,-0.833848417,138863.000000000,1718096647.054235697
1718096647.055243,,,,-0.856136024,-0.858634174,138864.000000000,1718096647.055242777
1718096647.056250,,,,-0.853419423,-0.853201032,138865.000000000,1718096647.056249857
1718096647.057223,54.463592529,28469.000000000,1718096647.057222605,,,,
1718096647.057257,,,,-0.868180335,-0.868442714,138866.000000000,1718096647.057256937
1718096647.058264,,,,-0.853924274,-0.854907930,138867.000000000,1718096647.058264017
1718096647.059271,,,,-0.836374700,-0.836180329,138868.000000000,1718096647.059271097
1718096647.060278,,,,-0.848683476,-0.848080397,138869.000000000,1718096647.060278177
1718096647.061285,,,,-0.868084192,-0.867577255,138870.000000000,1718096647.061285257
1718096647.062223,56.202831268,28470.000000000,1718096647.062222719,,,,
1718096647.062292,,,,-0.910539746,-0.913013875,138871.000000000,1718096647.062292337
1718096647.063299,,,,-0.972179711,-0.974557698,138872.000000000,1718096647.063299417
1718096647.064306,,,,-0.962251008,-0.964027941,138873.000000000,1718096647.064306498
1718096647.065314,,,,-0.923545718,-0.924505293,138874.000000000,1718096647.065313578
1718096647.066321,,,,-0.890874624,-0.890848517,138875.000000000,1718096647.066320658
1718096647.067223,57.992187500,28471.000000000,1718096647.067222595,,,,
1718096647.067328,,,,-0.815459430,-0.814014971,138876.000000000,1718096647.067327738
1718096647.068335,,,,-0.800578356,-0.799951255,138877.000000000,1718096647.068334818
1718096647.069342,,,,-0.924315035,-0.924889922,138878.000000000,1718096647.069341898
1718096647.070349,,,,-1.082573891,-1.084350824,138879.000000000,1718096647.070348978
1718096647.071356,,,,-1.180178523,-1.181306362,138880.000000000,1718096647.071356058
1718096647.072223,59.556598663,28472.000000000,1718096647.072222710,,,,
1718096647.072363,,,,-1.225518942,-1.227392077,138881.000000000,1718096647.072363138
1718096647.073370,,,,-1.197968483,-1.201981187,138882.000000000,1718096647.073370218
1718096647.074377,,,,-1.115172863,-1.117478728,138883.000000000,1718096647.074377298
1718096647.075384,,,,-0.983839393,-0.985544205,138884.000000000,1718096647.075384378
1718096647.076391,,,,-0.818224072,-0.817140222,138885.000000000,1718096647.076391459
1718096647.077223,61.154163361,28473.000000000,1718096647.077222586,,,,
1718096647.077399,,,,-0.632871509,-0.631595314,138886.000000000,1718096647.077398539
1718096647.078406,,,,-0.436580479,-0.436914980,138887.000000000,1718096647.078405619
1718096647.079413,,,,-0.317098975,-0.314404368,138888.000000000,1718096647.079412699
1718096647.080420,,,,-0.370541096,-0.370034188,138889.000000000,1718096647.080419779
1718096647.081427,,,,-0.480815083,-0.479971588,138890.000000000,1718096647.081426859
1718096647.082223,62.630367279,28474.000000000,1718096647.082222700,,,,
1718096647.082434,,,,-0.541589558,-0.540505707,138891.000000000,1718096647.082433939
1718096647.083441,,,,-0.582458496,-0.581398666,138892.000000000,1718096647.083441019
1718096647.084448,,,,-0.638184488,-0.639095962,138893.000000000,1718096647.084448099
1718096647.085455,,,,-0.644579232,-0.646163881,138894.000000000,1718096647.085455179
1718096647.086462,,,,-0.626428664,-0.624383152,138895.000000000,1718096647.086462259
1718096647.087223,64.019783020,28475.000000000,1718096647.087222576,,,,
1718096647.087469,,,,-0.628544211,-0.628421962,138896.000000000,1718096647.087469339
1718096647.088476,,,,-0.657344759,-0.658520699,138897.000000000,1718096647.088476419
1718096647.089483,,,,-0.667610109,-0.669074535,138898.000000000,1718096647.089483500
1718096647.090491,,,,-0.681265116,-0.684195995,138899.000000000,1718096647.090490580
1718096647.091498,,,,-0.708647311,-0.709582806,138900.000000000,1718096647.091497660
1718096647.092223,65.305450439,28476.000000000,1718096647.092222691,,,,
1718096647.092505,,,,-0.738048851,-0.739441156,138901.000000000,1718096647.092504740
1718096647.093512,,,,-0.768003404,-0.771054506,138902.000000000,1718096647.093511820
1718096647.094519,,,,-0.830773234,-0.829953849,138903.000000000,1718096647.094518900
1718096647.095526,,,,-1.006389380,-1.004536271,138904.000000000,1718096647.095525980
1718096647.096533,,,,-1.180226564,-1.181210160,138905.000000000,1718096647.096533060
1718096647.097223,66.675941467,28477.000000000,1718096647.097222567,,,,
1718096647.097540,,,,-1.231312752,-1.233330131,138906.000000000,1718096647.097540140
1718096647.098547,,,,-1.227057576,-1.228497982,138907.000000000,1718096647.098547220
1718096647.099554,,,,-1.202319860,-1.203952551,138908.000000000,1718096647.099554300
1718096647.100561,,,,-0.939075887,-0.938593030,138909.000000000,1718096647.100561380
1718096647.101568,,,,-0.796755910,-0.795792222,138910.000000000,1718096647.101568460
1718096647.102223,67.891494751,28478.000000000,1718096647.102222681,,,,
1718096647.102576,,,,-0.661167204,-0.660900712,138911.000000000,1718096647.102575541
1718096647.103583,,,,-0.525650680,-0.525576532,138912.000000000,1718096647.103582621
1718096647.104590,,,,-0.406625956,-0.404724687,138913.000000000,1718096647.104589701
1718096647.105597,,,,-0.387850285,-0.387776107,138914.000000000,1718096647.105596781
1718096647.106604,,,,-0.439561486,-0.436578423,138915.000000000,1718096647.106603861
1718096647.107223,69.174743652,28479.000000000,1718096647.107222557,,,,
1718096647.107611,,,,-0.473218262,-0.473408520,138916.000000000,1718096647.107610941
1718096647.108618,,,,-0.503821850,-0.504084289,138917.000000000,1718096647.108618021
1718096647.109625,,,,-0.534112930,-0.535625458,138918.000000000,1718096647.109625101
1718096647.110632,,,,-0.561999977,-0.561228633,138919.000000000,1718096647.110632181
1718096647.111639,,,,-0.618807793,-0.616690159,138920.000000000,1718096647.111639261
1718096647.112223,70.508476257,28480.000000000,1718096647.112222672,,,,
1718096647.112646,,,,-0.657537103,-0.656813860,138921.000000000,1718096647.112646341
1718096647.113653,,,,-0.676072359,-0.678979218,138922.000000000,1718096647.113653421
1718096647.114661,,,,-0.710450351,-0.710808873,138923.000000000,1718096647.114660501
1718096647.115668,,,,-0.732928216,-0.732036710,138924.000000000,1718096647.115667582
1718096647.116675,,,,-0.725115061,-0.723165751,138925.000000000,1718096647.116674662
1718096647.117682,,,,-0.704151690,-0.703524590,138926.000000000,1718096647.117681742
1718096647.118689,,,,-0.759012222,-0.760236263,138927.000000000,1718096647.118688822
1718096647.119696,,,,-0.888710976,-0.888732970,138928.000000000,1718096647.119695902
1718096647.120703,,,,-0.967636049,-0.966407955,138929.000000000,1718096647.120702982
1718096647.121710,,,,-0.983719170,-0.985712528,138930.000000000,1718096647.121710062
1718096647.122717,,,,-0.975713670,-0.976697326,138931.000000000,1718096647.122717142
1718096647.123724,,,,-0.939364374,-0.942319334,138932.000000000,1718096647.123724222
1718096647.124731,,,,-0.880657375,-0.882770896,138933.000000000,1718096647.124731302
1718096647.125738,,,,-0.743385851,-0.743383825,138934.000000000,1718096647.125738382
1718096647.126745,,,,-0.607773185,-0.606328666,138935.000000000,1718096647.126745462
1718096647.127753,,,,-0.578732193,-0.579739869,138936.000000000,1718096647.127752542
1718096647.128760,,,,-0.584069192,-0.583706558,138937.000000000,1718096647.128759623
1718096647.129767,,,,-0.600272536,-0.599140584,138938.000000000,1718096647.129766703
1718096647.130774,,,,-0.655998528,-0.655275226,138939.000000000,1718096647.130773783
1718096647.131781,,,,-0.684366345,-0.684003711,138940.000000000,1718096647.131780863
1718096647.132788,,,,-0.666912913,-0.667223394,138941.000000000,1718096647.132787943
1718096647.133795,,,,-0.669821799,-0.670420766,138942.000000000,1718096647.133795023
1718096647.134802,,,,-0.683236420,-0.682224691,138943.000000000,1718096647.134802103
1718096647.135809,,,,-0.681192994,-0.682200670,138944.000000000,1718096647.135809183
1718096647.136816,,,,-0.690640926,-0.691961110,138945.000000000,1718096647.136816263
1718096647.137823,,,,-0.714104474,-0.713934183,138946.000000000,1718096647.137823343
1718096647.138830,,,,-0.767330289,-0.767352223,138947.000000000,1718096647.138830423
1718096647.139838,,,,-0.790048599,-0.790911973,138948.000000000,1718096647.139837503
1718096647.140845,,,,-0.787932992,-0.788772345,138949.000000000,1718096647.140844584
1718096647.141852,,,,-0.808175147,-0.807596147,138950.000000000,1718096647.141851664
1718096647.142859,,,,-0.993768156,-0.990833163,138951.000000000,1718096647.142858744
1718096647.143866,,,,-1.211719751,-1.210034847,138952.000000000,1718096647.143865824
1718096647.144873,,,,-1.303698778,-1.301388860,138953.000000000,1718096647.144872904
1718096647.145880,,,,-1.271580696,-1.269559145,138954.000000000,1718096647.145879984
1718096647.146887,,,,-1.151546240,-1.149885416,138955.000000000,1718096647.146887064
1718096647.147894,,,,-1.033507109,-1.033120394,138956.000000000,1718096647.147894144
1718096647.148901,,,,-0.937777698,-0.936886132,138957.000000000,1718096647.148901224
1718096647.149908,,,,-0.904697895,-0.904647768,138958.000000000,1718096647.149908304
1718096647.150915,,,,-0.864694476,-0.867433012,138959.000000000,1718096647.150915384
1718096647.151922,,,,-0.783822060,-0.785791337,138960.000000000,1718096647.151922464
1718096647.152930,,,,-0.788942695,-0.791320682,138961.000000000,1718096647.152929544
1718096647.153937,,,,-0.840629876,-0.841469228,138962.000000000,1718096647.153936625
1718096647.154944,,,,-0.911621571,-0.910898328,138963.000000000,1718096647.154943705
1718096647.155951,,,,-0.950879812,-0.949243009,138964.000000000,1718096647.155950785
1718096647.156958,,,,-0.908376098,-0.904912233,138965.000000000,1718096647.156957865
1718096647.157965,,,,-0.768171668,-0.767183959,138966.000000000,1718096647.157964945
1718096647.158972,,,,-0.650300920,-0.650322914,138967.000000000,1718096647.158972025
1718096647.159979,,,,-0.535098612,-0.536418796,138968.000000000,1718096647.159979105
1718096647.160986,,,,-0.442903131,-0.445809990,138969.000000000,1718096647.160986185
1718096647.161993,,,,-0.436628550,-0.438525707,138970.000000000,1718096647.161993265
1718096647.163000,,,,-0.446557283,-0.446386963,138971.000000000,1718096647.163000345
1718096647.164007,,,,-0.422204226,-0.422490656,138972.000000000,1718096647.164007425
1718096647.165015,,,,-0.428550929,-0.428212315,138973.000000000,1718096647.165014505
1718096647.166022,,,,-0.461606681,-0.464176953,138974.000000000,1718096647.166021585
1718096647.167029,,,,-0.507067323,-0.507834613,138975.000000000,1718096647.167028666
1718096647.168036,,,,-0.570125699,-0.568272531,138976.000000000,1718096647.168035746
1718096647.169043,,,,-0.611427367,-0.610319436,138977.000000000,1718096647.169042826
1718096647.170050,,,,-0.617774069,-0.614911139,138978.000000000,1718096647.170049906
1718096647.171057,,,,-0.617557704,-0.615776598,138979.000000000,1718096647.171056986
1718096647.172064,,,,-0.639170110,-0.641764462,138980.000000000,1718096647.172064066
1718096647.173071,,,,-0.661022961,-0.661838293,138981.000000000,1718096647.173071146
1718096647.173826,84.613700867,28491.000000000,1718096647.173826218,,,,
1718096647.174078,,,,-0.678981245,-0.679724455,138982.000000000,1718096647.174078226
1718096647.175085,,,,-0.667129278,-0.668160975,138983.000000000,1718096647.175085306
1718096647.176092,,,,-0.680616021,-0.681046724,138984.000000000,1718096647.176092386
1718096647.177099,,,,-0.684318244,-0.684147954,138985.000000000,1718096647.177099466
1718096647.178107,,,,-0.679365933,-0.677945495,138986.000000000,1718096647.178106546
1718096647.178826,85.920555115,28492.000000000,1718096647.178826332,,,,
1718096647.179114,,,,-0.691410244,-0.689557076,138987.000000000,1718096647.179113626
1718096647.183826,87.175704956,28493.000000000,1718096647.183826208,,,,
1718096647.185156,,,,-0.812430322,-0.814760208,138993.000000000,1718096647.185156107
1718096647.186163,,,,-0.912631273,-0.914336145,138994.000000000,1718096647.186163187
1718096647.187170,,,,-0.939508617,-0.941477895,138995.000000000,1718096647.187170267
1718096647.188177,,,,-0.926911414,-0.928111374,138996.000000000,1718096647.188177347
1718096647.188826,88.480949402,28494.000000000,1718096647.188826323,,,,
1718096647.189184,,,,-0.905010462,-0.906522930,138997.000000000,1718096647.189184427
1718096647.190192,,,,-0.828874052,-0.828391194,138998.000000000,1718096647.190191507
1718096647.191199,,,,-0.712854385,-0.712732136,138999.000000000,1718096647.191198587
1718096647.192206,,,,-0.573154807,-0.574378788,139000.000000000,1718096647.192205667
1718096647.193213,,,,-0.486801177,-0.487424165,139001.000000000,1718096647.193212748
1718096647.193826,89.548271179,28495.000000000,1718096647.193826199,,,,
1718096647.194220,,,,-0.497859806,-0.498098165,139002.000000000,1718096647.194219828
1718096647.195227,,,,-0.564163625,-0.562671065,139003.000000000,1718096647.195226908
1718096647.196234,,,,-0.644074380,-0.646115780,139004.000000000,1718096647.196233988
1718096647.197241,,,,-0.747568905,-0.749033332,139005.000000000,1718096647.197241068
1718096647.198248,,,,-0.832191646,-0.833680093,139006.000000000,1718096647.198248148
1718096647.198826,90.479614258,28496.000000000,1718096647.198826313,,,,
1718096647.199255,,,,-0.876330078,-0.874669254,139007.000000000,1718096647.199255228
1718096647.200262,,,,-0.938739359,-0.936333239,139008.000000000,1718096647.200262308
1718096647.201269,,,,-1.042714715,-1.046655297,139009.000000000,1718096647.201269388
1718096647.202276,,,,-1.106349945,-1.107814431,139010.000000000,1718096647.202276468
1718096647.203284,,,,-1.113033295,-1.114473701,139011.000000000,1718096647.203283548
1718096647.203826,91.376693726,28497.000000000,1718096647.203826189,,,,
1718096647.204291,,,,-1.069327593,-1.071008325,139012.000000000,1718096647.204290628
1718096647.205298,,,,-1.056922674,-1.059084296,139013.000000000,1718096647.205297709
1718096647.206305,,,,-1.060023904,-1.063243270,139014.000000000,1718096647.206304789
1718096647.207312,,,,-1.047811270,-1.047977567,139015.000000000,1718096647.207311869
1718096647.208319,,,,-1.068245769,-1.067690730,139016.000000000,1718096647.208318949
1718096647.208826,92.070404053,28498.000000000,1718096647.208826303,,,,
1718096647.209326,,,,-1.065721512,-1.064757824,139017.000000000,1718096647.209326029
1718096647.210333,,,,-1.029324055,-1.032182813,139018.000000000,1718096647.210333109
1718096647.211340,,,,-0.976723373,-0.977298319,139019.000000000,1718096647.211340189
1718096647.212347,,,,-0.914073706,-0.912605226,139020.000000000,1718096647.212347269
1718096647.213354,,,,-0.777258992,-0.774059534,139021.000000000,1718096647.213354349
1718096647.213826,92.594764709,28499.000000000,1718096647.213826180,,,,
1718096647.214361,,,,-0.653233826,-0.651573002,139022.000000000,1718096647.214361429
1718096647.215369,,,,-0.520722389,-0.519133627,139023.000000000,1718096647.215368509
1718096647.216376,,,,-0.452254891,-0.451363355,139024.000000000,1718096647.216375589
1718096647.217383,,,,-0.512067795,-0.510791600,139025.000000000,1718096647.217382669
1718096647.218390,,,,-0.580535233,-0.578273356,139026.000000000,1718096647.218389750
1718096647.218826,93.000633240,28500.000000000,1718096647.218826294,,,,
1718096647.219397,,,,-0.646742880,-0.645154178,139027.000000000,1718096647.219396830
1718096647.220404,,,,-0.739875972,-0.739681602,139028.000000000,1718096647.220403910
1718096647.221411,,,,-0.841615558,-0.841781795,139029.000000000,1718096647.221410990
1718096647.222418,,,,-0.909385800,-0.908806801,139030.000000000,1718096647.222418070
1718096647.223425,,,,-0.911693692,-0.910297334,139031.000000000,1718096647.223425150
1718096647.224432,,,,-0.877171516,-0.876953065,139032.000000000,1718096647.224432230
1718096647.225439,,,,-0.787115633,-0.786320210,139033.000000000,1718096647.225439310
1718096647.226446,,,,-0.682539284,-0.679940820,139034.000000000,1718096647.226446390
1718096647.227453,,,,-0.714753568,-0.716458440,139035.000000000,1718096647.227453470
1718096647.228461,,,,-0.776321411,-0.779492736,139036.000000000,1718096647.228460550
1718096647.229468,,,,-0.783004701,-0.783483446,139037.000000000,1718096647.229467630
1718096647.230475,,,,-0.802573681,-0.800912857,139038.000000000,1718096647.230474710
1718096647.231482,,,,-0.854958057,-0.857816815,139039.000000000,1718096647.231481791
1718096647.232489,,,,-0.843418598,-0.847190917,139040.000000000,1718096647.232488871
1718096647.233496,,,,-0.754516661,-0.756149352,139041.000000000,1718096647.233495951
1718096647.234503,,,,-0.706339419,-0.705111265,139042.000000000,1718096647.234503031
1718096647.235510,,,,-0.645853400,-0.645009935,139043.000000000,1718096647.235510111
1718096647.236517,,,,-0.616548002,-0.614887118,139044.000000000,1718096647.236517191
1718096647.237524,,,,-0.549739301,-0.549256444,139045.000000000,1718096647.237524271
1718096647.238531,,,,-0.494638383,-0.495357543,139046.000000000,1718096647.238531351
1718096647.239538,,,,-0.446917892,-0.450594068,139047.000000000,1718096647.239538431
1718096647.240546,,,,-0.428959608,-0.431409717,139048.000000000,1718096647.240545511
1718096647.241553,,,,-0.478386968,-0.476653993,139049.000000000,1718096647.241552591
1718096647.242560,,,,-0.562480807,-0.564594328,139050.000000000,1718096647.242559671
1718096647.243567,,,,-0.647944927,-0.650178671,139051.000000000,1718096647.243566751
1718096647.244574,,,,-0.719417453,-0.720617414,139052.000000000,1718096647.244573832
1718096647.245581,,,,-0.780792952,-0.780117750,139053.000000000,1718096647.245580912
1718096647.246588,,,,-0.843274355,-0.845508039,139054.000000000,1718096647.246587992
1718096647.247595,,,,-0.922487915,-0.924120605,139055.000000000,1718096647.247595072
1718096647.248602,,,,-0.937272847,-0.935251415,139056.000000000,1718096647.248602152
1718096647.249609,,,,-0.882772923,-0.879934132,139057.000000000,1718096647.249609232
1718096647.250616,,,,-0.798342586,-0.796465337,139058.000000000,1718096647.250616312
1718096647.251623,,,,-0.727951825,-0.726098657,139059.000000000,1718096647.251623392
1718096647.252630,,,,-0.646214008,-0.644817591,139060.000000000,1718096647.252630472
1718096647.253638,,,,-0.599070489,-0.598203003,139061.000000000,1718096647.253637552
1718096647.254645,,,,-0.542382896,-0.543654978,139062.000000000,1718096647.254644632
1718096647.255652,,,,-0.500648499,-0.499444455,139063.000000000,1718096647.255651712
1718096647.256659,,,,-0.500287890,-0.502040803,139064.000000000,1718096647.256658792
1718096647.257666,,,,-0.552455902,-0.553776085,139065.000000000,1718096647.257665873
1718096647.258673,,,,-0.620731056,-0.622243524,139066.000000000,1718096647.258672953
1718096647.259680,,,,-0.653810799,-0.655010819,139067.000000000,1718096647.259680033
1718096647.260687,,,,-0.653786778,-0.654145360,139068.000000000,1718096647.260687113
1718096647.261694,,,,-0.648113191,-0.649986327,139069.000000000,1718096647.261694193
1718096647.262701,,,,-0.669485271,-0.670252502,139070.000000000,1718096647.262701273
1718096647.263708,,,,-0.714008331,-0.712539792,139071.000000000,1718096647.263708353
1718096647.264715,,,,-0.761055708,-0.761606574,139072.000000000,1718096647.264715433
1718096647.265723,,,,-0.788990796,-0.789084911,139073.000000000,1718096647.265722513
1718096647.266730,,,,-0.836615086,-0.835362971,139074.000000000,1718096647.266729593
1718096647.267737,,,,-0.939172089,-0.937270820,139075.000000000,1718096647.267736673
1718096647.267790,98.269737244,28511.000000000,1718096647.267789602,,,,
1718096647.268744,,,,-1.004466176,-1.003117800,139076.000000000,1718096647.268743753
1718096647.269751,,,,-1.037041068,-1.037447691,139077.000000000,1718096647.269750834
1718096647.270758,,,,-1.024732351,-1.025932312,139078.000000000,1718096647.270757914
1718096647.271765,,,,-0.768412113,-0.768650413,139079.000000000,1718096647.271764994
1718096647.272772,,,,-0.824883342,-0.825722694,139080.000000000,1718096647.272772074
1718096647.272790,98.590179443,28512.000000000,1718096647.272789717,,,,
1718096647.273779,,,,-0.878277361,-0.879573524,139081.000000000,1718096647.273779154
1718096647.274786,,,,-0.853924274,-0.852768302,139082.000000000,1718096647.274786234
1718096647.275793,,,,-0.823080301,-0.820938647,139083.000000000,1718096647.275793314
1718096647.276800,,,,-0.791515052,-0.788531959,139084.000000000,1718096647.276800394
1718096647.277790,98.809410095,28513.000000000,1718096647.277789593,,,,
1718096647.277807,,,,-0.743530095,-0.745162845,139085.000000000,1718096647.277807474
1718096647.278815,,,,-0.693670034,-0.693836272,139086.000000000,1718096647.278814554
1718096647.279822,,,,-0.749780655,-0.748143852,139087.000000000,1718096647.279821634
1718096647.280829,,,,-0.909986854,-0.910730064,139088.000000000,1718096647.280828714
1718096647.281836,,,,-0.945494711,-0.947488010,139089.000000000,1718096647.281835794
1718096647.282790,98.994895935,28514.000000000,1718096647.282789707,,,,
1718096647.282843,,,,-0.908544421,-0.909696281,139090.000000000,1718096647.282842875
1718096647.283850,,,,-0.911693692,-0.912749469,139091.000000000,1718096647.283849955
1718096647.284857,,,,-0.926935434,-0.926452577,139092.000000000,1718096647.284857035
1718096647.285864,,,,-0.866136909,-0.865125120,139093.000000000,1718096647.285864115
1718096647.286871,,,,-0.748410344,-0.747759223,139094.000000000,1718096647.286871195
1718096647.287790,99.163497925,28515.000000000,1718096647.287789583,,,,
1718096647.287878,,,,-0.682515204,-0.681647718,139095.000000000,1718096647.287878275
1718096647.288885,,,,-0.894745111,-0.895512402,139096.000000000,1718096647.288885355
1718096647.289892,,,,-1.146810174,-1.150774837,139097.000000000,1718096647.289892435
1718096647.290900,,,,-1.203882456,-1.205803633,139098.000000000,1718096647.290899515
1718096647.291907,,,,-1.247684360,-1.249461293,139099.000000000,1718096647.291906595
1718096647.292790,99.365806580,28516.000000000,1718096647.292789698,,,,
1718096647.292914,,,,-1.234702468,-1.235229254,139100.000000000,1718096647.292913675
1718096647.293921,,,,-1.100219607,-1.098775148,139101.000000000,1718096647.293920755
1718096647.294928,,,,-0.982469082,-0.981817961,139102.000000000,1718096647.294927835
1718096647.295935,,,,-0.844788909,-0.846517742,139103.000000000,1718096647.295934916
1718096647.296942,,,,-0.658234298,-0.657390833,139104.000000000,1718096647.296941996
1718096647.297790,99.635520935,28517.000000000,1718096647.297789574,,,,
1718096647.297949,,,,-0.555749416,-0.556420505,139105.000000000,1718096647.297949076
1718096647.298956,,,,-0.652945340,-0.654890597,139106.000000000,1718096647.298956156
1718096647.299963,,,,-0.798270464,-0.798340499,139107.000000000,1718096647.299963236
1718096647.300970,,,,-0.901260138,-0.899479091,139108.000000000,1718096647.300970316
1718096647.301977,,,,-0.963861704,-0.961671948,139109.000000000,1718096647.301977396
1718096647.302790,99.854644775,28518.000000000,1718096647.302789688,,,,
1718096647.302984,,,,-0.961601913,-0.962273002,139110.000000000,1718096647.302984476
1718096647.303992,,,,-0.833585978,-0.832862735,139111.000000000,1718096647.303991556
1718096647.304999,,,,-0.623303354,-0.625056267,139112.000000000,1718096647.304998636
1718096647.306006,,,,-0.446485162,-0.445834041,139113.000000000,1718096647.306005716
1718096647.307013,,,,-0.363401055,-0.362822026,139114.000000000,1718096647.307012796
1718096647.307790,100.225402832,28519.000000000,1718096647.307789564,,,,
1718096647.308020,,,,-0.325104475,-0.323684037,139115.000000000,1718096647.308019876
1718096647.309027,,,,-0.306641340,-0.307769179,139116.000000000,1718096647.309026957
1718096647.310034,,,,-0.322796583,-0.324116766,139117.000000000,1718096647.310034037
1718096647.311041,,,,-0.361766309,-0.361331522,139118.000000000,1718096647.311041117
1718096647.312048,,,,-0.413814068,-0.414533257,139119.000000000,1718096647.312048197
1718096647.312790,100.646652222,28520.000000000,1718096647.312789679,,,,
1718096647.313055,,,,-0.455187857,-0.453334689,139120.000000000,1718096647.313055277
1718096647.314062,,,,-0.534593761,-0.534134924,139121.000000000,1718096647.314062357
1718096647.315069,,,,-0.673043251,-0.670973718,139122.000000000,1718096647.315069437
1718096647.316077,,,,-0.792188168,-0.790887952,139123.000000000,1718096647.316076517
1718096647.317084,,,,-0.859020889,-0.859667957,139124.000000000,1718096647.317083597
1718096647.318091,,,,-0.935614049,-0.933544517,139125.000000000,1718096647.318090677
1718096647.319098,,,,-0.959750772,-0.961503685,139126.000000000,1718096647.319097757
1718096647.320105,,,,-0.961217225,-0.963474989,139127.000000000,1718096647.320104837
1718096647.321112,,,,-0.940350056,-0.940636456,139128.000000000,1718096647.321111917
1718096647.322119,,,,-0.860679686,-0.861014187,139129.000000000,1718096647.322118998
1718096647.323126,,,,-0.763147235,-0.765981913,139130.000000000,1718096647.323126078
1718096647.324133,,,,-0.700689852,-0.702298522,139131.000000000,1718096647.324133158
1718096647.325140,,,,-0.691049635,-0.692057252,139132.000000000,1718096647.325140238
1718096647.326147,,,,-0.663811684,-0.662823975,139133.000000000,1718096647.326147318
1718096647.327154,,,,-0.609888732,-0.607482612,139134.000000000,1718096647.327154398
1718096647.328161,,,,-0.548176646,-0.546756208,139135.000000000,1718096647.328161478
1718096647.329169,,,,-0.529425025,-0.529759586,139136.000000000,1718096647.329168558
1718096647.330176,,,,-0.507187545,-0.507882655,139137.000000000,1718096647.330175638
1718096647.331183,,,,-0.515217066,-0.519229829,139138.000000000,1718096647.331182718
1718096647.332190,,,,-0.561423004,-0.565195322,139139.000000000,1718096647.332189798
1718096647.333197,,,,-0.590103388,-0.591760099,139140.000000000,1718096647.333196878
1718096647.334204,,,,-0.629962623,-0.630345225,139141.000000000,1718096647.334203959
1718096647.335211,,,,-0.687972426,-0.688451171,139142.000000000,1718096647.335211039
1718096647.336218,,,,-0.735452473,-0.735113859,139143.000000000,1718096647.336218119
1718096647.337225,,,,-0.853948355,-0.855749309,139144.000000000,1718096647.337225199
1718096647.338232,,,,-1.014611244,-1.016027570,139145.000000000,1718096647.338232279
1718096647.339239,,,,-1.022640824,-1.021701217,139146.000000000,1718096647.339239359
1718096647.340246,,,,-0.974848211,-0.971432447,139147.000000000,1718096647.340246439
1718096647.341254,,,,-0.937296927,-0.935948551,139148.000000000,1718096647.341253519
1718096647.342261,,,,-0.851472139,-0.852792323,139149.000000000,1718096647.342260599
1718096647.343268,,,,-0.684991419,-0.682753563,139150.000000000,1718096647.343267679
1718096647.344275,,,,-0.569452524,-0.567046463,139151.000000000,1718096647.344274759
1718096647.345282,,,,-0.489060968,-0.492664993,139152.000000000,1718096647.345281839
1718096647.346289,,,,-0.459827662,-0.457133085,139153.000000000,1718096647.346288919
1718096647.347296,,,,-0.464515597,-0.464128882,139154.000000000,1718096647.347296000
1718096647.348303,,,,-0.526804626,-0.528485417,139155.000000000,1718096647.348303080
1718096647.349310,,,,-0.670374751,-0.672007442,139156.000000000,1718096647.349310160
1718096647.350317,,,,-0.785000086,-0.785935581,139157.000000000,1718096647.350317240
1718096647.351324,,,,-0.908279955,-0.908374071,139158.000000000,1718096647.351324320
1718096647.352331,,,,-1.096493363,-1.097308755,139159.000000000,1718096647.352331400
1718096647.353338,,,,-1.189434171,-1.190297484,139160.000000000,1718096647.353338480
1718096647.354346,,,,-1.146810174,-1.148442984,139161.000000000,1718096647.354345560
1718096647.355353,,,,-1.041873217,-1.042520285,139162.000000000,1718096647.355352640
1718096647.356360,,,,-0.941239536,-0.941862524,139163.000000000,1718096647.356359720
1718096647.357367,,,,-0.852698207,-0.850388288,139164.000000000,1718096647.357366800
1718096647.358374,,,,-0.787356019,-0.788243473,139165.000000000,1718096647.358373880
1718096647.359381,,,,-0.733841777,-0.734368622,139166.000000000,1718096647.359380960
1718096647.360388,,,,-0.704199791,-0.702995718,139167.000000000,1718096647.360388041
1718096647.361395,,,,-0.731918514,-0.733214676,139168.000000000,1718096647.361395121
1718096647.362344,110.094322205,28531.000000000,1718096647.362343550,,,,
1718096647.362402,,,,-0.828537464,-0.829593241,139169.000000000,1718096647.362402201
1718096647.363409,,,,-0.914674759,-0.913470685,139170.000000000,1718096647.363409281
1718096647.364416,,,,-0.924771786,-0.923591733,139171.000000000,1718096647.364416361
1718096647.365423,,,,-0.887893558,-0.886425078,139172.000000000,1718096647.365423441
1718096647.366431,,,,-0.964751184,-0.964628935,139173.000000000,1718096647.366430521
1718096647.367344,110.815475464,28532.000000000,1718096647.367343664,,,,
1718096647.367438,,,,-1.027256608,-1.028504610,139174.000000000,1718096647.367437601
1718096647.368445,,,,-0.965640724,-0.965470374,139175.000000000,1718096647.368444681
1718096647.369452,,,,-0.914626658,-0.915033281,139176.000000000,1718096647.369451761
1718096647.370459,,,,-0.870223761,-0.871039093,139177.000000000,1718096647.370458841
1718096647.371466,,,,-0.778677404,-0.778699398,139178.000000000,1718096647.371465921
1718096647.372344,111.603439331,28533.000000000,1718096647.372343540,,,,
1718096647.372473,,,,-0.638304651,-0.638735354,139179.000000000,1718096647.372473001
1718096647.373480,,,,-0.537911355,-0.538366079,139180.000000000,1718096647.373480082
1718096647.374487,,,,-0.448312253,-0.449031413,139181.000000000,1718096647.374487162
1718096647.375494,,,,-0.361646086,-0.362196982,139182.000000000,1718096647.375494242
1718096647.376501,,,,-0.364867538,-0.365033776,139183.000000000,1718096647.376501322
1718096647.377344,112.407867432,28534.000000000,1718096647.377343655,,,,
1718096647.377508,,,,-0.392225683,-0.390396535,139184.000000000,1718096647.377508402
1718096647.378515,,,,-0.436364114,-0.438501656,139185.000000000,1718096647.378515482
1718096647.379523,,,,-0.524761200,-0.525576532,139186.000000000,1718096647.379522562
1718096647.380530,,,,-0.613230407,-0.615055382,139187.000000000,1718096647.380529642
1718096647.381537,,,,-0.666985035,-0.668401361,139188.000000000,1718096647.381536722
1718096647.382344,113.211997986,28535.000000000,1718096647.382343531,,,,
1718096647.382544,,,,-0.679774582,-0.679411948,139189.000000000,1718096647.382543802
1718096647.383551,,,,-0.698814690,-0.699942589,139190.000000000,1718096647.383550882
1718096647.384558,,,,-0.705113351,-0.706481576,139191.000000000,1718096647.384557962
1718096647.385565,,,,-0.681505501,-0.682945907,139192.000000000,1718096647.385565042
1718096647.386572,,,,-0.640973151,-0.640802860,139193.000000000,1718096647.386572123
1718096647.387344,113.965606689,28536.000000000,1718096647.387343645,,,,
1718096647.387579,,,,-0.562961578,-0.561156511,139194.000000000,1718096647.387579203
1718096647.388586,,,,-0.549138308,-0.549568951,139195.000000000,1718096647.388586283
1718096647.389593,,,,-0.591593921,-0.590606153,139196.000000000,1718096647.389593363
1718096647.390600,,,,-0.651983738,-0.650322914,139197.000000000,1718096647.390600443
1718096647.391608,,,,-0.733553290,-0.732012630,139198.000000000,1718096647.391607523
1718096647.392344,114.585044861,28537.000000000,1718096647.392343521,,,,
1718096647.392615,,,,-0.847601652,-0.846205235,139199.000000000,1718096647.392614603
1718096647.393622,,,,-0.932248414,-0.932005942,139200.000000000,1718096647.393621683
1718096647.394629,,,,-0.958212197,-0.956286907,139201.000000000,1718096647.394628763
1718096647.395636,,,,-0.954774380,-0.955060780,139202.000000000,1718096647.395635843
1718096647.396643,,,,-0.955471575,-0.951623023,139203.000000000,1718096647.396642923
1718096647.397344,115.087158203,28538.000000000,1718096647.397343636,,,,
1718096647.397650,,,,-0.968285143,-0.968307137,139204.000000000,1718096647.397650003
1718096647.398657,,,,-0.944388866,-0.946045578,139205.000000000,1718096647.398657084
1718096647.399664,,,,-0.885008693,-0.886857808,139206.000000000,1718096647.399664164
1718096647.400671,,,,-0.858660281,-0.857576430,139207.000000000,1718096647.400671244
1718096647.401678,,,,-0.809401214,-0.807307661,139208.000000000,1718096647.401678324
1718096647.402344,115.388374329,28539.000000000,1718096647.402343512,,,,
1718096647.402685,,,,-0.770022810,-0.768770635,139209.000000000,1718096647.402685404
1718096647.403692,,,,-0.793871045,-0.793388188,139210.000000000,1718096647.403692484
1718096647.404700,,,,-0.859285355,-0.856566727,139211.000000000,1718096647.404699564
1718096647.405707,,,,-0.934267819,-0.933568537,139212.000000000,1718096647.405706644
1718096647.406714,,,,-1.210036874,-1.210828185,139213.000000000,1718096647.406713724
1718096647.407344,115.555686951,28540.000000000,1718096647.407343626,,,,
1718096647.407721,,,,-1.852977157,-1.854441524,139214.000000000,1718096647.407720804
1718096647.408728,,,,-2.322825432,-2.324193716,139215.000000000,1718096647.408727884
1718096647.409735,,,,-2.407304049,-2.409056902,139216.000000000,1718096647.409734964
1718096647.410742,,,,-2.274840593,-2.274453878,139217.000000000,1718096647.410742044
1718096647.411749,,,,-2.017799139,-2.020032883,139218.000000000,1718096647.411749125
1718096647.412756,,,,-1.577352285,-1.577734947,139219.000000000,1718096647.412756205
1718096647.413763,,,,-1.088632107,-1.089591742,139220.000000000,1718096647.413763285
1718096647.414770,,,,-0.551710606,-0.551540315,139221.000000000,1718096647.414770365
1718096647.415777,,,,-0.132299319,-0.131960705,139222.000000000,1718096647.415777445
1718096647.416785,,,,0.151066557,0.151861951,139223.000000000,1718096647.416784525
1718096647.417792,,,,0.237203822,0.235234559,139224.000000000,1718096647.417791605
1718096647.418799,,,,0.195229039,0.195567653,139225.000000000,1718096647.418798685
1718096647.419806,,,,0.103225879,0.104502082,139226.000000000,1718096647.419805765
1718096647.420813,,,,-0.048614189,-0.050415181,139227.000000000,1718096647.420812845
1718096647.421820,,,,-0.197112620,-0.197134614,139228.000000000,1718096647.421819925
1718096647.422827,,,,-0.304958493,-0.307600915,139229.000000000,1718096647.422827005
1718096647.423834,,,,-0.395230740,-0.396022022,139230.000000000,1718096647.423834085
1718096647.424841,,,,-0.490767866,-0.490597516,139231.000000000,1718096647.424841166
1718096647.425848,,,,-0.593949854,-0.593995869,139232.000000000,1718096647.425848246
1718096647.426855,,,,-0.657032251,-0.656982124,139233.000000000,1718096647.426855326
1718096647.427862,,,,-0.733937919,-0.733407021,139234.000000000,1718096647.427862406
1718096647.428869,,,,-0.803198755,-0.801008999,139235.000000000,1718096647.428869486
1718096647.429877,,,,-0.816709518,-0.814567864,139236.000000000,1718096647.429876566
1718096647.430884,,,,-0.801804423,-0.802836120,139237.000000000,1718096647.430883646
1718096647.431891,,,,-0.755285919,-0.754442453,139238.000000000,1718096647.431890726
1718096647.432898,,,,-0.684775054,-0.687970400,139239.000000000,1718096647.432897806
1718096647.433905,,,,-0.623183191,-0.625344753,139240.000000000,1718096647.433904886
1718096647.434912,,,,-0.565077186,-0.565844417,139241.000000000,1718096647.434911966
1718096647.435919,,,,-0.548104525,-0.549208343,139242.000000000,1718096647.435919046
1718096647.436926,,,,-0.636044860,-0.636066854,139243.000000000,1718096647.436926126
1718096647.437933,,,,-0.676505089,-0.677272320,139244.000000000,1718096647.437933207
1718096647.438940,,,,-0.626741171,-0.626186192,139245.000000000,1718096647.438940287
1718096647.439947,,,,-0.567048490,-0.567791700,139246.000000000,1718096647.439947367
1718096647.440954,,,,-0.501562059,-0.503170729,139247.000000000,1718096647.440954447
1718096647.441962,,,,-0.551951051,-0.549328566,139248.000000000,1718096647.441961527
1718096647.442969,,,,-0.531853139,-0.530264437,139249.000000000,1718096647.442968607
1718096647.443976,,,,-0.567000389,-0.568777382,139250.000000000,1718096647.443975687
1718096647.444983,,,,-0.638112366,-0.640201807,139251.000000000,1718096647.444982767
1718096647.445990,,,,-0.686962724,-0.687152982,139252.000000000,1718096647.445989847
1718096647.446997,,,,-0.735163987,-0.733671427,139253.000000000,1718096647.446996927
1718096647.448004,,,,-0.865415692,-0.863706768,139254.000000000,1718096647.448004007
1718096647.449011,,,,-1.046392918,-1.047063947,139255.000000000,1718096647.449011087
1718096647.450018,,,,-1.219821334,-1.220468402,139256.000000000,1718096647.450018167
1718096647.451025,,,,-1.345865965,-1.347234130,139257.000000000,1718096647.451025248
1718096647.452032,,,,-1.364954114,-1.366057873,139258.000000000,1718096647.452032328
1718096647.453039,,,,-1.293625832,-1.292854428,139259.000000000,1718096647.453039408
1718096647.454046,,,,-1.107311606,-1.106299877,139260.000000000,1718096647.454046488
1718096647.455054,,,,-0.879647672,-0.879717767,139261.000000000,1718096647.455053568
1718096647.456061,,,,-0.644266725,-0.643519402,139262.000000000,1718096647.456060648
1718096647.457068,,,,-0.440883726,-0.438886315,139263.000000000,1718096647.457067728
1718096647.458075,,,,-0.341692448,-0.339406550,139264.000000000,1718096647.458074808
1718096647.459082,,,,-0.276061773,-0.276155889,139265.000000000,1718096647.459081888
1718096647.460089,,,,-0.264378071,-0.265890568,139266.000000000,1718096647.460088968
1718096647.461096,,,,-0.322628289,-0.322674334,139267.000000000,1718096647.461096048
1718096647.462103,,,,-0.426675767,-0.427779585,139268.000000000,1718096647.462103128
1718096647.463110,,,,-0.498484880,-0.500406086,139269.000000000,1718096647.463110209
1718096647.464117,,,,-0.547166944,-0.547741890,139270.000000000,1718096647.464117289
1718096647.465124,,,,-0.586785793,-0.586086571,139271.000000000,1718096647.465124369
1718096647.466131,,,,-0.603085279,-0.604501605,139272.000000000,1718096647.466131449
1718096647.466428,123.522193909,28551.000000000,1718096647.466428041,,,,
1718096647.467139,,,,-0.617293239,-0.620103896,139273.000000000,1718096647.467138529
1718096647.468146,,,,-0.642752171,-0.646139860,139274.000000000,1718096647.468145609
1718096647.469153,,,,-0.676264703,-0.678786874,139275.000000000,1718096647.469152689
1718096647.470160,,,,-0.705209494,-0.703356326,139276.000000000,1718096647.470159769
1718096647.471167,,,,-0.815820038,-0.813413918,139277.000000000,1718096647.471166849
1718096647.471428,124.255607605,28552.000000000,1718096647.471428156,,,,
1718096647.472174,,,,-0.923353374,-0.921115577,139278.000000000,1718096647.472173929
1718096647.473181,,,,-1.010115743,-1.010185719,139279.000000000,1718096647.473181009
1718096647.474188,,,,-1.216792226,-1.217775822,139280.000000000,1718096647.474188089
1718096647.475195,,,,-1.366709113,-1.365793467,139281.000000000,1718096647.475195169
1718096647.476202,,,,-1.400702357,-1.400676370,139282.000000000,1718096647.476202250
1718096647.476428,124.888824463,28553.000000000,1718096647.476428032,,,,
1718096647.477209,,,,-1.388129234,-1.386636615,139283.000000000,1718096647.477209330
1718096647.478216,,,,-1.294659615,-1.292902589,139284.000000000,1718096647.478216410
1718096647.479223,,,,-1.102190971,-1.100770593,139285.000000000,1718096647.479223490
1718096647.480231,,,,-0.873877943,-0.875029862,139286.000000000,1718096647.480230570
1718096647.481238,,,,-0.681024730,-0.679916799,139287.000000000,1718096647.481237650
1718096647.481428,125.338615417,28554.000000000,1718096647.481428146,,,,
1718096647.482245,,,,-0.661912501,-0.660828590,139288.000000000,1718096647.482244730
1718096647.483252,,,,-0.801515937,-0.801057100,139289.000000000,1718096647.483251810
1718096647.484259,,,,-0.855198443,-0.857408106,139290.000000000,1718096647.484258890
1718096647.485266,,,,-1.003504515,-1.002444744,139291.000000000,1718096647.485265970
1718096647.486273,,,,-1.107576013,-1.103583336,139292.000000000,1718096647.486273050
1718096647.486428,125.638435364,28555.000000000,1718096647.486428022,,,,
1718096647.487280,,,,-1.023866892,-1.022254109,139293.000000000,1718096647.487280130
1718096647.488287,,,,-0.855006099,-0.852960646,139294.000000000,1718096647.488287210
1718096647.489294,,,,-0.733312905,-0.730281711,139295.000000000,1718096647.489294291
1718096647.490301,,,,-0.699007034,-0.698091447,139296.000000000,1718096647.490301371
1718096647.491308,,,,-0.700978339,-0.699678123,139297.000000000,1718096647.491308451
1718096647.491428,125.921569824,28556.000000000,1718096647.491428137,,,,
1718096647.492316,,,,-0.694415271,-0.694581509,139298.000000000,1718096647.492315531
1718096647.493323,,,,-0.651551008,-0.648423672,139299.000000000,1718096647.493322611
1718096647.494330,,,,-0.722951412,-0.721939683,139300.000000000,1718096647.494329691
1718096647.495337,,,,-0.930805981,-0.930275023,139301.000000000,1718096647.495336771
1718096647.496344,,,,-1.032040715,-1.034370542,139302.000000000,1718096647.496343851
1718096647.496428,126.221305847,28557.000000000,1718096647.496428013,,,,
1718096647.497351,,,,-0.928570211,-0.930178821,139303.000000000,1718096647.497350931
1718096647.498358,,,,-0.769205451,-0.769587994,139304.000000000,1718096647.498358011
1718096647.499365,,,,-0.712854385,-0.712852359,139305.000000000,1718096647.499365091
1718096647.500372,,,,-0.781394005,-0.778146446,139306.000000000,1718096647.500372171
1718096647.501379,,,,-0.836759329,-0.838295877,139307.000000000,1718096647.501379251
1718096647.501428,126.620887756,28558.000000000,1718096647.501428127,,,,
1718096647.502386,,,,-0.825724721,-0.827165127,139308.000000000,1718096647.502386332
1718096647.503393,,,,-0.809545457,-0.811562836,139309.000000000,1718096647.503393412
1718096647.504400,,,,-0.821157038,-0.821635783,139310.000000000,1718096647.504400492
1718096647.505408,,,,-0.991844893,-0.992636204,139311.000000000,1718096647.505407572
1718096647.506415,,,,-1.113754511,-1.114016891,139312.000000000,1718096647.506414652
1718096647.506428,127.070350647,28559.000000000,1718096647.506428003,,,,
1718096647.507422,,,,-1.112336040,-1.113584161,139313.000000000,1718096647.507421732
1718096647.508429,,,,-0.985281825,-0.987515569,139314.000000000,1718096647.508428812
1718096647.509436,,,,-0.747833371,-0.747398615,139315.000000000,1718096647.509435892
1718096647.510443,,,,-0.532550335,-0.533053100,139316.000000000,1718096647.510442972
1718096647.511428,127.785964966,28560.000000000,1718096647.511428118,,,,
1718096647.511450,,,,-0.441100091,-0.444776237,139317.000000000,1718096647.511450052
1718096647.512457,,,,-0.363641471,-0.367918640,139318.000000000,1718096647.512457132
1718096647.513464,,,,-0.303516060,-0.306711406,139319.000000000,1718096647.513464212
1718096647.514471,,,,-0.302001506,-0.305100679,139320.000000000,1718096647.514471292
1718096647.515478,,,,-0.376887798,-0.377751201,139321.000000000,1718096647.515478373
1718096647.516485,,,,-0.524472713,-0.521297276,139322.000000000,1718096647.516485453
1718096647.517493,,,,-0.622774482,-0.623373449,139323.000000000,1718096647.517492533
1718096647.518500,,,,-0.643064678,-0.644120455,139324.000000000,1718096647.518499613
1718096647.519507,,,,-0.661816299,-0.661646008,139325.000000000,1718096647.519506693
1718096647.520514,,,,-0.670759380,-0.669867873,139326.000000000,1718096647.520513773
1718096647.521521,,,,-0.689535081,-0.688162684,139327.000000000,1718096647.521520853
1718096647.522528,,,,-0.738962412,-0.737493873,139328.000000000,1718096647.522527933
1718096647.523535,,,,-0.698862791,-0.698067427,139329.000000000,1718096647.523535013
1718096647.524542,,,,-0.587795496,-0.585100889,139330.000000000,1718096647.524542093
1718096647.525549,,,,-0.425281405,-0.423620582,139331.000000000,1718096647.525549173
1718096647.526556,,,,-0.341932863,-0.342916459,139332.000000000,1718096647.526556253
1718096647.527563,,,,-0.361117214,-0.359696776,139333.000000000,1718096647.527563334
1718096647.528570,,,,-0.411794662,-0.411504120,139334.000000000,1718096647.528570414
1718096647.529577,,,,-0.475646347,-0.477375209,139335.000000000,1718096647.529577494
1718096647.530585,,,,-0.542166531,-0.544881046,139336.000000000,1718096647.530584574
1718096647.531592,,,,-0.578924537,-0.580821693,139337.000000000,1718096647.531591654
1718096647.532599,,,,-0.621043563,-0.623133063,139338.000000000,1718096647.532598734
1718096647.533606,,,,-0.718527973,-0.719367325,139339.000000000,1718096647.533605814
1718096647.534613,,,,-0.780937195,-0.780358195,139340.000000000,1718096647.534612894
1718096647.535620,,,,-0.775912762,-0.777857959,139341.000000000,1718096647.535619974
1718096647.536627,,,,-0.728625000,-0.729055643,139342.000000000,1718096647.536627054
1718096647.537634,,,,-0.680760264,-0.678546488,139343.000000000,1718096647.537634134
1718096647.538641,,,,-0.627702773,-0.625873685,139344.000000000,1718096647.538641214
1718096647.539648,,,,-0.659436285,-0.656429172,139345.000000000,1718096647.539648294
1718096647.540655,,,,-0.729009628,-0.725714028,139346.000000000,1718096647.540655375
1718096647.541662,,,,-0.763820350,-0.761726737,139347.000000000,1718096647.541662455
1718096647.542670,,,,-0.771609485,-0.772424817,139348.000000000,1718096647.542669535
1718096647.543677,,,,-0.734803379,-0.738407433,139349.000000000,1718096647.543676615
1718096647.544684,,,,-0.691290021,-0.694172859,139350.000000000,1718096647.544683695
1718096647.545691,,,,-0.650228798,-0.653015435,139351.000000000,1718096647.545690775
1718096647.546698,,,,-0.622101367,-0.622868598,139352.000000000,1718096647.546697855
1718096647.547705,,,,-0.626476705,-0.626258314,139353.000000000,1718096647.547704935
1718096647.548712,,,,-0.652248204,-0.651212394,139354.000000000,1718096647.548712015
1718096647.549719,,,,-0.682419062,-0.683835387,139355.000000000,1718096647.549719095
1718096647.550726,,,,-0.718984723,-0.719487548,139356.000000000,1718096647.550726175
1718096647.551733,,,,-0.773436546,-0.773723006,139357.000000000,1718096647.551733255
1718096647.552740,,,,-0.810290694,-0.810096323,139358.000000000,1718096647.552740335
1718096647.553747,,,,-0.842601180,-0.841060579,139359.000000000,1718096647.553747416
1718096647.554754,,,,-0.971891224,-0.971192002,139360.000000000,1718096647.554754496
1718096647.555762,,,,-1.257973671,-1.258115888,139361.000000000,1718096647.555761576
1718096647.556769,,,,-1.518981934,-1.520277977,139362.000000000,1718096647.556768656
1718096647.557776,,,,-1.601368785,-1.604900718,139363.000000000,1718096647.557775736
1718096647.558783,,,,-1.564202189,-1.566003084,139364.000000000,1718096647.558782816
1718096647.559790,,,,-1.488570571,-1.489602327,139365.000000000,1718096647.559789896
1718096647.560731,138.277938843,28571.000000000,1718096647.560731411,,,,
1718096647.560797,,,,-1.323724627,-1.323097467,139366.000000000,1718096647.560796976
1718096647.561804,,,,-1.142266512,-1.144211769,139367.000000000,1718096647.561804056
1718096647.562811,,,,-0.966145575,-0.965879083,139368.000000000,1718096647.562811136
1718096647.563818,,,,-0.834211051,-0.834978282,139369.000000000,1718096647.563818216
1718096647.564825,,,,-0.666287839,-0.665131867,139370.000000000,1718096647.564825296
1718096647.565732,138.228225708,28572.000000000,1718096647.565731525,,,,
1718096647.565832,,,,-0.597724259,-0.597914517,139371.000000000,1718096647.565832376
1718096647.566839,,,,-0.720258892,-0.722180068,139372.000000000,1718096647.566839457
1718096647.567847,,,,-0.818055809,-0.819231749,139373.000000000,1718096647.567846537
1718096647.568854,,,,-0.823080301,-0.823126316,139374.000000000,1718096647.568853617
1718096647.569861,,,,-0.830701113,-0.831492424,139375.000000000,1718096647.569860697
1718096647.570731,138.079162598,28573.000000000,1718096647.570731401,,,,
1718096647.570868,,,,-0.762329817,-0.762976885,139376.000000000,1718096647.570867777
1718096647.571875,,,,-0.636309326,-0.636355340,139377.000000000,1718096647.571874857
1718096647.572882,,,,-0.559115112,-0.560387194,139378.000000000,1718096647.572881937
1718096647.573889,,,,-0.641886711,-0.642990530,139379.000000000,1718096647.573889017
1718096647.574896,,,,-0.738986433,-0.743528068,139380.000000000,1718096647.574896097
1718096647.575732,137.880371094,28574.000000000,1718096647.575731516,,,,
1718096647.575903,,,,-0.753723323,-0.758337021,139381.000000000,1718096647.575903177
1718096647.576910,,,,-0.783245087,-0.785190344,139382.000000000,1718096647.576910257
1718096647.577917,,,,-0.848274767,-0.850147903,139383.000000000,1718096647.577917337
1718096647.578924,,,,-0.921021461,-0.925106287,139384.000000000,1718096647.578924417
1718096647.579931,,,,-0.914794922,-0.916067064,139385.000000000,1718096647.579931498
1718096647.580731,137.797546387,28575.000000000,1718096647.580731392,,,,
1718096647.580939,,,,-0.892076612,-0.892603457,139386.000000000,1718096647.580938578
1718096647.581946,,,,-0.872748017,-0.872721970,139387.000000000,1718096647.581945658
1718096647.582953,,,,-0.774061620,-0.775213480,139388.000000000,1718096647.582952738
1718096647.583960,,,,-0.722470582,-0.725064933,139389.000000000,1718096647.583959818
1718096647.584967,,,,-0.683452785,-0.686263502,139390.000000000,1718096647.584966898
1718096647.585732,137.764404297,28576.000000000,1718096647.585731506,,,,
1718096647.585974,,,,-0.645011961,-0.644817591,139391.000000000,1718096647.585973978
1718096647.586981,,,,-0.592579544,-0.595005572,139392.000000000,1718096647.586981058
1718096647.587988,,,,-0.524208248,-0.525961161,139393.000000000,1718096647.587988138
1718096647.588995,,,,-0.562120199,-0.561829627,139394.000000000,1718096647.588995218
1718096647.590002,,,,-0.662922204,-0.664026022,139395.000000000,1718096647.590002298
1718096647.590731,137.930068970,28577.000000000,1718096647.590731382,,,,
1718096647.591009,,,,-0.719802082,-0.719800055,139396.000000000,1718096647.591009378
1718096647.592016,,,,-0.721941710,-0.722131968,139397.000000000,1718096647.592016459
1718096647.593024,,,,-0.706363440,-0.707154751,139398.000000000,1718096647.593023539
1718096647.594031,,,,-0.638424873,-0.636331320,139399.000000000,1718096647.594030619
1718096647.595038,,,,-0.504927754,-0.504060209,139400.000000000,1718096647.595037699
1718096647.595731,138.261367798,28578.000000000,1718096647.595731497,,,,
1718096647.596045,,,,-0.389557183,-0.388713688,139401.000000000,1718096647.596044779
1718096647.597052,,,,-0.398981065,-0.399003059,139402.000000000,1718096647.597051859
1718096647.598059,,,,-0.484421164,-0.482567966,139403.000000000,1718096647.598058939
1718096647.599066,,,,-0.601426482,-0.600583017,139404.000000000,1718096647.599066019
1718096647.600073,,,,-0.743530095,-0.743816555,139405.000000000,1718096647.600073099
1718096647.600731,138.642288208,28579.000000000,1718096647.600731373,,,,
1718096647.601080,,,,-0.892148733,-0.894286335,139406.000000000,1718096647.601080179
1718096647.602087,,,,-1.074832797,-1.078677297,139407.000000000,1718096647.602087259
1718096647.603094,,,,-1.417867303,-1.422697425,139408.000000000,1718096647.603094339
1718096647.604101,,,,-1.763979077,-1.765780091,139409.000000000,1718096647.604101419
1718096647.605108,,,,-1.834658265,-1.834680200,139410.000000000,1718096647.605108500
1718096647.605731,139.205291748,28580.000000000,1718096647.605731487,,,,
1718096647.606116,,,,-1.672216296,-1.669786096,139411.000000000,1718096647.606115580
1718096647.607123,,,,-1.357573628,-1.359951615,139412.000000000,1718096647.607122660
1718096647.608130,,,,-0.961866319,-0.966239691,139413.000000000,1718096647.608129740
1718096647.609137,,,,-0.577530146,-0.576758802,139414.000000000,1718096647.609136820
1718096647.610144,,,,-0.283658564,-0.280627429,139415.000000000,1718096647.610143900
1718096647.611151,,,,-0.082535394,-0.080706261,139416.000000000,1718096647.611150980
1718096647.612158,,,,-0.007120212,-0.006060378,139417.000000000,1718096647.612158060
1718096647.613165,,,,-0.158070788,-0.155424267,139418.000000000,1718096647.613165140
1718096647.614172,,,,-0.319238573,-0.317409456,139419.000000000,1718096647.614172220
1718096647.614681,139.917144775,28581.000000000,1718096647.614680529,,,,
1718096647.615179,,,,-0.404125750,-0.404316008,139420.000000000,1718096647.615179300
1718096647.616186,,,,-0.432373375,-0.430976987,139421.000000000,1718096647.616186380
1718096647.617193,,,,-0.464203060,-0.462590277,139422.000000000,1718096647.617193460
1718096647.618201,,,,-0.501129329,-0.500213742,139423.000000000,1718096647.618200541
1718096647.619208,,,,-0.532502234,-0.533798397,139424.000000000,1718096647.619207621
1718096647.619681,140.479827881,28582.000000000,1718096647.619680643,,,,
1718096647.620215,,,,-0.556951463,-0.560339153,139425.000000000,1718096647.620214701
1718096647.621222,,,,-0.579381287,-0.579162896,139426.000000000,1718096647.621221781
1718096647.622229,,,,-0.618663549,-0.623036861,139427.000000000,1718096647.622228861
1718096647.623236,,,,-0.671552718,-0.673305631,139428.000000000,1718096647.623235941
1718096647.624243,,,,-0.704728663,-0.703861177,139429.000000000,1718096647.624243021
1718096647.624681,141.174743652,28583.000000000,1718096647.624680519,,,,
1718096647.625250,,,,-0.776994586,-0.776704013,139430.000000000,1718096647.625250101
1718096647.626257,,,,-0.906452894,-0.905417085,139431.000000000,1718096647.626257181
1718096647.627264,,,,-0.982108474,-0.982370853,139432.000000000,1718096647.627264261
1718096647.628271,,,,-1.024924636,-1.023239732,139433.000000000,1718096647.628271341
1718096647.629278,,,,-1.014467001,-1.016268015,139434.000000000,1718096647.629278421
1718096647.629681,141.968673706,28584.000000000,1718096647.629680634,,,,
1718096647.630286,,,,-0.950158596,-0.951238334,139435.000000000,1718096647.630285501
1718096647.631293,,,,-0.855775416,-0.853561640,139436.000000000,1718096647.631292582
1718096647.632300,,,,-0.748987317,-0.746869683,139437.000000000,1718096647.632299662
1718096647.633307,,,,-0.596017361,-0.593082368,139438.000000000,1718096647.633306742
1718096647.634314,,,,-0.547359288,-0.546371579,139439.000000000,1718096647.634313822
1718096647.634681,142.580474854,28585.000000000,1718096647.634680510,,,,
1718096647.635321,,,,-0.613807380,-0.613733172,139440.000000000,1718096647.635320902
1718096647.636328,,,,-0.638304651,-0.636138976,139441.000000000,1718096647.636327982
1718096647.637335,,,,-0.627222002,-0.627364159,139442.000000000,1718096647.637335062
1718096647.638342,,,,-0.648137271,-0.648399651,139443.000000000,1718096647.638342142
1718096647.639349,,,,-0.718672216,-0.719199061,139444.000000000,1718096647.639349222
1718096647.639681,143.010314941,28586.000000000,1718096647.639680624,,,,
1718096647.640356,,,,-0.830364585,-0.829232633,139445.000000000,1718096647.640356302
1718096647.641363,,,,-0.997758865,-0.998574197,139446.000000000,1718096647.641363382
1718096647.642370,,,,-1.190203428,-1.191812038,139447.000000000,1718096647.642370462
1718096647.643378,,,,-1.313579440,-1.313913941,139448.000000000,1718096647.643377542
1718096647.644385,,,,-1.306607723,-1.305067062,139449.000000000,1718096647.644384623
1718096647.644681,143.423538208,28587.000000000,1718096647.644680500,,,,
1718096647.645392,,,,-1.264464617,-1.262683630,139450.000000000,1718096647.645391703
1718096647.646399,,,,-1.096252918,-1.096924067,139451.000000000,1718096647.646398783
1718096647.647406,,,,-1.051417351,-1.052449107,139452.000000000,1718096647.647405863
1718096647.648413,,,,-1.118923187,-1.118440390,139453.000000000,1718096647.648412943
1718096647.649420,,,,-1.075578094,-1.077066541,139454.000000000,1718096647.649420023
1718096647.650427,,,,-1.031631947,-1.033505082,139455.000000000,1718096647.650427103
1718096647.651434,,,,-0.993647933,-0.994198799,139456.000000000,1718096647.651434183
1718096647.652441,,,,-1.034661055,-1.035043716,139457.000000000,1718096647.652441263
1718096647.653448,,,,-1.118418336,-1.120531917,139458.000000000,1718096647.653448343
1718096647.654455,,,,-1.067043662,-1.068147540,139459.000000000,1718096647.654455423
1718096647.655463,,,,-0.862049997,-0.859451592,139460.000000000,1718096647.655462503
1718096647.656470,,,,-0.652272224,-0.650947928,139461.000000000,1718096647.656469584
1718096647.657477,,,,-0.488940775,-0.488457918,139462.000000000,1718096647.657476664
1718096647.658484,,,,-0.416218132,-0.414196670,139463.000000000,1718096647.658483744
1718096647.659491,,,,-0.469732374,-0.468985081,139464.000000000,1718096647.659490824
1718096647.660498,,,,-0.465861857,-0.465354949,139465.000000000,1718096647.660497904
1718096647.661505,,,,-0.424800605,-0.426601589,139466.000000000,1718096647.661504984
1718096647.662512,,,,-0.487017542,-0.488433868,139467.000000000,1718096647.662512064
1718096647.663519,,,,-0.512091815,-0.509854019,139468.000000000,1718096647.663519144
1718096647.664526,,,,-0.467352360,-0.466028094,139469.000000000,1718096647.664526224
1718096647.664680,145.389465332,28591.000000000,1718096647.664680481,,,,
1718096647.665533,,,,-0.443119496,-0.442828953,139470.000000000,1718096647.665533304
1718096647.666540,,,,-0.441845357,-0.441146135,139471.000000000,1718096647.666540384
1718096647.667547,,,,-0.438503712,-0.438573778,139472.000000000,1718096647.667547464
1718096647.668555,,,,-0.462592334,-0.463575959,139473.000000000,1718096647.668554544
1718096647.669562,,,,-0.549571037,-0.548126519,139474.000000000,1718096647.669561625
1718096647.669681,146.115966797,28592.000000000,1718096647.669680595,,,,
1718096647.670569,,,,-0.655734062,-0.655179083,139475.000000000,1718096647.670568705
1718096647.671576,,,,-0.735644817,-0.735546589,139476.000000000,1718096647.671575785
1718096647.672583,,,,-0.793822944,-0.796874046,139477.000000000,1718096647.672582865
1718096647.673590,,,,-0.875320375,-0.878635943,139478.000000000,1718096647.673589945
1718096647.674597,,,,-0.946288049,-0.947608232,139479.000000000,1718096647.674597025
1718096647.674680,146.941268921,28593.000000000,1718096647.674680471,,,,
1718096647.675604,,,,-0.945518792,-0.948233306,139480.000000000,1718096647.675604105
1718096647.676611,,,,-0.849332571,-0.851397991,139481.000000000,1718096647.676611185
1718096647.677618,,,,-0.712133169,-0.712467670,139482.000000000,1718096647.677618265
1718096647.678625,,,,-0.606330752,-0.605895936,139483.000000000,1718096647.678625345
1718096647.679632,,,,-0.506057620,-0.504420817,139484.000000000,1718096647.679632425
1718096647.679681,147.766281128,28594.000000000,1718096647.679680586,,,,
1718096647.680640,,,,-0.472761482,-0.470211148,139485.000000000,1718096647.680639505
1718096647.681647,,,,-0.472184509,-0.471028507,139486.000000000,1718096647.681646585
1718096647.682654,,,,-0.439874023,-0.441386521,139487.000000000,1718096647.682653666
1718096647.683661,,,,-0.463505864,-0.463720202,139488.000000000,1718096647.683660746
1718096647.684668,,,,-0.516587377,-0.515912235,139489.000000000,1718096647.684667826
1718096647.684680,148.558029175,28595.000000000,1718096647.684680462,,,,
1718096647.685675,,,,-0.573274970,-0.574667275,139490.000000000,1718096647.685674906
1718096647.686682,,,,-0.610874414,-0.613084078,139491.000000000,1718096647.686681986
1718096647.687689,,,,-0.639987528,-0.639672935,139492.000000000,1718096647.687689066
1718096647.688696,,,,-0.671576798,-0.671574712,139493.000000000,1718096647.688696146
1718096647.689681,149.184646606,28596.000000000,1718096647.689680576,,,,
1718096647.689703,,,,-0.729057729,-0.728286386,139494.000000000,1718096647.689703226
1718096647.690710,,,,-0.863348186,-0.861639261,139495.000000000,1718096647.690710306
1718096647.691717,,,,-0.973694265,-0.973403752,139496.000000000,1718096647.691717386
1718096647.692724,,,,-1.015741229,-1.016580582,139497.000000000,1718096647.692724466
1718096647.693732,,,,-1.112792850,-1.114185214,139498.000000000,1718096647.693731546
1718096647.694680,149.695724487,28597.000000000,1718096647.694680452,,,,
1718096647.694739,,,,-1.251242399,-1.251841307,139499.000000000,1718096647.694738626
1718096647.695746,,,,-1.281076670,-1.282997847,139500.000000000,1718096647.695745707
1718096647.696753,,,,-1.170658469,-1.173733592,139501.000000000,1718096647.696752787
1718096647.697760,,,,-0.973814487,-0.975351036,139502.000000000,1718096647.697759867
1718096647.698767,,,,-0.833057106,-0.834882140,139503.000000000,1718096647.698766947
1718096647.699681,149.942977905,28598.000000000,1718096647.699680567,,,,
1718096647.699774,,,,-0.807237566,-0.806971073,139504.000000000,1718096647.699774027
1718096647.700781,,,,-0.761031628,-0.760476649,139505.000000000,1718096647.700781107
1718096647.701788,,,,-0.754420459,-0.754586697,139506.000000000,1718096647.701788187
1718096647.702795,,,,-0.899120510,-0.899983943,139507.000000000,1718096647.702795267
1718096647.703802,,,,-1.016246080,-1.015907407,139508.000000000,1718096647.703802347
1718096647.704680,149.959457397,28599.000000000,1718096647.704680443,,,,
1718096647.704809,,,,-1.134405255,-1.136013985,139509.000000000,1718096647.704809427
1718096647.705817,,,,-1.244270563,-1.243330956,139510.000000000,1718096647.705816507
1718096647.706824,,,,-1.157724619,-1.156039715,139511.000000000,1718096647.706823587
1718096647.707831,,,,-0.979560196,-0.978356123,139512.000000000,1718096647.707830667
1718096647.708838,,,,-0.799833059,-0.799903154,139513.000000000,1718096647.708837748
1718096647.709681,149.975936890,28600.000000000,1718096647.709680557,,,,
1718096647.709845,,,,-0.668235123,-0.667007029,139514.000000000,1718096647.709844828
1718096647.710852,,,,-0.661960542,-0.661525786,139515.000000000,1718096647.710851908
1718096647.711859,,,,-0.667417765,-0.666766644,139516.000000000,1718096647.711858988
1718096647.712866,,,,-0.704344034,-0.706746042,139517.000000000,1718096647.712866068
1718096647.713873,,,,-0.755959094,-0.758841872,139518.000000000,1718096647.713873148
1718096647.714880,,,,-0.819305897,-0.819327891,139519.000000000,1718096647.714880228
1718096647.715887,,,,-0.773797154,-0.771751642,139520.000000000,1718096647.715887308
1718096647.716894,,,,-0.773676991,-0.773218155,139521.000000000,1718096647.716894388
1718096647.717901,,,,-0.762570262,-0.762063324,139522.000000000,1718096647.717901468
1718096647.718909,,,,-0.613999665,-0.614742875,139523.000000000,1718096647.718908548
1718096647.719916,,,,-0.441388577,-0.439679652,139524.000000000,1718096647.719915628
1718096647.720923,,,,-0.440715432,-0.440448940,139525.000000000,1718096647.720922709
1718096647.721930,,,,-0.603662252,-0.604453504,139526.000000000,1718096647.721929789
1718096647.722937,,,,-0.657873690,-0.656501293,139527.000000000,1718096647.722936869
1718096647.723944,,,,-0.709344447,-0.709534764,139528.000000000,1718096647.723943949
1718096647.724951,,,,-0.750982702,-0.750980616,139529.000000000,1718096647.724951029
1718096647.725958,,,,-0.715282500,-0.716482460,139530.000000000,1718096647.725958109
1718096647.726965,,,,-0.614528596,-0.616353571,139531.000000000,1718096647.726965189
1718096647.727972,,,,-0.544498444,-0.547838032,139532.000000000,1718096647.727972269
1718096647.728979,,,,-0.515072823,-0.516633451,139533.000000000,1718096647.728979349
1718096647.729986,,,,-0.466438830,-0.465403020,139534.000000000,1718096647.729986429
1718096647.730994,,,,-0.458938181,-0.458383203,139535.000000000,1718096647.730993509
1718096647.732001,,,,-0.548705578,-0.548799694,139536.000000000,1718096647.732000589
1718096647.733008,,,,-0.741342425,-0.740979791,139537.000000000,1718096647.733007669
1718096647.734015,,,,-0.956240833,-0.954075158,139538.000000000,1718096647.734014750
1718096647.735022,,,,-1.061923027,-1.062618256,139539.000000000,1718096647.735021830
1718096647.736029,,,,-1.033555269,-1.036077380,139540.000000000,1718096647.736028910
1718096647.737036,,,,-0.908592463,-0.909023166,139541.000000000,1718096647.737035990
1718096647.738043,,,,-0.811540842,-0.809399188,139542.000000000,1718096647.738043070
1718096647.739050,,,,-0.793654680,-0.791657269,139543.000000000,1718096647.739050150
1718096647.740057,,,,-0.705113351,-0.700062752,139544.000000000,1718096647.740057230
1718096647.741064,,,,-0.594502807,-0.591183126,139545.000000000,1718096647.741064310
1718096647.742071,,,,-0.644242704,-0.645298421,139546.000000000,1718096647.742071390
1718096647.743078,,,,-0.753074229,-0.754274189,139547.000000000,1718096647.743078470
1718096647.744086,,,,-0.896355867,-0.896185517,139548.000000000,1718096647.744085550
1718096647.744550,152.167144775,28606.000000000,1718096647.744550228,,,,
1718096647.745093,,,,-1.040358663,-1.040597081,139549.000000000,1718096647.745092630
1718096647.746100,,,,-1.115004539,-1.114521742,139550.000000000,1718096647.746099710
1718096647.747107,,,,-1.073558688,-1.075287580,139551.000000000,1718096647.747106791
1718096647.748114,,,,-0.977516711,-0.977033854,139552.000000000,1718096647.748113871
1718096647.749121,,,,-0.792933464,-0.794806540,139553.000000000,1718096647.749120951
1718096647.749550,152.809310913,28607.000000000,1718096647.749550104,,,,
1718096647.750128,,,,-0.606859624,-0.606665254,139554.000000000,1718096647.750128031
1718096647.751135,,,,-0.534834146,-0.533894539,139555.000000000,1718096647.751135111
1718096647.752142,,,,-0.500624478,-0.500406086,139556.000000000,1718096647.752142191
1718096647.753149,,,,-0.597676158,-0.597601950,139557.000000000,1718096647.753149271
1718096647.754156,,,,-0.889528334,-0.887290537,139558.000000000,1718096647.754156351
1718096647.754550,153.401931763,28608.000000000,1718096647.754550219,,,,
1718096647.755163,,,,-1.126135349,-1.125748634,139559.000000000,1718096647.755163431
1718096647.756171,,,,-1.224220753,-1.224218726,139560.000000000,1718096647.756170511
1718096647.757178,,,,-1.240135670,-1.239821076,139561.000000000,1718096647.757177591
1718096647.758185,,,,-1.153974295,-1.153779984,139562.000000000,1718096647.758184671
1718096647.759192,,,,-0.976627231,-0.977009833,139563.000000000,1718096647.759191751
1718096647.759550,153.945037842,28609.000000000,1718096647.759550095,,,,
1718096647.760199,,,,-0.814425707,-0.814928472,139564.000000000,1718096647.760198832
1718096647.761206,,,,-0.587795496,-0.587721288,139565.000000000,1718096647.761205912
1718096647.762213,,,,-0.391119808,-0.390132099,139566.000000000,1718096647.762212992
1718096647.763220,,,,-0.277912885,-0.277502149,139567.000000000,1718096647.763220072
1718096647.764227,,,,-0.345851451,-0.344935864,139568.000000000,1718096647.764227152
1718096647.764550,154.520919800,28610.000000000,1718096647.764550209,,,,
1718096647.765234,,,,-0.473963529,-0.474899054,139569.000000000,1718096647.765234232
1718096647.766241,,,,-0.573515415,-0.575124085,139570.000000000,1718096647.766241312
1718096647.767248,,,,-0.606835604,-0.606064260,139571.000000000,1718096647.767248392
1718096647.768255,,,,-0.624673665,-0.624046564,139572.000000000,1718096647.768255472
1718096647.769263,,,,-0.673572123,-0.673618197,139573.000000000,1718096647.769262552
1718096647.769550,155.063796997,28611.000000000,1718096647.769550085,,,,
1718096647.770270,,,,-0.721557081,-0.721939683,139574.000000000,1718096647.770269632
1718096647.771277,,,,-0.766368628,-0.768217683,139575.000000000,1718096647.771276712
1718096647.772284,,,,-0.709200203,-0.711217582,139576.000000000,1718096647.772283792
1718096647.773291,,,,-0.575654984,-0.576734781,139577.000000000,1718096647.773290873
1718096647.774298,,,,-0.502571762,-0.503170729,139578.000000000,1718096647.774297953
1718096647.774550,155.606552124,28612.000000000,1718096647.774550200,,,,
1718096647.775305,,,,-0.486825198,-0.487279922,139579.000000000,1718096647.775305033
1718096647.776312,,,,-0.457784235,-0.456363797,139580.000000000,1718096647.776312113
1718096647.777319,,,,-0.520433903,-0.520552039,139581.000000000,1718096647.777319193
1718096647.778326,,,,-0.655541718,-0.656549394,139582.000000000,1718096647.778326273
1718096647.779333,,,,-0.729947209,-0.730618298,139583.000000000,1718096647.779333353
1718096647.779550,156.182067871,28613.000000000,1718096647.779550076,,,,
1718096647.780340,,,,-0.841375113,-0.842743397,139584.000000000,1718096647.780340433
1718096647.781348,,,,-1.157315969,-1.162434578,139585.000000000,1718096647.781347513
1718096647.782355,,,,-1.293000817,-1.291508198,139586.000000000,1718096647.782354593
1718096647.783362,,,,-1.272542238,-1.272636414,139587.000000000,1718096647.783361673
1718096647.784369,,,,-1.223090887,-1.223521590,139588.000000000,1718096647.784368753
1718096647.784550,156.691696167,28614.000000000,1718096647.784550190,,,,
1718096647.785376,,,,-1.019491553,-1.016219974,139589.000000000,1718096647.785375834
1718096647.786383,,,,-0.836230457,-0.832117498,139590.000000000,1718096647.786382914
1718096647.787390,,,,-0.787644506,-0.786440432,139591.000000000,1718096647.787389994
1718096647.788397,,,,-0.805554748,-0.806802809,139592.000000000,1718096647.788397074
1718096647.789404,,,,-0.851712584,-0.853609741,139593.000000000,1718096647.789404154
1718096647.789550,157.266952515,28615.000000000,1718096647.789550066,,,,
1718096647.790411,,,,-0.789183140,-0.789181054,139594.000000000,1718096647.790411234
1718096647.791418,,,,-0.680159271,-0.679075360,139595.000000000,1718096647.791418314
1718096647.792425,,,,-0.516515255,-0.518845141,139596.000000000,1718096647.792425394
1718096647.793432,,,,-0.383378744,-0.383400738,139597.000000000,1718096647.793432474
1718096647.794440,,,,-0.371863335,-0.372342080,139598.000000000,1718096647.794439554
1718096647.794550,157.825668335,28616.000000000,1718096647.794550180,,,,
1718096647.795447,,,,-0.381070852,-0.380876482,139599.000000000,1718096647.795446634
1718096647.796454,,,,-0.374075055,-0.374986559,139600.000000000,1718096647.796453714
1718096647.797461,,,,-0.417420149,-0.416672856,139601.000000000,1718096647.797460794
1718096647.798468,,,,-0.568779409,-0.568729281,139602.000000000,1718096647.798467875
1718096647.799475,,,,-0.848539233,-0.849186242,139603.000000000,1718096647.799474955
1718096647.799550,158.285690308,28617.000000000,1718096647.799550056,,,,
1718096647.800482,,,,-1.084160566,-1.085360527,139604.000000000,1718096647.800482035
1718096647.801489,,,,-1.328652859,-1.331247211,139605.000000000,1718096647.801489115
1718096647.802496,,,,-1.473425031,-1.471644044,139606.000000000,1718096647.802496195
1718096647.803503,,,,-1.417122126,-1.414499640,139607.000000000,1718096647.803503275
1718096647.804510,,,,-1.271003723,-1.271362185,139608.000000000,1718096647.804510355
1718096647.804550,158.597793579,28618.000000000,1718096647.804550171,,,,
1718096647.805517,,,,-1.050095081,-1.048193932,139609.000000000,1718096647.805517435
1718096647.806525,,,,-0.703141987,-0.704702616,139610.000000000,1718096647.806524515
1718096647.807532,,,,-0.353856951,-0.355153114,139611.000000000,1718096647.807531595
1718096647.808539,,,,-0.150233567,-0.150255561,139612.000000000,1718096647.808538675
1718096647.809546,,,,-0.164177075,-0.164415434,139613.000000000,1718096647.809545755
1718096647.809550,158.893447876,28619.000000000,1718096647.809550047,,,,
1718096647.810553,,,,-0.286591530,-0.286998153,139614.000000000,1718096647.810552835
1718096647.811560,,,,-0.433527321,-0.433332950,139615.000000000,1718096647.811559916
1718096647.812567,,,,-0.498196393,-0.499155968,139616.000000000,1718096647.812566996
1718096647.813574,,,,-0.493460387,-0.495285422,139617.000000000,1718096647.813574076
1718096647.814550,159.156219482,28620.000000000,1718096647.814550161,,,,
1718096647.814581,,,,-0.480935276,-0.479683101,139618.000000000,1718096647.814581156
1718096647.815588,,,,-0.471511394,-0.468961030,139619.000000000,1718096647.815588236
1718096647.816595,,,,-0.485166401,-0.483914256,139620.000000000,1718096647.816595316
1718096647.817602,,,,-0.542479038,-0.541395187,139621.000000000,1718096647.817602396
1718096647.818609,,,,-0.600897610,-0.601857126,139622.000000000,1718096647.818609476
1718096647.819617,,,,-0.716220081,-0.718405724,139623.000000000,1718096647.819616556
1718096647.820624,,,,-0.801539958,-0.800600350,139624.000000000,1718096647.820623636
1718096647.821631,,,,-0.813223660,-0.813846648,139625.000000000,1718096647.821630716
1718096647.822638,,,,-0.842192531,-0.845171511,139626.000000000,1718096647.822637796
1718096647.823645,,,,-0.894769192,-0.896738470,139627.000000000,1718096647.823644876
1718096647.824652,,,,-0.934820712,-0.935299456,139628.000000000,1718096647.824651957
1718096647.825659,,,,-0.958212197,-0.961094975,139629.000000000,1718096647.825659037
1718096647.826666,,,,-0.975881994,-0.978284001,139630.000000000,1718096647.826666117
1718096647.827673,,,,-0.890658259,-0.888997376,139631.000000000,1718096647.827673197
1718096647.828680,,,,-0.866737902,-0.867745578,139632.000000000,1718096647.828680277
1718096647.829687,,,,-0.869646788,-0.868803322,139633.000000000,1718096647.829687357
1718096647.830694,,,,-0.761969209,-0.762976885,139634.000000000,1718096647.830694437
1718096647.831702,,,,-0.655565798,-0.658448577,139635.000000000,1718096647.831701517
1718096647.832709,,,,-0.546397686,-0.547237039,139636.000000000,1718096647.832708597
1718096647.833716,,,,-0.441749185,-0.439463288,139637.000000000,1718096647.833715677
1718096647.834723,,,,-0.445523560,-0.442131788,139638.000000000,1718096647.834722757
1718096647.835730,,,,-0.546253443,-0.544616640,139639.000000000,1718096647.835729837
1718096647.836737,,,,-0.611114800,-0.613324463,139640.000000000,1718096647.836736917
1718096647.837744,,,,-0.653257906,-0.654145360,139641.000000000,1718096647.837743998
1718096647.838751,,,,-0.711916804,-0.711602211,139642.000000000,1718096647.838751078
1718096647.839758,,,,-0.788437843,-0.787474155,139643.000000000,1718096647.839758158
1718096647.840765,,,,-0.927079678,-0.924577415,139644.000000000,1718096647.840765238
1718096647.841772,,,,-1.004730582,-1.003911138,139645.000000000,1718096647.841772318
1718096647.842779,,,,-1.008553028,-1.007565379,139646.000000000,1718096647.842779398
1718096647.843786,,,,-1.056249499,-1.057834148,139647.000000000,1718096647.843786478
1718096647.844794,,,,-1.184481740,-1.185080767,139648.000000000,1718096647.844793558
1718096647.845801,,,,-1.177077293,-1.180008173,139649.000000000,1718096647.845800638
1718096647.846808,,,,-1.125438213,-1.126373768,139650.000000000,1718096647.846807718
1718096647.847815,,,,-1.044806242,-1.042111635,139651.000000000,1718096647.847814798
1718096647.848822,,,,-0.870416105,-0.869981349,139652.000000000,1718096647.848821878
1718096647.849829,,,,-0.732880175,-0.732012630,139653.000000000,1718096647.849828959
1718096647.850836,,,,-0.717734635,-0.716698825,139654.000000000,1718096647.850836039
1718096647.851843,,,,-0.691217899,-0.689004123,139655.000000000,1718096647.851843119
1718096647.852850,,,,-0.471751779,-0.469706297,139656.000000000,1718096647.852850199
1718096647.853857,,,,-0.320993543,-0.321424216,139657.000000000,1718096647.853857279
1718096647.854864,,,,-0.328301877,-0.330751956,139658.000000000,1718096647.854864359
1718096647.855871,,,,-0.428214371,-0.432034761,139659.000000000,1718096647.855871439
1718096647.856879,,,,-0.591040969,-0.592505395,139660.000000000,1718096647.856878519
1718096647.857886,,,,-0.723720729,-0.725161076,139661.000000000,1718096647.857885599
1718096647.858893,,,,-0.974391460,-0.974846184,139662.000000000,1718096647.858892679
1718096647.859900,,,,-1.292327642,-1.293166995,139663.000000000,1718096647.859899759
1718096647.860907,,,,-1.453447342,-1.452483654,139664.000000000,1718096647.860906839
1718096647.861914,,,,-1.529030800,-1.532394409,139665.000000000,1718096647.861913919
1718096647.862921,,,,-1.734481335,-1.736907363,139666.000000000,1718096647.862921000
1718096647.863928,,,,-1.874637723,-1.873553753,139667.000000000,1718096647.863928080
1718096647.864935,,,,-1.719503999,-1.718227863,139668.000000000,1718096647.864935160
1718096647.865109,156.905380249,28631.000000000,1718096647.865109205,,,,
1718096647.868963,,,,-0.502475619,-0.500357985,139672.000000000,1718096647.868963480
1718096647.869971,,,,-0.228173003,-0.229156613,139673.000000000,1718096647.869970560
1718096647.870109,156.757446289,28632.000000000,1718096647.870109320,,,,
1718096647.870978,,,,0.080219083,0.080221131,139674.000000000,1718096647.870977640
1718096647.871985,,,,0.187079296,0.187946796,139675.000000000,1718096647.871984720
1718096647.872992,,,,0.017112656,0.017980166,139676.000000000,1718096647.872991800
1718096647.873999,,,,-0.254882038,-0.256755173,139677.000000000,1718096647.873998880
1718096647.875006,,,,-0.418526024,-0.416913271,139678.000000000,1718096647.875005960
1718096647.875109,156.839630127,28633.000000000,1718096647.875109196,,,,
1718096647.876013,,,,-0.559595942,-0.557694674,139679.000000000,1718096647.876013041
1718096647.877020,,,,-0.732447445,-0.729993224,139680.000000000,1718096647.877020121
1718096647.878027,,,,-0.822599471,-0.821106911,139681.000000000,1718096647.878027201
1718096647.879034,,,,-0.811925471,-0.814808309,139682.000000000,1718096647.879034281
1718096647.880041,,,,-0.836807430,-0.838896930,139683.000000000,1718096647.880041361
1718096647.880109,157.234085083,28634.000000000,1718096647.880109310,,,,
1718096647.881048,,,,-0.938018143,-0.939698875,139684.000000000,1718096647.881048441
1718096647.882056,,,,-1.003817081,-1.005810380,139685.000000000,1718096647.882055521
1718096647.883063,,,,-0.931262732,-0.932078063,139686.000000000,1718096647.883062601
1718096647.884070,,,,-0.829643369,-0.829352796,139687.000000000,1718096647.884069681
1718096647.885077,,,,-0.735139966,-0.735811055,139688.000000000,1718096647.885076761
1718096647.885109,157.891387939,28635.000000000,1718096647.885109186,,,,
1718096647.886084,,,,-0.644266725,-0.643230915,139689.000000000,1718096647.886083841
1718096647.887091,,,,-0.515794039,-0.516705573,139690.000000000,1718096647.887090921
1718096647.888098,,,,-0.341668397,-0.341858685,139691.000000000,1718096647.888098001
1718096647.889105,,,,-0.267599493,-0.268342704,139692.000000000,1718096647.889105082
1718096647.890109,158.745620728,28636.000000000,1718096647.890109301,,,,
1718096647.890112,,,,-0.304117084,-0.301879257,139693.000000000,1718096647.890112162
1718096647.891119,,,,-0.402442902,-0.399604052,139694.000000000,1718096647.891119242
1718096647.892126,,,,-0.480214059,-0.479538858,139695.000000000,1718096647.892126322
1718096647.893133,,,,-0.545556247,-0.547934234,139696.000000000,1718096647.893133402
1718096647.894140,,,,-0.567793727,-0.569162011,139697.000000000,1718096647.894140482
1718096647.895109,159.878677368,28637.000000000,1718096647.895109177,,,,
1718096647.895148,,,,-0.574765503,-0.576975167,139698.000000000,1718096647.895147562
1718096647.896155,,,,-0.570366085,-0.574571133,139699.000000000,1718096647.896154642
1718096647.897162,,,,-0.576015592,-0.578345478,139700.000000000,1718096647.897161722
1718096647.898169,,,,-0.601089895,-0.603515923,139701.000000000,1718096647.898168802
1718096647.899176,,,,-0.625491083,-0.627268016,139702.000000000,1718096647.899175882
1718096647.900109,161.044067383,28638.000000000,1718096647.900109291,,,,
1718096647.900183,,,,-0.678187907,-0.678474367,139703.000000000,1718096647.900182962
1718096647.901190,,,,-0.780504465,-0.780526459,139704.000000000,1718096647.901190042
1718096647.902197,,,,-0.846543849,-0.845387876,139705.000000000,1718096647.902197123
1718096647.903204,,,,-0.848755598,-0.846902430,139706.000000000,1718096647.903204203
1718096647.904211,,,,-0.801155329,-0.799422324,139707.000000000,1718096647.904211283
1718096647.905109,162.126907349,28639.000000000,1718096647.905109167,,,,
1718096647.905218,,,,-0.734514892,-0.733695507,139708.000000000,1718096647.905218363
1718096647.906225,,,,-0.683981717,-0.685374022,139709.000000000,1718096647.906225443
1718096647.907233,,,,-0.661167204,-0.661862373,139710.000000000,1718096647.907232523
1718096647.908240,,,,-0.626116097,-0.627460361,139711.000000000,1718096647.908239603
1718096647.909247,,,,-0.642223299,-0.642028928,139712.000000000,1718096647.909246683
1718096647.910109,163.094528198,28640.000000000,1718096647.910109282,,,,
1718096647.910254,,,,-0.679534197,-0.680638015,139713.000000000,1718096647.910253763
1718096647.911261,,,,-0.699872494,-0.702562988,139714.000000000,1718096647.911260843
1718096647.912268,,,,-0.712397635,-0.712948501,139715.000000000,1718096647.912267923
1718096647.913275,,,,-0.716845095,-0.715737224,139716.000000000,1718096647.913275003
1718096647.914282,,,,-0.694126785,-0.692297697,139717.000000000,1718096647.914282084
1718096647.915289,,,,-0.703117967,-0.703716934,139718.000000000,1718096647.915289164
1718096647.916296,,,,-0.834259152,-0.834305167,139719.000000000,1718096647.916296244
1718096647.917303,,,,-0.960808575,-0.961046934,139720.000000000,1718096647.917303324
1718096647.918310,,,,-1.010283947,-1.010378122,139721.000000000,1718096647.918310404
1718096647.919317,,,,-1.056225419,-1.056656122,139722.000000000,1718096647.919317484
1718096647.920325,,,,-1.071058512,-1.069878459,139723.000000000,1718096647.920324564
1718096647.921332,,,,-1.074928999,-1.073532581,139724.000000000,1718096647.921331644
1718096647.922339,,,,-1.114018917,-1.110530972,139725.000000000,1718096647.922338724
1718096647.923346,,,,-1.056297541,-1.056800365,139726.000000000,1718096647.923345804
1718096647.924353,,,,-0.965472400,-0.966023326,139727.000000000,1718096647.924352884
1718096647.925360,,,,-1.108681917,-1.108199120,139728.000000000,1718096647.925359964
1718096647.926367,,,,-1.657166958,-1.658006310,139729.000000000,1718096647.926367044
1718096647.927374,,,,-1.941229939,-1.943006873,139730.000000000,1718096647.927374125
1718096647.928381,,,,-1.881465197,-1.881174684,139731.000000000,1718096647.928381205
1718096647.929388,,,,-1.663153052,-1.660049677,139732.000000000,1718096647.929388285
1718096647.930395,,,,-1.364497304,-1.364134669,139733.000000000,1718096647.930395365
1718096647.931402,,,,-1.009610891,-1.010161757,139734.000000000,1718096647.931402445
1718096647.932410,,,,-0.784495234,-0.785334587,139735.000000000,1718096647.932409525
1718096647.933417,,,,-0.606955826,-0.604429483,139736.000000000,1718096647.933416605
1718096647.934424,,,,-0.371430606,-0.367990762,139737.000000000,1718096647.934423685
1718096647.935431,,,,-0.329503894,-0.326833338,139738.000000000,1718096647.935430765
1718096647.936438,,,,-0.436772794,-0.434054166,139739.000000000,1718096647.936437845
1718096647.937445,,,,-0.566038787,-0.563248038,139740.000000000,1718096647.937444925
1718096647.938452,,,,-0.662537515,-0.661790252,139741.000000000,1718096647.938452005
1718096647.939459,,,,-0.686313629,-0.687754035,139742.000000000,1718096647.939459085
1718096647.940466,,,,-0.701819777,-0.704678535,139743.000000000,1718096647.940466166
1718096647.941473,,,,-0.765791655,-0.766606987,139744.000000000,1718096647.941473246
1718096647.942480,,,,-0.897004962,-0.896954834,139745.000000000,1718096647.942480326
1718096647.943487,,,,-0.958284318,-0.960061252,139746.000000000,1718096647.943487406
1718096647.944494,,,,-0.918809712,-0.916788280,139747.000000000,1718096647.944494486
1718096647.945502,,,,-0.874599159,-0.873154700,139748.000000000,1718096647.945501566
1718096647.946509,,,,-0.966506183,-0.964580894,139749.000000000,1718096647.946508646
1718096647.947516,,,,-1.050359607,-1.048386216,139750.000000000,1718096647.947515726
1718096647.948523,,,,-1.183327794,-1.185008645,139751.000000000,1718096647.948522806
1718096647.949530,,,,-1.343750358,-1.346801400,139752.000000000,1718096647.949529886
1718096647.950537,,,,-1.438590288,-1.440824032,139753.000000000,1718096647.950536966
1718096647.951544,,,,-1.246434212,-1.246840835,139754.000000000,1718096647.951544046
1718096647.952551,,,,-1.149911404,-1.149548769,139755.000000000,1718096647.952551126
1718096647.953558,,,,-0.606619239,-0.605751693,139756.000000000,1718096647.953558207
1718096647.954565,,,,-0.259089142,-0.257620633,139757.000000000,1718096647.954565287
1718096647.955572,,,,-0.009067496,-0.005964215,139758.000000000,1718096647.955572367
1718096647.956579,,,,0.144575611,0.143856451,139759.000000000,1718096647.956579447
1718096647.957587,,,,0.111712195,0.111858487,139760.000000000,1718096647.957586527
1718096647.958594,,,,0.012713236,0.009638097,139761.000000000,1718096647.958593607
1718096647.959506,161.782424927,28651.000000000,1718096647.959505796,,,,
1718096647.959601,,,,-0.054480083,-0.058108155,139762.000000000,1718096647.959600687
1718096647.960608,,,,-0.179058179,-0.180666834,139763.000000000,1718096647.960607767
1718096647.961615,,,,-0.309646398,-0.308995247,139764.000000000,1718096647.961614847
1718096647.962622,,,,-0.434080243,-0.433765680,139765.000000000,1718096647.962621927
1718096647.963629,,,,-0.533055186,-0.533750296,139766.000000000,1718096647.963629007
1718096647.964506,162.618957520,28652.000000000,1718096647.964505911,,,,
1718096647.964636,,,,-0.607845306,-0.609237611,139767.000000000,1718096647.964636087
1718096647.965643,,,,-0.663643420,-0.664891481,139768.000000000,1718096647.965643167
1718096647.966650,,,,-0.685472190,-0.684869170,139769.000000000,1718096647.966650248
1718096647.967657,,,,-0.655036867,-0.656934023,139770.000000000,1718096647.967657328
1718096647.968664,,,,-0.571544051,-0.572623849,139771.000000000,1718096647.968664408
1718096647.969506,163.717544556,28653.000000000,1718096647.969505787,,,,
1718096647.969671,,,,-0.543464720,-0.544207931,139772.000000000,1718096647.969671488
1718096647.970679,,,,-0.621500313,-0.622171402,139773.000000000,1718096647.970678568
1718096647.971686,,,,-0.691314042,-0.691071630,139774.000000000,1718096647.971685648
1718096647.972693,,,,-0.710762858,-0.709414542,139775.000000000,1718096647.972692728
1718096647.973700,,,,-0.699319541,-0.698788643,139776.000000000,1718096647.973699808
1718096647.974506,164.963134766,28654.000000000,1718096647.974505901,,,,
1718096647.974707,,,,-0.644026339,-0.642605901,139777.000000000,1718096647.974706888
1718096647.975714,,,,-0.598782003,-0.597674072,139778.000000000,1718096647.975713968
1718096647.976721,,,,-0.570197821,-0.568825424,139779.000000000,1718096647.976721048
1718096647.977728,,,,-0.570173740,-0.568512917,139780.000000000,1718096647.977728128
1718096647.978735,,,,-0.580102503,-0.577864707,139781.000000000,1718096647.978735209
1718096647.979506,166.093505859,28655.000000000,1718096647.979505777,,,,
1718096647.979742,,,,-0.597964644,-0.596952856,139782.000000000,1718096647.979742289
1718096647.980749,,,,-0.625010252,-0.624262929,139783.000000000,1718096647.980749369
1718096647.981756,,,,-0.655084968,-0.655924320,139784.000000000,1718096647.981756449
1718096647.982764,,,,-0.678139865,-0.677969515,139785.000000000,1718096647.982763529
1718096647.983771,,,,-0.703863204,-0.705856562,139786.000000000,1718096647.983770609
1718096647.984506,167.125152588,28656.000000000,1718096647.984505892,,,,
