__time,/gdx/grip_force_stream/grip_force,/gdx/grip_force_stream/header/seq,/gdx/grip_force_stream/header/stamp,/shimmer0/emg_stream/emg_ch1,/shimmer0/emg_stream/emg_ch2,/shimmer0/emg_stream/header/seq,/shimmer0/emg_stream/header/stamp
1718096865.466057,,,,1.232994080,1.236205101,67877.000000000,1718096865.466056585
1718096865.467064,,,,1.241648674,1.243585467,67878.000000000,1718096865.467063665
1718096865.468071,,,,1.249101281,1.248513818,67879.000000000,1718096865.468070745
1718096865.469078,,,,1.250615835,1.247936845,67880.000000000,1718096865.469077826
1718096865.470085,,,,1.254462242,1.252744913,67881.000000000,1718096865.470084906
1718096865.471092,,,,1.254342079,1.254547954,67882.000000000,1718096865.471091986
1718096865.472099,,,,1.249077201,1.246782899,67883.000000000,1718096865.472099066
1718096865.473106,,,,1.247779012,1.244330764,67884.000000000,1718096865.473106146
1718096865.473404,1.111760139,13732.000000000,1718096865.473404408,,,,
1718096865.474113,,,,1.244846106,1.242864251,67885.000000000,1718096865.474113226
1718096865.475120,,,,1.239148498,1.240604520,67886.000000000,1718096865.475120306
1718096865.476127,,,,1.231551647,1.233632684,67887.000000000,1718096865.476127386
1718096865.477134,,,,1.226166606,1.227382183,67888.000000000,1718096865.477134466
1718096865.478142,,,,1.223810554,1.225266576,67889.000000000,1718096865.478141546
1718096865.478404,1.111760139,13733.000000000,1718096865.478404284,,,,
1718096865.479149,,,,1.220733404,1.224112630,67890.000000000,1718096865.479148626
1718096865.480156,,,,1.220036268,1.221780777,67891.000000000,1718096865.480155706
1718096865.481163,,,,1.223762512,1.226108074,67892.000000000,1718096865.481162786
1718096865.482170,,,,1.218786120,1.220939279,67893.000000000,1718096865.482169867
1718096865.483177,,,,1.212511539,1.211996198,67894.000000000,1718096865.483176947
1718096865.483404,1.094090939,13734.000000000,1718096865.483404398,,,,
1718096865.484184,,,,1.217487931,1.218126535,67895.000000000,1718096865.484184027
1718096865.485191,,,,1.227584958,1.227502346,67896.000000000,1718096865.485191107
1718096865.486198,,,,1.229291797,1.229449630,67897.000000000,1718096865.486198187
1718096865.487205,,,,1.233715296,1.233825088,67898.000000000,1718096865.487205267
1718096865.488212,,,,1.232657552,1.232719183,67899.000000000,1718096865.488212347
1718096865.488404,1.058743834,13735.000000000,1718096865.488404274,,,,
1718096865.489219,,,,1.231046796,1.231685400,67900.000000000,1718096865.489219427
1718096865.490227,,,,1.233066201,1.234017372,67901.000000000,1718096865.490226507
1718096865.491234,,,,1.228306174,1.230747819,67902.000000000,1718096865.491233587
1718096865.492241,,,,1.223161459,1.225699306,67903.000000000,1718096865.492240667
1718096865.493248,,,,1.218137026,1.218943954,67904.000000000,1718096865.493247747
1718096865.493404,1.058743834,13736.000000000,1718096865.493404388,,,,
1718096865.494255,,,,1.213425040,1.214063764,67905.000000000,1718096865.494254827
1718096865.495262,,,,1.223329782,1.225579143,67906.000000000,1718096865.495261908
1718096865.496269,,,,1.236960769,1.235195398,67907.000000000,1718096865.496268988
1718096865.497276,,,,1.230734229,1.228391886,67908.000000000,1718096865.497276068
1718096865.498283,,,,1.222079635,1.222838521,67909.000000000,1718096865.498283148
1718096865.498404,1.164767027,13737.000000000,1718096865.498404264,,,,
1718096865.499290,,,,1.216309905,1.217164993,67910.000000000,1718096865.499290228
1718096865.500297,,,,1.213713527,1.215097427,67911.000000000,1718096865.500297308
1718096865.501304,,,,1.219122648,1.217213035,67912.000000000,1718096865.501304388
1718096865.502311,,,,1.225421309,1.223728061,67913.000000000,1718096865.502311468
1718096865.503319,,,,1.227777243,1.228800535,67914.000000000,1718096865.503318548
1718096865.503404,1.094090939,13738.000000000,1718096865.503404379,,,,
1718096865.504326,,,,1.229892850,1.230435371,67915.000000000,1718096865.504325628
1718096865.505333,,,,1.229291797,1.230771899,67916.000000000,1718096865.505332708
1718096865.506340,,,,1.230950594,1.232647061,67917.000000000,1718096865.506339788
1718096865.507347,,,,1.236479998,1.238200426,67918.000000000,1718096865.507346869
1718096865.508354,,,,1.240398526,1.243176818,67919.000000000,1718096865.508353949
1718096865.508404,1.129429221,13739.000000000,1718096865.508404255,,,,
1718096865.509361,,,,1.244220972,1.245797276,67920.000000000,1718096865.509361029
1718096865.510368,,,,1.249125242,1.248874426,67921.000000000,1718096865.510368109
1718096865.511375,,,,1.251024485,1.251350641,67922.000000000,1718096865.511375189
1718096865.512382,,,,1.249966741,1.252336264,67923.000000000,1718096865.512382269
1718096865.513389,,,,1.247634768,1.249523520,67924.000000000,1718096865.513389349
1718096865.513404,1.129429221,13740.000000000,1718096865.513404369,,,,
1718096865.514396,,,,1.241191864,1.241373777,67925.000000000,1718096865.514396429
1718096865.515404,,,,1.233787417,1.234353900,67926.000000000,1718096865.515403509
1718096865.516411,,,,1.228859067,1.228343844,67927.000000000,1718096865.516410589
1718096865.517418,,,,1.223281741,1.226949453,67928.000000000,1718096865.517417669
1718096865.518425,,,,1.222296000,1.225434899,67929.000000000,1718096865.518424749
1718096865.519432,,,,1.220613241,1.220915318,67930.000000000,1718096865.519431829
1718096865.520439,,,,1.211790323,1.210986495,67931.000000000,1718096865.520438910
1718096865.521446,,,,1.212367296,1.210385561,67932.000000000,1718096865.521445990
1718096865.522453,,,,1.220396876,1.220771074,67933.000000000,1718096865.522453070
1718096865.522705,1.041074157,13741.000000000,1718096865.522704601,,,,
1718096865.523460,,,,1.218978405,1.218823791,67934.000000000,1718096865.523460150
1718096865.524467,,,,1.213112593,1.212645292,67935.000000000,1718096865.524467230
1718096865.525474,,,,1.217752337,1.218415022,67936.000000000,1718096865.525474310
1718096865.526481,,,,1.222103715,1.222237468,67937.000000000,1718096865.526481390
1718096865.527488,,,,1.233426809,1.234137535,67938.000000000,1718096865.527488470
1718096865.527705,1.129429221,13742.000000000,1718096865.527704716,,,,
1718096865.528496,,,,1.236023188,1.237599373,67939.000000000,1718096865.528495550
1718096865.529503,,,,1.236744404,1.237575412,67940.000000000,1718096865.529502630
1718096865.530510,,,,1.241913080,1.240796804,67941.000000000,1718096865.530509710
1718096865.531517,,,,1.243403673,1.246494412,67942.000000000,1718096865.531516790
1718096865.532524,,,,1.245134592,1.247335792,67943.000000000,1718096865.532523870
1718096865.532705,1.147098184,13743.000000000,1718096865.532704592,,,,
1718096865.533531,,,,1.240687013,1.242503643,67944.000000000,1718096865.533530951
1718096865.534538,,,,1.230638146,1.232358575,67945.000000000,1718096865.534538031
1718096865.535545,,,,1.222344160,1.221852899,67946.000000000,1718096865.535545111
1718096865.536552,,,,1.214795351,1.212837696,67947.000000000,1718096865.536552191
1718096865.537559,,,,1.209386230,1.212332845,67948.000000000,1718096865.537559271
1718096865.537705,1.111760139,13744.000000000,1718096865.537704706,,,,
1718096865.538566,,,,1.212223053,1.213558912,67949.000000000,1718096865.538566351
1718096865.539573,,,,1.213473201,1.215385914,67950.000000000,1718096865.539573431
1718096865.540581,,,,1.218449593,1.220145941,67951.000000000,1718096865.540580511
1718096865.541588,,,,1.223113418,1.223824143,67952.000000000,1718096865.541587591
1718096865.542595,,,,1.219050527,1.220097899,67953.000000000,1718096865.542594671
1718096865.542705,1.200104237,13745.000000000,1718096865.542704582,,,,
1718096865.543602,,,,1.216430187,1.216611981,67954.000000000,1718096865.543601751
1718096865.544609,,,,1.218762040,1.218246818,67955.000000000,1718096865.544608831
1718096865.545616,,,,1.223858714,1.225002170,67956.000000000,1718096865.545615911
1718096865.546623,,,,1.230157256,1.229305387,67957.000000000,1718096865.546622992
1718096865.547630,,,,1.233907580,1.235171318,67958.000000000,1718096865.547630072
1718096865.547705,1.200104237,13746.000000000,1718096865.547704697,,,,
1718096865.548637,,,,1.232849836,1.233945251,67959.000000000,1718096865.548637152
1718096865.549644,,,,1.232032418,1.234450102,67960.000000000,1718096865.549644232
1718096865.550651,,,,1.232032418,1.235556006,67961.000000000,1718096865.550651312
1718096865.551658,,,,1.233114243,1.234930873,67962.000000000,1718096865.551658392
1718096865.552665,,,,1.225036621,1.226877332,67963.000000000,1718096865.552665472
1718096865.552705,1.164767027,13747.000000000,1718096865.552704573,,,,
1718096865.553673,,,,1.214170337,1.212837696,67964.000000000,1718096865.553672552
1718096865.554680,,,,1.204674363,1.205481172,67965.000000000,1718096865.554679632
1718096865.555687,,,,1.197702527,1.198317170,67966.000000000,1718096865.555686712
1718096865.556694,,,,1.193519473,1.195696712,67967.000000000,1718096865.556693792
1718096865.557701,,,,1.203424215,1.204231143,67968.000000000,1718096865.557700872
1718096865.558708,,,,1.218088984,1.216660142,67969.000000000,1718096865.558707952
1718096865.559715,,,,1.220517039,1.218968034,67970.000000000,1718096865.559715033
1718096865.560722,,,,1.219555378,1.221588373,67971.000000000,1718096865.560722113
1718096865.561729,,,,1.222272038,1.223776102,67972.000000000,1718096865.561729193
1718096865.562736,,,,1.229267836,1.228464007,67973.000000000,1718096865.562736273
1718096865.563743,,,,1.232008457,1.231925845,67974.000000000,1718096865.563743353
1718096865.564750,,,,1.226214647,1.227742791,67975.000000000,1718096865.564750433
1718096865.565758,,,,1.225060701,1.227189898,67976.000000000,1718096865.565757513
1718096865.566765,,,,1.231070876,1.233921170,67977.000000000,1718096865.566764593
1718096865.567772,,,,1.238306999,1.237767696,67978.000000000,1718096865.567771673
1718096865.568779,,,,1.244124889,1.243825912,67979.000000000,1718096865.568778753
1718096865.569786,,,,1.254125714,1.256615520,67980.000000000,1718096865.569785833
1718096865.570793,,,,1.259631038,1.265005589,67981.000000000,1718096865.570792913
1718096865.571800,,,,1.256024957,1.256663561,67982.000000000,1718096865.571799994
1718096865.572705,1.235448956,13751.000000000,1718096865.572704554,,,,
1718096865.572807,,,,1.246048093,1.245220304,67983.000000000,1718096865.572807074
1718096865.573814,,,,1.242081404,1.242335439,67984.000000000,1718096865.573814154
1718096865.574821,,,,1.233835459,1.235892534,67985.000000000,1718096865.574821234
1718096865.575828,,,,1.227729201,1.228896737,67986.000000000,1718096865.575828314
1718096865.576835,,,,1.222632647,1.222405791,67987.000000000,1718096865.576835394
1718096865.577705,1.253117085,13752.000000000,1718096865.577704668,,,,
1718096865.577842,,,,1.208184242,1.208630562,67988.000000000,1718096865.577842474
1718096865.578850,,,,1.203881025,1.205433130,67989.000000000,1718096865.578849554
1718096865.579857,,,,1.203183770,1.206202388,67990.000000000,1718096865.579856634
1718096865.580864,,,,1.199649811,1.203822374,67991.000000000,1718096865.580863714
1718096865.581871,,,,1.194889784,1.197932482,67992.000000000,1718096865.581870794
1718096865.582705,1.253117085,13753.000000000,1718096865.582704544,,,,
1718096865.582878,,,,1.191596270,1.192210793,67993.000000000,1718096865.582877874
1718096865.583885,,,,1.189480662,1.190095305,67994.000000000,1718096865.583884954
1718096865.584892,,,,1.189600945,1.189253807,67995.000000000,1718096865.584892035
1718096865.585899,,,,1.194745541,1.194446564,67996.000000000,1718096865.585899115
1718096865.586906,,,,1.204289675,1.202404022,67997.000000000,1718096865.586906195
1718096865.587705,1.376797795,13754.000000000,1718096865.587704659,,,,
1718096865.587913,,,,1.221574783,1.222069263,67998.000000000,1718096865.587913275
1718096865.588920,,,,1.234316349,1.235820413,67999.000000000,1718096865.588920355
1718096865.589927,,,,1.228738904,1.231156588,68000.000000000,1718096865.589927435
1718096865.590935,,,,1.220420837,1.222790480,68001.000000000,1718096865.590934515
1718096865.591942,,,,1.213016391,1.216347575,68002.000000000,1718096865.591941595
1718096865.592705,1.288452864,13755.000000000,1718096865.592704535,,,,
1718096865.592949,,,,1.207414985,1.211876035,68003.000000000,1718096865.592948675
1718096865.593956,,,,1.214699268,1.214808941,68004.000000000,1718096865.593955755
1718096865.594963,,,,1.223161459,1.225434899,68005.000000000,1718096865.594962835
1718096865.595970,,,,1.222320080,1.226925373,68006.000000000,1718096865.595969915
1718096865.596977,,,,1.211814404,1.216179252,68007.000000000,1718096865.596976995
1718096865.597705,1.359130740,13756.000000000,1718096865.597704649,,,,
1718096865.597984,,,,1.202053905,1.203750253,68008.000000000,1718096865.597984076
1718096865.598991,,,,1.192221284,1.193052292,68009.000000000,1718096865.598991156
1718096865.599998,,,,1.182797432,1.184541941,68010.000000000,1718096865.599998236
1718096865.601005,,,,1.179503918,1.179541469,68011.000000000,1718096865.601005316
1718096865.602012,,,,1.184888959,1.185070753,68012.000000000,1718096865.602012396
1718096865.602705,1.465131164,13757.000000000,1718096865.602704525,,,,
1718096865.603019,,,,1.192798257,1.193845630,68013.000000000,1718096865.603019476
1718096865.604027,,,,1.202342391,1.202620387,68014.000000000,1718096865.604026556
1718096865.605034,,,,1.205924392,1.206370711,68015.000000000,1718096865.605033636
1718096865.606041,,,,1.210660458,1.212597251,68016.000000000,1718096865.606040716
1718096865.607048,,,,1.217608094,1.216852427,68017.000000000,1718096865.607047796
1718096865.607705,1.465131164,13758.000000000,1718096865.607704639,,,,
1718096865.608055,,,,1.225373268,1.227646589,68018.000000000,1718096865.608054876
1718096865.609062,,,,1.230566025,1.231324792,68019.000000000,1718096865.609061956
1718096865.610069,,,,1.243692160,1.245653033,68020.000000000,1718096865.610069036
1718096865.611076,,,,1.254654646,1.256831884,68021.000000000,1718096865.611076117
1718096865.612083,,,,1.258068323,1.258226156,68022.000000000,1718096865.612083197
1718096865.612705,1.553468943,13759.000000000,1718096865.612704515,,,,
1718096865.613090,,,,1.247779012,1.249066710,68023.000000000,1718096865.613090277
1718096865.614097,,,,1.245831728,1.245292425,68024.000000000,1718096865.614097357
1718096865.615104,,,,1.248644471,1.249739885,68025.000000000,1718096865.615104437
1718096865.616112,,,,1.232008457,1.234810710,68026.000000000,1718096865.616111517
1718096865.617119,,,,1.208761215,1.211154819,68027.000000000,1718096865.617118597
1718096865.617705,1.641803265,13760.000000000,1718096865.617704630,,,,
1718096865.618126,,,,1.204626203,1.205769658,68028.000000000,1718096865.618125677
1718096865.619133,,,,1.196043730,1.196177483,68029.000000000,1718096865.619132757
1718096865.620140,,,,1.175969958,1.174973726,68030.000000000,1718096865.620139837
1718096865.621147,,,,1.168877959,1.166367292,68031.000000000,1718096865.621146917
1718096865.622154,,,,1.166906595,1.166319132,68032.000000000,1718096865.622153997
1718096865.623161,,,,1.170440555,1.167881846,68033.000000000,1718096865.623161077
1718096865.624168,,,,1.163613081,1.162953496,68034.000000000,1718096865.624168158
1718096865.625175,,,,1.155270934,1.156823158,68035.000000000,1718096865.625175238
1718096865.626182,,,,1.166353703,1.167208672,68036.000000000,1718096865.626182318
1718096865.627189,,,,1.190634608,1.192018509,68037.000000000,1718096865.627189398
1718096865.628196,,,,1.193230987,1.194182158,68038.000000000,1718096865.628196478
1718096865.628255,1.747789860,13761.000000000,1718096865.628255367,,,,
1718096865.629204,,,,1.195370674,1.193076253,68039.000000000,1718096865.629203558
1718096865.630211,,,,1.207270741,1.207620859,68040.000000000,1718096865.630210638
1718096865.631218,,,,1.207222581,1.207043886,68041.000000000,1718096865.631217718
1718096865.632225,,,,1.227777243,1.228824615,68042.000000000,1718096865.632224798
1718096865.633232,,,,1.241552472,1.242599845,68043.000000000,1718096865.633231878
1718096865.633255,1.977426052,13762.000000000,1718096865.633255482,,,,
1718096865.634239,,,,1.229027390,1.229016900,68044.000000000,1718096865.634238958
1718096865.635246,,,,1.214506865,1.213631034,68045.000000000,1718096865.635246038
1718096865.636253,,,,1.201981783,1.202139616,68046.000000000,1718096865.636253119
1718096865.637260,,,,1.195755243,1.193508983,68047.000000000,1718096865.637260199
1718096865.638267,,,,1.178950906,1.178940415,68048.000000000,1718096865.638267279
1718096865.639274,,,,1.182244539,1.182955265,68049.000000000,1718096865.639274359
1718096865.640281,,,,1.193928242,1.195816875,68050.000000000,1718096865.640281439
1718096865.641289,,,,1.212703824,1.213967562,68051.000000000,1718096865.641288519
1718096865.642296,,,,1.227392673,1.229425669,68052.000000000,1718096865.642295599
1718096865.643303,,,,1.221166134,1.222333670,68053.000000000,1718096865.643302679
1718096865.644310,,,,1.209674716,1.214472413,68054.000000000,1718096865.644309759
1718096865.645317,,,,1.226022363,1.228752494,68055.000000000,1718096865.645316839
1718096865.646324,,,,1.250303268,1.249355197,68056.000000000,1718096865.646323919
1718096865.647331,,,,1.244653702,1.245268345,68057.000000000,1718096865.647330999
1718096865.648338,,,,1.225733876,1.228175521,68058.000000000,1718096865.648338079
1718096865.649345,,,,1.221262336,1.222574115,68059.000000000,1718096865.649345160
1718096865.650352,,,,1.239773512,1.238897562,68060.000000000,1718096865.650352240
1718096865.651359,,,,1.276507497,1.278275967,68061.000000000,1718096865.651359320
1718096865.652366,,,,1.292806983,1.294503331,68062.000000000,1718096865.652366400
1718096865.653373,,,,1.290571213,1.293589830,68063.000000000,1718096865.653373480
1718096865.654381,,,,1.288070917,1.292171478,68064.000000000,1718096865.654380560
1718096865.655388,,,,1.272516727,1.273419857,68065.000000000,1718096865.655387640
1718096865.656395,,,,1.250687957,1.249932170,68066.000000000,1718096865.656394720
1718096865.657402,,,,1.214747310,1.215890765,68067.000000000,1718096865.657401800
1718096865.658409,,,,1.192317486,1.191754103,68068.000000000,1718096865.658408880
1718096865.659416,,,,1.185898662,1.183436036,68069.000000000,1718096865.659415960
1718096865.660423,,,,1.182773352,1.181753159,68070.000000000,1718096865.660423040
1718096865.661430,,,,1.191283703,1.191946387,68071.000000000,1718096865.661430120
1718096865.662437,,,,1.211285472,1.214448333,68072.000000000,1718096865.662437201
1718096865.663444,,,,1.219387174,1.223295331,68073.000000000,1718096865.663444281
1718096865.664451,,,,1.208544850,1.212116480,68074.000000000,1718096865.664451361
1718096865.665458,,,,1.212583661,1.212717414,68075.000000000,1718096865.665458441
1718096865.666466,,,,1.234580755,1.236325264,68076.000000000,1718096865.666465521
1718096865.667473,,,,1.264366984,1.264669061,68077.000000000,1718096865.667472601
1718096865.668480,,,,1.272564769,1.272145629,68078.000000000,1718096865.668479681
1718096865.669487,,,,1.263381362,1.262697697,68079.000000000,1718096865.669486761
1718096865.670494,,,,1.249654174,1.249186993,68080.000000000,1718096865.670493841
1718096865.671501,,,,1.228546619,1.228007197,68081.000000000,1718096865.671500921
1718096865.672508,,,,1.207727432,1.209568143,68082.000000000,1718096865.672508001
1718096865.673515,,,,1.204530120,1.203509927,68083.000000000,1718096865.673515081
1718096865.674522,,,,1.195587039,1.196105361,68084.000000000,1718096865.674522161
1718096865.675529,,,,1.152506351,1.153313279,68085.000000000,1718096865.675529242
1718096865.676536,,,,1.097790003,1.097322822,68086.000000000,1718096865.676536322
1718096865.677543,,,,1.070912719,1.071022511,68087.000000000,1718096865.677543402
1718096865.678255,5.789325714,13771.000000000,1718096865.678255320,,,,
1718096865.678550,,,,1.063364029,1.062920809,68088.000000000,1718096865.678550482
1718096865.679558,,,,1.076273799,1.076623917,68089.000000000,1718096865.679557562
1718096865.680565,,,,1.114257813,1.114704132,68090.000000000,1718096865.680564642
1718096865.681572,,,,1.203688622,1.205577374,68091.000000000,1718096865.681571722
1718096865.682579,,,,1.269535661,1.268828034,68092.000000000,1718096865.682578802
1718096865.683255,6.617877007,13772.000000000,1718096865.683255434,,,,
1718096865.683586,,,,1.226046324,1.226781130,68093.000000000,1718096865.683585882
1718096865.684593,,,,1.191908836,1.191657901,68094.000000000,1718096865.684592962
1718096865.685600,,,,1.205732107,1.205240846,68095.000000000,1718096865.685600042
1718096865.686607,,,,1.236792445,1.236974359,68096.000000000,1718096865.686607122
1718096865.687614,,,,1.228426337,1.228752494,68097.000000000,1718096865.687614202
1718096865.688255,7.516587734,13773.000000000,1718096865.688255310,,,,
1718096865.688621,,,,1.210155606,1.209087372,68098.000000000,1718096865.688621283
1718096865.689628,,,,1.226503134,1.227430224,68099.000000000,1718096865.689628363
1718096865.690635,,,,1.255375862,1.255870223,68100.000000000,1718096865.690635443
1718096865.691643,,,,1.256048918,1.257985830,68101.000000000,1718096865.691642523
1718096865.692650,,,,1.246961594,1.247480035,68102.000000000,1718096865.692649603
1718096865.693255,8.450141907,13774.000000000,1718096865.693255424,,,,
1718096865.693657,,,,1.234460592,1.238969684,68103.000000000,1718096865.693656683
1718096865.694664,,,,1.231455445,1.231733561,68104.000000000,1718096865.694663763
1718096865.695671,,,,1.237681985,1.235315561,68105.000000000,1718096865.695670843
1718096865.696678,,,,1.243283391,1.245460629,68106.000000000,1718096865.696677923
1718096865.697685,,,,1.239412904,1.242623925,68107.000000000,1718096865.697685003
1718096865.698255,9.488899231,13775.000000000,1718096865.698255301,,,,
1718096865.698692,,,,1.193976283,1.195937157,68108.000000000,1718096865.698692083
1718096865.699699,,,,1.174575567,1.177690387,68109.000000000,1718096865.699699163
1718096865.700706,,,,1.182220459,1.183940887,68110.000000000,1718096865.700706244
1718096865.701713,,,,1.195106149,1.195624590,68111.000000000,1718096865.701713324
1718096865.702720,,,,1.206140757,1.208486319,68112.000000000,1718096865.702720404
1718096865.703255,10.597530365,13776.000000000,1718096865.703255415,,,,
1718096865.703727,,,,1.209290147,1.210674047,68113.000000000,1718096865.703727484
1718096865.704735,,,,1.225589633,1.225651264,68114.000000000,1718096865.704734564
1718096865.705742,,,,1.236768484,1.237863898,68115.000000000,1718096865.705741644
1718096865.706749,,,,1.242994905,1.245196223,68116.000000000,1718096865.706748724
1718096865.707756,,,,1.277108431,1.280030966,68117.000000000,1718096865.707755804
1718096865.708255,11.670422554,13777.000000000,1718096865.708255291,,,,
1718096865.708763,,,,1.308721781,1.308735371,68118.000000000,1718096865.708762884
1718096865.709770,,,,1.296965957,1.295873642,68119.000000000,1718096865.709769964
1718096865.710777,,,,1.261962891,1.262769818,68120.000000000,1718096865.710777044
1718096865.711784,,,,1.245038390,1.244547129,68121.000000000,1718096865.711784124
1718096865.712791,,,,1.233546972,1.234666467,68122.000000000,1718096865.712791204
1718096865.713255,12.865799904,13778.000000000,1718096865.713255405,,,,
1718096865.713798,,,,1.216670513,1.217044711,68123.000000000,1718096865.713798285
1718096865.714805,,,,1.207751513,1.205312967,68124.000000000,1718096865.714805365
1718096865.715812,,,,1.221887350,1.220650792,68125.000000000,1718096865.715812445
1718096865.716820,,,,1.226094484,1.225026250,68126.000000000,1718096865.716819525
1718096865.717827,,,,1.221791148,1.223896265,68127.000000000,1718096865.717826605
1718096865.718255,14.095634460,13779.000000000,1718096865.718255281,,,,
1718096865.718834,,,,1.219867945,1.221179724,68128.000000000,1718096865.718833685
1718096865.719841,,,,1.177099824,1.177570105,68129.000000000,1718096865.719840765
1718096865.720848,,,,1.165704608,1.165814281,68130.000000000,1718096865.720847845
1718096865.721855,,,,1.176210284,1.174300671,68131.000000000,1718096865.721854925
1718096865.722862,,,,1.196380377,1.196994901,68132.000000000,1718096865.722862005
1718096865.723255,15.272101402,13780.000000000,1718096865.723255396,,,,
1718096865.723869,,,,1.227128148,1.226324439,68133.000000000,1718096865.723869085
1718096865.724876,,,,1.243884444,1.241998792,68134.000000000,1718096865.724876165
1718096865.725883,,,,1.222536445,1.221876860,68135.000000000,1718096865.725883245
1718096865.726890,,,,1.199000716,1.197643995,68136.000000000,1718096865.726890326
1718096865.727897,,,,1.188278675,1.187595010,68137.000000000,1718096865.727897406
1718096865.728904,,,,1.176643014,1.177257657,68138.000000000,1718096865.728904486
1718096865.729912,,,,1.165872812,1.163963199,68139.000000000,1718096865.729911566
1718096865.730919,,,,1.152866960,1.151894808,68140.000000000,1718096865.730918646
1718096865.731926,,,,1.140510082,1.141268969,68141.000000000,1718096865.731925726
1718096865.732933,,,,1.147529960,1.146942496,68142.000000000,1718096865.732932806
1718096865.733940,,,,1.159285784,1.161270618,68143.000000000,1718096865.733939886
1718096865.734947,,,,1.169166446,1.168651104,68144.000000000,1718096865.734946966
1718096865.735954,,,,1.177941203,1.178171158,68145.000000000,1718096865.735954046
1718096865.736961,,,,1.190201879,1.189782739,68146.000000000,1718096865.736961126
1718096865.737968,,,,1.210179567,1.211202860,68147.000000000,1718096865.737968206
1718096865.738975,,,,1.203424215,1.206226468,68148.000000000,1718096865.738975286
1718096865.739982,,,,1.180705905,1.182666779,68149.000000000,1718096865.739982367
1718096865.740989,,,,1.184792757,1.186994076,68150.000000000,1718096865.740989447
1718096865.741997,,,,1.186571836,1.190191388,68151.000000000,1718096865.741996527
1718096865.743004,,,,1.174839973,1.178026915,68152.000000000,1718096865.743003607
1718096865.744011,,,,1.200467229,1.203077197,68153.000000000,1718096865.744010687
1718096865.745018,,,,1.229003310,1.230531454,68154.000000000,1718096865.745017767
1718096865.746025,,,,1.239148498,1.240460277,68155.000000000,1718096865.746024847
1718096865.747032,,,,1.247803092,1.249860048,68156.000000000,1718096865.747031927
1718096865.748039,,,,1.214506865,1.216203332,68157.000000000,1718096865.748039007
1718096865.749046,,,,1.151208162,1.150933266,68158.000000000,1718096865.749046087
1718096865.750053,,,,1.129211068,1.128022552,68159.000000000,1718096865.750053167
1718096865.751060,,,,1.138057947,1.138912916,68160.000000000,1718096865.751060247
1718096865.752067,,,,1.160463691,1.161631227,68161.000000000,1718096865.752067327
1718096865.753074,,,,1.208737135,1.211635590,68162.000000000,1718096865.753074408
1718096865.754081,,,,1.243956566,1.243345141,68163.000000000,1718096865.754081488
1718096865.755089,,,,1.246577024,1.244162440,68164.000000000,1718096865.755088568
1718096865.756096,,,,1.241360188,1.240532398,68165.000000000,1718096865.756095648
1718096865.757103,,,,1.242682457,1.242984533,68166.000000000,1718096865.757102728
1718096865.758110,,,,1.224579930,1.225194454,68167.000000000,1718096865.758109808
1718096865.759117,,,,1.201717377,1.200697184,68168.000000000,1718096865.759116888
1718096865.760124,,,,1.191163540,1.188292265,68169.000000000,1718096865.760123968
1718096865.761131,,,,1.169959784,1.167761564,68170.000000000,1718096865.761131048
1718096865.762138,,,,1.178013325,1.175935388,68171.000000000,1718096865.762138128
1718096865.763145,,,,1.208352566,1.208919048,68172.000000000,1718096865.763145208
1718096865.764152,,,,1.242802620,1.241493940,68173.000000000,1718096865.764152288
1718096865.765159,,,,1.233402729,1.230387211,68174.000000000,1718096865.765159369
1718096865.766166,,,,1.218521714,1.217237115,68175.000000000,1718096865.766166449
1718096865.767174,,,,1.214987755,1.216371655,68176.000000000,1718096865.767173529
1718096865.768181,,,,1.207751513,1.207404494,68177.000000000,1718096865.768180609
1718096865.769188,,,,1.223498106,1.223247170,68178.000000000,1718096865.769187689
1718096865.770195,,,,1.272324443,1.271592736,68179.000000000,1718096865.770194769
1718096865.771202,,,,1.284633160,1.281737804,68180.000000000,1718096865.771201849
1718096865.772209,,,,1.269535661,1.266928911,68181.000000000,1718096865.772208929
1718096865.772553,27.978298187,13791.000000000,1718096865.772552729,,,,
1718096865.773216,,,,1.258981943,1.259139776,68182.000000000,1718096865.773216009
1718096865.774223,,,,1.219795823,1.220001698,68183.000000000,1718096865.774223089
1718096865.775230,,,,1.174407244,1.175719023,68184.000000000,1718096865.775230169
1718096865.776237,,,,1.152578473,1.153986335,68185.000000000,1718096865.776237249
1718096865.777244,,,,1.173181176,1.172449470,68186.000000000,1718096865.777244329
1718096865.777553,29.007524490,13792.000000000,1718096865.777552843,,,,
1718096865.778251,,,,1.189528823,1.188724995,68187.000000000,1718096865.778251410
1718096865.779258,,,,1.197510242,1.196610212,68188.000000000,1718096865.779258490
1718096865.780266,,,,1.200106621,1.200264454,68189.000000000,1718096865.780265570
1718096865.781273,,,,1.231984377,1.234185696,68190.000000000,1718096865.781272650
1718096865.782280,,,,1.249582052,1.251470804,68191.000000000,1718096865.782279730
1718096865.782553,30.088546753,13793.000000000,1718096865.782552719,,,,
1718096865.783287,,,,1.221238256,1.223295331,68192.000000000,1718096865.783286810
1718096865.784294,,,,1.211477757,1.215458035,68193.000000000,1718096865.784293890
1718096865.785301,,,,1.222320080,1.225410819,68194.000000000,1718096865.785300970
1718096865.786308,,,,1.223642349,1.223247170,68195.000000000,1718096865.786308050
1718096865.787315,,,,1.206285000,1.206731319,68196.000000000,1718096865.787315130
1718096865.787553,31.151588440,13794.000000000,1718096865.787552834,,,,
1718096865.788322,,,,1.177171946,1.176464319,68197.000000000,1718096865.788322210
1718096865.789329,,,,1.152650595,1.151510239,68198.000000000,1718096865.789329290
1718096865.790336,,,,1.147674203,1.148360848,68199.000000000,1718096865.790336370
1718096865.791343,,,,1.167627811,1.169901252,68200.000000000,1718096865.791343451
1718096865.792351,,,,1.189192176,1.188148022,68201.000000000,1718096865.792350531
1718096865.792553,32.161849976,13795.000000000,1718096865.792552710,,,,
1718096865.793358,,,,1.197606444,1.196369886,68202.000000000,1718096865.793357611
1718096865.794365,,,,1.218641877,1.219857454,68203.000000000,1718096865.794364691
1718096865.795372,,,,1.219266891,1.222429872,68204.000000000,1718096865.795371771
1718096865.796379,,,,1.252659202,1.253874898,68205.000000000,1718096865.796378851
1718096865.797386,,,,1.275137186,1.275126696,68206.000000000,1718096865.797385931
1718096865.797553,33.328258514,13796.000000000,1718096865.797552824,,,,
1718096865.798393,,,,1.266410470,1.267457724,68207.000000000,1718096865.798393011
1718096865.799400,,,,1.260977268,1.260510087,68208.000000000,1718096865.799400091
1718096865.800407,,,,1.274103403,1.274982452,68209.000000000,1718096865.800407171
1718096865.801414,,,,1.286460280,1.285319924,68210.000000000,1718096865.801414251
1718096865.802421,,,,1.292662740,1.292748451,68211.000000000,1718096865.802421331
1718096865.802553,34.511413574,13797.000000000,1718096865.802552700,,,,
1718096865.803428,,,,1.292686701,1.290969372,68212.000000000,1718096865.803428411
1718096865.804435,,,,1.272564769,1.270871520,68213.000000000,1718096865.804435492
1718096865.805443,,,,1.227056026,1.227646589,68214.000000000,1718096865.805442572
1718096865.806450,,,,1.176594973,1.175550699,68215.000000000,1718096865.806449652
1718096865.807457,,,,1.117262840,1.117877483,68216.000000000,1718096865.807456732
1718096865.807553,35.746047974,13798.000000000,1718096865.807552814,,,,
1718096865.808464,,,,1.101564407,1.102130890,68217.000000000,1718096865.808463812
1718096865.809471,,,,1.136134744,1.137807131,68218.000000000,1718096865.809470892
1718096865.810478,,,,1.175657392,1.175670981,68219.000000000,1718096865.810477972
1718096865.811485,,,,1.176883459,1.176608562,68220.000000000,1718096865.811485052
1718096865.812492,,,,1.203231931,1.202259779,68221.000000000,1718096865.812492132
1718096865.812553,36.997329712,13799.000000000,1718096865.812552691,,,,
1718096865.813499,,,,1.237994552,1.239498615,68222.000000000,1718096865.813499212
1718096865.814506,,,,1.249726295,1.251398683,68223.000000000,1718096865.814506292
1718096865.815513,,,,1.259462714,1.258490682,68224.000000000,1718096865.815513372
1718096865.816520,,,,1.271242619,1.272938967,68225.000000000,1718096865.816520452
1718096865.816869,39.827297211,13801.000000000,1718096865.816868782,,,,
1718096865.817528,,,,1.267732620,1.265390277,68226.000000000,1718096865.817527533
1718096865.817553,38.386749268,13800.000000000,1718096865.817552805,,,,
1718096865.818535,,,,1.215107918,1.211563468,68227.000000000,1718096865.818534613
1718096865.819542,,,,1.147986650,1.145403862,68228.000000000,1718096865.819541693
1718096865.820549,,,,1.080961704,1.079076052,68229.000000000,1718096865.820548773
1718096865.821556,,,,1.042136192,1.043039322,68230.000000000,1718096865.821555853
1718096865.821869,41.128131866,13802.000000000,1718096865.821868896,,,,
1718096865.822563,,,,1.037015557,1.038351417,68231.000000000,1718096865.822562933
1718096865.823570,,,,1.063964963,1.064844012,68232.000000000,1718096865.823570013
1718096865.824577,,,,1.114858866,1.115761876,68233.000000000,1718096865.824577093
1718096865.825584,,,,1.143394947,1.144346118,68234.000000000,1718096865.825584173
1718096865.826591,,,,1.163540959,1.166319132,68235.000000000,1718096865.826591253
1718096865.826869,42.601425171,13803.000000000,1718096865.826868773,,,,
1718096865.827598,,,,1.224748135,1.225050211,68236.000000000,1718096865.827598333
1718096865.828605,,,,1.308385253,1.310105681,68237.000000000,1718096865.828605413
1718096865.829612,,,,1.330911160,1.330516100,68238.000000000,1718096865.829612494
1718096865.830620,,,,1.302230835,1.300152898,68239.000000000,1718096865.830619574
1718096865.831627,,,,1.285955429,1.286353588,68240.000000000,1718096865.831626654
1718096865.832634,,,,1.254774809,1.251951575,68241.000000000,1718096865.832633734
1718096865.833641,,,,1.220781446,1.217958331,68242.000000000,1718096865.833640814
1718096865.834648,,,,1.210996985,1.211251020,68243.000000000,1718096865.834647894
1718096865.835655,,,,1.210564256,1.209063292,68244.000000000,1718096865.835654974
1718096865.836662,,,,1.221382499,1.221732616,68245.000000000,1718096865.836662054
1718096865.837669,,,,1.239268661,1.239330292,68246.000000000,1718096865.837669134
1718096865.838676,,,,1.250543714,1.250797629,68247.000000000,1718096865.838676214
1718096865.839683,,,,1.232946038,1.233248115,68248.000000000,1718096865.839683294
1718096865.840690,,,,1.170704961,1.172257185,68249.000000000,1718096865.840690374
1718096865.841697,,,,1.100602746,1.104126334,68250.000000000,1718096865.841697454
1718096865.842705,,,,1.095963001,1.096481442,68251.000000000,1718096865.842704535
1718096865.843712,,,,1.114233732,1.114247322,68252.000000000,1718096865.843711615
1718096865.844719,,,,1.125893474,1.126868606,68253.000000000,1718096865.844718695
1718096865.845726,,,,1.137480974,1.137037754,68254.000000000,1718096865.845725775
1718096865.846733,,,,1.110771894,1.111266375,68255.000000000,1718096865.846732855
1718096865.847740,,,,1.129451394,1.129873753,68256.000000000,1718096865.847739935
1718096865.848747,,,,1.188230634,1.186104536,68257.000000000,1718096865.848747015
1718096865.849754,,,,1.197414041,1.197692037,68258.000000000,1718096865.849754095
1718096865.850761,,,,1.214675188,1.218655467,68259.000000000,1718096865.850761175
1718096865.851768,,,,1.203352094,1.206154346,68260.000000000,1718096865.851768255
1718096865.851869,50.659927368,13808.000000000,1718096865.851868868,,,,
1718096865.852775,,,,1.175128460,1.174589157,68261.000000000,1718096865.852775335
1718096865.853782,,,,1.195130229,1.197956562,68262.000000000,1718096865.853782415
1718096865.854789,,,,1.233450890,1.232767224,68263.000000000,1718096865.854789495
1718096865.855797,,,,1.298744917,1.297580600,68264.000000000,1718096865.855796576
1718096865.856804,,,,1.325141430,1.327631235,68265.000000000,1718096865.856803656
1718096865.856869,52.402370453,13809.000000000,1718096865.856868744,,,,
1718096865.857811,,,,1.298384309,1.301667452,68266.000000000,1718096865.857810736
1718096865.858818,,,,1.259486794,1.260966778,68267.000000000,1718096865.858817816
1718096865.859825,,,,1.229652405,1.229665995,68268.000000000,1718096865.859824896
1718096865.860832,,,,1.246360660,1.245821238,68269.000000000,1718096865.860831976
1718096865.861839,,,,1.260159850,1.262000561,68270.000000000,1718096865.861839056
1718096865.861869,54.091648102,13810.000000000,1718096865.861868858,,,,
1718096865.862846,,,,1.227609038,1.229521751,68271.000000000,1718096865.862846136
1718096865.863853,,,,1.170632839,1.169155955,68272.000000000,1718096865.863853216
1718096865.864860,,,,1.181907892,1.181392550,68273.000000000,1718096865.864860296
1718096865.865867,,,,1.210227728,1.209207535,68274.000000000,1718096865.865867376
1718096865.866869,55.848400116,13811.000000000,1718096865.866868734,,,,
1718096865.866874,,,,1.171618581,1.175069928,68275.000000000,1718096865.866874456
1718096865.867882,,,,1.154958487,1.156799078,68276.000000000,1718096865.867881536
1718096865.868889,,,,1.168180704,1.170045495,68277.000000000,1718096865.868888617
1718096865.869896,,,,1.050526381,1.051958323,68278.000000000,1718096865.869895697
1718096865.870903,,,,1.118681312,1.118262172,68279.000000000,1718096865.870902777
1718096865.871869,57.603664398,13812.000000000,1718096865.871868849,,,,
1718096865.871910,,,,1.252587080,1.254187346,68280.000000000,1718096865.871909857
1718096865.872917,,,,1.288455606,1.290296316,68281.000000000,1718096865.872916937
1718096865.873924,,,,1.248259783,1.249018669,68282.000000000,1718096865.873924017
1718096865.874931,,,,1.244365215,1.248513818,68283.000000000,1718096865.874931097
1718096865.875938,,,,1.261650443,1.262962222,68284.000000000,1718096865.875938177
1718096865.876869,59.305862427,13813.000000000,1718096865.876868725,,,,
1718096865.876945,,,,1.255520105,1.255269170,68285.000000000,1718096865.876945257
1718096865.877952,,,,1.232417107,1.234522223,68286.000000000,1718096865.877952337
1718096865.878959,,,,1.200130701,1.201274157,68287.000000000,1718096865.878959417
1718096865.879966,,,,1.137601137,1.136797428,68288.000000000,1718096865.879966497
1718096865.880974,,,,1.100170016,1.102034807,68289.000000000,1718096865.880973577
1718096865.881869,60.972324371,13814.000000000,1718096865.881868839,,,,
1718096865.881981,,,,1.104833961,1.106554389,68290.000000000,1718096865.881980658
1718096865.882988,,,,1.130605340,1.130378604,68291.000000000,1718096865.882987738
1718096865.883995,,,,1.173950434,1.173915982,68292.000000000,1718096865.883994818
1718096865.885002,,,,1.217728376,1.218415022,68293.000000000,1718096865.885001898
1718096865.886009,,,,1.212655783,1.212765574,68294.000000000,1718096865.886008978
1718096865.886869,62.620265961,13815.000000000,1718096865.886868715,,,,
1718096865.887016,,,,1.209338188,1.212140441,68295.000000000,1718096865.887016058
1718096865.888023,,,,1.262323499,1.262168884,68296.000000000,1718096865.888023138
1718096865.889030,,,,1.254510403,1.254331589,68297.000000000,1718096865.889030218
1718096865.890037,,,,1.216478229,1.216660142,68298.000000000,1718096865.890037298
1718096865.891044,,,,1.181739688,1.184085131,68299.000000000,1718096865.891044378
1718096865.891869,64.266891479,13816.000000000,1718096865.891868830,,,,
1718096865.892051,,,,1.152217865,1.154491186,68300.000000000,1718096865.892051458
1718096865.893059,,,,1.159862757,1.159756064,68301.000000000,1718096865.893058538
1718096865.894066,,,,1.193351269,1.192932010,68302.000000000,1718096865.894065619
1718096865.895073,,,,1.191596270,1.193076253,68303.000000000,1718096865.895072699
1718096865.896080,,,,1.168204784,1.169131875,68304.000000000,1718096865.896079779
1718096865.896869,65.792274475,13817.000000000,1718096865.896868706,,,,
1718096865.897087,,,,1.181547284,1.183387995,68305.000000000,1718096865.897086859
1718096865.898094,,,,1.218425512,1.217573643,68306.000000000,1718096865.898093939
1718096865.899101,,,,1.245038390,1.247504115,68307.000000000,1718096865.899101019
1718096865.900108,,,,1.236239552,1.236926317,68308.000000000,1718096865.900108099
1718096865.901115,,,,1.242273688,1.240652561,68309.000000000,1718096865.901115179
1718096865.901869,67.402122498,13818.000000000,1718096865.901868820,,,,
1718096865.902122,,,,1.226743579,1.227790833,68310.000000000,1718096865.902122259
1718096865.903129,,,,1.223762512,1.224377155,68311.000000000,1718096865.903129339
1718096865.904136,,,,1.236768484,1.234762669,68312.000000000,1718096865.904136419
1718096865.905143,,,,1.222079635,1.220987439,68313.000000000,1718096865.905143499
1718096865.906151,,,,1.217728376,1.217381358,68314.000000000,1718096865.906150579
1718096865.906869,69.044929504,13819.000000000,1718096865.906868696,,,,
1718096865.907158,,,,1.175441027,1.176271915,68315.000000000,1718096865.907157660
1718096865.908165,,,,1.118176460,1.121531606,68316.000000000,1718096865.908164740
1718096865.909172,,,,1.078461409,1.077849984,68317.000000000,1718096865.909171820
1718096865.910179,,,,1.060262799,1.060949445,68318.000000000,1718096865.910178900
1718096865.911186,,,,1.009441018,1.008901715,68319.000000000,1718096865.911185980
1718096865.911869,70.532592773,13820.000000000,1718096865.911868811,,,,
1718096865.912193,,,,1.015066504,1.015224338,68320.000000000,1718096865.912193060
1718096865.913200,,,,1.140942812,1.144682646,68321.000000000,1718096865.913200140
1718096865.914207,,,,1.258044362,1.261687994,68322.000000000,1718096865.914207220
1718096865.915214,,,,1.281099200,1.283492804,68323.000000000,1718096865.915214300
1718096865.916221,,,,1.337017536,1.335805058,68324.000000000,1718096865.916221380
1718096865.917228,,,,1.290835619,1.290055871,68325.000000000,1718096865.917228460
1718096865.918236,,,,1.259799242,1.260870695,68326.000000000,1718096865.918235540
1718096865.919243,,,,1.301870227,1.305057168,68327.000000000,1718096865.919242620
1718096865.920250,,,,1.272420526,1.276304722,68328.000000000,1718096865.920249701
1718096865.921037,72.036254883,13821.000000000,1718096865.921037436,,,,
1718096865.921257,,,,1.213280797,1.214808941,68329.000000000,1718096865.921256781
1718096865.922264,,,,1.200443149,1.200961590,68330.000000000,1718096865.922263861
1718096865.923271,,,,1.199120998,1.199158549,68331.000000000,1718096865.923270941
1718096865.924278,,,,1.164478540,1.163410306,68332.000000000,1718096865.924278021
1718096865.925285,,,,1.176450729,1.176271915,68333.000000000,1718096865.925285101
1718096865.926038,73.419357300,13822.000000000,1718096865.926037550,,,,
1718096865.926292,,,,1.200875878,1.202187657,68334.000000000,1718096865.926292181
1718096865.927299,,,,1.170849204,1.172834158,68335.000000000,1718096865.927299261
1718096865.928306,,,,1.190225959,1.190335631,68336.000000000,1718096865.928306341
1718096865.929313,,,,1.246264458,1.243777871,68337.000000000,1718096865.929313421
1718096865.930321,,,,1.279512525,1.277723074,68338.000000000,1718096865.930320501
1718096865.931328,,,,1.255784512,1.254884601,68339.000000000,1718096865.931327581
1718096865.932335,,,,1.219483256,1.217549562,68340.000000000,1718096865.932334661
1718096865.933342,,,,1.211622000,1.210217237,68341.000000000,1718096865.933341742
1718096865.934349,,,,1.246649146,1.249812007,68342.000000000,1718096865.934348822
1718096865.935356,,,,1.281531930,1.281882048,68343.000000000,1718096865.935355902
1718096865.936363,,,,1.280522227,1.278396249,68344.000000000,1718096865.936362982
1718096865.937370,,,,1.278743267,1.276881695,68345.000000000,1718096865.937370062
1718096865.938377,,,,1.248572350,1.246879101,68346.000000000,1718096865.938377142
1718096865.939384,,,,1.191235662,1.191105008,68347.000000000,1718096865.939384222
1718096865.940391,,,,1.173710108,1.173867941,68348.000000000,1718096865.940391302
1718096865.941398,,,,1.196356297,1.198124766,68349.000000000,1718096865.941398382
1718096865.942405,,,,1.246697187,1.251230359,68350.000000000,1718096865.942405462
1718096865.943413,,,,1.267804742,1.268347263,68351.000000000,1718096865.943412542
1718096865.944420,,,,1.252635241,1.249283075,68352.000000000,1718096865.944419622
1718096865.945427,,,,1.249101281,1.249836087,68353.000000000,1718096865.945426702
1718096865.946434,,,,1.233258486,1.234762669,68354.000000000,1718096865.946433783
1718096865.947441,,,,1.216766715,1.217741966,68355.000000000,1718096865.947440863
1718096865.948448,,,,1.202198148,1.204134941,68356.000000000,1718096865.948447943
1718096865.949455,,,,1.194841743,1.197692037,68357.000000000,1718096865.949455023
1718096865.950462,,,,1.240326405,1.242263317,68358.000000000,1718096865.950462103
1718096865.951469,,,,1.257611632,1.257432818,68359.000000000,1718096865.951469183
1718096865.952476,,,,1.232777715,1.232647061,68360.000000000,1718096865.952476263
1718096865.953483,,,,1.195106149,1.194350481,68361.000000000,1718096865.953483343
1718096865.954490,,,,1.139404178,1.137181997,68362.000000000,1718096865.954490423
1718096865.955498,,,,1.115580082,1.112997293,68363.000000000,1718096865.955497503
1718096865.956505,,,,1.111781597,1.109006524,68364.000000000,1718096865.956504583
1718096865.957512,,,,1.069638610,1.071094632,68365.000000000,1718096865.957511663
1718096865.958519,,,,1.120388150,1.124224186,68366.000000000,1718096865.958518744
1718096865.959526,,,,1.185441852,1.185671806,68367.000000000,1718096865.959525824
1718096865.960533,,,,1.158925176,1.156390429,68368.000000000,1718096865.960532904
1718096865.961540,,,,1.077836394,1.075710416,68369.000000000,1718096865.961539984
1718096865.962547,,,,1.053290963,1.054650903,68370.000000000,1718096865.962547064
1718096865.963554,,,,1.089568138,1.091120362,68371.000000000,1718096865.963554144
1718096865.964561,,,,1.090409636,1.092250228,68372.000000000,1718096865.964561224
1718096865.965568,,,,1.050189734,1.051814079,68373.000000000,1718096865.965568304
1718096865.966575,,,,1.109569907,1.111025929,68374.000000000,1718096865.966575384
1718096865.967582,,,,1.203087687,1.206442833,68375.000000000,1718096865.967582464
1718096865.968590,,,,1.249582052,1.252192020,68376.000000000,1718096865.968589544
1718096865.969597,,,,1.261986971,1.262000561,68377.000000000,1718096865.969596624
1718096865.970604,,,,1.300932646,1.299503803,68378.000000000,1718096865.970603704
1718096865.971037,84.756492615,13831.000000000,1718096865.971037388,,,,
1718096865.971611,,,,1.284464836,1.285392046,68379.000000000,1718096865.971610785
1718096865.972618,,,,1.219940066,1.219568968,68380.000000000,1718096865.972617865
1718096865.973625,,,,1.183710933,1.184445739,68381.000000000,1718096865.973624945
1718096865.974632,,,,1.230541945,1.231589317,68382.000000000,1718096865.974632025
1718096865.975639,,,,1.320165038,1.319769979,68383.000000000,1718096865.975639105
1718096865.976038,86.131111145,13832.000000000,1718096865.976037502,,,,
1718096865.976646,,,,1.265713215,1.265823007,68384.000000000,1718096865.976646185
1718096865.977653,,,,1.106973529,1.106939077,68385.000000000,1718096865.977653265
1718096865.978660,,,,1.044203639,1.044842362,68386.000000000,1718096865.978660345
1718096865.979667,,,,1.065263152,1.066142201,68387.000000000,1718096865.979667425
1718096865.980675,,,,1.079807758,1.083571672,68388.000000000,1718096865.980674505
1718096865.981037,87.386146545,13833.000000000,1718096865.981037378,,,,
1718096865.981682,,,,1.066056490,1.065973997,68389.000000000,1718096865.981681585
1718096865.982689,,,,1.126686811,1.128647685,68390.000000000,1718096865.982688665
1718096865.983696,,,,1.285666943,1.288613439,68391.000000000,1718096865.983695745
1718096865.984703,,,,1.298648834,1.297917128,68392.000000000,1718096865.984702826
1718096865.985710,,,,1.153516054,1.152327538,68393.000000000,1718096865.985709906
1718096865.986037,88.623489380,13834.000000000,1718096865.986037493,,,,
1718096865.986717,,,,1.032616138,1.034985662,68394.000000000,1718096865.986716986
1718096865.987724,,,,1.029034138,1.028855324,68395.000000000,1718096865.987724066
1718096865.988731,,,,1.065263152,1.064868093,68396.000000000,1718096865.988731146
1718096865.989738,,,,1.123393178,1.125474334,68397.000000000,1718096865.989738226
1718096865.990745,,,,1.222680688,1.222694278,68398.000000000,1718096865.990745306
1718096865.991037,89.758476257,13835.000000000,1718096865.991037369,,,,
1718096865.991752,,,,1.247394323,1.246566534,68399.000000000,1718096865.991752386
1718096865.992759,,,,1.221190214,1.221131682,68400.000000000,1718096865.992759466
1718096865.993767,,,,1.323458672,1.326669574,68401.000000000,1718096865.993766546
1718096865.994774,,,,1.420606494,1.423673153,68402.000000000,1718096865.994773626
1718096865.995781,,,,1.437723279,1.436126232,68403.000000000,1718096865.995780706
1718096865.996037,90.943618774,13836.000000000,1718096865.996037483,,,,
1718096865.996788,,,,1.374088049,1.375688314,68404.000000000,1718096865.996787786
1718096865.997795,,,,1.294393659,1.296835303,68405.000000000,1718096865.997794867
1718096865.998802,,,,1.243692160,1.246518493,68406.000000000,1718096865.998801947
1718096865.999809,,,,1.170801163,1.173387051,68407.000000000,1718096865.999809027
1718096866.000816,,,,1.119450569,1.119367957,68408.000000000,1718096866.000816107
1718096866.001037,92.077362061,13837.000000000,1718096866.001037359,,,,
1718096866.001823,,,,1.154742122,1.154947996,68409.000000000,1718096866.001823187
1718096866.002830,,,,1.163060069,1.163602591,68410.000000000,1718096866.002830267
1718096866.003837,,,,1.117719650,1.119560361,68411.000000000,1718096866.003837347
1718096866.004844,,,,1.140221596,1.142518997,68412.000000000,1718096866.004844427
1718096866.005852,,,,1.168445230,1.168530941,68413.000000000,1718096866.005851507
1718096866.006037,93.210472107,13838.000000000,1718096866.006037474,,,,
1718096866.006859,,,,1.128225327,1.129416943,68414.000000000,1718096866.006858587
1718096866.007866,,,,1.172916770,1.174733400,68415.000000000,1718096866.007865667
1718096866.008873,,,,1.304610848,1.305513978,68416.000000000,1718096866.008872747
1718096866.009880,,,,1.335791469,1.334170222,68417.000000000,1718096866.009879827
1718096866.010887,,,,1.191187620,1.190095305,68418.000000000,1718096866.010886908
1718096866.011037,94.359878540,13839.000000000,1718096866.011037350,,,,
1718096866.011894,,,,1.149861813,1.151462078,68419.000000000,1718096866.011893988
1718096866.012901,,,,1.237441540,1.237887859,68420.000000000,1718096866.012901068
1718096866.013908,,,,1.272973537,1.270486832,68421.000000000,1718096866.013908148
1718096866.014915,,,,1.149284840,1.147928119,68422.000000000,1718096866.014915228
1718096866.015922,,,,1.140101433,1.139562011,68423.000000000,1718096866.015922308
1718096866.016037,95.491775513,13840.000000000,1718096866.016037464,,,,
1718096866.016929,,,,1.151111960,1.149034023,68424.000000000,1718096866.016929388
1718096866.017936,,,,1.117118597,1.116459131,68425.000000000,1718096866.017936468
1718096866.018944,,,,1.174479365,1.174420834,68426.000000000,1718096866.018943548
1718096866.019951,,,,1.240398526,1.240965128,68427.000000000,1718096866.019950628
1718096866.020958,,,,1.284128308,1.284238100,68428.000000000,1718096866.020957708
1718096866.021965,,,,1.268766403,1.270318627,68429.000000000,1718096866.021964788
1718096866.022972,,,,1.183109999,1.187715292,68430.000000000,1718096866.022971869
1718096866.023979,,,,1.094183922,1.097178578,68431.000000000,1718096866.023978949
1718096866.024986,,,,1.051608205,1.055492282,68432.000000000,1718096866.024986029
1718096866.025793,96.572410583,13841.000000000,1718096866.025793314,,,,
1718096866.025993,,,,1.034322977,1.036139607,68433.000000000,1718096866.025993109
1718096866.027000,,,,1.025403976,1.027124405,68434.000000000,1718096866.027000189
1718096866.028007,,,,1.045429707,1.046452999,68435.000000000,1718096866.028007269
1718096866.029014,,,,1.113536596,1.113838673,68436.000000000,1718096866.029014349
1718096866.030021,,,,1.203640580,1.203413725,68437.000000000,1718096866.030021429
1718096866.030793,97.618751526,13842.000000000,1718096866.030793428,,,,
1718096866.031029,,,,1.261986971,1.263899803,68438.000000000,1718096866.031028509
1718096866.032036,,,,1.305332065,1.307653546,68439.000000000,1718096866.032035589
1718096866.033043,,,,1.285739064,1.289767385,68440.000000000,1718096866.033042669
1718096866.034050,,,,1.270545363,1.275511384,68441.000000000,1718096866.034049749
1718096866.035057,,,,1.251216769,1.254259467,68442.000000000,1718096866.035056829
1718096866.035793,98.580253601,13843.000000000,1718096866.035793304,,,,
1718096866.036064,,,,1.107838988,1.106770754,68443.000000000,1718096866.036063910
1718096866.037071,,,,1.003142476,1.001929998,68444.000000000,1718096866.037070990
1718096866.038078,,,,0.972057998,0.975677669,68445.000000000,1718096866.038078070
1718096866.039085,,,,0.981794417,0.984139979,68446.000000000,1718096866.039085150
1718096866.040092,,,,1.114041448,1.113045335,68447.000000000,1718096866.040092230
1718096866.040793,99.473884583,13844.000000000,1718096866.040793419,,,,
1718096866.041099,,,,1.316967726,1.318495870,68448.000000000,1718096866.041099310
1718096866.042106,,,,1.324756861,1.325563788,68449.000000000,1718096866.042106390
1718096866.043113,,,,1.204049230,1.202548265,68450.000000000,1718096866.043113470
1718096866.044121,,,,1.106300354,1.103813767,68451.000000000,1718096866.044120550
1718096866.045128,,,,1.109113097,1.111723065,68452.000000000,1718096866.045127630
1718096866.045793,100.350280762,13845.000000000,1718096866.045793295,,,,
1718096866.046135,,,,1.123970151,1.125402212,68453.000000000,1718096866.046134710
1718096866.047142,,,,1.217319608,1.213775277,68454.000000000,1718096866.047141790
1718096866.048149,,,,1.262563944,1.263010263,68455.000000000,1718096866.048148870
1718096866.049156,,,,1.264847755,1.266544223,68456.000000000,1718096866.049155951
1718096866.050163,,,,1.245663404,1.245220304,68457.000000000,1718096866.050163031
1718096866.050793,101.074729919,13846.000000000,1718096866.050793409,,,,
1718096866.051170,,,,1.252106309,1.252528548,68458.000000000,1718096866.051170111
1718096866.052177,,,,1.242321849,1.240484238,68459.000000000,1718096866.052177191
1718096866.053184,,,,1.212872148,1.215241671,68460.000000000,1718096866.053184271
1718096866.054191,,,,1.247851133,1.248898506,68461.000000000,1718096866.054191351
1718096866.055198,,,,1.285883307,1.287171006,68462.000000000,1718096866.055198431
1718096866.055793,101.798934937,13847.000000000,1718096866.055793285,,,,
1718096866.056206,,,,1.296485186,1.296570897,68463.000000000,1718096866.056205511
1718096866.057213,,,,1.254221916,1.251951575,68464.000000000,1718096866.057212591
1718096866.058220,,,,1.174599648,1.172882199,68465.000000000,1718096866.058219671
1718096866.059227,,,,1.103415489,1.103958011,68466.000000000,1718096866.059226751
1718096866.060234,,,,1.094544530,1.093067646,68467.000000000,1718096866.060233831
1718096866.061241,,,,1.123489380,1.123647213,68468.000000000,1718096866.061240911
1718096866.062248,,,,1.105819583,1.109343052,68469.000000000,1718096866.062247992
1718096866.063255,,,,1.084639907,1.085711241,68470.000000000,1718096866.063255072
1718096866.064262,,,,1.153155446,1.154298902,68471.000000000,1718096866.064262152
1718096866.065269,,,,1.239749432,1.238464832,68472.000000000,1718096866.065269232
1718096866.066276,,,,1.318025470,1.316981316,68473.000000000,1718096866.066276312
1718096866.067283,,,,1.307904363,1.310081601,68474.000000000,1718096866.067283392
1718096866.068290,,,,1.285113931,1.283925533,68475.000000000,1718096866.068290472
1718096866.069298,,,,1.251986146,1.251903534,68476.000000000,1718096866.069297552
1718096866.070305,,,,1.216935039,1.217309237,68477.000000000,1718096866.070304632
1718096866.071312,,,,1.164670825,1.164299726,68478.000000000,1718096866.071311712
1718096866.072319,,,,1.088510394,1.088692307,68479.000000000,1718096866.072318792
1718096866.073326,,,,1.068460584,1.070902228,68480.000000000,1718096866.073325872
1718096866.074333,,,,0.960638762,0.962791979,68481.000000000,1718096866.074332952
1718096866.075340,,,,0.885992885,0.886487246,68482.000000000,1718096866.075340033
1718096866.075793,104.171905518,13851.000000000,1718096866.075793266,,,,
1718096866.076347,,,,0.878396034,0.878505826,68483.000000000,1718096866.076347113
1718096866.077354,,,,1.007037044,1.006016850,68484.000000000,1718096866.077354193
1718096866.078361,,,,1.118272543,1.116314888,68485.000000000,1718096866.078361273
1718096866.079368,,,,1.181475163,1.179060698,68486.000000000,1718096866.079368353
1718096866.080375,,,,1.246048093,1.246518493,68487.000000000,1718096866.080375433
1718096866.080793,105.080009460,13852.000000000,1718096866.080793381,,,,
1718096866.081383,,,,1.333579659,1.336045384,68488.000000000,1718096866.081382513
1718096866.082390,,,,1.378198981,1.378813505,68489.000000000,1718096866.082389593
1718096866.083397,,,,1.372308969,1.372563004,68490.000000000,1718096866.083396673
1718096866.084404,,,,1.283286929,1.283444762,68491.000000000,1718096866.084403753
1718096866.085411,,,,1.216718674,1.215049386,68492.000000000,1718096866.085410833
1718096866.085793,106.155776978,13853.000000000,1718096866.085793257,,,,
1718096866.086418,,,,1.155102730,1.154130578,68493.000000000,1718096866.086417913
1718096866.087425,,,,1.051920652,1.053929687,68494.000000000,1718096866.087424994
1718096866.088432,,,,1.004512787,1.007411242,68495.000000000,1718096866.088432074
1718096866.089439,,,,0.985496700,0.990847290,68496.000000000,1718096866.089439154
1718096866.090446,,,,0.984631240,0.988443196,68497.000000000,1718096866.090446234
1718096866.090793,107.499717712,13854.000000000,1718096866.090793371,,,,
1718096866.091453,,,,1.076562285,1.078162551,68498.000000000,1718096866.091453314
1718096866.092460,,,,1.042039990,1.046477079,68499.000000000,1718096866.092460394
1718096866.093467,,,,0.932559431,0.932669163,68500.000000000,1718096866.093467474
1718096866.094475,,,,0.802524090,0.803258896,68501.000000000,1718096866.094474554
1718096866.095482,,,,0.762184083,0.764289200,68502.000000000,1718096866.095481634
1718096866.095793,109.010650635,13855.000000000,1718096866.095793247,,,,
1718096866.096489,,,,0.880151033,0.880813718,68503.000000000,1718096866.096488714
1718096866.097496,,,,1.108584285,1.109751821,68504.000000000,1718096866.097495794
1718096866.098503,,,,1.258981943,1.259404182,68505.000000000,1718096866.098502874
1718096866.099510,,,,1.220805526,1.218126535,68506.000000000,1718096866.099509954
1718096866.100517,,,,1.297735214,1.295320749,68507.000000000,1718096866.100517035
1718096866.100793,110.688217163,13856.000000000,1718096866.100793362,,,,
1718096866.101524,,,,1.352451563,1.352272749,68508.000000000,1718096866.101524115
1718096866.102531,,,,1.257467389,1.259019494,68509.000000000,1718096866.102531195
1718096866.103538,,,,1.138274312,1.138239861,68510.000000000,1718096866.103538275
1718096866.104545,,,,1.144789338,1.144322038,68511.000000000,1718096866.104545355
1718096866.105552,,,,1.209338188,1.210481644,68512.000000000,1718096866.105552435
1718096866.105793,112.196922302,13857.000000000,1718096866.105793238,,,,
1718096866.106560,,,,1.282878160,1.283685088,68513.000000000,1718096866.106559515
1718096866.107567,,,,1.351129293,1.349748492,68514.000000000,1718096866.107566595
1718096866.108574,,,,1.340046644,1.339579344,68515.000000000,1718096866.108573675
1718096866.109581,,,,1.335911632,1.336526275,68516.000000000,1718096866.109580755
1718096866.110588,,,,1.413226008,1.414754152,68517.000000000,1718096866.110587835
1718096866.110793,113.721321106,13858.000000000,1718096866.110793352,,,,
1718096866.111595,,,,1.426832914,1.426197410,68518.000000000,1718096866.111594915
1718096866.112602,,,,1.362933159,1.364052653,68519.000000000,1718096866.112601995
1718096866.113609,,,,1.341489077,1.342776775,68520.000000000,1718096866.113609076
1718096866.114616,,,,1.319203496,1.319433451,68521.000000000,1718096866.114616156
1718096866.115623,,,,1.314876199,1.315466762,68522.000000000,1718096866.115623236
1718096866.115793,114.976882935,13859.000000000,1718096866.115793228,,,,
1718096866.116630,,,,1.305139780,1.303807020,68523.000000000,1718096866.116630316
1718096866.117637,,,,1.311221957,1.309937358,68524.000000000,1718096866.117637396
1718096866.118644,,,,1.354591131,1.356239438,68525.000000000,1718096866.118644476
1718096866.119652,,,,1.359327078,1.361167789,68526.000000000,1718096866.119651556
1718096866.120651,116.616401672,13861.000000000,1718096866.120651484,,,,
1718096866.120659,,,,1.353749752,1.356768370,68527.000000000,1718096866.120658636
1718096866.120793,115.964096069,13860.000000000,1718096866.120793343,,,,
1718096866.121666,,,,1.384569645,1.386193991,68528.000000000,1718096866.121665716
1718096866.122673,,,,1.433011413,1.433385611,68529.000000000,1718096866.122672796
1718096866.123680,,,,1.382430077,1.382996559,68530.000000000,1718096866.123679876
1718096866.124687,,,,1.290162444,1.291666627,68531.000000000,1718096866.124686956
1718096866.125652,116.984291077,13862.000000000,1718096866.125651598,,,,
1718096866.125694,,,,1.265424728,1.265270114,68532.000000000,1718096866.125694036
1718096866.126701,,,,1.253356457,1.252023697,68533.000000000,1718096866.126701117
1718096866.127708,,,,1.208064079,1.210048914,68534.000000000,1718096866.127708197
1718096866.128715,,,,1.138442636,1.141341090,68535.000000000,1718096866.128715277
1718096866.129722,,,,1.058700085,1.061887026,68536.000000000,1718096866.129722357
1718096866.130651,117.168197632,13863.000000000,1718096866.130651474,,,,
1718096866.130729,,,,1.039972544,1.040683270,68537.000000000,1718096866.130729437
1718096866.131737,,,,1.054733396,1.056550026,68538.000000000,1718096866.131736517
1718096866.132744,,,,1.088486314,1.090206861,68539.000000000,1718096866.132743597
1718096866.133751,,,,1.107141852,1.106650591,68540.000000000,1718096866.133750677
1718096866.134758,,,,1.092789650,1.092803240,68541.000000000,1718096866.134757757
1718096866.135765,,,,1.078918219,1.081215620,68542.000000000,1718096866.135764837
1718096866.136772,,,,1.074542880,1.076094985,68543.000000000,1718096866.136771917
1718096866.137779,,,,1.097525597,1.097082376,68544.000000000,1718096866.137778997
1718096866.138786,,,,1.087332368,1.086913228,68545.000000000,1718096866.138786077
1718096866.139793,,,,1.068580747,1.068906903,68546.000000000,1718096866.139793158
1718096866.140800,,,,1.080288529,1.080350161,68547.000000000,1718096866.140800238
1718096866.141807,,,,1.068172097,1.068690538,68548.000000000,1718096866.141807318
1718096866.142814,,,,1.037616611,1.038303256,68549.000000000,1718096866.142814398
1718096866.143821,,,,1.086683273,1.086095929,68550.000000000,1718096866.143821478
1718096866.144829,,,,1.151256204,1.151654482,68551.000000000,1718096866.144828558
1718096866.145836,,,,1.172748446,1.174420834,68552.000000000,1718096866.145835638
1718096866.146843,,,,1.196764946,1.197067022,68553.000000000,1718096866.146842718
1718096866.147850,,,,1.202534676,1.200985670,68554.000000000,1718096866.147849798
1718096866.148857,,,,1.184864879,1.185647726,68555.000000000,1718096866.148856878
1718096866.149864,,,,1.197101593,1.196946859,68556.000000000,1718096866.149863958
1718096866.150871,,,,1.170560718,1.169732928,68557.000000000,1718096866.150871038
1718096866.151878,,,,1.184552431,1.182378292,68558.000000000,1718096866.151878119
1718096866.152885,,,,1.247250080,1.244811535,68559.000000000,1718096866.152885199
1718096866.153892,,,,1.232224822,1.231613278,68560.000000000,1718096866.153892279
1718096866.154899,,,,1.083846569,1.083235025,68561.000000000,1718096866.154899359
1718096866.155906,,,,0.999824822,1.000944257,68562.000000000,1718096866.155906439
1718096866.156914,,,,0.918255270,0.919494927,68563.000000000,1718096866.156913519
1718096866.157921,,,,0.840147555,0.838334084,68564.000000000,1718096866.157920599
1718096866.158928,,,,0.887146831,0.888146043,68565.000000000,1718096866.158927679
1718096866.159935,,,,0.964893937,0.968128979,68566.000000000,1718096866.159934759
1718096866.160942,,,,1.059084773,1.062367916,68567.000000000,1718096866.160941839
1718096866.161949,,,,1.132264137,1.132590294,68568.000000000,1718096866.161948919
1718096866.162956,,,,1.190850973,1.190576077,68569.000000000,1718096866.162955999
1718096866.163963,,,,1.251312971,1.249259114,68570.000000000,1718096866.163963079
1718096866.164970,,,,1.317063808,1.314432979,68571.000000000,1718096866.164970160
1718096866.165977,,,,1.273742795,1.274237156,68572.000000000,1718096866.165977240
1718096866.166984,,,,1.258885741,1.261207223,68573.000000000,1718096866.166984320
1718096866.167991,,,,1.252995849,1.255317330,68574.000000000,1718096866.167991400
1718096866.168998,,,,1.262756228,1.261399508,68575.000000000,1718096866.168998480
1718096866.170006,,,,1.245687485,1.243369102,68576.000000000,1718096866.170005560
1718096866.170651,118.655715942,13871.000000000,1718096866.170651436,,,,
1718096866.171013,,,,1.241408229,1.243681669,68577.000000000,1718096866.171012640
1718096866.172020,,,,1.259654999,1.264500737,68578.000000000,1718096866.172019720
1718096866.173027,,,,1.263886213,1.266303778,68579.000000000,1718096866.173026800
1718096866.174034,,,,1.300644159,1.301547289,68580.000000000,1718096866.174033880
1718096866.175041,,,,1.432266116,1.432856679,68581.000000000,1718096866.175040960
1718096866.175652,119.023254395,13872.000000000,1718096866.175651550,,,,
1718096866.176048,,,,1.403730035,1.402998328,68582.000000000,1718096866.176048040
1718096866.177055,,,,1.295451403,1.293950438,68583.000000000,1718096866.177055120
1718096866.178062,,,,1.187797904,1.187426805,68584.000000000,1718096866.178062201
1718096866.179069,,,,1.070912719,1.070998430,68585.000000000,1718096866.179069281
1718096866.180076,,,,0.920010209,0.920624852,68586.000000000,1718096866.180076361
1718096866.180651,119.390747070,13873.000000000,1718096866.180651426,,,,
1718096866.181083,,,,0.919264972,0.917355299,68587.000000000,1718096866.181083441
1718096866.182091,,,,1.032399774,1.034144282,68588.000000000,1718096866.182090521
1718096866.183098,,,,1.030404449,1.030970931,68589.000000000,1718096866.183097601
1718096866.184105,,,,0.963836133,0.964210331,68590.000000000,1718096866.184104681
1718096866.185112,,,,1.032904625,1.033735633,68591.000000000,1718096866.185111761
1718096866.185652,119.774856567,13874.000000000,1718096866.185651541,,,,
1718096866.186119,,,,1.106083989,1.108429551,68592.000000000,1718096866.186118841
1718096866.187126,,,,1.137985826,1.140355349,68593.000000000,1718096866.187125921
1718096866.188133,,,,1.135341406,1.139994740,68594.000000000,1718096866.188133001
1718096866.189140,,,,1.196716905,1.198677778,68595.000000000,1718096866.189140081
1718096866.190147,,,,1.246192336,1.245653033,68596.000000000,1718096866.190147161
1718096866.190651,120.309173584,13875.000000000,1718096866.190651417,,,,
1718096866.191154,,,,1.333555698,1.334867477,68597.000000000,1718096866.191154242
1718096866.192161,,,,1.436280847,1.436174273,68598.000000000,1718096866.192161322
1718096866.193168,,,,1.459744453,1.458772421,68599.000000000,1718096866.193168402
1718096866.194175,,,,1.424645305,1.423192382,68600.000000000,1718096866.194175482
1718096866.195183,,,,1.354543090,1.352993965,68601.000000000,1718096866.195182562
1718096866.195652,120.843360901,13876.000000000,1718096866.195651531,,,,
1718096866.196190,,,,1.249485850,1.248754263,68602.000000000,1718096866.196189642
1718096866.197197,,,,1.206765890,1.205505252,68603.000000000,1718096866.197196722
1718096866.198204,,,,1.161858082,1.162160158,68604.000000000,1718096866.198203802
1718096866.199211,,,,1.136399150,1.138215780,68605.000000000,1718096866.199210882
1718096866.200218,,,,1.185946703,1.184998631,68606.000000000,1718096866.200217962
1718096866.200651,121.460868835,13877.000000000,1718096866.200651407,,,,
1718096866.201225,,,,1.156857610,1.157039523,68607.000000000,1718096866.201225042
1718096866.202232,,,,1.184143662,1.182762861,68608.000000000,1718096866.202232122
1718096866.203239,,,,1.084904313,1.081408024,68609.000000000,1718096866.203239202
1718096866.204246,,,,0.935564458,0.934736609,68610.000000000,1718096866.204246283
1718096866.205253,,,,1.009248734,1.011594296,68611.000000000,1718096866.205253363
1718096866.205652,122.044815063,13878.000000000,1718096866.205651522,,,,
1718096866.206260,,,,1.147241473,1.150789022,68612.000000000,1718096866.206260443
1718096866.207268,,,,1.175080419,1.175021887,68613.000000000,1718096866.207267523
1718096866.208275,,,,1.208544850,1.207885265,68614.000000000,1718096866.208274603
1718096866.209282,,,,1.202462554,1.201322198,68615.000000000,1718096866.209281683
1718096866.210289,,,,1.187100649,1.187522888,68616.000000000,1718096866.210288763
1718096866.210651,122.428489685,13879.000000000,1718096866.210651398,,,,
1718096866.211296,,,,1.223257661,1.224689603,68617.000000000,1718096866.211295843
1718096866.212303,,,,1.272925377,1.272217751,68618.000000000,1718096866.212302923
1718096866.213310,,,,1.410196900,1.410330653,68619.000000000,1718096866.213310003
1718096866.214317,,,,1.314371347,1.311884642,68620.000000000,1718096866.214317083
1718096866.215324,,,,1.322569132,1.319457412,68621.000000000,1718096866.215324163
1718096866.215652,122.661987305,13880.000000000,1718096866.215651512,,,,
1718096866.216331,,,,1.405268550,1.405258179,68622.000000000,1718096866.216331244
1718096866.217338,,,,1.439959049,1.442184448,68623.000000000,1718096866.217338324
1718096866.218345,,,,1.340238929,1.340276599,68624.000000000,1718096866.218345404
1718096866.219352,,,,1.231046796,1.231685400,68625.000000000,1718096866.219352484
1718096866.220360,,,,1.175777555,1.175815225,68626.000000000,1718096866.220359564
1718096866.221367,,,,1.131086230,1.130811334,68627.000000000,1718096866.221366644
1718096866.222374,,,,1.045862436,1.044938445,68628.000000000,1718096866.222373724
1718096866.223381,,,,1.007806301,1.010680676,68629.000000000,1718096866.223380804
1718096866.224388,,,,1.044396043,1.046933889,68630.000000000,1718096866.224387884
1718096866.225395,,,,1.052040935,1.051862121,68631.000000000,1718096866.225394964
1718096866.226402,,,,1.110170960,1.109078646,68632.000000000,1718096866.226402044
1718096866.227409,,,,1.142096758,1.142182469,68633.000000000,1718096866.227409124
1718096866.228416,,,,1.190562487,1.192739725,68634.000000000,1718096866.228416204
1718096866.229423,,,,1.184840918,1.184638023,68635.000000000,1718096866.229423285
1718096866.230430,,,,1.134187460,1.134128928,68636.000000000,1718096866.230430365
1718096866.231437,,,,1.111252785,1.110881686,68637.000000000,1718096866.231437445
1718096866.232445,,,,1.111949921,1.112203956,68638.000000000,1718096866.232444525
1718096866.233452,,,,1.137577176,1.137085915,68639.000000000,1718096866.233451605
1718096866.234459,,,,1.149837852,1.147880077,68640.000000000,1718096866.234458685
1718096866.235466,,,,1.172219515,1.172377348,68641.000000000,1718096866.235465765
1718096866.236473,,,,1.147145271,1.146966577,68642.000000000,1718096866.236472845
1718096866.237480,,,,1.096708179,1.097274780,68643.000000000,1718096866.237479925
1718096866.238487,,,,1.061344624,1.063305497,68644.000000000,1718096866.238487005
1718096866.239494,,,,1.110435367,1.111867309,68645.000000000,1718096866.239494085
1718096866.240501,,,,1.254558444,1.254139304,68646.000000000,1718096866.240501165
1718096866.241508,,,,1.309875727,1.309937358,68647.000000000,1718096866.241508245
1718096866.242515,,,,1.268886566,1.270294547,68648.000000000,1718096866.242515326
1718096866.243522,,,,1.220420837,1.222261548,68649.000000000,1718096866.243522406
1718096866.244529,,,,1.182533026,1.181392550,68650.000000000,1718096866.244529486
1718096866.245537,,,,1.112695217,1.113453984,68651.000000000,1718096866.245536566
1718096866.246544,,,,0.969509721,0.971374452,68652.000000000,1718096866.246543646
1718096866.247551,,,,0.885343790,0.886367083,68653.000000000,1718096866.247550726
1718096866.248558,,,,0.904960871,0.903844535,68654.000000000,1718096866.248557806
1718096866.249565,,,,1.061609030,1.061622620,68655.000000000,1718096866.249564886
1718096866.250572,,,,1.225060701,1.224425197,68656.000000000,1718096866.250571966
1718096866.251579,,,,1.288744092,1.290248156,68657.000000000,1718096866.251579046
1718096866.252586,,,,1.292782903,1.293709993,68658.000000000,1718096866.252586126
1718096866.253593,,,,1.318361998,1.321693182,68659.000000000,1718096866.253593206
1718096866.254600,,,,1.385771751,1.387876868,68660.000000000,1718096866.254600286
1718096866.255607,,,,1.364736199,1.365326762,68661.000000000,1718096866.255607367
1718096866.256614,,,,1.337931037,1.337704182,68662.000000000,1718096866.256614447
1718096866.257622,,,,1.188086390,1.191128969,68663.000000000,1718096866.257621527
1718096866.258629,,,,0.984078288,0.983731270,68664.000000000,1718096866.258628607
1718096866.259636,,,,0.946022093,0.947069407,68665.000000000,1718096866.259635687
1718096866.260643,,,,1.005378246,1.007194877,68666.000000000,1718096866.260642767
1718096866.261650,,,,1.058002949,1.058857918,68667.000000000,1718096866.261649847
1718096866.262657,,,,1.116589785,1.116843700,68668.000000000,1718096866.262656927
1718096866.263664,,,,1.115483880,1.113213658,68669.000000000,1718096866.263664007
1718096866.264671,,,,1.003671288,1.000992417,68670.000000000,1718096866.264671087
1718096866.265678,,,,1.083558083,1.086985350,68671.000000000,1718096866.265678167
1718096866.266685,,,,1.168324947,1.169780970,68672.000000000,1718096866.266685247
1718096866.267692,,,,1.230710268,1.232334495,68673.000000000,1718096866.267692327
1718096866.268699,,,,1.259967566,1.261519790,68674.000000000,1718096866.268699408
1718096866.269706,,,,1.264246821,1.265342236,68675.000000000,1718096866.269706488
1718096866.270714,,,,1.241191864,1.241325736,68676.000000000,1718096866.270713568
1718096866.271721,,,,1.205010891,1.204014778,68677.000000000,1718096866.271720648
1718096866.272728,,,,1.196885228,1.197619915,68678.000000000,1718096866.272727728
1718096866.273735,,,,1.228354216,1.230315089,68679.000000000,1718096866.273734808
1718096866.274742,,,,1.206958175,1.208678603,68680.000000000,1718096866.274741888
1718096866.275594,123.745765686,13891.000000000,1718096866.275593519,,,,
1718096866.275749,,,,1.173325419,1.174204469,68681.000000000,1718096866.275748968
1718096866.276756,,,,1.123128772,1.122829795,68682.000000000,1718096866.276756048
1718096866.277763,,,,1.013527989,1.016258121,68683.000000000,1718096866.277763128
1718096866.278770,,,,0.914697289,0.913989663,68684.000000000,1718096866.278770208
1718096866.279777,,,,0.868611574,0.869178057,68685.000000000,1718096866.279777288
1718096866.280594,124.329124451,13892.000000000,1718096866.280593634,,,,
1718096866.280784,,,,0.995064795,0.995607316,68686.000000000,1718096866.280784369
1718096866.281791,,,,1.159502149,1.156751037,68687.000000000,1718096866.281791449
1718096866.282799,,,,1.247177958,1.246133804,68688.000000000,1718096866.282798529
1718096866.283806,,,,1.315885901,1.316452384,68689.000000000,1718096866.283805609
1718096866.284813,,,,1.394666672,1.395906329,68690.000000000,1718096866.284812689
1718096866.285594,124.945640564,13893.000000000,1718096866.285593510,,,,
1718096866.285820,,,,1.374232292,1.375255585,68691.000000000,1718096866.285819769
1718096866.286827,,,,1.285714984,1.286569953,68692.000000000,1718096866.286826849
1718096866.287834,,,,1.188639283,1.190167427,68693.000000000,1718096866.287833929
1718096866.288841,,,,1.116902232,1.118911266,68694.000000000,1718096866.288841009
1718096866.289848,,,,1.199697971,1.199182630,68695.000000000,1718096866.289848089
1718096866.290594,125.578666687,13894.000000000,1718096866.290593624,,,,
1718096866.290855,,,,1.240614891,1.239089966,68696.000000000,1718096866.290855169
1718096866.291862,,,,1.189120054,1.189085603,68697.000000000,1718096866.291862249
1718096866.292869,,,,1.187196851,1.187715292,68698.000000000,1718096866.292869329
1718096866.293876,,,,1.141976595,1.143288374,68699.000000000,1718096866.293876410
1718096866.294883,,,,1.202342391,1.204231143,68700.000000000,1718096866.294883490
1718096866.295594,126.178192139,13895.000000000,1718096866.295593500,,,,
1718096866.295891,,,,1.195538878,1.196850657,68701.000000000,1718096866.295890570
1718096866.296898,,,,1.170536757,1.170838833,68702.000000000,1718096866.296897650
1718096866.297905,,,,1.251649499,1.253562331,68703.000000000,1718096866.297904730
1718096866.298912,,,,1.343316078,1.341430545,68704.000000000,1718096866.298911810
1718096866.299919,,,,1.391060591,1.390352964,68705.000000000,1718096866.299918890
1718096866.300594,126.694320679,13896.000000000,1718096866.300593615,,,,
1718096866.300926,,,,1.366731644,1.367226005,68706.000000000,1718096866.300925970
1718096866.301933,,,,1.344854712,1.346358776,68707.000000000,1718096866.301933050
1718096866.303947,,,,1.151953340,1.153024793,68709.000000000,1718096866.303947210
1718096866.304954,,,,1.086178422,1.086216092,68710.000000000,1718096866.304954290
1718096866.305593,127.127120972,13897.000000000,1718096866.305593491,,,,
1718096866.305961,,,,1.103776097,1.104390740,68711.000000000,1718096866.305961370
1718096866.306968,,,,1.048530936,1.048424363,68712.000000000,1718096866.306968451
1718096866.307976,,,,1.016893625,1.016690850,68713.000000000,1718096866.307975531
1718096866.308983,,,,1.109137177,1.110088348,68714.000000000,1718096866.308982611
1718096866.309990,,,,1.244533539,1.249908209,68715.000000000,1718096866.309989691
1718096866.310594,127.443344116,13898.000000000,1718096866.310593605,,,,
1718096866.310997,,,,1.281604052,1.283612967,68716.000000000,1718096866.310996771
1718096866.312004,,,,1.264751673,1.263082385,68717.000000000,1718096866.312003851
1718096866.313011,,,,1.234508634,1.233296156,68718.000000000,1718096866.313010931
1718096866.314018,,,,1.220084310,1.220771074,68719.000000000,1718096866.314018011
1718096866.315025,,,,1.224267364,1.221732616,68720.000000000,1718096866.315025091
1718096866.315593,127.692955017,13899.000000000,1718096866.315593481,,,,
1718096866.316032,,,,1.196644783,1.194350481,68721.000000000,1718096866.316032171
1718096866.317039,,,,1.172411919,1.171656132,68722.000000000,1718096866.317039251
1718096866.318046,,,,1.143130541,1.144177794,68723.000000000,1718096866.318046331
1718096866.319053,,,,1.119498610,1.119343996,68724.000000000,1718096866.319053411
1718096866.319756,127.925910950,13901.000000000,1718096866.319755554,,,,
1718096866.320060,,,,1.080000043,1.080254078,68725.000000000,1718096866.320060492
1718096866.320594,127.809448242,13900.000000000,1718096866.320593596,,,,
1718096866.321068,,,,1.068340421,1.069724321,68726.000000000,1718096866.321067572
1718096866.322075,,,,1.125220299,1.125642538,68727.000000000,1718096866.322074652
1718096866.323082,,,,1.245663404,1.246181846,68728.000000000,1718096866.323081732
1718096866.324089,,,,1.334228754,1.334795356,68729.000000000,1718096866.324088812
1718096866.324756,128.092300415,13902.000000000,1718096866.324755669,,,,
1718096866.325096,,,,1.340839982,1.342921019,68730.000000000,1718096866.325095892
1718096866.326103,,,,1.281267524,1.283372641,68731.000000000,1718096866.326102972
1718096866.327110,,,,1.197991014,1.197788239,68732.000000000,1718096866.327110052
1718096866.328117,,,,1.148683906,1.148865700,68733.000000000,1718096866.328117132
1718096866.329124,,,,1.108896732,1.109944105,68734.000000000,1718096866.329124212
1718096866.329756,128.441650391,13903.000000000,1718096866.329755545,,,,
1718096866.330131,,,,1.110651731,1.112420321,68735.000000000,1718096866.330131292
1718096866.331138,,,,1.060214639,1.060060024,68736.000000000,1718096866.331138372
1718096866.332145,,,,1.014657855,1.013469458,68737.000000000,1718096866.332145452
1718096866.333153,,,,1.078293204,1.078451037,68738.000000000,1718096866.333152533
1718096866.334160,,,,1.157362461,1.158121347,68739.000000000,1718096866.334159613
1718096866.334756,128.957260132,13904.000000000,1718096866.334755659,,,,
1718096866.335167,,,,1.161473393,1.165093064,68740.000000000,1718096866.335166693
1718096866.336174,,,,1.084062934,1.083547592,68741.000000000,1718096866.336173773
1718096866.337181,,,,1.058964610,1.057607889,68742.000000000,1718096866.337180853
1718096866.338188,,,,1.180585742,1.178171158,68743.000000000,1718096866.338187933
1718096866.339195,,,,1.209193945,1.211251020,68744.000000000,1718096866.339195013
1718096866.340202,,,,1.029611111,1.028422594,68745.000000000,1718096866.340202093
1718096866.341209,,,,0.720257342,0.722146094,68746.000000000,1718096866.341209173
1718096866.342216,,,,0.552959204,0.555569172,68747.000000000,1718096866.342216253
1718096866.343223,,,,0.634600937,0.633749068,68748.000000000,1718096866.343223333
1718096866.344230,,,,0.735907733,0.736450255,68749.000000000,1718096866.344230413
1718096866.345237,,,,0.748937726,0.749023438,68750.000000000,1718096866.345237494
1718096866.346245,,,,0.838032007,0.839247584,68751.000000000,1718096866.346244574
1718096866.347252,,,,1.156737447,1.160669684,68752.000000000,1718096866.347251654
1718096866.348259,,,,1.558911681,1.562603474,68753.000000000,1718096866.348258734
1718096866.349266,,,,1.698779583,1.700307727,68754.000000000,1718096866.349265814
1718096866.350273,,,,1.536145329,1.540125608,68755.000000000,1718096866.350272894
1718096866.351280,,,,1.346273065,1.348402262,68756.000000000,1718096866.351279974
1718096866.352287,,,,1.275690079,1.275078654,68757.000000000,1718096866.352287054
1718096866.353294,,,,1.275257349,1.273636222,68758.000000000,1718096866.353294134
1718096866.354301,,,,1.199481606,1.199663401,68759.000000000,1718096866.354301214
1718096866.355308,,,,1.120147705,1.118406415,68760.000000000,1718096866.355308294
1718096866.356315,,,,1.119642854,1.117877483,68761.000000000,1718096866.356315374
1718096866.357322,,,,1.234508634,1.235604048,68762.000000000,1718096866.357322454
1718096866.358330,,,,1.341080308,1.344411492,68763.000000000,1718096866.358329535
1718096866.359337,,,,1.400869131,1.403022408,68764.000000000,1718096866.359336615
1718096866.360344,,,,1.508715034,1.509233475,68765.000000000,1718096866.360343695
1718096866.361351,,,,1.580668449,1.581475377,68766.000000000,1718096866.361350775
1718096866.362358,,,,1.508282304,1.509714246,68767.000000000,1718096866.362357855
1718096866.363365,,,,1.402503967,1.403406978,68768.000000000,1718096866.363364935
1718096866.364372,,,,1.327785969,1.330924749,68769.000000000,1718096866.364372015
1718096866.365379,,,,1.281700253,1.283709168,68770.000000000,1718096866.365379095
1718096866.366386,,,,1.234724998,1.237575412,68771.000000000,1718096866.366386175
1718096866.367393,,,,1.242946863,1.242816210,68772.000000000,1718096866.367393255
1718096866.368400,,,,1.246552944,1.245388508,68773.000000000,1718096866.368400335
1718096866.369407,,,,1.215348363,1.214881063,68774.000000000,1718096866.369407415
1718096866.369756,131.982055664,13911.000000000,1718096866.369755507,,,,
1718096866.370414,,,,1.185273647,1.184037089,68775.000000000,1718096866.370414495
1718096866.371422,,,,1.156641245,1.154923916,68776.000000000,1718096866.371421576
1718096866.372429,,,,1.124643326,1.121892214,68777.000000000,1718096866.372428656
1718096866.373436,,,,1.108464003,1.105304241,68778.000000000,1718096866.373435736
1718096866.374443,,,,1.120267987,1.119560361,68779.000000000,1718096866.374442816
1718096866.374756,131.616638184,13912.000000000,1718096866.374755621,,,,
1718096866.375450,,,,1.145438433,1.142927766,68780.000000000,1718096866.375449896
1718096866.376457,,,,1.128778338,1.129753470,68781.000000000,1718096866.376456976
1718096866.377464,,,,1.095337868,1.096529484,68782.000000000,1718096866.377464056
1718096866.378471,,,,1.107983232,1.108693957,68783.000000000,1718096866.378471136
1718096866.379478,,,,1.136423230,1.139081240,68784.000000000,1718096866.379478216
1718096866.379755,131.217926025,13913.000000000,1718096866.379755497,,,,
1718096866.380485,,,,1.165632486,1.166896105,68785.000000000,1718096866.380485296
1718096866.381492,,,,1.240687013,1.243585467,68786.000000000,1718096866.381492376
1718096866.382499,,,,1.262323499,1.260918736,68787.000000000,1718096866.382499456
1718096866.383507,,,,1.242249727,1.241854548,68788.000000000,1718096866.383506536
1718096866.384514,,,,1.220589161,1.219184399,68789.000000000,1718096866.384513617
1718096866.384756,130.902236938,13914.000000000,1718096866.384755611,,,,
1718096866.385521,,,,1.083029151,1.082778335,68790.000000000,1718096866.385520697
1718096866.386528,,,,0.953642964,0.954449892,68791.000000000,1718096866.386527777
1718096866.387535,,,,0.899335384,0.900238454,68792.000000000,1718096866.387534857
1718096866.388542,,,,0.933472931,0.934544325,68793.000000000,1718096866.388541937
1718096866.389549,,,,0.976024687,0.977480710,68794.000000000,1718096866.389549017
1718096866.389755,130.719451904,13915.000000000,1718096866.389755487,,,,
1718096866.390556,,,,0.996675551,0.998876810,68795.000000000,1718096866.390556097
1718096866.391563,,,,1.046535611,1.046717525,68796.000000000,1718096866.391563177
1718096866.392570,,,,1.098919988,1.099270105,68797.000000000,1718096866.392570257
1718096866.393577,,,,1.202126026,1.204976320,68798.000000000,1718096866.393577337
1718096866.394584,,,,1.262636065,1.259933114,68799.000000000,1718096866.394584417
1718096866.394756,130.702835083,13916.000000000,1718096866.394755602,,,,
1718096866.395591,,,,1.278190255,1.277771115,68800.000000000,1718096866.395591497
1718096866.396599,,,,1.384978414,1.386746883,68801.000000000,1718096866.396598577
1718096866.397606,,,,1.357163429,1.356768370,68802.000000000,1718096866.397605658
1718096866.398613,,,,1.272180200,1.270991683,68803.000000000,1718096866.398612738
1718096866.399620,,,,1.149356961,1.150476456,68804.000000000,1718096866.399619818
1718096866.399755,130.968704224,13917.000000000,1718096866.399755478,,,,
1718096866.400627,,,,1.003815532,1.003708959,68805.000000000,1718096866.400626898
1718096866.401634,,,,0.865798831,0.865451813,68806.000000000,1718096866.401633978
1718096866.402641,,,,0.909913182,0.910647988,68807.000000000,1718096866.402641058
1718096866.403648,,,,0.996579349,0.999357641,68808.000000000,1718096866.403648138
1718096866.404655,,,,0.935444295,0.937717676,68809.000000000,1718096866.404655218
1718096866.404756,131.533584595,13918.000000000,1718096866.404755592,,,,
1718096866.405662,,,,1.022831678,1.022196174,68810.000000000,1718096866.405662298
1718096866.406669,,,,1.223209620,1.225194454,68811.000000000,1718096866.406669378
1718096866.407676,,,,1.249534011,1.247528195,68812.000000000,1718096866.407676458
1718096866.408684,,,,1.133826852,1.132710457,68813.000000000,1718096866.408683538
1718096866.409691,,,,0.978765309,0.978778899,68814.000000000,1718096866.409690619
1718096866.409755,132.214569092,13919.000000000,1718096866.409755468,,,,
1718096866.410698,,,,0.925034702,0.925384879,68815.000000000,1718096866.410697699
1718096866.411705,,,,1.040573597,1.042005539,68816.000000000,1718096866.411704779
1718096866.412712,,,,1.148515582,1.149202347,68817.000000000,1718096866.412711859
1718096866.413719,,,,1.168084621,1.169276118,68818.000000000,1718096866.413718939
1718096866.414726,,,,1.182028174,1.182258010,68819.000000000,1718096866.414726019
1718096866.414756,133.111175537,13920.000000000,1718096866.414755583,,,,
1718096866.415733,,,,1.224050999,1.226276278,68820.000000000,1718096866.415733099
1718096866.416740,,,,1.194745541,1.197307467,68821.000000000,1718096866.416740179
1718096866.417747,,,,1.211766243,1.209760427,68822.000000000,1718096866.417747259
1718096866.418754,,,,1.291076064,1.288613439,68823.000000000,1718096866.418754339
1718096866.419761,,,,1.382550240,1.382131100,68824.000000000,1718096866.419761419
1718096866.420768,,,,1.420558333,1.418240070,68825.000000000,1718096866.420768499
1718096866.421776,,,,1.355865240,1.354556680,68826.000000000,1718096866.421775579
1718096866.422783,,,,1.306870699,1.307869911,68827.000000000,1718096866.422782660
1718096866.423790,,,,1.274848700,1.276232600,68828.000000000,1718096866.423789740
1718096866.424797,,,,1.148154974,1.149707198,68829.000000000,1718096866.424796820
1718096866.425205,134.057220459,13921.000000000,1718096866.425204515,,,,
1718096866.425804,,,,1.006964922,1.008565187,68830.000000000,1718096866.425803900
1718096866.426811,,,,0.921260357,0.919110298,68831.000000000,1718096866.426810980
1718096866.427818,,,,0.768025935,0.767101943,68832.000000000,1718096866.427818060
1718096866.428825,,,,0.903326094,0.904854238,68833.000000000,1718096866.428825140
1718096866.429832,,,,1.171306014,1.172569752,68834.000000000,1718096866.429832220
1718096866.430205,135.019454956,13922.000000000,1718096866.430204630,,,,
1718096866.430839,,,,1.346898198,1.344315410,68835.000000000,1718096866.430839300
1718096866.431846,,,,1.341008186,1.338689923,68836.000000000,1718096866.431846380
1718096866.432853,,,,1.299370050,1.299359560,68837.000000000,1718096866.432853460
1718096866.433861,,,,1.312279820,1.312557817,68838.000000000,1718096866.433860540
1718096866.434868,,,,1.393224239,1.391795397,68839.000000000,1718096866.434867620
1718096866.435205,135.865219116,13923.000000000,1718096866.435204506,,,,
1718096866.435875,,,,1.368125916,1.368668437,68840.000000000,1718096866.435874701
1718096866.436882,,,,1.252346754,1.254235506,68841.000000000,1718096866.436881781
1718096866.437889,,,,1.188543081,1.189734697,68842.000000000,1718096866.437888861
1718096866.438896,,,,1.129211068,1.128743768,68843.000000000,1718096866.438895941
1718096866.439903,,,,1.181258798,1.177906752,68844.000000000,1718096866.439903021
1718096866.440910,,,,1.277709484,1.276328683,68845.000000000,1718096866.440910101
1718096866.441917,,,,1.319491982,1.319986343,68846.000000000,1718096866.441917181
1718096866.442924,,,,1.358557820,1.361600518,68847.000000000,1718096866.442924261
1718096866.443931,,,,1.341152430,1.340565085,68848.000000000,1718096866.443931341
1718096866.444938,,,,1.269487619,1.268491507,68849.000000000,1718096866.444938421
1718096866.445946,,,,1.194096446,1.195576549,68850.000000000,1718096866.445945501
1718096866.446953,,,,1.137889624,1.139321685,68851.000000000,1718096866.446952581
1718096866.447960,,,,1.089496017,1.092851281,68852.000000000,1718096866.447959661
1718096866.448967,,,,1.091347218,1.089990497,68853.000000000,1718096866.448966742
1718096866.449974,,,,1.122383475,1.123454928,68854.000000000,1718096866.449973822
1718096866.450981,,,,1.218329310,1.220434427,68855.000000000,1718096866.450980902
1718096866.451988,,,,1.182484865,1.184806347,68856.000000000,1718096866.451987982
1718096866.452995,,,,1.125364542,1.128984213,68857.000000000,1718096866.452995062
1718096866.454002,,,,1.197534323,1.203509927,68858.000000000,1718096866.454002142
1718096866.455009,,,,1.295547605,1.299840331,68859.000000000,1718096866.455009222
1718096866.456016,,,,1.324564457,1.325203180,68860.000000000,1718096866.456016302
1718096866.457023,,,,1.280738592,1.279742479,68861.000000000,1718096866.457023382
1718096866.458030,,,,1.236503959,1.234570265,68862.000000000,1718096866.458030462
1718096866.459038,,,,1.192365527,1.192379117,68863.000000000,1718096866.459037542
1718096866.460045,,,,1.118440866,1.117492795,68864.000000000,1718096866.460044622
1718096866.461052,,,,1.091587543,1.092995524,68865.000000000,1718096866.461051702
1718096866.462059,,,,1.137937784,1.138768673,68866.000000000,1718096866.462058783
1718096866.463066,,,,1.156184554,1.154491186,68867.000000000,1718096866.463065863
1718096866.464073,,,,1.146039367,1.147447348,68868.000000000,1718096866.464072943
1718096866.465080,,,,1.065888286,1.067512512,68869.000000000,1718096866.465080023
1718096866.466087,,,,0.942608356,0.943198919,68870.000000000,1718096866.466087103
1718096866.467094,,,,0.876304507,0.876606584,68871.000000000,1718096866.467094183
1718096866.468101,,,,0.896859169,0.896992981,68872.000000000,1718096866.468101263
1718096866.469108,,,,0.898109317,0.899421096,68873.000000000,1718096866.469108343
1718096866.470115,,,,0.959052086,0.959378183,68874.000000000,1718096866.470115423
1718096866.471123,,,,1.130028367,1.132277727,68875.000000000,1718096866.471122503
1718096866.472130,,,,1.220372796,1.220049858,68876.000000000,1718096866.472129583
1718096866.473137,,,,1.308481336,1.304720640,68877.000000000,1718096866.473136663
1718096866.474144,,,,1.364183307,1.363908410,68878.000000000,1718096866.474143744
1718096866.475151,,,,1.295571566,1.297436357,68879.000000000,1718096866.475150824
1718096866.475204,134.886749268,13931.000000000,1718096866.475204468,,,,
1718096866.476158,,,,1.265208364,1.267481804,68880.000000000,1718096866.476157904
1718096866.477165,,,,1.229844809,1.231012344,68881.000000000,1718096866.477164984
1718096866.478172,,,,1.198928595,1.199422956,68882.000000000,1718096866.478172064
1718096866.479179,,,,1.194913864,1.196490049,68883.000000000,1718096866.479179144
1718096866.480186,,,,1.148371339,1.150091767,68884.000000000,1718096866.480186224
1718096866.480205,134.604736328,13932.000000000,1718096866.480204582,,,,
1718096866.481193,,,,1.148924232,1.146485686,68885.000000000,1718096866.481193304
1718096866.482200,,,,1.157891393,1.156029820,68886.000000000,1718096866.482200384
1718096866.483207,,,,1.071970463,1.070565701,68887.000000000,1718096866.483207464
1718096866.484215,,,,1.017518640,1.015801311,68888.000000000,1718096866.484214544
1718096866.485204,134.455413818,13933.000000000,1718096866.485204458,,,,
1718096866.485222,,,,0.973740876,0.972384155,68889.000000000,1718096866.485221624
1718096866.486229,,,,0.976481497,0.976687372,68890.000000000,1718096866.486228704
1718096866.487236,,,,0.939891756,0.940458298,68891.000000000,1718096866.487235785
1718096866.488243,,,,0.855341196,0.855715394,68892.000000000,1718096866.488242865
1718096866.489250,,,,0.935131729,0.935241461,68893.000000000,1718096866.489249945
1718096866.490205,134.588150024,13934.000000000,1718096866.490204573,,,,
1718096866.490257,,,,1.069253922,1.068834782,68894.000000000,1718096866.490257025
1718096866.491264,,,,1.217680216,1.217188954,68895.000000000,1718096866.491264105
1718096866.492271,,,,1.470514655,1.472884178,68896.000000000,1718096866.492271185
1718096866.493278,,,,1.454912305,1.458315611,68897.000000000,1718096866.493278265
1718096866.494285,,,,1.308866024,1.312269330,68898.000000000,1718096866.494285345
1718096866.495204,134.903335571,13935.000000000,1718096866.495204449,,,,
1718096866.495292,,,,1.271026254,1.273491979,68899.000000000,1718096866.495292425
1718096866.496300,,,,1.338435888,1.339771748,68900.000000000,1718096866.496299505
1718096866.497307,,,,1.405917645,1.404921532,68901.000000000,1718096866.497306585
1718096866.498314,,,,1.423587441,1.421245098,68902.000000000,1718096866.498313665
1718096866.499321,,,,1.439261913,1.437760949,68903.000000000,1718096866.499320745
1718096866.500205,135.400909424,13936.000000000,1718096866.500204563,,,,
1718096866.500328,,,,1.320429564,1.320202708,68904.000000000,1718096866.500327826
1718096866.501335,,,,1.058772206,1.058689713,68905.000000000,1718096866.501334906
1718096866.502342,,,,0.845821142,0.846219361,68906.000000000,1718096866.502341986
1718096866.503349,,,,0.674892843,0.676324844,68907.000000000,1718096866.503349066
1718096866.504356,,,,0.586495757,0.589995265,68908.000000000,1718096866.504356146
1718096866.505204,135.948120117,13937.000000000,1718096866.505204439,,,,
1718096866.505363,,,,0.766559482,0.769121349,68909.000000000,1718096866.505363226
1718096866.506370,,,,1.003430963,1.001160622,68910.000000000,1718096866.506370306
1718096866.507377,,,,1.161593676,1.161559105,68911.000000000,1718096866.507377386
1718096866.508384,,,,1.343436360,1.343618155,68912.000000000,1718096866.508384466
1718096866.509392,,,,1.392695427,1.389655828,68913.000000000,1718096866.509391546
1718096866.510205,136.462036133,13938.000000000,1718096866.510204554,,,,
1718096866.510399,,,,1.364447713,1.363427639,68914.000000000,1718096866.510398626
1718096866.511406,,,,1.321246862,1.322462559,68915.000000000,1718096866.511405706
1718096866.512413,,,,1.279512525,1.280800223,68916.000000000,1718096866.512412786
1718096866.513420,,,,1.291556835,1.291810870,68917.000000000,1718096866.513419867
1718096866.514427,,,,1.273334146,1.272313952,68918.000000000,1718096866.514426947
1718096866.515204,136.942703247,13939.000000000,1718096866.515204430,,,,
1718096866.515434,,,,1.235277891,1.235748291,68919.000000000,1718096866.515434027
1718096866.516441,,,,1.204025269,1.205240846,68920.000000000,1718096866.516441107
1718096866.517448,,,,1.211309552,1.212116480,68921.000000000,1718096866.517448187
1718096866.518455,,,,1.298480511,1.298806667,68922.000000000,1718096866.518455267
1718096866.519462,,,,1.341561198,1.341719031,68923.000000000,1718096866.519462347
1718096866.520205,137.274139404,13940.000000000,1718096866.520204544,,,,
1718096866.520469,,,,1.291172147,1.291450262,68924.000000000,1718096866.520469427
1718096866.521477,,,,1.245423079,1.244258642,68925.000000000,1718096866.521476507
1718096866.522484,,,,1.230205417,1.229065061,68926.000000000,1718096866.522483587
1718096866.523491,,,,1.153732419,1.154467225,68927.000000000,1718096866.523490667
1718096866.524498,,,,1.086755395,1.087947011,68928.000000000,1718096866.524497747
1718096866.525505,,,,1.058027029,1.059242606,68929.000000000,1718096866.525504827
1718096866.526512,,,,1.079423070,1.080951214,68930.000000000,1718096866.526511908
1718096866.527519,,,,1.149958014,1.153457522,68931.000000000,1718096866.527518988
1718096866.528526,,,,1.162146568,1.161991835,68932.000000000,1718096866.528526068
1718096866.529533,,,,1.168397069,1.168386698,68933.000000000,1718096866.529533148
1718096866.529812,137.506118774,13941.000000000,1718096866.529812336,,,,
1718096866.530540,,,,1.168228865,1.170814753,68934.000000000,1718096866.530540228
1718096866.531547,,,,1.173012853,1.173098564,68935.000000000,1718096866.531547308
1718096866.532554,,,,1.158973217,1.156390429,68936.000000000,1718096866.532554388
1718096866.533561,,,,1.137072325,1.134946227,68937.000000000,1718096866.533561468
1718096866.534569,,,,1.160391569,1.160044551,68938.000000000,1718096866.534568548
1718096866.534812,137.671813965,13942.000000000,1718096866.534812450,,,,
1718096866.535576,,,,1.207463026,1.207188129,68939.000000000,1718096866.535575628
1718096866.536583,,,,1.180850148,1.182402253,68940.000000000,1718096866.536582708
1718096866.537590,,,,1.164382339,1.167136550,68941.000000000,1718096866.537589788
1718096866.538597,,,,1.132143974,1.132037401,68942.000000000,1718096866.538596869
1718096866.539604,,,,1.093438745,1.093139768,68943.000000000,1718096866.539603949
1718096866.539812,137.638671875,13943.000000000,1718096866.539812326,,,,
1718096866.540611,,,,1.058724165,1.062175512,68944.000000000,1718096866.540611029
1718096866.541618,,,,1.077043056,1.076359510,68945.000000000,1718096866.541618109
1718096866.542625,,,,1.162867785,1.163843036,68946.000000000,1718096866.542625189
1718096866.543632,,,,1.233498931,1.232719183,68947.000000000,1718096866.543632269
1718096866.544639,,,,1.273742795,1.274790168,68948.000000000,1718096866.544639349
1718096866.544812,137.721511841,13944.000000000,1718096866.544812441,,,,
1718096866.545646,,,,1.250207067,1.250196695,68949.000000000,1718096866.545646429
1718096866.546654,,,,1.205203176,1.204904199,68950.000000000,1718096866.546653509
1718096866.547661,,,,1.126806974,1.125209808,68951.000000000,1718096866.547660589
1718096866.548668,,,,0.986482322,0.987601817,68952.000000000,1718096866.548667669
1718096866.549675,,,,0.898878574,0.900959671,68953.000000000,1718096866.549674749
1718096866.549812,137.787765503,13945.000000000,1718096866.549812317,,,,
1718096866.550682,,,,1.037616611,1.038447499,68954.000000000,1718096866.550681829
1718096866.551689,,,,1.129451394,1.130186200,68955.000000000,1718096866.551688910
1718096866.552696,,,,1.168685555,1.169805050,68956.000000000,1718096866.552695990
1718096866.553703,,,,1.198399782,1.201081753,68957.000000000,1718096866.553703070
1718096866.554710,,,,1.212992311,1.213895440,68958.000000000,1718096866.554710150
1718096866.554812,137.970001221,13946.000000000,1718096866.554812431,,,,
1718096866.555717,,,,1.191403985,1.192114711,68959.000000000,1718096866.555717230
1718096866.556724,,,,1.238691688,1.237815738,68960.000000000,1718096866.556724310
1718096866.557731,,,,1.090505719,1.089942336,68961.000000000,1718096866.557731390
1718096866.558738,,,,0.916596472,0.917090893,68962.000000000,1718096866.558738470
1718096866.559746,,,,0.917942762,0.916537941,68963.000000000,1718096866.559745550
1718096866.559812,138.284729004,13947.000000000,1718096866.559812307,,,,
1718096866.560753,,,,0.997925639,0.999285519,68964.000000000,1718096866.560752630
1718096866.561760,,,,0.996795714,0.999646127,68965.000000000,1718096866.561759710
1718096866.562767,,,,1.004128098,1.003853202,68966.000000000,1718096866.562766790
1718096866.563774,,,,1.106372476,1.104534984,68967.000000000,1718096866.563773870
1718096866.564781,,,,1.183350325,1.183003306,68968.000000000,1718096866.564780951
1718096866.564812,138.682220459,13948.000000000,1718096866.564812422,,,,
1718096866.565788,,,,1.283118606,1.284815073,68969.000000000,1718096866.565788031
1718096866.566795,,,,1.336440563,1.338449478,68970.000000000,1718096866.566795111
1718096866.567802,,,,1.386372685,1.386121869,68971.000000000,1718096866.567802191
1718096866.568809,,,,1.356297970,1.353691220,68972.000000000,1718096866.568809271
1718096866.569816,,,,1.246769309,1.246109724,68973.000000000,1718096866.569816351
1718096866.570823,,,,1.144308448,1.144057631,68974.000000000,1718096866.570823431
1718096866.571831,,,,1.122094989,1.120594025,68975.000000000,1718096866.571830511
1718096866.572838,,,,1.279873133,1.280271411,68976.000000000,1718096866.572837591
1718096866.573845,,,,1.412841320,1.411388516,68977.000000000,1718096866.573844671
1718096866.574852,,,,1.358101010,1.357297301,68978.000000000,1718096866.574851751
1718096866.575859,,,,1.309394956,1.311644316,68979.000000000,1718096866.575858831
1718096866.576866,,,,1.292278051,1.293782115,68980.000000000,1718096866.576865911
1718096866.577873,,,,1.249966741,1.249186993,68981.000000000,1718096866.577872992
1718096866.578880,,,,1.118873596,1.117540956,68982.000000000,1718096866.578880072
1718096866.579812,139.692199707,13951.000000000,1718096866.579812288,,,,
1718096866.579887,,,,1.110771894,1.108742118,68983.000000000,1718096866.579887152
1718096866.580894,,,,1.200082541,1.200673103,68984.000000000,1718096866.580894232
1718096866.581901,,,,1.226671457,1.228103399,68985.000000000,1718096866.581901312
1718096866.582908,,,,1.197870851,1.197211266,68986.000000000,1718096866.582908392
1718096866.583915,,,,1.157963514,1.159203172,68987.000000000,1718096866.583915472
1718096866.584812,139.940490723,13952.000000000,1718096866.584812403,,,,
1718096866.584923,,,,1.102958798,1.104655147,68988.000000000,1718096866.584922552
1718096866.585930,,,,1.001507640,1.001256824,68989.000000000,1718096866.585929632
1718096866.586937,,,,0.926981986,0.925240636,68990.000000000,1718096866.586936712
1718096866.587944,,,,0.956527829,0.957190514,68991.000000000,1718096866.587943792
1718096866.588951,,,,0.958859742,0.960460007,68992.000000000,1718096866.588950872
1718096866.589812,140.139114380,13953.000000000,1718096866.589812279,,,,
1718096866.589958,,,,0.967995167,0.967720270,68993.000000000,1718096866.589957952
1718096866.590965,,,,1.071225286,1.070036769,68994.000000000,1718096866.590965033
1718096866.591972,,,,1.199072838,1.199086428,68995.000000000,1718096866.591972113
1718096866.592979,,,,1.318169713,1.318447709,68996.000000000,1718096866.592979193
1718096866.593986,,,,1.324396253,1.322318316,68997.000000000,1718096866.593986273
1718096866.594812,140.470092773,13954.000000000,1718096866.594812393,,,,
1718096866.594993,,,,1.310524821,1.308182478,68998.000000000,1718096866.594993353
1718096866.596000,,,,1.305692673,1.307365060,68999.000000000,1718096866.596000433
1718096866.597008,,,,1.313674092,1.315947533,69000.000000000,1718096866.597007513
1718096866.598015,,,,1.291364551,1.293229222,69001.000000000,1718096866.598014593
1718096866.599022,,,,1.271074295,1.271424413,69002.000000000,1718096866.599021673
1718096866.599812,140.751388550,13955.000000000,1718096866.599812269,,,,
1718096866.600029,,,,1.243043065,1.244306684,69003.000000000,1718096866.600028753
1718096866.601036,,,,1.266170025,1.267698169,69004.000000000,1718096866.601035833
1718096866.602043,,,,1.257467389,1.256615520,69005.000000000,1718096866.602042913
1718096866.603050,,,,1.213040471,1.213414669,69006.000000000,1718096866.603049994
1718096866.604057,,,,1.195803404,1.197692037,69007.000000000,1718096866.604057074
1718096866.604812,140.817565918,13956.000000000,1718096866.604812384,,,,
1718096866.605064,,,,1.150438786,1.152952671,69008.000000000,1718096866.605064154
1718096866.606071,,,,1.086707354,1.086119890,69009.000000000,1718096866.606071234
1718096866.607078,,,,0.992348254,0.993804276,69010.000000000,1718096866.607078314
1718096866.608085,,,,1.021821976,1.025032878,69011.000000000,1718096866.608085394
1718096866.609092,,,,1.112430692,1.113550186,69012.000000000,1718096866.609092474
1718096866.609812,140.966476440,13957.000000000,1718096866.609812260,,,,
1718096866.610100,,,,1.102814555,1.103982091,69013.000000000,1718096866.610099554
1718096866.611107,,,,1.075312138,1.076455593,69014.000000000,1718096866.611106634
1718096866.612114,,,,1.087260246,1.088740349,69015.000000000,1718096866.612113714
1718096866.613121,,,,1.165536284,1.166319132,69016.000000000,1718096866.613120794
1718096866.614128,,,,1.219675660,1.222910643,69017.000000000,1718096866.614127874
1718096866.614812,140.801025391,13958.000000000,1718096866.614812374,,,,
1718096866.615135,,,,1.203568459,1.206130266,69018.000000000,1718096866.615134954
1718096866.616142,,,,1.215973377,1.215818644,69019.000000000,1718096866.616142035
1718096866.617149,,,,1.227657080,1.225723386,69020.000000000,1718096866.617149115
1718096866.618156,,,,1.175633311,1.173988104,69021.000000000,1718096866.618156195
1718096866.619163,,,,1.180633783,1.179757833,69022.000000000,1718096866.619163275
1718096866.619812,140.519729614,13959.000000000,1718096866.619812250,,,,
1718096866.623192,,,,1.172940731,1.175286293,69026.000000000,1718096866.623191595
1718096866.624199,,,,1.231840134,1.232743263,69027.000000000,1718096866.624198675
1718096866.624812,140.106002808,13960.000000000,1718096866.624812365,,,,
1718096866.625206,,,,1.293047309,1.292267561,69028.000000000,1718096866.625205755
1718096866.626213,,,,1.307928443,1.309216142,69029.000000000,1718096866.626212835
1718096866.627220,,,,1.266097903,1.268539548,69030.000000000,1718096866.627219915
1718096866.628227,,,,1.205756187,1.206298590,69031.000000000,1718096866.628226995
1718096866.629234,,,,1.144044042,1.145836592,69032.000000000,1718096866.629234076
1718096866.630241,,,,1.054372787,1.057078958,69033.000000000,1718096866.630241156
1718096866.631248,,,,1.064445853,1.064050674,69034.000000000,1718096866.631248236
1718096866.632255,,,,1.095458150,1.097226620,69035.000000000,1718096866.632255316
1718096866.633262,,,,1.116541624,1.117444754,69036.000000000,1718096866.633262396
1718096866.634269,,,,1.143130541,1.143168092,69037.000000000,1718096866.634269476
1718096866.635277,,,,1.091275096,1.088355660,69038.000000000,1718096866.635276556
1718096866.636284,,,,1.080937624,1.077609539,69039.000000000,1718096866.636283636
1718096866.637291,,,,1.073989868,1.072921634,69040.000000000,1718096866.637290716
1718096866.638298,,,,1.057017326,1.056622148,69041.000000000,1718096866.638297796
1718096866.639305,,,,1.106973529,1.107516050,69042.000000000,1718096866.639304876
1718096866.640312,,,,1.112310529,1.114175200,69043.000000000,1718096866.640311956
1718096866.641319,,,,1.086851597,1.084533215,69044.000000000,1718096866.641319036
1718096866.642326,,,,1.109593987,1.107467890,69045.000000000,1718096866.642326117
1718096866.643333,,,,1.145101786,1.144875050,69046.000000000,1718096866.643333197
1718096866.644340,,,,1.169214487,1.172185063,69047.000000000,1718096866.644340277
1718096866.645347,,,,1.081442475,1.083908200,69048.000000000,1718096866.645347357
1718096866.646354,,,,1.011364341,1.012964606,69049.000000000,1718096866.646354437
1718096866.647362,,,,0.934819221,0.935962677,69050.000000000,1718096866.647361517
1718096866.648369,,,,0.769660711,0.772150457,69051.000000000,1718096866.648368597
1718096866.649376,,,,0.689028680,0.692768574,69052.000000000,1718096866.649375677
1718096866.650383,,,,0.825891495,0.826602280,69053.000000000,1718096866.650382757
1718096866.651390,,,,0.945974052,0.943751812,69054.000000000,1718096866.651389837
1718096866.652397,,,,1.043145895,1.041669011,69055.000000000,1718096866.652396917
1718096866.653404,,,,1.178926945,1.178315401,69056.000000000,1718096866.653403997
1718096866.654411,,,,1.267804742,1.266808629,69057.000000000,1718096866.654411077
1718096866.655418,,,,1.373823524,1.370399356,69058.000000000,1718096866.655418158
1718096866.656425,,,,1.435752034,1.435669422,69059.000000000,1718096866.656425238
1718096866.657432,,,,1.366779685,1.371601343,69060.000000000,1718096866.657432318
1718096866.658439,,,,1.190802932,1.194085956,69061.000000000,1718096866.658439398
1718096866.659446,,,,1.186523676,1.189085603,69062.000000000,1718096866.659446478
1718096866.660454,,,,1.280113578,1.279429913,69063.000000000,1718096866.660453558
1718096866.661461,,,,1.261313796,1.262120724,69064.000000000,1718096866.661460638
1718096866.662468,,,,1.254077673,1.253922939,69065.000000000,1718096866.662467718
1718096866.663475,,,,1.226671457,1.229137182,69066.000000000,1718096866.663474798
1718096866.664482,,,,1.212992311,1.214448333,69067.000000000,1718096866.664481878
1718096866.665489,,,,1.243067026,1.240484238,69068.000000000,1718096866.665488958
1718096866.666496,,,,1.252587080,1.251542926,69069.000000000,1718096866.666496038
1718096866.667503,,,,1.255496025,1.256879926,69070.000000000,1718096866.667503119
1718096866.668510,,,,1.201188445,1.201538563,69071.000000000,1718096866.668510199
1718096866.669517,,,,1.132143974,1.133551955,69072.000000000,1718096866.669517279
1718096866.670524,,,,1.192269444,1.195744753,69073.000000000,1718096866.670524359
1718096866.671531,,,,1.282926321,1.282459021,69074.000000000,1718096866.671531439
1718096866.672539,,,,1.299466133,1.298470020,69075.000000000,1718096866.672538519
1718096866.673546,,,,1.347475171,1.345709682,69076.000000000,1718096866.673545599
1718096866.674036,138.847824097,13971.000000000,1718096866.674036026,,,,
1718096866.674553,,,,1.300884604,1.303085804,69077.000000000,1718096866.674552679
1718096866.675560,,,,1.263573647,1.264717102,69078.000000000,1718096866.675559759
1718096866.676567,,,,1.258308768,1.257913709,69079.000000000,1718096866.676566839
1718096866.677574,,,,1.271579146,1.270294547,69080.000000000,1718096866.677573919
1718096866.678581,,,,1.335046172,1.335660815,69081.000000000,1718096866.678580999
1718096866.679036,139.212097168,13972.000000000,1718096866.679036140,,,,
1718096866.679588,,,,1.310765266,1.311716437,69082.000000000,1718096866.679588079
1718096866.680595,,,,1.233354688,1.233416319,69083.000000000,1718096866.680595160
1718096866.681602,,,,1.183999419,1.184325576,69084.000000000,1718096866.681602240
1718096866.682609,,,,1.164670825,1.166319132,69085.000000000,1718096866.682609320
1718096866.683616,,,,1.215083838,1.216059089,69086.000000000,1718096866.683616400
1718096866.684036,139.344558716,13973.000000000,1718096866.684036016,,,,
1718096866.684623,,,,1.249413729,1.248297453,69087.000000000,1718096866.684623480
1718096866.685631,,,,1.213521242,1.213943481,69088.000000000,1718096866.685630560
1718096866.686638,,,,1.178638458,1.180959821,69089.000000000,1718096866.686637640
1718096866.687645,,,,1.201693296,1.201057792,69090.000000000,1718096866.687644720
1718096866.688652,,,,1.182941675,1.181176186,69091.000000000,1718096866.688651800
1718096866.689036,139.410781860,13974.000000000,1718096866.689036131,,,,
1718096866.689659,,,,1.127167583,1.127397537,69092.000000000,1718096866.689658880
1718096866.690666,,,,1.066585422,1.066911578,69093.000000000,1718096866.690665960
1718096866.691673,,,,1.039131165,1.040034175,69094.000000000,1718096866.691673040
1718096866.692680,,,,1.075191975,1.076840281,69095.000000000,1718096866.692680120
1718096866.693687,,,,1.101083636,1.102491498,69096.000000000,1718096866.693687201
1718096866.694036,139.394226074,13975.000000000,1718096866.694036007,,,,
1718096866.694694,,,,1.115748286,1.115930200,69097.000000000,1718096866.694694281
1718096866.695701,,,,1.140486002,1.141365051,69098.000000000,1718096866.695701361
1718096866.696708,,,,1.151015759,1.151750565,69099.000000000,1718096866.696708441
1718096866.697716,,,,1.139620543,1.138720632,69100.000000000,1718096866.697715521
1718096866.698723,,,,1.169406772,1.168915510,69101.000000000,1718096866.698722601
1718096866.699036,139.493545532,13976.000000000,1718096866.699036121,,,,
1718096866.699730,,,,1.195490837,1.195816875,69102.000000000,1718096866.699729681
1718096866.700737,,,,1.195034027,1.194855332,69103.000000000,1718096866.700736761
1718096866.701744,,,,1.203376174,1.202740550,69104.000000000,1718096866.701743841
1718096866.702751,,,,1.106925488,1.108862281,69105.000000000,1718096866.702750921
1718096866.703758,,,,0.980953038,0.983923614,69106.000000000,1718096866.703758001
1718096866.704036,139.592880249,13977.000000000,1718096866.704035997,,,,
1718096866.704765,,,,0.942367971,0.943944156,69107.000000000,1718096866.704765081
1718096866.705772,,,,0.991771281,0.992506087,69108.000000000,1718096866.705772161
1718096866.706779,,,,1.049468517,1.051525593,69109.000000000,1718096866.706779242
1718096866.707786,,,,1.062738895,1.065709472,69110.000000000,1718096866.707786322
1718096866.708793,,,,1.029202342,1.030345917,69111.000000000,1718096866.708793402
1718096866.709036,139.824615479,13978.000000000,1718096866.709036112,,,,
1718096866.709800,,,,1.088991165,1.087177753,69112.000000000,1718096866.709800482
1718096866.710808,,,,1.172219515,1.171968699,69113.000000000,1718096866.710807562
1718096866.711815,,,,1.224050999,1.226204157,69114.000000000,1718096866.711814642
1718096866.712822,,,,1.159141541,1.161438942,69115.000000000,1718096866.712821722
1718096866.713829,,,,0.982275248,0.984861195,69116.000000000,1718096866.713828802
1718096866.714036,140.039794922,13979.000000000,1718096866.714035988,,,,
1718096866.714836,,,,0.930756390,0.933125913,69117.000000000,1718096866.714835882
1718096866.715843,,,,0.849787831,0.848503232,69118.000000000,1718096866.715842962
1718096866.716850,,,,0.849571466,0.848984003,69119.000000000,1718096866.716850042
1718096866.717857,,,,1.107334137,1.108742118,69120.000000000,1718096866.717857122
1718096866.718864,,,,1.127408028,1.126724362,69121.000000000,1718096866.718864202
1718096866.719036,140.420440674,13980.000000000,1718096866.719036102,,,,
1718096866.719871,,,,0.970543444,0.970725358,69122.000000000,1718096866.719871283
1718096866.720878,,,,0.887435317,0.886679590,69123.000000000,1718096866.720878363
1718096866.721885,,,,0.968860626,0.965821087,69124.000000000,1718096866.721885443
1718096866.722893,,,,1.178854823,1.178219199,69125.000000000,1718096866.722892523
1718096866.723900,,,,1.353437185,1.354556680,69126.000000000,1718096866.723899603
1718096866.724907,,,,1.537924290,1.541640162,69127.000000000,1718096866.724906683
1718096866.725914,,,,1.517730236,1.519739151,69128.000000000,1718096866.725913763
1718096866.726921,,,,1.386252522,1.387444139,69129.000000000,1718096866.726920843
1718096866.727928,,,,1.062979341,1.064747930,69130.000000000,1718096866.727927923
1718096866.728935,,,,1.136230826,1.137614727,69131.000000000,1718096866.728935003
1718096866.729942,,,,1.219843864,1.217068791,69132.000000000,1718096866.729942083
1718096866.730949,,,,1.293239713,1.294214845,69133.000000000,1718096866.730949163
1718096866.731956,,,,1.269968390,1.271256208,69134.000000000,1718096866.731956244
1718096866.732963,,,,1.199649811,1.201730847,69135.000000000,1718096866.732963324
1718096866.733970,,,,1.259438634,1.260918736,69136.000000000,1718096866.733970404
1718096866.734977,,,,1.331896901,1.331790209,69137.000000000,1718096866.734977484
1718096866.735985,,,,1.287397861,1.288324952,69138.000000000,1718096866.735984564
1718096866.736992,,,,1.149044514,1.150933266,69139.000000000,1718096866.736991644
1718096866.737999,,,,1.074590921,1.075926781,69140.000000000,1718096866.737998724
1718096866.739006,,,,1.090169191,1.090591431,69141.000000000,1718096866.739005804
1718096866.740013,,,,1.171017528,1.172497630,69142.000000000,1718096866.740012884
1718096866.741020,,,,1.240614891,1.241181493,69143.000000000,1718096866.741019964
1718096866.742027,,,,1.242153525,1.240508318,69144.000000000,1718096866.742027044
1718096866.743034,,,,1.166618109,1.166391253,69145.000000000,1718096866.743034124
1718096866.744041,,,,1.164622784,1.164708495,69146.000000000,1718096866.744041204
1718096866.745048,,,,1.186355472,1.186609387,69147.000000000,1718096866.745048285
1718096866.746055,,,,1.142481446,1.143168092,69148.000000000,1718096866.746055365
1718096866.747062,,,,1.118104339,1.119896889,69149.000000000,1718096866.747062445
1718096866.748070,,,,1.151809096,1.155428767,69150.000000000,1718096866.748069525
1718096866.749077,,,,1.219266891,1.221468210,69151.000000000,1718096866.749076605
1718096866.750084,,,,1.253452539,1.253658533,69152.000000000,1718096866.750083685
1718096866.751091,,,,1.258380890,1.258682966,69153.000000000,1718096866.751090765
1718096866.752098,,,,1.244197011,1.242984533,69154.000000000,1718096866.752097845
1718096866.753105,,,,1.207679391,1.206587076,69155.000000000,1718096866.753104925
1718096866.754112,,,,1.208400607,1.207067847,69156.000000000,1718096866.754112005
1718096866.755119,,,,1.231070876,1.232599020,69157.000000000,1718096866.755119085
1718096866.756126,,,,1.234292269,1.237695575,69158.000000000,1718096866.756126165
1718096866.757133,,,,1.221430540,1.223679900,69159.000000000,1718096866.757133245
1718096866.758140,,,,1.209314108,1.209375858,69160.000000000,1718096866.758140326
1718096866.759147,,,,1.180008769,1.180743456,69161.000000000,1718096866.759147406
1718096866.760154,,,,1.123633623,1.123575091,69162.000000000,1718096866.760154486
1718096866.761162,,,,1.111493111,1.111626983,69163.000000000,1718096866.761161566
1718096866.762169,,,,1.138851285,1.136484861,69164.000000000,1718096866.762168646
1718096866.763176,,,,1.157122135,1.155308604,69165.000000000,1718096866.763175726
1718096866.764183,,,,1.171907067,1.169492483,69166.000000000,1718096866.764182806
1718096866.765190,,,,1.127840757,1.124729037,69167.000000000,1718096866.765189886
1718096866.766197,,,,1.054805517,1.054530621,69168.000000000,1718096866.766196966
1718096866.767204,,,,1.022254705,1.026018620,69169.000000000,1718096866.767204046
1718096866.768211,,,,1.049083948,1.053088188,69170.000000000,1718096866.768211126
1718096866.768363,137.936874390,13991.000000000,1718096866.768363476,,,,
1718096866.769218,,,,1.094881177,1.095928431,69171.000000000,1718096866.769218206
1718096866.770225,,,,1.136471272,1.136148334,69172.000000000,1718096866.770225286
1718096866.771232,,,,1.167627811,1.168338537,69173.000000000,1718096866.771232367
1718096866.772239,,,,1.210059404,1.207765102,69174.000000000,1718096866.772239447
1718096866.773247,,,,1.249485850,1.249475479,69175.000000000,1718096866.773246527
1718096866.773364,137.373565674,13992.000000000,1718096866.773363590,,,,
1718096866.774254,,,,1.248163700,1.249186993,69176.000000000,1718096866.774253607
1718096866.775261,,,,1.158252001,1.159539700,69177.000000000,1718096866.775260687
1718096866.776268,,,,1.160295486,1.158265591,69178.000000000,1718096866.776267767
1718096866.777275,,,,1.160752177,1.161222577,69179.000000000,1718096866.777274847
1718096866.778282,,,,1.004392505,1.006713986,69180.000000000,1718096866.778281927
1718096866.778363,137.075302124,13993.000000000,1718096866.778363466,,,,
1718096866.779289,,,,1.012181640,1.013349175,69181.000000000,1718096866.779289007
1718096866.780296,,,,1.244389296,1.245941520,69182.000000000,1718096866.780296087
1718096866.781303,,,,1.305812836,1.305513978,69183.000000000,1718096866.781303167
1718096866.782310,,,,1.209266067,1.208245873,69184.000000000,1718096866.782310247
1718096866.783317,,,,1.006676435,1.005680323,69185.000000000,1718096866.783317327
1718096866.783364,136.793548584,13994.000000000,1718096866.783363581,,,,
1718096866.784324,,,,0.874092817,0.875644982,69186.000000000,1718096866.784324408
