__time,/gdx/grip_force_stream/grip_force,/gdx/grip_force_stream/header/seq,/gdx/grip_force_stream/header/stamp,/shimmer0/emg_stream/emg_ch1,/shimmer0/emg_stream/emg_ch2,/shimmer0/emg_stream/header/seq,/shimmer0/emg_stream/header/stamp
1718092456.571199,,,,0.368553728,0.369516343,23617.000000000,1718092456.571198702
1718092456.572206,,,,0.366053492,0.367953718,23618.000000000,1718092456.572205782
1718092456.576211,-0.110653028,4795.000000000,1718092456.576211452,,,,
1718092456.578248,,,,0.377112150,0.376704454,23624.000000000,1718092456.578248262
1718092456.579255,,,,0.371174127,0.371223211,23625.000000000,1718092456.579255342
1718092456.580262,,,,0.370909691,0.370670289,23626.000000000,1718092456.580262423
1718092456.581212,-0.075295150,4796.000000000,1718092456.581211567,,,,
1718092456.581270,,,,0.370236546,0.371391505,23627.000000000,1718092456.581269503
1718092456.582277,,,,0.370308667,0.371223211,23628.000000000,1718092456.582276583
1718092456.583284,,,,0.369419187,0.371127069,23629.000000000,1718092456.583283663
1718092456.584291,,,,0.373674363,0.373915762,23630.000000000,1718092456.584290743
1718092456.585298,,,,0.377833366,0.378459424,23631.000000000,1718092456.585297823
1718092456.586211,-0.057616428,4797.000000000,1718092456.586211443,,,,
1718092456.586305,,,,0.380381674,0.380190343,23632.000000000,1718092456.586304903
1718092456.587312,,,,0.380718231,0.380358636,23633.000000000,1718092456.587311983
1718092456.588319,,,,0.384925336,0.384902298,23634.000000000,1718092456.588319063
1718092456.589326,,,,0.392570227,0.392691433,23635.000000000,1718092456.589326143
1718092456.590333,,,,0.393579930,0.391801924,23636.000000000,1718092456.590333223
1718092456.591212,-0.075295150,4798.000000000,1718092456.591211557,,,,
1718092456.591340,,,,0.391488403,0.392426968,23637.000000000,1718092456.591340303
1718092456.592347,,,,0.389252633,0.390840292,23638.000000000,1718092456.592347383
1718092456.593354,,,,0.387617886,0.388917059,23639.000000000,1718092456.593354464
1718092456.594362,,,,0.379804701,0.380502880,23640.000000000,1718092456.594361544
1718092456.595369,,,,0.370332718,0.372425258,23641.000000000,1718092456.595368624
1718092456.596211,-0.057616428,4799.000000000,1718092456.596211433,,,,
1718092456.596376,,,,0.360091448,0.362688839,23642.000000000,1718092456.596375704
1718092456.597383,,,,0.360211641,0.363289833,23643.000000000,1718092456.597382784
1718092456.598390,,,,0.369491309,0.369828880,23644.000000000,1718092456.598389864
1718092456.599397,,,,0.377881438,0.375141829,23645.000000000,1718092456.599396944
1718092456.600404,,,,0.378891140,0.378050745,23646.000000000,1718092456.600404024
1718092456.601212,-0.092974015,4800.000000000,1718092456.601211548,,,,
1718092456.601411,,,,0.373746485,0.375358194,23647.000000000,1718092456.601411104
1718092456.602418,,,,0.370909691,0.373891711,23648.000000000,1718092456.602418184
1718092456.603425,,,,0.373145461,0.374612927,23649.000000000,1718092456.603425264
1718092456.604432,,,,0.376919836,0.377305478,23650.000000000,1718092456.604432344
1718092456.605439,,,,0.383651197,0.385286927,23651.000000000,1718092456.605439425
1718092456.606447,,,,0.382449150,0.384397447,23652.000000000,1718092456.606446505
1718092456.607454,,,,0.382785738,0.384734005,23653.000000000,1718092456.607453585
1718092456.608461,,,,0.385742724,0.384734005,23654.000000000,1718092456.608460665
1718092456.609468,,,,0.389685363,0.390551805,23655.000000000,1718092456.609467745
1718092456.610475,,,,0.385141701,0.386224508,23656.000000000,1718092456.610474825
1718092456.611482,,,,0.367111295,0.368049860,23657.000000000,1718092456.611481905
1718092456.612489,,,,0.358360529,0.359178901,23658.000000000,1718092456.612488985
1718092456.613496,,,,0.363120556,0.363626420,23659.000000000,1718092456.613496065
1718092456.614503,,,,0.372472316,0.373987883,23660.000000000,1718092456.614503145
1718092456.615510,,,,0.388291001,0.386921704,23661.000000000,1718092456.615510225
1718092456.616517,,,,0.403773129,0.403750062,23662.000000000,1718092456.616517305
1718092456.617524,,,,0.413100839,0.412044078,23663.000000000,1718092456.617524385
1718092456.618531,,,,0.413100839,0.410938203,23664.000000000,1718092456.618531466
1718092456.619539,,,,0.415336609,0.414303869,23665.000000000,1718092456.619538546
1718092456.620546,,,,0.399734318,0.399759352,23666.000000000,1718092456.620545626
1718092456.621553,,,,0.382881880,0.382810771,23667.000000000,1718092456.621552706
1718092456.622560,,,,0.374684066,0.374372542,23668.000000000,1718092456.622559786
1718092456.623567,,,,0.372159809,0.372473329,23669.000000000,1718092456.623566866
1718092456.624574,,,,0.360187620,0.362352252,23670.000000000,1718092456.624573946
1718092456.625581,,,,0.350234836,0.353721708,23671.000000000,1718092456.625581026
1718092456.626588,,,,0.354081303,0.356967181,23672.000000000,1718092456.626588106
1718092456.627595,,,,0.360980958,0.363337934,23673.000000000,1718092456.627595186
1718092456.628602,,,,0.378602654,0.378194988,23674.000000000,1718092456.628602266
1718092456.629609,,,,0.384684920,0.387065947,23675.000000000,1718092456.629609346
1718092456.630616,,,,0.375958204,0.376007289,23676.000000000,1718092456.630616426
1718092456.631624,,,,0.374058992,0.375406265,23677.000000000,1718092456.631623507
1718092456.632631,,,,0.377352566,0.377137184,23678.000000000,1718092456.632630587
1718092456.633638,,,,0.383627146,0.381055802,23679.000000000,1718092456.633637667
1718092456.634645,,,,0.384757042,0.384277225,23680.000000000,1718092456.634644747
1718092456.635652,,,,0.374155164,0.375358194,23681.000000000,1718092456.635651827
1718092456.636659,,,,0.370020181,0.371631920,23682.000000000,1718092456.636658907
1718092456.637666,,,,0.375236988,0.375935167,23683.000000000,1718092456.637665987
1718092456.638673,,,,0.375982255,0.375959218,23684.000000000,1718092456.638673067
1718092456.639680,,,,0.371102005,0.369396150,23685.000000000,1718092456.639680147
1718092456.640687,,,,0.366149664,0.365357339,23686.000000000,1718092456.640687227
1718092456.641694,,,,0.365404397,0.363169640,23687.000000000,1718092456.641694307
1718092456.642701,,,,0.369827867,0.369708657,23688.000000000,1718092456.642701387
1718092456.643708,,,,0.380598038,0.380334586,23689.000000000,1718092456.643708467
1718092456.644716,,,,0.386560082,0.389445961,23690.000000000,1718092456.644715548
1718092456.645723,,,,0.390142143,0.391369194,23691.000000000,1718092456.645722628
1718092456.646730,,,,0.394469440,0.394686788,23692.000000000,1718092456.646729708
1718092456.647737,,,,0.402066231,0.402764410,23693.000000000,1718092456.647736788
1718092456.648744,,,,0.404542416,0.404278964,23694.000000000,1718092456.648743868
1718092456.649751,,,,0.409062028,0.408870727,23695.000000000,1718092456.649750948
1718092456.650055,-0.110653028,4811.000000000,1718092456.650055170,,,,
1718092456.650758,,,,0.413461447,0.412140220,23696.000000000,1718092456.650758028
1718092456.651765,,,,0.409062028,0.409688085,23697.000000000,1718092456.651765108
1718092456.652772,,,,0.396344602,0.397042751,23698.000000000,1718092456.652772188
1718092456.653779,,,,0.391656697,0.391849995,23699.000000000,1718092456.653779268
1718092456.654786,,,,0.379035383,0.380863488,23700.000000000,1718092456.654786348
1718092456.655055,-0.075295150,4812.000000000,1718092456.655055285,,,,
1718092456.655793,,,,0.365981370,0.368747056,23701.000000000,1718092456.655793428
1718092456.656801,,,,0.369827867,0.371848285,23702.000000000,1718092456.656800508
1718092456.657808,,,,0.368746042,0.367929667,23703.000000000,1718092456.657807589
1718092456.658815,,,,0.368265241,0.368674934,23704.000000000,1718092456.658814669
1718092456.659822,,,,0.373097390,0.374805272,23705.000000000,1718092456.659821749
1718092456.660055,-0.163699016,4813.000000000,1718092456.660055161,,,,
1718092456.660829,,,,0.376366884,0.376055360,23706.000000000,1718092456.660828829
1718092456.661836,,,,0.371342421,0.370766461,23707.000000000,1718092456.661835909
1718092456.662843,,,,0.376703471,0.375165880,23708.000000000,1718092456.662842989
1718092456.663850,,,,0.371703029,0.372256964,23709.000000000,1718092456.663850069
1718092456.664857,,,,0.357182533,0.358337492,23710.000000000,1718092456.664857149
1718092456.665055,-0.075295150,4814.000000000,1718092456.665055275,,,,
1718092456.665864,,,,0.354682326,0.354274631,23711.000000000,1718092456.665864229
1718092456.666871,,,,0.363216728,0.362304181,23712.000000000,1718092456.666871309
1718092456.667878,,,,0.374347478,0.375310123,23713.000000000,1718092456.667878389
1718092456.668885,,,,0.381535619,0.382714599,23714.000000000,1718092456.668885469
1718092456.669893,,,,0.387377471,0.386753410,23715.000000000,1718092456.669892550
1718092456.670055,-0.110653028,4815.000000000,1718092456.670055151,,,,
1718092456.670900,,,,0.377809316,0.379781663,23716.000000000,1718092456.670899630
1718092456.671907,,,,0.358913451,0.359299123,23717.000000000,1718092456.671906710
1718092456.672914,,,,0.353768796,0.353168786,23718.000000000,1718092456.672913790
1718092456.673921,,,,0.359899133,0.358289421,23719.000000000,1718092456.673920870
1718092456.674928,,,,0.369154721,0.366583407,23720.000000000,1718092456.674927950
1718092456.675055,-0.128340289,4816.000000000,1718092456.675055265,,,,
1718092456.675935,,,,0.376511127,0.373555154,23721.000000000,1718092456.675935030
1718092456.676942,,,,0.377761245,0.377401650,23722.000000000,1718092456.676942110
1718092456.677949,,,,0.380285501,0.379372954,23723.000000000,1718092456.677949190
1718092456.678956,,,,0.382785738,0.382185698,23724.000000000,1718092456.678956270
1718092456.679963,,,,0.381006718,0.382209748,23725.000000000,1718092456.679963350
1718092456.680055,-0.128340289,4817.000000000,1718092456.680055141,,,,
1718092456.680970,,,,0.376222640,0.378988326,23726.000000000,1718092456.680970430
1718092456.681978,,,,0.377136201,0.378411353,23727.000000000,1718092456.681977510
1718092456.682985,,,,0.378314167,0.380214393,23728.000000000,1718092456.682984591
1718092456.683992,,,,0.375813961,0.378507495,23729.000000000,1718092456.683991671
1718092456.684999,,,,0.376126498,0.378964275,23730.000000000,1718092456.684998751
1718092456.685055,-0.022259412,4818.000000000,1718092456.685055256,,,,
1718092456.686006,,,,0.378290147,0.379012346,23731.000000000,1718092456.686005831
1718092456.687013,,,,0.380501866,0.379998028,23732.000000000,1718092456.687012911
1718092456.688020,,,,0.377448708,0.378964275,23733.000000000,1718092456.688019991
1718092456.689027,,,,0.376847714,0.378315181,23734.000000000,1718092456.689027071
1718092456.690034,,,,0.375958204,0.377161235,23735.000000000,1718092456.690034151
1718092456.690055,-0.092974015,4819.000000000,1718092456.690055132,,,,
1718092456.691041,,,,0.373506069,0.374156177,23736.000000000,1718092456.691041231
1718092456.692048,,,,0.373554140,0.372906059,23737.000000000,1718092456.692048311
1718092456.693055,,,,0.373722434,0.373410910,23738.000000000,1718092456.693055391
1718092456.694062,,,,0.376847714,0.375478387,23739.000000000,1718092456.694062471
1718092456.695055,-0.039937850,4820.000000000,1718092456.695055246,,,,
1718092456.695070,,,,0.377641052,0.377065063,23740.000000000,1718092456.695069551
1718092456.696077,,,,0.377472758,0.378964275,23741.000000000,1718092456.696076632
1718092456.697084,,,,0.376390934,0.377137184,23742.000000000,1718092456.697083712
1718092456.698091,,,,0.380886525,0.382642478,23743.000000000,1718092456.698090792
1718092456.699098,,,,0.384420484,0.386777461,23744.000000000,1718092456.699097872
1718092456.700105,,,,0.383386731,0.386104316,23745.000000000,1718092456.700104952
1718092456.701112,,,,0.381006718,0.382065505,23746.000000000,1718092456.701112032
1718092456.702119,,,,0.385646552,0.382426113,23747.000000000,1718092456.702119112
1718092456.703126,,,,0.390622944,0.391465366,23748.000000000,1718092456.703126192
1718092456.704133,,,,0.404374123,0.404952109,23749.000000000,1718092456.704133272
1718092456.705140,,,,0.421875656,0.421107352,23750.000000000,1718092456.705140352
1718092456.706147,,,,0.425265372,0.425602943,23751.000000000,1718092456.706147432
1718092456.707155,,,,0.424399912,0.423775852,23752.000000000,1718092456.707154512
1718092456.708162,,,,0.425601929,0.423968166,23753.000000000,1718092456.708161592
1718092456.709146,-0.075295150,4822.000000000,1718092456.709146023,,,,
1718092456.709169,,,,0.427861750,0.426829010,23754.000000000,1718092456.709168673
1718092456.710176,,,,0.430890858,0.430747598,23755.000000000,1718092456.710175753
1718092456.711183,,,,0.429159939,0.431132257,23756.000000000,1718092456.711182833
1718092456.712190,,,,0.422043920,0.423054636,23757.000000000,1718092456.712189913
1718092456.713197,,,,0.413293183,0.414135605,23758.000000000,1718092456.713196993
1718092456.714146,-0.092974015,4823.000000000,1718092456.714145899,,,,
1718092456.714204,,,,0.411009312,0.411779612,23759.000000000,1718092456.714204073
1718092456.715211,,,,0.405600190,0.406610906,23760.000000000,1718092456.715211153
1718092456.716218,,,,0.394926190,0.394422352,23761.000000000,1718092456.716218233
1718092456.717225,,,,0.390382528,0.390239298,23762.000000000,1718092456.717225313
1718092456.718232,,,,0.392930835,0.392787576,23763.000000000,1718092456.718232393
1718092456.719146,-0.039937850,4824.000000000,1718092456.719146013,,,,
1718092456.719239,,,,0.392450035,0.393773258,23764.000000000,1718092456.719239473
1718092456.720247,,,,0.389781535,0.387883306,23765.000000000,1718092456.720246553
1718092456.721254,,,,0.379564285,0.378844082,23766.000000000,1718092456.721253633
1718092456.722261,,,,0.368265241,0.368386447,23767.000000000,1718092456.722260714
1718092456.723268,,,,0.359177917,0.358938515,23768.000000000,1718092456.723267794
1718092456.724146,-0.057616428,4825.000000000,1718092456.724145889,,,,
1718092456.724275,,,,0.349633813,0.350019455,23769.000000000,1718092456.724274874
1718092456.725282,,,,0.363721579,0.363025397,23770.000000000,1718092456.725281954
1718092456.726289,,,,0.382304907,0.381728947,23771.000000000,1718092456.726289034
1718092456.727296,,,,0.389204562,0.388508379,23772.000000000,1718092456.727296114
1718092456.728303,,,,0.398892879,0.398485184,23773.000000000,1718092456.728303194
1718092456.729146,-0.022259412,4826.000000000,1718092456.729146004,,,,
1718092456.729310,,,,0.403749079,0.404976159,23774.000000000,1718092456.729310274
1718092456.730317,,,,0.398460150,0.400119960,23775.000000000,1718092456.730317354
1718092456.731324,,,,0.396104187,0.398485184,23776.000000000,1718092456.731324434
1718092456.732332,,,,0.399734318,0.401057541,23777.000000000,1718092456.732331514
1718092456.733339,,,,0.404326051,0.405096352,23778.000000000,1718092456.733338594
1718092456.734146,-0.022259412,4827.000000000,1718092456.734145880,,,,
1718092456.734346,,,,0.408316791,0.406442612,23779.000000000,1718092456.734345675
1718092456.735353,,,,0.415024102,0.413149923,23780.000000000,1718092456.735352755
1718092456.736360,,,,0.426202953,0.425170213,23781.000000000,1718092456.736359835
1718092456.737367,,,,0.437069267,0.436565429,23782.000000000,1718092456.737366915
1718092456.738374,,,,0.448320240,0.446277797,23783.000000000,1718092456.738373995
1718092456.739146,0.030783147,4828.000000000,1718092456.739145994,,,,
1718092456.739381,,,,0.459451020,0.459043324,23784.000000000,1718092456.739381075
1718092456.740388,,,,0.461758912,0.461086780,23785.000000000,1718092456.740388155
1718092456.741395,,,,0.455171794,0.452937037,23786.000000000,1718092456.741395235
1718092456.742402,,,,0.454162091,0.456951797,23787.000000000,1718092456.742402315
1718092456.743409,,,,0.460893452,0.462865770,23788.000000000,1718092456.743409395
1718092456.744146,0.083816305,4829.000000000,1718092456.744145870,,,,
1718092456.744416,,,,0.464331239,0.466519922,23789.000000000,1718092456.744416475
1718092456.745424,,,,0.458224952,0.461735874,23790.000000000,1718092456.745423555
1718092456.746431,,,,0.435650885,0.437935740,23791.000000000,1718092456.746430635
1718092456.747438,,,,0.417860866,0.419953406,23792.000000000,1718092456.747437716
1718092456.748445,,,,0.405600190,0.406009883,23793.000000000,1718092456.748444796
1718092456.749146,0.083816305,4830.000000000,1718092456.749145985,,,,
1718092456.749452,,,,0.395479143,0.397235096,23794.000000000,1718092456.749451876
1718092456.750459,,,,0.386271596,0.387354434,23795.000000000,1718092456.750458956
1718092456.751466,,,,0.398315907,0.396730244,23796.000000000,1718092456.751466036
1718092456.752473,,,,0.414182663,0.411370933,23797.000000000,1718092456.752473116
1718092456.753480,,,,0.426803946,0.426300108,23798.000000000,1718092456.753480196
1718092456.754146,0.083816305,4831.000000000,1718092456.754145861,,,,
1718092456.754487,,,,0.446012348,0.445316166,23799.000000000,1718092456.754487276
1718092456.755494,,,,0.460508794,0.461303145,23800.000000000,1718092456.755494356
1718092456.756501,,,,0.448464483,0.446446091,23801.000000000,1718092456.756501436
1718092456.757509,,,,0.448392361,0.447696179,23802.000000000,1718092456.757508516
1718092456.758516,,,,0.472168475,0.471568435,23803.000000000,1718092456.758515596
1718092456.759146,0.101493739,4832.000000000,1718092456.759145975,,,,
1718092456.759523,,,,0.487698644,0.488108337,23804.000000000,1718092456.759522676
1718092456.760530,,,,0.493516475,0.493781924,23805.000000000,1718092456.760529757
1718092456.761537,,,,0.486688942,0.487964094,23806.000000000,1718092456.761536837
1718092456.762544,,,,0.510152519,0.510153532,23807.000000000,1718092456.762543917
1718092456.763551,,,,0.528038681,0.529794633,23808.000000000,1718092456.763550997
1718092456.764146,0.172210157,4833.000000000,1718092456.764145851,,,,
1718092456.764558,,,,0.531019688,0.530227363,23809.000000000,1718092456.764558077
1718092456.765565,,,,0.540058970,0.539050281,23810.000000000,1718092456.765565157
1718092456.766572,,,,0.542222619,0.543930471,23811.000000000,1718092456.766572237
1718092456.767579,,,,0.520489931,0.520322680,23812.000000000,1718092456.767579317
1718092456.768586,,,,0.463994682,0.464115888,23813.000000000,1718092456.768586397
1718092456.769146,0.172210157,4834.000000000,1718092456.769145966,,,,
1718092456.769593,,,,0.411369920,0.413823068,23814.000000000,1718092456.769593477
1718092456.770601,,,,0.386319697,0.386897653,23815.000000000,1718092456.770600557
1718092456.771608,,,,0.369755745,0.369396150,23816.000000000,1718092456.771607637
1718092456.772615,,,,0.348023087,0.350067556,23817.000000000,1718092456.772614717
1718092456.773622,,,,0.350018471,0.350476235,23818.000000000,1718092456.773621798
1718092456.774146,0.331303567,4835.000000000,1718092456.774145842,,,,
1718092456.774629,,,,0.361197323,0.361054063,23819.000000000,1718092456.774628878
1718092456.775636,,,,0.348600060,0.348889560,23820.000000000,1718092456.775635958
1718092456.776643,,,,0.326891452,0.327205002,23821.000000000,1718092456.776643038
1718092456.777650,,,,0.314967364,0.314223081,23822.000000000,1718092456.777650118
1718092456.778657,,,,0.324271053,0.325882763,23823.000000000,1718092456.778657198
1718092456.779146,0.508059502,4836.000000000,1718092456.779145956,,,,
1718092456.779664,,,,0.341291755,0.343504488,23824.000000000,1718092456.779664278
1718092456.780671,,,,0.366269857,0.369107664,23825.000000000,1718092456.780671358
1718092456.781678,,,,0.390863359,0.391946167,23826.000000000,1718092456.781678438
1718092456.782686,,,,0.395455092,0.391705751,23827.000000000,1718092456.782685518
1718092456.783693,,,,0.393700123,0.388267964,23828.000000000,1718092456.783692598
1718092456.784146,0.631782591,4837.000000000,1718092456.784145832,,,,
1718092456.784700,,,,0.408773541,0.408437997,23829.000000000,1718092456.784699678
1718092456.785707,,,,0.428318501,0.428487808,23830.000000000,1718092456.785706758
1718092456.786714,,,,0.445243061,0.446253747,23831.000000000,1718092456.786713839
1718092456.787721,,,,0.457912415,0.458298057,23832.000000000,1718092456.787720919
1718092456.788728,,,,0.453104317,0.456711382,23833.000000000,1718092456.788727999
1718092456.789146,0.843857169,4838.000000000,1718092456.789145947,,,,
1718092456.789735,,,,0.455532402,0.456975847,23834.000000000,1718092456.789735079
1718092456.790742,,,,0.448296189,0.448922247,23835.000000000,1718092456.790742159
1718092456.791749,,,,0.409278393,0.408462018,23836.000000000,1718092456.791749239
1718092456.792756,,,,0.377689123,0.377185285,23837.000000000,1718092456.792756319
1718092456.793763,,,,0.371967465,0.374997586,23838.000000000,1718092456.793763399
1718092456.794146,1.038249493,4839.000000000,1718092456.794145823,,,,
1718092456.794770,,,,0.379924893,0.382065505,23839.000000000,1718092456.794770479
1718092456.795778,,,,0.395695508,0.397763968,23840.000000000,1718092456.795777559
1718092456.796785,,,,0.412187308,0.411467105,23841.000000000,1718092456.796784639
1718092456.797792,,,,0.432525605,0.435555726,23842.000000000,1718092456.797791719
1718092456.798741,1.833292603,4841.000000000,1718092456.798741102,,,,
1718092456.798799,,,,0.465220749,0.468659550,23843.000000000,1718092456.798798800
1718092456.799146,1.373965383,4840.000000000,1718092456.799145937,,,,
1718092456.799806,,,,0.518085897,0.520178437,23844.000000000,1718092456.799805880
1718092456.800813,,,,0.547535539,0.549315572,23845.000000000,1718092456.800812960
1718092456.801820,,,,0.549338579,0.548065484,23846.000000000,1718092456.801820040
1718092456.802827,,,,0.550564647,0.550733984,23847.000000000,1718092456.802827120
1718092456.803741,2.345492601,4842.000000000,1718092456.803741217,,,,
1718092456.803834,,,,0.554651558,0.554364085,23848.000000000,1718092456.803834200
1718092456.804841,,,,0.530899525,0.529650390,23849.000000000,1718092456.804841280
1718092456.805848,,,,0.509214938,0.511067033,23850.000000000,1718092456.805848360
1718092456.806855,,,,0.482914597,0.483083874,23851.000000000,1718092456.806855440
1718092456.807863,,,,0.471855938,0.471640557,23852.000000000,1718092456.807862520
1718092456.808741,3.140058041,4843.000000000,1718092456.808741093,,,,
1718092456.808870,,,,0.490679681,0.491185546,23853.000000000,1718092456.808869600
1718092456.809877,,,,0.499670833,0.504383802,23854.000000000,1718092456.809876680
1718092456.810884,,,,0.482914597,0.484309942,23855.000000000,1718092456.810883760
1718092456.811891,,,,0.483948320,0.482867509,23856.000000000,1718092456.811890841
1718092456.812898,,,,0.498516887,0.497460127,23857.000000000,1718092456.812897921
1718092456.813741,4.128448486,4844.000000000,1718092456.813741207,,,,
1718092456.813905,,,,0.490968168,0.490271986,23858.000000000,1718092456.813905001
1718092456.814912,,,,0.495776266,0.495584965,23859.000000000,1718092456.814912081
1718092456.815919,,,,0.494838685,0.494911820,23860.000000000,1718092456.815919161
1718092456.816926,,,,0.457239270,0.458177865,23861.000000000,1718092456.816926241
1718092456.817933,,,,0.418437839,0.418270558,23862.000000000,1718092456.817933321
1718092456.818741,5.398563385,4845.000000000,1718092456.818741083,,,,
1718092456.818940,,,,0.412980646,0.411683470,23863.000000000,1718092456.818940401
1718092456.819947,,,,0.429448426,0.428992659,23864.000000000,1718092456.819947481
1718092456.820955,,,,0.413918227,0.413438410,23865.000000000,1718092456.820954561
1718092456.821962,,,,0.381439447,0.381224096,23866.000000000,1718092456.821961641
1718092456.822969,,,,0.371077985,0.374060005,23867.000000000,1718092456.822968721
1718092456.823741,6.756058216,4846.000000000,1718092456.823741198,,,,
1718092456.823976,,,,0.420625538,0.421924740,23868.000000000,1718092456.823975801
1718092456.824983,,,,0.468394101,0.467938334,23869.000000000,1718092456.824982882
1718092456.825990,,,,0.503060579,0.503854871,23870.000000000,1718092456.825989962
1718092456.826997,,,,0.553064883,0.556070983,23871.000000000,1718092456.826997042
1718092456.828004,,,,0.601867199,0.603214443,23872.000000000,1718092456.828004122
1718092456.829011,,,,0.621700644,0.622422874,23873.000000000,1718092456.829011202
1718092456.830018,,,,0.628383934,0.629442692,23874.000000000,1718092456.830018282
1718092456.831025,,,,0.623335421,0.621004462,23875.000000000,1718092456.831025362
1718092456.832032,,,,0.601434469,0.597973645,23876.000000000,1718092456.832032442
1718092456.833040,,,,0.528928161,0.525467336,23877.000000000,1718092456.833039522
1718092456.834047,,,,0.464186996,0.460750192,23878.000000000,1718092456.834046602
1718092456.835054,,,,0.432525605,0.430723578,23879.000000000,1718092456.835053682
1718092456.836061,,,,0.370861620,0.372136772,23880.000000000,1718092456.836060762
1718092456.837068,,,,0.314005733,0.314271182,23881.000000000,1718092456.837067842
1718092456.838075,,,,0.278594017,0.277873784,23882.000000000,1718092456.838074923
1718092456.839082,,,,0.257678747,0.256237298,23883.000000000,1718092456.839082003
1718092456.840089,,,,0.240081057,0.242389947,23884.000000000,1718092456.840089083
1718092456.841096,,,,0.248062521,0.250635862,23885.000000000,1718092456.841096163
1718092456.842103,,,,0.279603720,0.279797047,23886.000000000,1718092456.842103243
1718092456.843110,,,,0.301432520,0.300087243,23887.000000000,1718092456.843110323
1718092456.844117,,,,0.310928553,0.311819047,23888.000000000,1718092456.844117403
1718092456.845124,,,,0.327564597,0.327373266,23889.000000000,1718092456.845124483
1718092456.846132,,,,0.360644370,0.360356897,23890.000000000,1718092456.846131563
1718092456.847139,,,,0.411393970,0.413678825,23891.000000000,1718092456.847138643
1718092456.848146,,,,0.463946581,0.465558320,23892.000000000,1718092456.848145723
1718092456.848741,16.181919098,4851.000000000,1718092456.848741055,,,,
1718092456.849153,,,,0.518422484,0.519361019,23893.000000000,1718092456.849152803
1718092456.850160,,,,0.584702253,0.582731903,23894.000000000,1718092456.850159883
1718092456.851167,,,,0.638096273,0.634683549,23895.000000000,1718092456.851166964
1718092456.852174,,,,0.663170576,0.661849320,23896.000000000,1718092456.852174044
1718092456.853181,,,,0.716540575,0.716541588,23897.000000000,1718092456.853181124
1718092456.853741,18.742206573,4852.000000000,1718092456.853741169,,,,
1718092456.854188,,,,0.786041796,0.787076533,23898.000000000,1718092456.854188204
1718092456.855195,,,,0.801043093,0.801188350,23899.000000000,1718092456.855195284
1718092456.856202,,,,0.768083513,0.767267108,23900.000000000,1718092456.856202364
1718092456.857209,,,,0.678724825,0.677716076,23901.000000000,1718092456.857209444
1718092456.858217,,,,0.542727470,0.544459403,23902.000000000,1718092456.858216524
1718092456.858741,21.614458084,4853.000000000,1718092456.858741045,,,,
1718092456.859224,,,,0.452815831,0.454283297,23903.000000000,1718092456.859223604
1718092456.860231,,,,0.424712420,0.427934855,23904.000000000,1718092456.860230684
1718092456.861238,,,,0.410023659,0.409063041,23905.000000000,1718092456.861237764
1718092456.862245,,,,0.386824548,0.384060860,23906.000000000,1718092456.862244844
1718092456.863252,,,,0.361533880,0.361703157,23907.000000000,1718092456.863251925
1718092456.863741,24.849811554,4854.000000000,1718092456.863741159,,,,
1718092456.864259,,,,0.309990972,0.312780648,23908.000000000,1718092456.864259005
1718092456.865266,,,,0.301985472,0.304727077,23909.000000000,1718092456.865266085
1718092456.866273,,,,0.316241503,0.314343303,23910.000000000,1718092456.866273165
1718092456.867280,,,,0.290205598,0.291096091,23911.000000000,1718092456.867280245
1718092456.868287,,,,0.240441665,0.241163880,23912.000000000,1718092456.868287325
1718092456.868741,28.324453354,4855.000000000,1718092456.868741035,,,,
1718092456.869294,,,,0.200726688,0.200126678,23913.000000000,1718092456.869294405
1718092456.870301,,,,0.232388079,0.232917979,23914.000000000,1718092456.870301485
1718092456.871309,,,,0.307659030,0.304847270,23915.000000000,1718092456.871308565
1718092456.872316,,,,0.377833366,0.375959218,23916.000000000,1718092456.872315645
1718092456.873323,,,,0.409086078,0.410048693,23917.000000000,1718092456.873322725
1718092456.873741,32.106819153,4856.000000000,1718092456.873741150,,,,
1718092456.874330,,,,0.420361102,0.421179473,23918.000000000,1718092456.874329805
1718092456.875337,,,,0.435867250,0.434954703,23919.000000000,1718092456.875336885
1718092456.876344,,,,0.486160070,0.485920638,23920.000000000,1718092456.876343966
1718092456.877351,,,,0.476207286,0.478323847,23921.000000000,1718092456.877351046
1718092456.878358,,,,0.448801041,0.449931949,23922.000000000,1718092456.878358126
1718092456.878741,36.021392822,4857.000000000,1718092456.878741026,,,,
1718092456.879365,,,,0.442935169,0.440652311,23923.000000000,1718092456.879365206
1718092456.880372,,,,0.455364108,0.454691976,23924.000000000,1718092456.880372286
1718092456.881379,,,,0.445795983,0.445893139,23925.000000000,1718092456.881379366
1718092456.882386,,,,0.422957480,0.424016267,23926.000000000,1718092456.882386446
1718092456.883394,,,,0.422067970,0.424857676,23927.000000000,1718092456.883393526
1718092456.883741,40.119449615,4858.000000000,1718092456.883741140,,,,
1718092456.884401,,,,0.461085767,0.462144554,23928.000000000,1718092456.884400606
1718092456.885408,,,,0.539506018,0.538617551,23929.000000000,1718092456.885407686
1718092456.886415,,,,0.606867611,0.605907023,23930.000000000,1718092456.886414766
1718092456.887422,,,,0.640211880,0.639106989,23931.000000000,1718092456.887421846
1718092456.888429,,,,0.602251828,0.603166401,23932.000000000,1718092456.888428926
1718092456.888741,44.244037628,4859.000000000,1718092456.888741016,,,,
1718092456.889436,,,,0.522894025,0.525371194,23933.000000000,1718092456.889436007
1718092456.890443,,,,0.460653037,0.462144554,23934.000000000,1718092456.890443087
1718092456.891450,,,,0.420601487,0.421395838,23935.000000000,1718092456.891450167
1718092456.892457,,,,0.391464353,0.392667383,23936.000000000,1718092456.892457247
1718092456.892783,52.899639130,4861.000000000,1718092456.892782688,,,,
1718092456.893464,,,,0.419928372,0.419592798,23937.000000000,1718092456.893464327
1718092456.893741,48.602291107,4860.000000000,1718092456.893741131,,,,
1718092456.894471,,,,0.432237118,0.433031470,23938.000000000,1718092456.894471407
1718092456.895478,,,,0.451445520,0.451951355,23939.000000000,1718092456.895478487
1718092456.896486,,,,0.472529083,0.471736729,23940.000000000,1718092456.896485567
1718092456.897493,,,,0.494526178,0.494334847,23941.000000000,1718092456.897492647
1718092456.897783,57.342872620,4862.000000000,1718092456.897782803,,,,
1718092456.898500,,,,0.500969052,0.501979709,23942.000000000,1718092456.898499727
1718092456.899507,,,,0.496305168,0.496762931,23943.000000000,1718092456.899506807
1718092456.900514,,,,0.510152519,0.508735120,23944.000000000,1718092456.900513887
1718092456.901521,,,,0.557127714,0.554436207,23945.000000000,1718092456.901520967
1718092456.902528,,,,0.524456620,0.524048924,23946.000000000,1718092456.902528048
1718092456.902783,61.759380341,4863.000000000,1718092456.902782679,,,,
1718092456.903535,,,,0.598237097,0.596819699,23947.000000000,1718092456.903535128
1718092456.904542,,,,0.518590748,0.516812742,23948.000000000,1718092456.904542208
1718092456.905549,,,,0.467720956,0.467601746,23949.000000000,1718092456.905549288
1718092456.906556,,,,0.480222046,0.481953949,23950.000000000,1718092456.906556368
1718092456.907563,,,,0.428703159,0.428776294,23951.000000000,1718092456.907563448
1718092456.907783,66.200683594,4864.000000000,1718092456.907782793,,,,
1718092456.908571,,,,0.343719840,0.345091164,23952.000000000,1718092456.908570528
1718092456.909578,,,,0.284291625,0.285783142,23953.000000000,1718092456.909577608
1718092456.910585,,,,0.281310588,0.280614406,23954.000000000,1718092456.910584688
1718092456.911592,,,,0.353672624,0.354202509,23955.000000000,1718092456.911591768
1718092456.912599,,,,0.377809316,0.380382657,23956.000000000,1718092456.912598848
1718092456.912783,70.529853821,4865.000000000,1718092456.912782669,,,,
1718092456.913606,,,,0.374924451,0.376560211,23957.000000000,1718092456.913605928
1718092456.914613,,,,0.413990349,0.413630754,23958.000000000,1718092456.914613008
1718092456.915620,,,,0.486929357,0.485319644,23959.000000000,1718092456.915620089
1718092456.916627,,,,0.560397267,0.560518444,23960.000000000,1718092456.916627169
1718092456.917634,,,,0.619897604,0.619369686,23961.000000000,1718092456.917634249
1718092456.917783,74.935249329,4866.000000000,1718092456.917782784,,,,
1718092456.918641,,,,0.599366963,0.600017071,23962.000000000,1718092456.918641329
1718092456.919648,,,,0.550564647,0.553113997,23963.000000000,1718092456.919648409
1718092456.920655,,,,0.482097208,0.482386678,23964.000000000,1718092456.920655489
1718092456.921663,,,,0.403340399,0.403822184,23965.000000000,1718092456.921662569
1718092456.922670,,,,0.370116353,0.370598167,23966.000000000,1718092456.922669649
1718092456.922783,79.297218323,4867.000000000,1718092456.922782660,,,,
1718092456.923677,,,,0.388627589,0.386681288,23967.000000000,1718092456.923676729
1718092456.924684,,,,0.448320240,0.446085483,23968.000000000,1718092456.924683809
1718092456.925691,,,,0.500560343,0.501931667,23969.000000000,1718092456.925690889
1718092456.926698,,,,0.529408991,0.529121518,23970.000000000,1718092456.926697969
1718092456.927705,,,,0.574292660,0.574077308,23971.000000000,1718092456.927705050
1718092456.928712,,,,0.579749882,0.577995956,23972.000000000,1718092456.928712130
1718092456.929719,,,,0.493877083,0.496883154,23973.000000000,1718092456.929719210
1718092456.930726,,,,0.419712007,0.423367172,23974.000000000,1718092456.930726290
1718092456.931733,,,,0.435025811,0.434906632,23975.000000000,1718092456.931733370
1718092456.932740,,,,0.453152388,0.453129351,23976.000000000,1718092456.932740450
1718092456.933748,,,,0.481904894,0.481425077,23977.000000000,1718092456.933747530
1718092456.934755,,,,0.507051289,0.506619573,23978.000000000,1718092456.934754610
1718092456.935762,,,,0.483010739,0.484021455,23979.000000000,1718092456.935761690
1718092456.936769,,,,0.450027108,0.449138612,23980.000000000,1718092456.936768770
1718092456.937776,,,,0.462263763,0.463202327,23981.000000000,1718092456.937775850
1718092456.938783,,,,0.512340188,0.511427641,23982.000000000,1718092456.938782930
1718092456.939790,,,,0.524360478,0.522606492,23983.000000000,1718092456.939790010
1718092456.940797,,,,0.542511106,0.541454315,23984.000000000,1718092456.940797091
1718092456.941804,,,,0.558233619,0.557874024,23985.000000000,1718092456.941804171
1718092456.942783,96.130767822,4871.000000000,1718092456.942782640,,,,
1718092456.942811,,,,0.535058498,0.532102525,23986.000000000,1718092456.942811251
1718092456.943818,,,,0.527894437,0.529410005,23987.000000000,1718092456.943818331
1718092456.944825,,,,0.551814795,0.552633166,23988.000000000,1718092456.944825411
1718092456.945832,,,,0.547391295,0.544627666,23989.000000000,1718092456.945832491
1718092456.946840,,,,0.596001327,0.594607949,23990.000000000,1718092456.946839571
1718092456.947783,100.263328552,4872.000000000,1718092456.947782755,,,,
1718092456.947847,,,,0.642327428,0.641366780,23991.000000000,1718092456.947846651
1718092456.948854,,,,0.702068150,0.703295231,23992.000000000,1718092456.948853731
1718092456.949861,,,,0.719689906,0.720508277,23993.000000000,1718092456.949860811
1718092456.950868,,,,0.634033442,0.634899914,23994.000000000,1718092456.950867891
1718092456.951875,,,,0.672931015,0.675840914,23995.000000000,1718092456.951874971
1718092456.952783,104.455146790,4873.000000000,1718092456.952782631,,,,
1718092456.952882,,,,0.783205032,0.783181965,23996.000000000,1718092456.952882051
1718092456.953889,,,,0.796547532,0.797918797,23997.000000000,1718092456.953889132
1718092456.954896,,,,0.756928682,0.756569088,23998.000000000,1718092456.954896212
1718092456.955903,,,,0.675575495,0.676345766,23999.000000000,1718092456.955903292
1718092456.956910,,,,0.528038681,0.529241741,24000.000000000,1718092456.956910372
1718092456.957783,108.588356018,4874.000000000,1718092456.957782745,,,,
1718092456.957917,,,,0.438175142,0.437959760,24001.000000000,1718092456.957917452
1718092456.958925,,,,0.458417267,0.458177865,24002.000000000,1718092456.958924532
1718092456.959932,,,,0.456061304,0.455581486,24003.000000000,1718092456.959931612
1718092456.960939,,,,0.448584676,0.449643463,24004.000000000,1718092456.960938692
1718092456.961946,,,,0.408701420,0.410265058,24005.000000000,1718092456.961945772
1718092456.962783,112.881187439,4875.000000000,1718092456.962782621,,,,
1718092456.962953,,,,0.329151273,0.330811083,24006.000000000,1718092456.962952852
1718092456.963960,,,,0.348888546,0.350043505,24007.000000000,1718092456.963959932
1718092456.964967,,,,0.392137498,0.395528197,24008.000000000,1718092456.964967012
1718092456.965974,,,,0.425097078,0.424737483,24009.000000000,1718092456.965974092
1718092456.966981,,,,0.479669124,0.478492111,24010.000000000,1718092456.966981173
1718092456.967783,117.081924438,4876.000000000,1718092456.967782736,,,,
1718092456.967988,,,,0.510176539,0.510033309,24011.000000000,1718092456.967988253
1718092456.968995,,,,0.529048383,0.530059099,24012.000000000,1718092456.968995333
1718092456.970002,,,,0.533015072,0.534939349,24013.000000000,1718092456.970002413
1718092456.971009,,,,0.525562525,0.524986506,24014.000000000,1718092456.971009493
1718092456.972017,,,,0.468009442,0.468154699,24015.000000000,1718092456.972016573
1718092456.972783,121.358070374,4877.000000000,1718092456.972782612,,,,
1718092456.973024,,,,0.457191199,0.460942537,24016.000000000,1718092456.973023653
1718092456.974031,,,,0.556670964,0.557489336,24017.000000000,1718092456.974030733
1718092456.975038,,,,0.630475461,0.630139887,24018.000000000,1718092456.975037813
1718092456.976045,,,,0.604511678,0.605426192,24019.000000000,1718092456.976044893
1718092456.977052,,,,0.561503112,0.562369585,24020.000000000,1718092456.977051973
1718092456.977783,125.625953674,4878.000000000,1718092456.977782726,,,,
1718092456.978059,,,,0.603742361,0.604320347,24021.000000000,1718092456.978059053
1718092456.979066,,,,0.639466584,0.641270638,24022.000000000,1718092456.979066133
1718092456.980073,,,,0.483371347,0.481569320,24023.000000000,1718092456.980073214
1718092456.981080,,,,0.299677581,0.298716933,24024.000000000,1718092456.981080294
1718092456.982087,,,,0.305928111,0.308813959,24025.000000000,1718092456.982087374
1718092456.982783,129.869110107,4879.000000000,1718092456.982782602,,,,
1718092456.983094,,,,0.448921263,0.451494604,24026.000000000,1718092456.983094454
1718092456.984102,,,,0.544314146,0.545300782,24027.000000000,1718092456.984101534
1718092456.985109,,,,0.553737998,0.555349767,24028.000000000,1718092456.985108614
1718092456.986116,,,,0.538352072,0.538713694,24029.000000000,1718092456.986115694
1718092456.987123,,,,0.495728195,0.493421316,24030.000000000,1718092456.987122774
1718092456.987783,134.071151733,4880.000000000,1718092456.987782717,,,,
1718092456.988130,,,,0.487241894,0.485560030,24031.000000000,1718092456.988129854
1718092456.989137,,,,0.488083303,0.490223914,24032.000000000,1718092456.989136934
1718092456.990144,,,,0.448921263,0.449763685,24033.000000000,1718092456.990144014
1718092456.991151,,,,0.444545865,0.445171922,24034.000000000,1718092456.991151094
1718092456.992158,,,,0.406201214,0.409327477,24035.000000000,1718092456.992158175
1718092456.993165,,,,0.361630052,0.363361955,24036.000000000,1718092456.993165255
1718092456.994172,,,,0.306216598,0.308092743,24037.000000000,1718092456.994172335
1718092456.995179,,,,0.338334769,0.337614536,24038.000000000,1718092456.995179415
1718092456.996186,,,,0.385021508,0.382305920,24039.000000000,1718092456.996186495
1718092456.997194,,,,0.445868105,0.447071135,24040.000000000,1718092456.997193575
1718092456.998201,,,,0.531861126,0.533905566,24041.000000000,1718092456.998200655
1718092456.999208,,,,0.665622711,0.666681468,24042.000000000,1718092456.999207735
1718092457.000215,,,,0.811212242,0.812463343,24043.000000000,1718092457.000214815
1718092457.001222,,,,0.884151220,0.885354280,24044.000000000,1718092457.001221895
1718092457.002229,,,,0.912014246,0.912784517,24045.000000000,1718092457.002228975
1718092457.003236,,,,0.948603928,0.947450995,24046.000000000,1718092457.003236055
1718092457.004243,,,,0.903239429,0.903072178,24047.000000000,1718092457.004243135
1718092457.005250,,,,0.782411695,0.781210661,24048.000000000,1718092457.005250216
1718092457.006257,,,,0.741494656,0.740509987,24049.000000000,1718092457.006257296
1718092457.007264,,,,0.717646420,0.719186068,24050.000000000,1718092457.007264376
1718092457.008271,,,,0.655357420,0.657762468,24051.000000000,1718092457.008271456
1718092457.009279,,,,0.630884111,0.628865719,24052.000000000,1718092457.009278536
1718092457.010286,,,,0.558353782,0.556888342,24053.000000000,1718092457.010285616
1718092457.011293,,,,0.391127795,0.389782518,24054.000000000,1718092457.011292696
1718092457.012300,,,,0.221377522,0.220657304,24055.000000000,1718092457.012299776
1718092457.013307,,,,0.234744057,0.235658601,24056.000000000,1718092457.013306856
1718092457.014314,,,,0.341748506,0.338792533,24057.000000000,1718092457.014313936
1718092457.015321,,,,0.341339827,0.337422222,24058.000000000,1718092457.015321016
1718092457.016328,,,,0.363937944,0.364179343,24059.000000000,1718092457.016328096
1718092457.017335,,,,0.483203083,0.486112982,24060.000000000,1718092457.017335176
1718092457.018342,,,,0.554651558,0.556239247,24061.000000000,1718092457.018342257
1718092457.019349,,,,0.567994058,0.566168010,24062.000000000,1718092457.019349337
1718092457.020356,,,,0.674541771,0.673725367,24063.000000000,1718092457.020356417
1718092457.021363,,,,0.720459163,0.720219791,24064.000000000,1718092457.021363497
1718092457.022371,,,,0.713198960,0.713055730,24065.000000000,1718092457.022370577
1718092457.023378,,,,0.713367224,0.713704824,24066.000000000,1718092457.023377657
1718092457.024385,,,,0.610666037,0.613311470,24067.000000000,1718092457.024384737
1718092457.025392,,,,0.395983994,0.399254501,24068.000000000,1718092457.025391817
1718092457.026399,,,,0.238758832,0.242149547,24069.000000000,1718092457.026398897
1718092457.027406,,,,0.303115368,0.303765446,24070.000000000,1718092457.027405977
1718092457.028413,,,,0.417548358,0.415818423,24071.000000000,1718092457.028413057
1718092457.029420,,,,0.471447259,0.468491256,24072.000000000,1718092457.029420137
1718092457.030427,,,,0.453945726,0.453538030,24073.000000000,1718092457.030427217
1718092457.031434,,,,0.490727752,0.490584522,24074.000000000,1718092457.031434298
1718092457.032441,,,,0.577538133,0.578717172,24075.000000000,1718092457.032441378
1718092457.033448,,,,0.695889771,0.695938826,24076.000000000,1718092457.033448458
1718092457.034456,,,,0.830805302,0.830710113,24077.000000000,1718092457.034455538
1718092457.035463,,,,0.890017152,0.890907645,24078.000000000,1718092457.035462618
1718092457.036470,,,,0.814698100,0.813761532,24079.000000000,1718092457.036469698
1718092457.037477,,,,0.699111164,0.700650811,24080.000000000,1718092457.037476778
1718092457.038484,,,,0.670094252,0.670287549,24081.000000000,1718092457.038483858
1718092457.039491,,,,0.626460671,0.626245320,24082.000000000,1718092457.039490938
1718092457.040498,,,,0.599775672,0.598839104,24083.000000000,1718092457.040498018
1718092457.041505,,,,0.483611763,0.482098192,24084.000000000,1718092457.041505098
1718092457.042512,,,,0.394060731,0.394638717,24085.000000000,1718092457.042512178
1718092457.043519,,,,0.514792323,0.513471127,24086.000000000,1718092457.043519258
1718092457.044526,,,,0.564339876,0.563403308,24087.000000000,1718092457.044526339
1718092457.045533,,,,0.588188112,0.587924659,24088.000000000,1718092457.045533419
1718092457.046540,,,,0.656030536,0.654925644,24089.000000000,1718092457.046540499
1718092457.047548,,,,0.711011231,0.710411251,24090.000000000,1718092457.047547579
1718092457.048555,,,,0.764261067,0.764670730,24091.000000000,1718092457.048554659
1718092457.049562,,,,0.782603979,0.782460749,24092.000000000,1718092457.049561739
1718092457.050569,,,,0.712646008,0.713296115,24093.000000000,1718092457.050568819
1718092457.051576,,,,0.663891792,0.662498415,24094.000000000,1718092457.051575899
1718092457.052583,,,,0.551742673,0.548402011,24095.000000000,1718092457.052582979
1718092457.053590,,,,0.415384710,0.413414389,24096.000000000,1718092457.053590059
1718092457.054597,,,,0.359682769,0.358890414,24097.000000000,1718092457.054597139
1718092457.055604,,,,0.320424557,0.320641905,24098.000000000,1718092457.055604219
1718092457.056611,,,,0.311096817,0.309535176,24099.000000000,1718092457.056611300
1718092457.057618,,,,0.244047746,0.241644695,24100.000000000,1718092457.057618380
1718092457.058625,,,,0.243518859,0.242173582,24101.000000000,1718092457.058625460
1718092457.058741,178.794265747,4891.000000000,1718092457.058740854,,,,
1718092457.059633,,,,0.232460201,0.231956363,24102.000000000,1718092457.059632540
1718092457.060640,,,,0.204501063,0.202506691,24103.000000000,1718092457.060639620
1718092457.061647,,,,0.186566815,0.187337115,24104.000000000,1718092457.061646700
1718092457.062654,,,,0.225656733,0.227436736,24105.000000000,1718092457.062653780
1718092457.063661,,,,0.309149534,0.310833365,24106.000000000,1718092457.063660860
1718092457.063741,182.802291870,4892.000000000,1718092457.063740969,,,,
1718092457.064668,,,,0.410312146,0.408053339,24107.000000000,1718092457.064667940
1718092457.065675,,,,0.463345587,0.461303145,24108.000000000,1718092457.065675020
1718092457.066682,,,,0.490126759,0.490536451,24109.000000000,1718092457.066682100
1718092457.067689,,,,0.604511678,0.606051266,24110.000000000,1718092457.067689180
1718092457.068696,,,,0.728945494,0.732648730,24111.000000000,1718092457.068696260
1718092457.068741,186.772384644,4893.000000000,1718092457.068740845,,,,
1718092457.069703,,,,0.791691303,0.794360816,24112.000000000,1718092457.069703341
1718092457.070710,,,,0.841262937,0.846360505,24113.000000000,1718092457.070710421
1718092457.071718,,,,0.910115004,0.911390185,24114.000000000,1718092457.071717501
1718092457.072725,,,,0.857177734,0.855856538,24115.000000000,1718092457.072724581
1718092457.073732,,,,0.815707803,0.816550255,24116.000000000,1718092457.073731661
1718092457.073741,190.721191406,4894.000000000,1718092457.073740959,,,,
1718092457.074739,,,,0.669781744,0.672475278,24117.000000000,1718092457.074738741
1718092457.075746,,,,0.548809707,0.550301254,24118.000000000,1718092457.075745821
1718092457.076753,,,,0.554940045,0.557898045,24119.000000000,1718092457.076752901
1718092457.077760,,,,0.532870829,0.534602761,24120.000000000,1718092457.077759981
1718092457.078741,194.616485596,4895.000000000,1718092457.078740835,,,,
1718092457.078767,,,,0.263977349,0.265228480,24121.000000000,1718092457.078767061
1718092457.079774,,,,0.277247727,0.277633399,24122.000000000,1718092457.079774141
1718092457.080781,,,,0.308043689,0.307924479,24123.000000000,1718092457.080781221
1718092457.081788,,,,0.305759817,0.305688709,24124.000000000,1718092457.081788301
1718092457.082795,,,,0.272535801,0.273402244,24125.000000000,1718092457.082795382
1718092457.083741,198.474838257,4896.000000000,1718092457.083740950,,,,
1718092457.083802,,,,0.328886837,0.328094482,24126.000000000,1718092457.083802462
1718092457.084810,,,,0.366101593,0.365621775,24127.000000000,1718092457.084809542
1718092457.085817,,,,0.380021065,0.378771961,24128.000000000,1718092457.085816622
1718092457.086824,,,,0.373001218,0.374612927,24129.000000000,1718092457.086823702
1718092457.087831,,,,0.444810331,0.446734577,24130.000000000,1718092457.087830782
1718092457.088741,202.134658813,4897.000000000,1718092457.088740826,,,,
1718092457.088838,,,,0.582298160,0.586025476,24131.000000000,1718092457.088837862
1718092457.089845,,,,0.694783866,0.696636021,24132.000000000,1718092457.089844942
1718092457.090852,,,,0.832223654,0.833570957,24133.000000000,1718092457.090852022
1718092457.091859,,,,0.940358043,0.941320658,24134.000000000,1718092457.091859102
1718092457.092866,,,,0.979544103,0.979016244,24135.000000000,1718092457.092866182
1718092457.093741,205.693756104,4898.000000000,1718092457.093740940,,,,
1718092457.093873,,,,0.945767164,0.944373786,24136.000000000,1718092457.093873262
1718092457.094880,,,,0.877540112,0.876483321,24137.000000000,1718092457.094880342
1718092457.095887,,,,0.711155474,0.711444974,24138.000000000,1718092457.095887423
1718092457.096895,,,,0.512220025,0.512966275,24139.000000000,1718092457.096894503
1718092457.097902,,,,0.368289262,0.364828438,24140.000000000,1718092457.097901583
1718092457.098741,209.168731689,4899.000000000,1718092457.098740816,,,,
1718092457.098909,,,,0.331338972,0.327012658,24141.000000000,1718092457.098908663
1718092457.099916,,,,0.395190656,0.395047396,24142.000000000,1718092457.099915743
1718092457.100923,,,,0.467336327,0.468322963,24143.000000000,1718092457.100922823
1718092457.101930,,,,0.494117469,0.495633036,24144.000000000,1718092457.101929903
1718092457.102316,215.577407837,4901.000000000,1718092457.102315903,,,,
1718092457.102937,,,,0.622926712,0.624370158,24145.000000000,1718092457.102936983
1718092457.103741,212.382400513,4900.000000000,1718092457.103740931,,,,
1718092457.103944,,,,0.813976884,0.815372229,24146.000000000,1718092457.103944063
1718092457.104951,,,,0.907975435,0.903577030,24147.000000000,1718092457.104951143
1718092457.105958,,,,0.928409874,0.923722982,24148.000000000,1718092457.105958223
1718092457.106965,,,,0.778228641,0.777436256,24149.000000000,1718092457.106965303
1718092457.107316,218.592742920,4902.000000000,1718092457.107316017,,,,
1718092457.107972,,,,0.651366651,0.652954340,24150.000000000,1718092457.107972383
1718092457.108979,,,,0.624970138,0.625211537,24151.000000000,1718092457.108979464
1718092457.109987,,,,0.456782520,0.458298057,24152.000000000,1718092457.109986544
1718092457.110994,,,,0.432814091,0.434930652,24153.000000000,1718092457.110993624
1718092457.112001,,,,0.432357311,0.433271855,24154.000000000,1718092457.112000704
1718092457.112316,221.606094360,4903.000000000,1718092457.112315893,,,,
1718092457.113008,,,,0.385141701,0.384854198,24155.000000000,1718092457.113007784
1718092457.114015,,,,0.321506381,0.322541118,24156.000000000,1718092457.114014864
1718092457.115022,,,,0.323790222,0.324632645,24157.000000000,1718092457.115021944
1718092457.116029,,,,0.389541119,0.389662325,24158.000000000,1718092457.116029024
1718092457.117036,,,,0.438175142,0.436685622,24159.000000000,1718092457.117036104
1718092457.117316,224.537048340,4904.000000000,1718092457.117316008,,,,
1718092457.118043,,,,0.449474186,0.450124294,24160.000000000,1718092457.118043184
1718092457.119050,,,,0.517484903,0.518880248,24161.000000000,1718092457.119050264
1718092457.120057,,,,0.611122787,0.612109482,24162.000000000,1718092457.120057344
1718092457.121064,,,,0.679301798,0.680721164,24163.000000000,1718092457.121064425
1718092457.122072,,,,0.674541771,0.676634252,24164.000000000,1718092457.122071505
1718092457.123079,,,,0.622181475,0.622230530,24165.000000000,1718092457.123078585
1718092457.124086,,,,0.682258785,0.684086859,24166.000000000,1718092457.124085665
1718092457.125093,,,,0.752216756,0.753780365,24167.000000000,1718092457.125092745
1718092457.126100,,,,0.916221321,0.917712867,24168.000000000,1718092457.126099825
1718092457.127107,,,,1.117873430,1.122538328,24169.000000000,1718092457.127106905
1718092457.128114,,,,1.160905957,1.162301302,24170.000000000,1718092457.128113985
1718092457.129121,,,,1.018105149,1.020341873,24171.000000000,1718092457.129121065
1718092457.130128,,,,0.877828598,0.880137503,24172.000000000,1718092457.130128145
1718092457.131135,,,,0.751591682,0.750823379,24173.000000000,1718092457.131135225
1718092457.132142,,,,0.539602160,0.539867640,24174.000000000,1718092457.132142305
1718092457.133149,,,,0.268424869,0.266214132,24175.000000000,1718092457.133149385
1718092457.134156,,,,0.103867345,0.102834605,24176.000000000,1718092457.134156466
1718092457.135164,,,,0.077999718,0.077567987,24177.000000000,1718092457.135163546
1718092457.136171,,,,0.062421449,0.064898625,24178.000000000,1718092457.136170626
1718092457.137178,,,,0.102689356,0.102642275,24179.000000000,1718092457.137177706
1718092457.138185,,,,0.244264111,0.244481474,24180.000000000,1718092457.138184786
1718092457.139192,,,,0.425024956,0.427526176,24181.000000000,1718092457.139191866
1718092457.140199,,,,0.581649065,0.583308876,24182.000000000,1718092457.140198946
1718092457.141206,,,,0.667545974,0.667450786,24183.000000000,1718092457.141206026
1718092457.142213,,,,0.728248298,0.727455974,24184.000000000,1718092457.142213106
1718092457.143220,,,,0.780632675,0.779167175,24185.000000000,1718092457.143220186
1718092457.144227,,,,0.784767628,0.783951283,24186.000000000,1718092457.144227266
1718092457.145234,,,,0.764237046,0.767387331,24187.000000000,1718092457.145234346
1718092457.146241,,,,0.699303508,0.702261508,24188.000000000,1718092457.146241426
1718092457.147249,,,,0.523254633,0.524698019,24189.000000000,1718092457.147248507
1718092457.148256,,,,0.421418875,0.423126757,24190.000000000,1718092457.148255587
1718092457.149263,,,,0.369226843,0.367641181,24191.000000000,1718092457.149262667
1718092457.150270,,,,0.280108571,0.277248740,24192.000000000,1718092457.150269747
1718092457.151277,,,,0.244817048,0.245395020,24193.000000000,1718092457.151276827
1718092457.152284,,,,0.277223706,0.276527524,24194.000000000,1718092457.152283907
1718092457.152316,244.642669678,4911.000000000,1718092457.152315855,,,,
1718092457.153291,,,,0.431443781,0.435074896,24195.000000000,1718092457.153290987
1718092457.154298,,,,0.561286747,0.566360295,24196.000000000,1718092457.154298067
1718092457.155305,,,,0.658025920,0.662810981,24197.000000000,1718092457.155305147
1718092457.156312,,,,0.767049789,0.770753026,24198.000000000,1718092457.156312227
1718092457.157316,247.595077515,4912.000000000,1718092457.157315969,,,,
1718092457.157319,,,,0.879920125,0.883262753,24199.000000000,1718092457.157319307
1718092457.158326,,,,1.032866001,1.035030723,24200.000000000,1718092457.158326387
1718092457.159333,,,,1.088567972,1.090684533,24201.000000000,1718092457.159333467
1718092457.160341,,,,1.100059390,1.101863384,24202.000000000,1718092457.160340548
1718092457.161348,,,,1.054646730,1.055705547,24203.000000000,1718092457.161347628
1718092457.162316,250.370162964,4913.000000000,1718092457.162315845,,,,
1718092457.162355,,,,0.883189619,0.882132828,24204.000000000,1718092457.162354708
1718092457.163362,,,,0.738321304,0.739356041,24205.000000000,1718092457.163361788
1718092457.164369,,,,0.564484119,0.564653456,24206.000000000,1718092457.164368868
1718092457.165376,,,,0.467600763,0.467193067,24207.000000000,1718092457.165375948
1718092457.166383,,,,0.424568176,0.423920095,24208.000000000,1718092457.166383028
1718092457.167316,253.160598755,4914.000000000,1718092457.167315960,,,,
1718092457.167390,,,,0.348984718,0.346365303,24209.000000000,1718092457.167390108
1718092457.168397,,,,0.304509729,0.301481605,24210.000000000,1718092457.168397188
1718092457.169404,,,,0.203347117,0.202987507,24211.000000000,1718092457.169404268
1718092457.170411,,,,0.245490178,0.246693209,24212.000000000,1718092457.170411348
1718092457.171418,,,,0.257366210,0.259001970,24213.000000000,1718092457.171418428
1718092457.172316,256.046569824,4915.000000000,1718092457.172315836,,,,
1718092457.172426,,,,0.267054558,0.268834561,24214.000000000,1718092457.172425508
1718092457.173433,,,,0.322516084,0.323598921,24215.000000000,1718092457.173432589
1718092457.174440,,,,0.410768926,0.414351970,24216.000000000,1718092457.174439669
1718092457.175447,,,,0.359610647,0.361871451,24217.000000000,1718092457.175446749
1718092457.176454,,,,0.243687138,0.244144917,24218.000000000,1718092457.176453829
1718092457.177316,258.867889404,4916.000000000,1718092457.177315950,,,,
1718092457.177461,,,,0.237196192,0.239649326,24219.000000000,1718092457.177460909
1718092457.178468,,,,0.276863098,0.279051781,24220.000000000,1718092457.178467989
1718092457.179475,,,,0.396320552,0.398124576,24221.000000000,1718092457.179475069
1718092457.180482,,,,0.522268951,0.522846937,24222.000000000,1718092457.180482149
1718092457.181489,,,,0.591433585,0.593237638,24223.000000000,1718092457.181489229
1718092457.182316,261.480468750,4917.000000000,1718092457.182315826,,,,
1718092457.182496,,,,0.678171873,0.679278731,24224.000000000,1718092457.182496309
1718092457.183503,,,,0.731037021,0.731254399,24225.000000000,1718092457.183503389
1718092457.184510,,,,0.640524387,0.641366780,24226.000000000,1718092457.184510469
1718092457.185518,,,,0.590952814,0.592804909,24227.000000000,1718092457.185517550
1718092457.186525,,,,0.610593915,0.609609246,24228.000000000,1718092457.186524630
1718092457.187316,264.044708252,4918.000000000,1718092457.187315941,,,,
1718092457.187532,,,,0.724017203,0.725027919,24229.000000000,1718092457.187531710
1718092457.188539,,,,0.720387042,0.723633528,24230.000000000,1718092457.188538790
1718092457.189546,,,,0.670671225,0.673436880,24231.000000000,1718092457.189545870
1718092457.190553,,,,0.652592719,0.655406475,24232.000000000,1718092457.190552950
1718092457.191560,,,,0.618238807,0.618263841,24233.000000000,1718092457.191560030
1718092457.192316,266.544677734,4919.000000000,1718092457.192315817,,,,
1718092457.192567,,,,0.509455323,0.509143829,24234.000000000,1718092457.192567110
1718092457.193574,,,,0.453921676,0.452912986,24235.000000000,1718092457.193574190
1718092457.194581,,,,0.518061876,0.519024491,24236.000000000,1718092457.194581270
1718092457.195588,,,,0.577057362,0.578596950,24237.000000000,1718092457.195588350
1718092457.196595,,,,0.638072252,0.639563739,24238.000000000,1718092457.196595430
1718092457.197316,268.900238037,4920.000000000,1718092457.197315931,,,,
1718092457.197603,,,,0.725050926,0.726566494,24239.000000000,1718092457.197602510
1718092457.198610,,,,0.686874568,0.689135373,24240.000000000,1718092457.198609591
1718092457.199617,,,,0.644058347,0.646150887,24241.000000000,1718092457.199616671
1718092457.200624,,,,0.619368732,0.620715976,24242.000000000,1718092457.200623751
1718092457.201631,,,,0.500151634,0.501402736,24243.000000000,1718092457.201630831
1718092457.202638,,,,0.455893010,0.458947152,24244.000000000,1718092457.202637911
1718092457.203645,,,,0.302418202,0.304366469,24245.000000000,1718092457.203644991
1718092457.204652,,,,0.190124810,0.188611254,24246.000000000,1718092457.204652071
1718092457.205659,,,,0.298114926,0.298837155,24247.000000000,1718092457.205659151
1718092457.206666,,,,0.419279277,0.419568747,24248.000000000,1718092457.206666231
1718092457.207673,,,,0.375958204,0.377233356,24249.000000000,1718092457.207673311
1718092457.208680,,,,0.375164866,0.377401650,24250.000000000,1718092457.208680391
1718092457.209687,,,,0.425361514,0.426636666,24251.000000000,1718092457.209687471
1718092457.210695,,,,0.463417709,0.463082135,24252.000000000,1718092457.210694551
1718092457.211702,,,,0.475942820,0.473058969,24253.000000000,1718092457.211701632
1718092457.212709,,,,0.472168475,0.470486611,24254.000000000,1718092457.212708712
1718092457.213716,,,,0.593092382,0.590905726,24255.000000000,1718092457.213715792
1718092457.214723,,,,0.648866475,0.647088468,24256.000000000,1718092457.214722872
1718092457.215730,,,,0.564387977,0.564773619,24257.000000000,1718092457.215729952
1718092457.216737,,,,0.617878199,0.618600428,24258.000000000,1718092457.216737032
1718092457.217744,,,,0.814890444,0.815396309,24259.000000000,1718092457.217744112
1718092457.218751,,,,0.845349789,0.844148755,24260.000000000,1718092457.218751192
1718092457.219758,,,,0.616483867,0.616364658,24261.000000000,1718092457.219758272
1718092457.220765,,,,0.451060861,0.449787706,24262.000000000,1718092457.220765352
1718092457.221772,,,,0.582706869,0.585039794,24263.000000000,1718092457.221772432
1718092457.222780,,,,0.766016006,0.765512168,24264.000000000,1718092457.222779512
1718092457.223787,,,,0.840758085,0.839629173,24265.000000000,1718092457.223786592
1718092457.224794,,,,0.857730687,0.859174132,24266.000000000,1718092457.224793673
1718092457.225801,,,,0.821958363,0.822464228,24267.000000000,1718092457.225800753
1718092457.226808,,,,0.804408789,0.804481864,24268.000000000,1718092457.226807833
1718092457.227815,,,,0.772410810,0.772339702,24269.000000000,1718092457.227814913
1718092457.228822,,,,0.695408940,0.696155190,24270.000000000,1718092457.228821993
1718092457.229829,,,,0.531500518,0.531429410,24271.000000000,1718092457.229829073
1718092457.230836,,,,0.490271002,0.491570175,24272.000000000,1718092457.230836153
1718092457.231843,,,,0.442237973,0.442551523,24273.000000000,1718092457.231843233
1718092457.232850,,,,0.351725340,0.351918668,24274.000000000,1718092457.232850313
1718092457.233857,,,,0.211496860,0.213252813,24275.000000000,1718092457.233857393
1718092457.234864,,,,0.164689913,0.167936385,24276.000000000,1718092457.234864473
1718092457.235872,,,,0.281118274,0.281479865,24277.000000000,1718092457.235871553
1718092457.236879,,,,0.422765136,0.423054636,24278.000000000,1718092457.236878633
1718092457.237886,,,,0.518638849,0.519577384,24279.000000000,1718092457.237885714
1718092457.238893,,,,0.651006043,0.651511908,24280.000000000,1718092457.238892794
1718092457.239900,,,,0.688485265,0.689832509,24281.000000000,1718092457.239899874
1718092457.240907,,,,0.682018340,0.683533907,24282.000000000,1718092457.240906954
1718092457.241914,,,,0.716252089,0.717022419,24283.000000000,1718092457.241914034
1718092457.242921,,,,0.909874618,0.910091996,24284.000000000,1718092457.242921114
1718092457.243928,,,,1.068758607,1.070009708,24285.000000000,1718092457.243928194
1718092457.244935,,,,1.012744069,1.013033628,24286.000000000,1718092457.244935274
1718092457.245942,,,,0.838089585,0.835974991,24287.000000000,1718092457.245942354
1718092457.246147,286.515045166,4931.000000000,1718092457.246146679,,,,
1718092457.246949,,,,0.698918879,0.696876407,24288.000000000,1718092457.246949434
1718092457.247957,,,,0.556791186,0.558811605,24289.000000000,1718092457.247956514
1718092457.248964,,,,0.349273205,0.348649144,24290.000000000,1718092457.248963594
1718092457.249971,,,,0.095020421,0.095261827,24291.000000000,1718092457.249970675
1718092457.250978,,,,0.038068376,0.035256635,24292.000000000,1718092457.250977755
1718092457.251147,287.717742920,4932.000000000,1718092457.251146793,,,,
1718092457.251985,,,,0.084995516,0.086559154,24293.000000000,1718092457.251984835
1718092457.252992,,,,0.281310588,0.287081331,24294.000000000,1718092457.252991915
1718092457.253999,,,,0.429736912,0.431805402,24295.000000000,1718092457.253998995
1718092457.255006,,,,0.484861881,0.487026513,24296.000000000,1718092457.255006075
1718092457.256013,,,,0.592803895,0.592492402,24297.000000000,1718092457.256013155
1718092457.256147,288.888549805,4933.000000000,1718092457.256146669,,,,
1718092457.257020,,,,0.699039042,0.696972609,24298.000000000,1718092457.257020235
1718092457.258027,,,,0.723536372,0.722407460,24299.000000000,1718092457.258027315
1718092457.259034,,,,0.824146032,0.825252891,24300.000000000,1718092457.259034395
1718092457.260041,,,,0.815876126,0.816117525,24301.000000000,1718092457.260041475
1718092457.261049,,,,0.705938697,0.706805170,24302.000000000,1718092457.261048555
1718092457.261147,290.075500488,4934.000000000,1718092457.261146784,,,,
1718092457.262056,,,,0.433222771,0.433920950,24303.000000000,1718092457.262055635
1718092457.263063,,,,0.136995211,0.134784490,24304.000000000,1718092457.263062716
1718092457.264070,,,,0.063359030,0.062398408,24305.000000000,1718092457.264069796
1718092457.265077,,,,0.209741890,0.212820083,24306.000000000,1718092457.265076876
1718092457.266084,,,,0.303475976,0.306097388,24307.000000000,1718092457.266083956
1718092457.266147,291.214508057,4935.000000000,1718092457.266146660,,,,
1718092457.267091,,,,0.323405594,0.324873060,24308.000000000,1718092457.267091036
1718092457.268098,,,,0.395310849,0.395119518,24309.000000000,1718092457.268098116
1718092457.269105,,,,0.509888053,0.511187255,24310.000000000,1718092457.269105196
1718092457.270112,,,,0.647303820,0.646775901,24311.000000000,1718092457.270112276
1718092457.271119,,,,0.736374021,0.735172987,24312.000000000,1718092457.271119356
1718092457.271147,292.337585449,4936.000000000,1718092457.271146774,,,,
1718092457.272126,,,,0.742408216,0.742457271,24313.000000000,1718092457.272126436
1718092457.273134,,,,0.744403541,0.745149851,24314.000000000,1718092457.273133516
1718092457.274141,,,,0.838257849,0.839340687,24315.000000000,1718092457.274140596
1718092457.275148,,,,0.866577625,0.865905464,24316.000000000,1718092457.275147676
1718092457.276147,293.412689209,4937.000000000,1718092457.276146650,,,,
1718092457.276155,,,,0.859653950,0.860832930,24317.000000000,1718092457.276154757
1718092457.277162,,,,0.730147541,0.729763865,24318.000000000,1718092457.277161837
1718092457.278169,,,,0.494117469,0.495488793,24319.000000000,1718092457.278168917
1718092457.279176,,,,0.323838323,0.325305790,24320.000000000,1718092457.279175997
1718092457.280183,,,,0.046530649,0.045690231,24321.000000000,1718092457.280183077
1718092457.281147,294.519958496,4938.000000000,1718092457.281146765,,,,
1718092457.281190,,,,-0.059824713,-0.059991997,24322.000000000,1718092457.281190157
1718092457.282197,,,,0.092472129,0.092256762,24323.000000000,1718092457.282197237
1718092457.283204,,,,0.244095832,0.244337231,24324.000000000,1718092457.283204317
1718092457.284211,,,,0.362423390,0.362111866,24325.000000000,1718092457.284211397
1718092457.285218,,,,0.457647979,0.457889378,24326.000000000,1718092457.285218477
1718092457.286147,295.547180176,4939.000000000,1718092457.286146641,,,,
1718092457.286226,,,,0.563113809,0.564340889,24327.000000000,1718092457.286225557
1718092457.287233,,,,0.739980102,0.741375446,24328.000000000,1718092457.287232637
1718092457.288240,,,,0.917904139,0.919443786,24329.000000000,1718092457.288239717
1718092457.289247,,,,0.995194495,0.995459974,24330.000000000,1718092457.289246798
1718092457.290254,,,,0.894945443,0.893191516,24331.000000000,1718092457.290253878
1718092457.291147,296.654846191,4940.000000000,1718092457.291146755,,,,
1718092457.291261,,,,0.790585458,0.789552689,24332.000000000,1718092457.291260958
1718092457.292268,,,,0.634297907,0.633914232,24333.000000000,1718092457.292268038
1718092457.293275,,,,0.450892568,0.450388730,24334.000000000,1718092457.293275118
1718092457.294282,,,,0.300663233,0.302298993,24335.000000000,1718092457.294282198
1718092457.295289,,,,0.310808331,0.312780648,24336.000000000,1718092457.295289278
1718092457.296296,,,,0.450868547,0.449427098,24337.000000000,1718092457.296296358
1718092457.297303,,,,0.608766854,0.609921753,24338.000000000,1718092457.297303438
1718092457.298311,,,,0.724594176,0.724835575,24339.000000000,1718092457.298310518
1718092457.299318,,,,0.752529263,0.753756344,24340.000000000,1718092457.299317598
1718092457.300304,297.682373047,4941.000000000,1718092457.300303936,,,,
1718092457.300325,,,,0.783757925,0.783398330,24341.000000000,1718092457.300324678
1718092457.301332,,,,0.652448475,0.653026462,24342.000000000,1718092457.301331758
1718092457.302339,,,,0.555276632,0.555349767,24343.000000000,1718092457.302338839
1718092457.303346,,,,0.720411122,0.718392730,24344.000000000,1718092457.303345919
1718092457.304353,,,,0.749668419,0.748467445,24345.000000000,1718092457.304352999
1718092457.305304,298.710021973,4942.000000000,1718092457.305304050,,,,
1718092457.305360,,,,0.662425339,0.661007941,24346.000000000,1718092457.305360079
1718092457.306367,,,,0.524648964,0.523928761,24347.000000000,1718092457.306367159
1718092457.307374,,,,0.347638458,0.347230762,24348.000000000,1718092457.307374239
1718092457.308381,,,,0.199067891,0.200078592,24349.000000000,1718092457.308381319
1718092457.309388,,,,0.223493084,0.222941160,24350.000000000,1718092457.309388399
1718092457.310304,299.721832275,4943.000000000,1718092457.310303926,,,,
1718092457.310395,,,,0.364226431,0.366078556,24351.000000000,1718092457.310395479
1718092457.311403,,,,0.538592458,0.537703991,24352.000000000,1718092457.311402559
1718092457.312410,,,,0.589342058,0.590256631,24353.000000000,1718092457.312409639
1718092457.313417,,,,0.661920488,0.664421678,24354.000000000,1718092457.313416719
1718092457.314424,,,,0.687211096,0.685168684,24355.000000000,1718092457.314423800
1718092457.315304,300.589141846,4944.000000000,1718092457.315304041,,,,
1718092457.315431,,,,0.624152780,0.624418199,24356.000000000,1718092457.315430880
1718092457.316438,,,,0.519071579,0.521043897,24357.000000000,1718092457.316437960
1718092457.317445,,,,0.430842757,0.429064780,24358.000000000,1718092457.317445040
1718092457.318452,,,,0.442911118,0.443032324,24359.000000000,1718092457.318452120
1718092457.319459,,,,0.438824236,0.439065635,24360.000000000,1718092457.319459200
1718092457.320304,301.520874023,4945.000000000,1718092457.320303917,,,,
1718092457.320466,,,,0.468273908,0.467433482,24361.000000000,1718092457.320466280
1718092457.321473,,,,0.506498337,0.508158147,24362.000000000,1718092457.321473360
1718092457.322480,,,,0.491905749,0.491449982,24363.000000000,1718092457.322480440
1718092457.323488,,,,0.403797150,0.402884603,24364.000000000,1718092457.323487520
1718092457.324495,,,,0.405744433,0.405913740,24365.000000000,1718092457.324494600
1718092457.325304,302.436737061,4946.000000000,1718092457.325304031,,,,
1718092457.325502,,,,0.406922430,0.407620609,24366.000000000,1718092457.325501680
1718092457.326509,,,,0.259433687,0.260997325,24367.000000000,1718092457.326508760
1718092457.327516,,,,0.261332899,0.260780960,24368.000000000,1718092457.327515841
1718092457.328523,,,,0.453969777,0.452167720,24369.000000000,1718092457.328522921
1718092457.329530,,,,0.641582191,0.640044570,24370.000000000,1718092457.329530001
1718092457.330304,303.336639404,4947.000000000,1718092457.330303907,,,,
1718092457.330537,,,,0.734763324,0.735629797,24371.000000000,1718092457.330537081
1718092457.331544,,,,0.868476808,0.870569348,24372.000000000,1718092457.331544161
1718092457.332551,,,,0.945045948,0.946537435,24373.000000000,1718092457.332551241
1718092457.333558,,,,0.915476084,0.915092409,24374.000000000,1718092457.333558321
1718092457.334565,,,,0.805250168,0.804770350,24375.000000000,1718092457.334565401
1718092457.335304,304.252716064,4948.000000000,1718092457.335304022,,,,
1718092457.335572,,,,0.689687312,0.688462198,24376.000000000,1718092457.335572481
1718092457.336580,,,,0.519600451,0.518736005,24377.000000000,1718092457.336579561
1718092457.337587,,,,0.214477882,0.210656434,24378.000000000,1718092457.337586641
1718092457.338594,,,,0.051963810,0.051027231,24379.000000000,1718092457.338593721
1718092457.339601,,,,0.156708464,0.154497728,24380.000000000,1718092457.339600801
1718092457.340304,305.072479248,4949.000000000,1718092457.340303898,,,,
1718092457.340608,,,,0.237196192,0.233759403,24381.000000000,1718092457.340607882
1718092457.341615,,,,0.243422702,0.241933182,24382.000000000,1718092457.341614962
1718092457.342622,,,,0.363865823,0.365790069,24383.000000000,1718092457.342622042
1718092457.343629,,,,0.603646219,0.603983760,24384.000000000,1718092457.343629122
1718092457.344636,,,,0.817751288,0.818136930,24385.000000000,1718092457.344636202
1718092457.345643,,,,0.885064781,0.884488821,24386.000000000,1718092457.345643282
1718092457.346650,,,,0.757048905,0.755559385,24387.000000000,1718092457.346650362
1718092457.347657,,,,0.601314247,0.602036476,24388.000000000,1718092457.347657442
1718092457.348665,,,,0.451445520,0.452095598,24389.000000000,1718092457.348664522
1718092457.349672,,,,0.343118817,0.341845691,24390.000000000,1718092457.349671602
1718092457.350304,306.696441650,4951.000000000,1718092457.350303888,,,,
1718092457.350679,,,,0.415216416,0.414688528,24391.000000000,1718092457.350678682
1718092457.351686,,,,0.718896568,0.719282210,24392.000000000,1718092457.351685762
1718092457.352693,,,,0.953123569,0.952523530,24393.000000000,1718092457.352692842
1718092457.353700,,,,1.114123106,1.115205884,24394.000000000,1718092457.353699923
1718092457.354707,,,,1.325655818,1.325801015,24395.000000000,1718092457.354707003
1718092457.355304,307.420104980,4952.000000000,1718092457.355304003,,,,
1718092457.355714,,,,1.272069454,1.272647381,24396.000000000,1718092457.355714083
1718092457.356721,,,,1.137634754,1.139631152,24397.000000000,1718092457.356721163
1718092457.357728,,,,1.022937298,1.023178697,24398.000000000,1718092457.357728243
1718092457.358735,,,,0.674541771,0.676778495,24399.000000000,1718092457.358735323
1718092457.359742,,,,0.168897018,0.168465286,24400.000000000,1718092457.359742403
1718092457.360304,308.240386963,4953.000000000,1718092457.360303879,,,,
1718092457.360749,,,,-0.249408439,-0.250369042,24401.000000000,1718092457.360749483
1718092457.361757,,,,-0.404469937,-0.402473569,24402.000000000,1718092457.361756563
1718092457.362764,,,,-0.480606347,-0.477023304,24403.000000000,1718092457.362763643
1718092457.363771,,,,-0.353287607,-0.353454918,24404.000000000,1718092457.363770723
1718092457.364778,,,,-0.147164002,-0.148677558,24405.000000000,1718092457.364777803
1718092457.365304,308.916046143,4954.000000000,1718092457.365303993,,,,
1718092457.365785,,,,-0.003305397,-0.001837923,24406.000000000,1718092457.365784883
1718092457.366792,,,,0.187985197,0.191760570,24407.000000000,1718092457.366791964
1718092457.367799,,,,0.277560264,0.281287551,24408.000000000,1718092457.367799044
1718092457.368806,,,,0.306312770,0.309366912,24409.000000000,1718092457.368806124
1718092457.369813,,,,0.380261451,0.382257819,24410.000000000,1718092457.369813204
1718092457.370304,309.495178223,4955.000000000,1718092457.370303869,,,,
1718092457.370820,,,,0.591457665,0.591530740,24411.000000000,1718092457.370820284
1718092457.371827,,,,0.863596559,0.863381207,24412.000000000,1718092457.371827364
1718092457.372834,,,,1.013417244,1.013562441,24413.000000000,1718092457.372834444
1718092457.373842,,,,1.175714970,1.175355315,24414.000000000,1718092457.373841524
1718092457.374849,,,,1.184946537,1.183481097,24415.000000000,1718092457.374848604
1718092457.375304,310.138854980,4956.000000000,1718092457.375303984,,,,
1718092457.375856,,,,1.090683579,1.091694236,24416.000000000,1718092457.375855684
1718092457.376863,,,,0.905739665,0.906101286,24417.000000000,1718092457.376862764
1718092457.377870,,,,0.478250712,0.478131503,24418.000000000,1718092457.377869844
1718092457.378877,,,,0.108939901,0.110792018,24419.000000000,1718092457.378876925
1718092457.379884,,,,0.068431586,0.071269371,24420.000000000,1718092457.379884005
1718092457.380304,310.686035156,4957.000000000,1718092457.380303860,,,,
1718092457.380891,,,,0.139856040,0.140097439,24421.000000000,1718092457.380891085
1718092457.381898,,,,0.209525526,0.208757237,24422.000000000,1718092457.381898165
1718092457.382905,,,,0.243158251,0.244096830,24423.000000000,1718092457.382905245
1718092457.383912,,,,0.258375913,0.259699136,24424.000000000,1718092457.383912325
1718092457.384919,,,,0.330473512,0.332253516,24425.000000000,1718092457.384919405
1718092457.385304,311.056152344,4958.000000000,1718092457.385303974,,,,
1718092457.385926,,,,0.437790483,0.436300963,24426.000000000,1718092457.385926485
1718092457.386934,,,,0.533183336,0.534795105,24427.000000000,1718092457.386933565
1718092457.387941,,,,0.616483867,0.619057178,24428.000000000,1718092457.387940645
1718092457.388948,,,,0.674133062,0.674109995,24429.000000000,1718092457.388947725
1718092457.389955,,,,0.577249646,0.576385200,24430.000000000,1718092457.389954805
1718092457.390304,311.474670410,4959.000000000,1718092457.390303850,,,,
1718092457.390962,,,,0.454330385,0.454860270,24431.000000000,1718092457.390961885
1718092457.391969,,,,0.407667696,0.411563247,24432.000000000,1718092457.391968966
1718092457.392976,,,,0.530707181,0.534434497,24433.000000000,1718092457.392976046
1718092457.393983,,,,0.672738731,0.673388779,24434.000000000,1718092457.393983126
1718092457.394990,,,,0.748225987,0.751376331,24435.000000000,1718092457.394990206
1718092457.395304,311.780517578,4960.000000000,1718092457.395303965,,,,
1718092457.395997,,,,0.781762600,0.784696519,24436.000000000,1718092457.395997286
1718092457.397004,,,,0.532750607,0.532006383,24437.000000000,1718092457.397004366
1718092457.398011,,,,0.196735963,0.197145656,24438.000000000,1718092457.398011446
1718092457.399019,,,,0.074682124,0.073216654,24439.000000000,1718092457.399018526
1718092457.400026,,,,0.069537446,0.068528749,24440.000000000,1718092457.400025606
1718092457.401033,,,,0.130672544,0.132524669,24441.000000000,1718092457.401032686
1718092457.402040,,,,0.318669587,0.317540675,24442.000000000,1718092457.402039766
1718092457.403047,,,,0.591601908,0.588766098,24443.000000000,1718092457.403046846
1718092457.404054,,,,0.788902640,0.788014114,24444.000000000,1718092457.404053926
1718092457.405061,,,,0.928698361,0.928050280,24445.000000000,1718092457.405061007
1718092457.406041,312.118591309,4961.000000000,1718092457.406040907,,,,
1718092457.406068,,,,1.014042258,1.015653968,24446.000000000,1718092457.406068087
1718092457.407075,,,,0.971682847,0.973559022,24447.000000000,1718092457.407075167
1718092457.408082,,,,0.805033803,0.805155039,24448.000000000,1718092457.408082247
1718092457.409089,,,,0.506907046,0.503902972,24449.000000000,1718092457.409089327
1718092457.410096,,,,0.268641233,0.267584443,24450.000000000,1718092457.410096407
1718092457.411041,312.295654297,4962.000000000,1718092457.411041021,,,,
1718092457.411103,,,,0.182239518,0.183995470,24451.000000000,1718092457.411103487
1718092457.412111,,,,0.000156442,0.003162510,24452.000000000,1718092457.412110567
1718092457.413118,,,,0.039847378,0.042420715,24453.000000000,1718092457.413117647
1718092457.414125,,,,0.210390985,0.212315232,24454.000000000,1718092457.414124727
1718092457.415132,,,,0.376583248,0.377593964,24455.000000000,1718092457.415131807
1718092457.416139,,,,0.571167409,0.570254862,24456.000000000,1718092457.416138887
1718092457.417146,,,,0.731037021,0.728321433,24457.000000000,1718092457.417145967
1718092457.418153,,,,0.688653529,0.690625846,24458.000000000,1718092457.418153048
1718092457.419160,,,,0.701683521,0.705290616,24459.000000000,1718092457.419160128
1718092457.420167,,,,0.823665261,0.825829864,24460.000000000,1718092457.420167208
1718092457.421174,,,,0.916822314,0.920165002,24461.000000000,1718092457.421174288
1718092457.422181,,,,0.945646942,0.946585536,24462.000000000,1718092457.422181368
1718092457.423188,,,,0.854821801,0.855039120,24463.000000000,1718092457.423188448
1718092457.424196,,,,0.664060056,0.663243711,24464.000000000,1718092457.424195528
1718092457.425203,,,,0.504527032,0.508182168,24465.000000000,1718092457.425202608
1718092457.426210,,,,0.286936074,0.290374875,24466.000000000,1718092457.426209688
1718092457.427217,,,,0.166156396,0.167143047,24467.000000000,1718092457.427216768
1718092457.428224,,,,0.203467309,0.202819213,24468.000000000,1718092457.428223848
1718092457.429231,,,,0.412451744,0.414928943,24469.000000000,1718092457.429230928
1718092457.430238,,,,0.687475562,0.688342035,24470.000000000,1718092457.430238008
1718092457.431245,,,,0.881554842,0.883527219,24471.000000000,1718092457.431245089
1718092457.432252,,,,0.831238031,0.833330512,24472.000000000,1718092457.432252169
1718092457.433259,,,,0.662160873,0.661849320,24473.000000000,1718092457.433259249
1718092457.434266,,,,0.539145410,0.536165416,24474.000000000,1718092457.434266329
1718092457.435273,,,,0.388387173,0.385262907,24475.000000000,1718092457.435273409
1718092457.436280,,,,0.148582757,0.147453845,24476.000000000,1718092457.436280489
1718092457.437288,,,,0.032058243,0.032708336,24477.000000000,1718092457.437287569
1718092457.438295,,,,0.259674102,0.259338528,24478.000000000,1718092457.438294649
1718092457.439302,,,,0.600641131,0.599416077,24479.000000000,1718092457.439301729
1718092457.440309,,,,0.716324210,0.714305818,24480.000000000,1718092457.440308809
1718092457.441316,,,,0.738922298,0.740534067,24481.000000000,1718092457.441315889
1718092457.442323,,,,0.841022491,0.844437242,24482.000000000,1718092457.442322969
1718092457.443330,,,,0.850230038,0.852731228,24483.000000000,1718092457.443330050
1718092457.444337,,,,0.666199684,0.670503914,24484.000000000,1718092457.444337130
1718092457.445344,,,,0.277271777,0.279917240,24485.000000000,1718092457.445344210
1718092457.446351,,,,-0.055569537,-0.054102063,24486.000000000,1718092457.446351290
1718092457.447358,,,,-0.231426105,-0.232699260,24487.000000000,1718092457.447358370
1718092457.448365,,,,-0.168512002,-0.171107382,24488.000000000,1718092457.448365450
1718092457.449373,,,,0.094082840,0.092016354,24489.000000000,1718092457.449372530
1718092457.450380,,,,0.255202562,0.254746795,24490.000000000,1718092457.450379610
1718092457.451387,,,,0.339104056,0.340379208,24491.000000000,1718092457.451386690
1718092457.452394,,,,0.446757615,0.446854770,24492.000000000,1718092457.452393770
1718092457.453401,,,,0.552608132,0.554291964,24493.000000000,1718092457.453400850
1718092457.454408,,,,0.551694572,0.552633166,24494.000000000,1718092457.454407930
1718092457.455415,,,,0.428318501,0.428487808,24495.000000000,1718092457.455415010
1718092457.456041,313.841491699,4971.000000000,1718092457.456040859,,,,
1718092457.456422,,,,0.390334457,0.391441315,24496.000000000,1718092457.456422091
1718092457.457429,,,,0.416827142,0.414784700,24497.000000000,1718092457.457429171
1718092457.458436,,,,0.502675891,0.497772634,24498.000000000,1718092457.458436251
1718092457.459443,,,,0.664108157,0.663964927,24499.000000000,1718092457.459443331
1718092457.460450,,,,0.712525785,0.714450061,24500.000000000,1718092457.460450411
1718092457.461041,314.179748535,4972.000000000,1718092457.461040974,,,,
1718092457.461457,,,,0.694134772,0.695385873,24501.000000000,1718092457.461457491
1718092457.462465,,,,0.730940878,0.729643703,24502.000000000,1718092457.462464571
1718092457.463472,,,,0.761520445,0.760463655,24503.000000000,1718092457.463471651
1718092457.464479,,,,0.727358818,0.725941420,24504.000000000,1718092457.464478731
1718092457.465486,,,,0.760342479,0.758564472,24505.000000000,1718092457.465485811
1718092457.466041,314.517944336,4973.000000000,1718092457.466040850,,,,
1718092457.466493,,,,0.585159004,0.585232139,24506.000000000,1718092457.466492891
1718092457.467500,,,,0.414591372,0.415986717,24507.000000000,1718092457.467499971
1718092457.468507,,,,0.499983370,0.499599725,24508.000000000,1718092457.468507051
1718092457.469514,,,,0.613719165,0.610186219,24509.000000000,1718092457.469514132
1718092457.470521,,,,0.617926300,0.614802003,24510.000000000,1718092457.470521212
1718092457.471041,314.807922363,4974.000000000,1718092457.471040964,,,,
1718092457.471528,,,,0.619777381,0.620187104,24511.000000000,1718092457.471528292
1718092457.472535,,,,0.576816916,0.578260362,24512.000000000,1718092457.472535372
1718092457.473542,,,,0.641750455,0.642424583,24513.000000000,1718092457.473542452
1718092457.474550,,,,0.599246800,0.600690186,24514.000000000,1718092457.474549532
1718092457.475557,,,,0.558978856,0.558234632,24515.000000000,1718092457.475556612
1718092457.476041,315.114013672,4975.000000000,1718092457.476040840,,,,
1718092457.476564,,,,0.472000182,0.472506016,24516.000000000,1718092457.476563692
1718092457.477571,,,,0.394709826,0.393749207,24517.000000000,1718092457.477570772
1718092457.478578,,,,0.262006044,0.259771258,24518.000000000,1718092457.478577852
1718092457.479585,,,,0.333214134,0.333816141,24519.000000000,1718092457.479584932
1718092457.480592,,,,0.432044804,0.432959348,24520.000000000,1718092457.480592012
1718092457.481041,315.436218262,4976.000000000,1718092457.481040955,,,,
1718092457.481599,,,,0.335666269,0.334633529,24521.000000000,1718092457.481599092
1718092457.482606,,,,0.304389507,0.306001216,24522.000000000,1718092457.482606173
1718092457.483613,,,,0.362735897,0.362568617,24523.000000000,1718092457.483613253
1718092457.484620,,,,0.345162272,0.344393969,24524.000000000,1718092457.484620333
1718092457.485627,,,,0.341195583,0.340691745,24525.000000000,1718092457.485627413
1718092457.486041,315.694000244,4977.000000000,1718092457.486040831,,,,
1718092457.486634,,,,0.421707362,0.421756446,24526.000000000,1718092457.486634493
1718092457.487642,,,,0.489910394,0.492099077,24527.000000000,1718092457.487641573
1718092457.488649,,,,0.434905618,0.436156720,24528.000000000,1718092457.488648653
1718092457.489656,,,,0.441853344,0.442479402,24529.000000000,1718092457.489655733
1718092457.490663,,,,0.651270509,0.652569711,24530.000000000,1718092457.490662813
1718092457.491041,316.032379150,4978.000000000,1718092457.491040945,,,,
1718092457.491670,,,,0.833762288,0.836527944,24531.000000000,1718092457.491669893
1718092457.492677,,,,0.800057411,0.800250769,24532.000000000,1718092457.492676973
1718092457.493684,,,,0.670142353,0.669253826,24533.000000000,1718092457.493684053
1718092457.494691,,,,0.563883126,0.562225342,24534.000000000,1718092457.494691133
1718092457.495698,,,,0.376366884,0.375478387,24535.000000000,1718092457.495698214
1718092457.496041,316.257965088,4979.000000000,1718092457.496040821,,,,
1718092457.496705,,,,0.111392036,0.110287167,24536.000000000,1718092457.496705294
1718092457.497712,,,,-0.000757099,-0.002102369,24537.000000000,1718092457.497712374
1718092457.498719,,,,0.074706167,0.072062708,24538.000000000,1718092457.498719454
1718092457.499727,,,,0.236354783,0.234961420,24539.000000000,1718092457.499726534
1718092457.500734,,,,0.349585742,0.348408759,24540.000000000,1718092457.500733614
1718092457.501041,316.483551025,4980.000000000,1718092457.501040936,,,,
1718092457.501065,316.628631592,4981.000000000,1718092457.501064777,,,,
1718092457.501741,,,,0.495559901,0.498061121,24541.000000000,1718092457.501740694
1718092457.502748,,,,0.678340137,0.681610644,24542.000000000,1718092457.502747774
1718092457.503755,,,,0.860831916,0.862034917,24543.000000000,1718092457.503754854
1718092457.504762,,,,0.907518625,0.906990767,24544.000000000,1718092457.504761934
1718092457.505769,,,,0.760799229,0.758251905,24545.000000000,1718092457.505769014
1718092457.506065,316.870391846,4982.000000000,1718092457.506064892,,,,
1718092457.506776,,,,0.731878459,0.731879473,24546.000000000,1718092457.506776094
1718092457.507783,,,,0.807341695,0.806693614,24547.000000000,1718092457.507783175
1718092457.508790,,,,0.700986326,0.699064136,24548.000000000,1718092457.508790255
1718092457.509797,,,,0.332637161,0.329560965,24549.000000000,1718092457.509797335
1718092457.510804,,,,0.015878957,0.013283579,24550.000000000,1718092457.510804415
1718092457.511065,317.015411377,4983.000000000,1718092457.511064768,,,,
1718092457.511811,,,,-0.144351259,-0.143124193,24551.000000000,1718092457.511811495
1718092457.512819,,,,-0.112425424,-0.111054108,24552.000000000,1718092457.512818575
1718092457.513826,,,,-0.068791837,-0.067540728,24553.000000000,1718092457.513825655
1718092457.514833,,,,0.075042732,0.074466757,24554.000000000,1718092457.514832735
1718092457.515840,,,,0.384204119,0.388003528,24555.000000000,1718092457.515839815
1718092457.516065,317.063781738,4984.000000000,1718092457.516064882,,,,
1718092457.516847,,,,0.700265110,0.703271210,24556.000000000,1718092457.516846895
1718092457.517854,,,,0.986155272,0.986877501,24557.000000000,1718092457.517853975
1718092457.518861,,,,1.287599683,1.290677786,24558.000000000,1718092457.518861055
1718092457.519868,,,,1.533318043,1.535819292,24559.000000000,1718092457.519868135
1718092457.520875,,,,1.592842460,1.592987657,24560.000000000,1718092457.520875216
1718092457.521065,317.112152100,4985.000000000,1718092457.521064758,,,,
1718092457.521882,,,,1.271708846,1.269714475,24561.000000000,1718092457.521882296
1718092457.522889,,,,0.892060578,0.889681578,24562.000000000,1718092457.522889376
1718092457.523896,,,,0.575494707,0.571937740,24563.000000000,1718092457.523896456
1718092457.524904,,,,0.115070239,0.112763345,24564.000000000,1718092457.524903536
1718092457.525911,,,,-0.200029165,-0.201350391,24565.000000000,1718092457.525910616
1718092457.526065,317.176635742,4986.000000000,1718092457.526064873,,,,
1718092457.526918,,,,-0.236210182,-0.236521706,24566.000000000,1718092457.526917696
1718092457.527925,,,,-0.208443344,-0.210221350,24567.000000000,1718092457.527924776
1718092457.528932,,,,-0.282247812,-0.284001768,24568.000000000,1718092457.528931856
1718092457.529939,,,,-0.153895363,-0.153798193,24569.000000000,1718092457.529938936
1718092457.530946,,,,0.027370336,0.028164675,24570.000000000,1718092457.530946016
1718092457.531065,317.224945068,4987.000000000,1718092457.531064749,,,,
1718092457.531953,,,,0.159521207,0.157526836,24571.000000000,1718092457.531953096
1718092457.532960,,,,0.225704819,0.222027615,24572.000000000,1718092457.532960176
1718092457.533967,,,,0.215006769,0.212411389,24573.000000000,1718092457.533967257
1718092457.534974,,,,0.237316400,0.233350709,24574.000000000,1718092457.534974337
1718092457.535981,,,,0.287392855,0.287922740,24575.000000000,1718092457.535981417
1718092457.536065,317.257171631,4988.000000000,1718092457.536064863,,,,
1718092457.536988,,,,0.398868859,0.400576711,24576.000000000,1718092457.536988497
1718092457.537996,,,,0.656270921,0.657041252,24577.000000000,1718092457.537995577
1718092457.539003,,,,1.019619703,1.019404292,24578.000000000,1718092457.539002657
1718092457.540010,,,,1.249447346,1.248414516,24579.000000000,1718092457.540009737
1718092457.541017,,,,1.187013984,1.187664151,24580.000000000,1718092457.541016817
1718092457.541065,317.224945068,4989.000000000,1718092457.541064739,,,,
1718092457.542024,,,,0.971851170,0.971611738,24581.000000000,1718092457.542023897
1718092457.543031,,,,0.707789838,0.706853271,24582.000000000,1718092457.543030977
1718092457.544038,,,,0.418798447,0.414279848,24583.000000000,1718092457.544038057
1718092457.545045,,,,0.044246797,0.040810000,24584.000000000,1718092457.545045137
1718092457.546052,,,,-0.141995296,-0.145432085,24585.000000000,1718092457.546052217
1718092457.546065,317.160491943,4990.000000000,1718092457.546064854,,,,
1718092457.547059,,,,-0.101150408,-0.099322326,24586.000000000,1718092457.547059298
1718092457.548066,,,,0.056820001,0.061869517,24587.000000000,1718092457.548066378
1718092457.549073,,,,0.330064803,0.331940979,24588.000000000,1718092457.549073458
1718092457.550081,,,,0.553593755,0.555397809,24589.000000000,1718092457.550080538
1718092457.551065,317.096008301,4991.000000000,1718092457.551064730,,,,
1718092457.551088,,,,0.667305529,0.667042077,24590.000000000,1718092457.551087618
1718092457.552095,,,,0.790537357,0.789144039,24591.000000000,1718092457.552094698
1718092457.553102,,,,0.868500829,0.869150937,24592.000000000,1718092457.553101778
1718092457.554109,,,,0.900691152,0.902134597,24593.000000000,1718092457.554108858
1718092457.555116,,,,0.900330544,0.899538219,24594.000000000,1718092457.555115938
1718092457.556065,317.047637939,4992.000000000,1718092457.556064844,,,,
1718092457.556123,,,,0.809529424,0.807799459,24595.000000000,1718092457.556123018
1718092457.557130,,,,0.693028927,0.691900015,24596.000000000,1718092457.557130098
1718092457.558137,,,,0.667449772,0.667138278,24597.000000000,1718092457.558137178
1718092457.559144,,,,0.711203575,0.709281325,24598.000000000,1718092457.559144258
1718092457.560151,,,,0.684133947,0.686250508,24599.000000000,1718092457.560151339
1718092457.561065,317.015411377,4993.000000000,1718092457.561064720,,,,
1718092457.561158,,,,0.478731543,0.481136590,24600.000000000,1718092457.561158419
1718092457.562165,,,,0.383819461,0.385046542,24601.000000000,1718092457.562165499
1718092457.563173,,,,0.367976755,0.368939370,24602.000000000,1718092457.563172579
1718092457.564180,,,,0.271742463,0.271142453,24603.000000000,1718092457.564179659
1718092457.565187,,,,0.095236786,0.093530908,24604.000000000,1718092457.565186739
1718092457.566065,316.967071533,4994.000000000,1718092457.566064835,,,,
1718092457.566194,,,,-0.103169814,-0.106654689,24605.000000000,1718092457.566193819
1718092457.567201,,,,-0.040496118,-0.041456737,24606.000000000,1718092457.567200899
1718092457.568208,,,,0.045160338,0.045233462,24607.000000000,1718092457.568207979
1718092457.569215,,,,0.034870986,0.033549756,24608.000000000,1718092457.569215059
1718092457.570222,,,,0.009147605,0.008331227,24609.000000000,1718092457.570222139
1718092457.571065,316.918701172,4995.000000000,1718092457.571064711,,,,
1718092457.571229,,,,0.119397536,0.118364789,24610.000000000,1718092457.571229219
1718092457.572236,,,,0.274819642,0.273233980,24611.000000000,1718092457.572236300
1718092457.573243,,,,0.400936335,0.399134278,24612.000000000,1718092457.573243380
1718092457.574250,,,,0.481856793,0.481136590,24613.000000000,1718092457.574250460
1718092457.575258,,,,0.620282233,0.622591138,24614.000000000,1718092457.575257540
1718092457.576065,316.918701172,4996.000000000,1718092457.576064825,,,,
1718092457.576265,,,,0.814842343,0.815131843,24615.000000000,1718092457.576264620
1718092457.577272,,,,0.967475772,0.967116177,24616.000000000,1718092457.577271700
1718092457.578279,,,,1.085346580,1.088328600,24617.000000000,1718092457.578278780
1718092457.579286,,,,1.199515104,1.200165153,24618.000000000,1718092457.579285860
1718092457.580293,,,,1.111887336,1.112417221,24619.000000000,1718092457.580292940
1718092457.581065,316.870391846,4997.000000000,1718092457.581064701,,,,
1718092457.581300,,,,0.772987783,0.776162148,24620.000000000,1718092457.581300020
1718092457.582307,,,,0.378506511,0.378916204,24621.000000000,1718092457.582307100
1718092457.583314,,,,0.222819954,0.223133475,24622.000000000,1718092457.583314180
1718092457.584321,,,,0.168175802,0.169523060,24623.000000000,1718092457.584321260
1718092457.585328,,,,0.170820251,0.171302065,24624.000000000,1718092457.585328341
1718092457.586065,316.805908203,4998.000000000,1718092457.586064816,,,,
1718092457.586335,,,,0.222050652,0.221114069,24625.000000000,1718092457.586335421
1718092457.587343,,,,0.291936517,0.291192263,24626.000000000,1718092457.587342501
1718092457.588350,,,,0.305711746,0.307684064,24627.000000000,1718092457.588349581
1718092457.589357,,,,0.456445932,0.454571784,24628.000000000,1718092457.589356661
1718092457.590364,,,,0.667257488,0.666128576,24629.000000000,1718092457.590363741
1718092457.591065,316.741455078,4999.000000000,1718092457.591064692,,,,
1718092457.591371,,,,0.757914364,0.758492351,24630.000000000,1718092457.591370821
1718092457.592378,,,,0.695745528,0.696443677,24631.000000000,1718092457.592377901
1718092457.593385,,,,0.544362187,0.541742802,24632.000000000,1718092457.593384981
1718092457.594392,,,,0.336603850,0.334705651,24633.000000000,1718092457.594392061
1718092457.595399,,,,0.181229815,0.182913646,24634.000000000,1718092457.595399141
1718092457.596065,316.773681641,5000.000000000,1718092457.596064806,,,,
1718092457.596406,,,,0.058791324,0.057830706,24635.000000000,1718092457.596406221
1718092457.597413,,,,-0.047852524,-0.050303657,24636.000000000,1718092457.597413301
1718092457.598420,,,,0.051651284,0.050209854,24637.000000000,1718092457.598420382
1718092457.599427,,,,0.327059746,0.328983992,24638.000000000,1718092457.599427462
1718092457.600435,,,,0.606915712,0.607854307,24639.000000000,1718092457.600434542
1718092457.601442,,,,0.789167047,0.789793134,24640.000000000,1718092457.601441622
1718092457.602449,,,,0.921630442,0.921535313,24641.000000000,1718092457.602448702
1718092457.603456,,,,0.975938022,0.974376380,24642.000000000,1718092457.603455782
1718092457.604463,,,,0.815900147,0.812655687,24643.000000000,1718092457.604462862
1718092457.605459,316.773681641,5001.000000000,1718092457.605459213,,,,
1718092457.605470,,,,0.588957429,0.588742077,24644.000000000,1718092457.605469942
1718092457.606477,,,,0.567873836,0.569461524,24645.000000000,1718092457.606477022
1718092457.607484,,,,0.752168655,0.756448865,24646.000000000,1718092457.607484102
1718092457.608491,,,,0.615377963,0.616244435,24647.000000000,1718092457.608491182
1718092457.609498,,,,0.330233097,0.328839749,24648.000000000,1718092457.609498262
1718092457.610459,316.693084717,5002.000000000,1718092457.610459328,,,,
1718092457.610505,,,,0.198779404,0.198948696,24649.000000000,1718092457.610505342
1718092457.611512,,,,0.156540170,0.157094106,24650.000000000,1718092457.611512423
1718092457.612520,,,,0.176373616,0.175629362,24651.000000000,1718092457.612519503
1718092457.613527,,,,0.224526823,0.223205596,24652.000000000,1718092457.613526583
1718092457.614534,,,,0.271694362,0.271863669,24653.000000000,1718092457.614533663
1718092457.615459,316.693084717,5003.000000000,1718092457.615459204,,,,
1718092457.615541,,,,0.418341696,0.418943703,24654.000000000,1718092457.615540743
1718092457.616548,,,,0.561695457,0.562802315,24655.000000000,1718092457.616547823
1718092457.617555,,,,0.472505033,0.474140793,24656.000000000,1718092457.617554903
1718092457.618562,,,,0.290542156,0.290711433,24657.000000000,1718092457.618561983
1718092457.619569,,,,0.282007754,0.284100294,24658.000000000,1718092457.619569063
1718092457.620459,316.596374512,5004.000000000,1718092457.620459318,,,,
1718092457.620576,,,,0.308644682,0.308862060,24659.000000000,1718092457.620576143
1718092457.621583,,,,0.308452368,0.308765888,24660.000000000,1718092457.621583223
1718092457.622590,,,,0.246499881,0.247029781,24661.000000000,1718092457.622590303
1718092457.623597,,,,0.315640479,0.317781091,24662.000000000,1718092457.623597383
1718092457.624604,,,,0.502555728,0.503734708,24663.000000000,1718092457.624604464
1718092457.625459,316.531921387,5005.000000000,1718092457.625459194,,,,
1718092457.625612,,,,0.620258212,0.619129300,24664.000000000,1718092457.625611544
1718092457.626619,,,,0.610257328,0.609320760,24665.000000000,1718092457.626618624
1718092457.627626,,,,0.573884010,0.572731078,24666.000000000,1718092457.627625704
1718092457.628633,,,,0.659756839,0.660647333,24667.000000000,1718092457.628632784
1718092457.629640,,,,0.741446555,0.743851662,24668.000000000,1718092457.629639864
1718092457.630459,316.580291748,5006.000000000,1718092457.630459309,,,,
1718092457.630647,,,,0.788133323,0.789312303,24669.000000000,1718092457.630646944
1718092457.631654,,,,0.864798605,0.866698802,24670.000000000,1718092457.631654024
1718092457.632661,,,,0.815996289,0.817343593,24671.000000000,1718092457.632661104
1718092457.633668,,,,0.534914255,0.535804808,24672.000000000,1718092457.633668184
1718092457.634675,,,,0.162117586,0.161060795,24673.000000000,1718092457.634675264
1718092457.635459,316.435241699,5007.000000000,1718092457.635459185,,,,
1718092457.635682,,,,-0.059752591,-0.061410390,24674.000000000,1718092457.635682344
1718092457.636689,,,,0.018619578,0.018163810,24675.000000000,1718092457.636689425
1718092457.637697,,,,0.004940510,0.004725145,24676.000000000,1718092457.637696505
1718092457.638704,,,,0.066123694,0.068937436,24677.000000000,1718092457.638703585
1718092457.639711,,,,0.209357247,0.214358672,24678.000000000,1718092457.639710665
1718092457.640459,316.354644775,5008.000000000,1718092457.640459299,,,,
1718092457.640718,,,,0.261765629,0.263136953,24679.000000000,1718092457.640717745
1718092457.641725,,,,0.378458411,0.378291130,24680.000000000,1718092457.641724825
1718092457.642732,,,,0.558882713,0.556984484,24681.000000000,1718092457.642731905
1718092457.643739,,,,0.652544677,0.648627043,24682.000000000,1718092457.643738985
1718092457.644746,,,,0.665286124,0.663628340,24683.000000000,1718092457.644746065
1718092457.645459,316.274108887,5009.000000000,1718092457.645459175,,,,
1718092457.645753,,,,0.650453150,0.649612725,24684.000000000,1718092457.645753145
1718092457.646760,,,,0.598814070,0.596627355,24685.000000000,1718092457.646760225
1718092457.647767,,,,0.526235640,0.525731802,24686.000000000,1718092457.647767305
1718092457.648774,,,,0.454017848,0.452432185,24687.000000000,1718092457.648774385
1718092457.649781,,,,0.539866626,0.541838944,24688.000000000,1718092457.649781466
1718092457.650789,,,,0.737696230,0.737961709,24689.000000000,1718092457.650788546
1718092457.651796,,,,0.854124606,0.854077518,24690.000000000,1718092457.651795626
1718092457.652803,,,,0.886651456,0.888118923,24691.000000000,1718092457.652802706
1718092457.653810,,,,0.845013261,0.844196856,24692.000000000,1718092457.653809786
1718092457.654817,,,,0.752793729,0.750991702,24693.000000000,1718092457.654816866
1718092457.655459,316.241882324,5011.000000000,1718092457.655459166,,,,
1718092457.655824,,,,0.644851685,0.642400563,24694.000000000,1718092457.655823946
1718092457.656831,,,,0.450483888,0.450845510,24695.000000000,1718092457.656831026
1718092457.657838,,,,0.305567503,0.306674361,24696.000000000,1718092457.657838106
1718092457.658845,,,,0.175147548,0.173153192,24697.000000000,1718092457.658845186
1718092457.659852,,,,0.048982784,0.047493272,24698.000000000,1718092457.659852266
1718092457.660459,316.129058838,5012.000000000,1718092457.660459280,,,,
1718092457.660859,,,,-0.077206023,-0.078214727,24699.000000000,1718092457.660859346
1718092457.661866,,,,-0.079802401,-0.079873525,24700.000000000,1718092457.661866426
1718092457.662874,,,,0.050761785,0.054008257,24701.000000000,1718092457.662873507
1718092457.663881,,,,0.241547540,0.241812974,24702.000000000,1718092457.663880587
1718092457.664888,,,,0.326987624,0.328863800,24703.000000000,1718092457.664887667
1718092457.665459,316.080749512,5013.000000000,1718092457.665459156,,,,
1718092457.665895,,,,0.498036087,0.501210451,24704.000000000,1718092457.665894747
1718092457.666902,,,,0.734667122,0.735293210,24705.000000000,1718092457.666901827
1718092457.667909,,,,0.898719788,0.897951543,24706.000000000,1718092457.667908907
1718092457.668916,,,,0.797533154,0.793759823,24707.000000000,1718092457.668915987
1718092457.669923,,,,0.406682014,0.405481011,24708.000000000,1718092457.669923067
1718092457.670459,316.064605713,5014.000000000,1718092457.670459270,,,,
1718092457.670930,,,,0.210847765,0.210343912,24709.000000000,1718092457.670930147
1718092457.671937,,,,0.153559148,0.154738128,24710.000000000,1718092457.671937227
1718092457.672944,,,,0.204813585,0.206208929,24711.000000000,1718092457.672944307
1718092457.673951,,,,0.369587451,0.368506640,24712.000000000,1718092457.673951387
1718092457.674958,,,,0.361004978,0.360669434,24713.000000000,1718092457.674958467
1718092457.675459,316.096832275,5015.000000000,1718092457.675459146,,,,
1718092457.675966,,,,0.375645667,0.375021636,24714.000000000,1718092457.675965548
1718092457.676973,,,,0.469740361,0.471352071,24715.000000000,1718092457.676972628
1718092457.677980,,,,0.576816916,0.580231726,24716.000000000,1718092457.677979708
1718092457.678987,,,,0.635956705,0.639539719,24717.000000000,1718092457.678986788
1718092457.679994,,,,0.751182973,0.751881182,24718.000000000,1718092457.679993868
1718092457.680459,316.080749512,5016.000000000,1718092457.680459261,,,,
1718092457.681001,,,,0.874030173,0.877685368,24719.000000000,1718092457.681000948
1718092457.682008,,,,0.990218103,0.991276920,24720.000000000,1718092457.682008028
1718092457.683015,,,,1.061041594,1.061980128,24721.000000000,1718092457.683015108
1718092457.684022,,,,0.949397266,0.951465786,24722.000000000,1718092457.684022188
1718092457.685029,,,,0.652424455,0.651439786,24723.000000000,1718092457.685029268
1718092457.685459,316.177429199,5017.000000000,1718092457.685459137,,,,
1718092457.686036,,,,0.389420927,0.388748765,24724.000000000,1718092457.686036348
1718092457.687043,,,,0.417596430,0.419256240,24725.000000000,1718092457.687043428
1718092457.688051,,,,0.296239763,0.296144605,24726.000000000,1718092457.688050508
1718092457.689058,,,,0.001142104,0.001623915,24727.000000000,1718092457.689057589
1718092457.690065,,,,-0.142860755,-0.142354891,24728.000000000,1718092457.690064669
1718092457.690459,316.290191650,5018.000000000,1718092457.690459251,,,,
1718092457.691072,,,,-0.127042070,-0.126440063,24729.000000000,1718092457.691071749
1718092457.692079,,,,-0.094875827,-0.094105527,24730.000000000,1718092457.692078829
1718092457.693086,,,,0.050689664,0.051532082,24731.000000000,1718092457.693085909
1718092457.694093,,,,0.209573612,0.210127547,24732.000000000,1718092457.694092989
1718092457.695100,,,,0.446493149,0.446710527,24733.000000000,1718092457.695100069
1718092457.695459,316.338562012,5019.000000000,1718092457.695459127,,,,
1718092457.696107,,,,0.725916386,0.727576196,24734.000000000,1718092457.696107149
1718092457.697114,,,,0.844917059,0.846673012,24735.000000000,1718092457.697114229
1718092457.698121,,,,0.753587067,0.757242203,24736.000000000,1718092457.698121309
1718092457.699128,,,,0.645476758,0.648819387,24737.000000000,1718092457.699128389
1718092457.700135,,,,0.764765918,0.764550567,24738.000000000,1718092457.700135469
1718092457.700459,316.564147949,5020.000000000,1718092457.700459242,,,,
1718092457.701143,,,,0.813688397,0.813833654,24739.000000000,1718092457.701142550
1718092457.702150,,,,0.807053208,0.809939086,24740.000000000,1718092457.702149630
1718092457.703157,,,,0.734907568,0.736062527,24741.000000000,1718092457.703156710
1718092457.704164,,,,0.644539177,0.643867016,24742.000000000,1718092457.704163790
1718092457.705171,,,,0.483227104,0.482699215,24743.000000000,1718092457.705170870
1718092457.706178,,,,0.183153048,0.181831822,24744.000000000,1718092457.706177950
1718092457.707185,,,,-0.020229939,-0.017368114,24745.000000000,1718092457.707185030
1718092457.708192,,,,0.041385971,0.042733245,24746.000000000,1718092457.708192110
1718092457.709199,,,,0.232195765,0.233278587,24747.000000000,1718092457.709199190
1718092457.710206,,,,0.430361956,0.430699527,24748.000000000,1718092457.710206270
1718092457.711213,,,,0.439833939,0.439570487,24749.000000000,1718092457.711213350
1718092457.712220,,,,0.379444093,0.379252762,24750.000000000,1718092457.712220430
1718092457.713228,,,,0.341580242,0.343985289,24751.000000000,1718092457.713227510
1718092457.714235,,,,0.318501323,0.318886966,24752.000000000,1718092457.714234591
1718092457.715242,,,,0.242244706,0.242269754,24753.000000000,1718092457.715241671
1718092457.716249,,,,0.227099165,0.223782569,24754.000000000,1718092457.716248751
1718092457.717256,,,,0.181758702,0.181711629,24755.000000000,1718092457.717255831
1718092457.718263,,,,0.095958002,0.096295573,24756.000000000,1718092457.718262911
1718092457.719270,,,,0.239215598,0.240875393,24757.000000000,1718092457.719269991
1718092457.720277,,,,0.391055673,0.389998883,24758.000000000,1718092457.720277071
1718092457.721284,,,,0.538039565,0.536718309,24759.000000000,1718092457.721284151
1718092457.722291,,,,0.690697014,0.690409482,24760.000000000,1718092457.722291231
1718092457.723298,,,,0.845109403,0.844869971,24761.000000000,1718092457.723298311
1718092457.724305,,,,0.957354724,0.955552638,24762.000000000,1718092457.724305391
1718092457.724896,317.257171631,5026.000000000,1718092457.724896193,,,,
1718092457.725312,,,,0.954566002,0.954134285,24763.000000000,1718092457.725312471
1718092457.726320,,,,0.881338477,0.879103720,24764.000000000,1718092457.726319551
1718092457.727327,,,,0.688148677,0.686034143,24765.000000000,1718092457.727326632
1718092457.728334,,,,0.395382971,0.394831032,24766.000000000,1718092457.728333712
1718092457.729341,,,,0.161636770,0.162863836,24767.000000000,1718092457.729340792
1718092457.729896,317.289428711,5027.000000000,1718092457.729896069,,,,
1718092457.730348,,,,-0.002656302,-0.000948423,24768.000000000,1718092457.730347872
1718092457.731355,,,,-0.029918278,-0.028258480,24769.000000000,1718092457.731354952
1718092457.732362,,,,-0.097376041,-0.094826743,24770.000000000,1718092457.732362032
1718092457.733369,,,,-0.073503785,-0.072685406,24771.000000000,1718092457.733369112
1718092457.734376,,,,0.061219420,0.060234759,24772.000000000,1718092457.734376192
1718092457.734896,317.241088867,5028.000000000,1718092457.734896183,,,,
1718092457.735383,,,,0.204549134,0.203997210,24773.000000000,1718092457.735383272
1718092457.736390,,,,0.381800056,0.380815387,24774.000000000,1718092457.736390352
1718092457.737397,,,,0.574220538,0.572442591,24775.000000000,1718092457.737397432
1718092457.738405,,,,0.688677609,0.691154778,24776.000000000,1718092457.738404512
1718092457.739412,,,,0.637206793,0.638818502,24777.000000000,1718092457.739411592
1718092457.739896,316.983154297,5029.000000000,1718092457.739896059,,,,
1718092457.740419,,,,0.558137417,0.559196234,24778.000000000,1718092457.740418673
1718092457.741426,,,,0.450940669,0.452816814,24779.000000000,1718092457.741425753
1718092457.742433,,,,0.350018471,0.352183104,24780.000000000,1718092457.742432833
1718092457.743440,,,,0.346941262,0.347951978,24781.000000000,1718092457.743439913
1718092457.744447,,,,0.369058579,0.367328644,24782.000000000,1718092457.744446993
1718092457.744896,316.950927734,5030.000000000,1718092457.744896173,,,,
1718092457.745454,,,,0.309486121,0.311578631,24783.000000000,1718092457.745454073
1718092457.746461,,,,0.329151273,0.332373708,24784.000000000,1718092457.746461153
1718092457.747468,,,,0.411826700,0.414592355,24785.000000000,1718092457.747468233
1718092457.748475,,,,0.455700696,0.459187567,24786.000000000,1718092457.748475313
1718092457.749482,,,,0.436612487,0.436589450,24787.000000000,1718092457.749482393
1718092457.749896,316.757537842,5031.000000000,1718092457.749896049,,,,
1718092457.750489,,,,0.334608465,0.333792090,24788.000000000,1718092457.750489473
1718092457.751497,,,,0.423919082,0.424160510,24789.000000000,1718092457.751496553
1718092457.752504,,,,0.808327377,0.808256269,24790.000000000,1718092457.752503633
1718092457.753511,,,,1.009330392,1.009018779,24791.000000000,1718092457.753510714
1718092457.754518,,,,0.972932994,0.976323664,24792.000000000,1718092457.754517794
1718092457.754896,316.660858154,5032.000000000,1718092457.754896164,,,,
1718092457.755525,,,,0.889271855,0.891244233,24793.000000000,1718092457.755524874
1718092457.756532,,,,0.766232371,0.767555594,24794.000000000,1718092457.756531954
1718092457.757539,,,,0.645789266,0.645381570,24795.000000000,1718092457.757539034
1718092457.758546,,,,0.460965574,0.460485756,24796.000000000,1718092457.758546114
1718092457.759553,,,,0.270949125,0.269435555,24797.000000000,1718092457.759553194
1718092457.759896,316.564147949,5033.000000000,1718092457.759896040,,,,
1718092457.760560,,,,0.131177396,0.130000412,24798.000000000,1718092457.760560274
1718092457.761567,,,,0.105141491,0.103868343,24799.000000000,1718092457.761567354
1718092457.762574,,,,0.103146128,0.104180872,24800.000000000,1718092457.762574434
1718092457.763582,,,,0.113507599,0.114398099,24801.000000000,1718092457.763581514
1718092457.764589,,,,0.152020544,0.153896719,24802.000000000,1718092457.764588594
1718092457.764896,316.435241699,5034.000000000,1718092457.764896154,,,,
1718092457.765596,,,,0.108627371,0.107666753,24803.000000000,1718092457.765595675
1718092457.766603,,,,-0.059295822,-0.062203728,24804.000000000,1718092457.766602755
1718092457.767610,,,,-0.056555200,-0.057371575,24805.000000000,1718092457.767609835
1718092457.768617,,,,0.135240257,0.134255588,24806.000000000,1718092457.768616915
1718092457.769624,,,,0.332925647,0.336364448,24807.000000000,1718092457.769623995
1718092457.769896,316.419097900,5035.000000000,1718092457.769896030,,,,
1718092457.770631,,,,0.527581930,0.530900538,24808.000000000,1718092457.770631075
1718092457.771638,,,,0.731517851,0.733658433,24809.000000000,1718092457.771638155
1718092457.772645,,,,0.876193821,0.877252638,24810.000000000,1718092457.772645235
1718092457.773652,,,,0.784527242,0.783782959,24811.000000000,1718092457.773652315
1718092457.774659,,,,0.715819359,0.713175893,24812.000000000,1718092457.774659395
1718092457.774896,316.225738525,5036.000000000,1718092457.774896145,,,,
1718092457.775666,,,,0.722478569,0.720820785,24813.000000000,1718092457.775666475
1718092457.776674,,,,0.593909800,0.595689774,24814.000000000,1718092457.776673555
1718092457.777681,,,,0.389060318,0.391393244,24815.000000000,1718092457.777680635
1718092457.778688,,,,0.210799679,0.210488155,24816.000000000,1718092457.778687716
1718092457.779695,,,,0.325232655,0.323478699,24817.000000000,1718092457.779694796
1718092457.779896,316.064605713,5037.000000000,1718092457.779896021,,,,
1718092457.780702,,,,0.486616820,0.486593783,24818.000000000,1718092457.780701876
1718092457.781709,,,,0.446421027,0.446758598,24819.000000000,1718092457.781708956
1718092457.782716,,,,0.342541844,0.341797590,24820.000000000,1718092457.782716036
1718092457.783723,,,,0.002055645,0.000445929,24821.000000000,1718092457.783723116
1718092457.784730,,,,0.054512110,0.054753516,24822.000000000,1718092457.784730196
1718092457.784896,315.951782227,5038.000000000,1718092457.784896135,,,,
1718092457.785737,,,,0.180941328,0.182312638,24823.000000000,1718092457.785737276
1718092457.786744,,,,0.233710319,0.233038187,24824.000000000,1718092457.786744356
1718092457.787751,,,,0.227147251,0.228951290,24825.000000000,1718092457.787751436
1718092457.788759,,,,0.167815194,0.166253552,24826.000000000,1718092457.788758516
1718092457.789766,,,,0.339969516,0.338504046,24827.000000000,1718092457.789765596
1718092457.789896,315.758422852,5039.000000000,1718092457.789896011,,,,
1718092457.790773,,,,0.640404165,0.640597522,24828.000000000,1718092457.790772676
1718092457.791780,,,,0.782892466,0.782941580,24829.000000000,1718092457.791779757
1718092457.792787,,,,0.817510843,0.818160951,24830.000000000,1718092457.792786837
1718092457.793794,,,,0.773035884,0.772027135,24831.000000000,1718092457.793793917
1718092457.794472,315.468444824,5041.000000000,1718092457.794471502,,,,
1718092457.794801,,,,0.707741737,0.709858298,24832.000000000,1718092457.794800997
1718092457.794896,315.629547119,5040.000000000,1718092457.794896126,,,,
1718092457.795808,,,,0.656198800,0.656608522,24833.000000000,1718092457.795808077
1718092457.796815,,,,0.634105563,0.634298861,24834.000000000,1718092457.796815157
1718092457.797822,,,,0.661391556,0.661224306,24835.000000000,1718092457.797822237
1718092457.798829,,,,0.657737434,0.654565036,24836.000000000,1718092457.798829317
1718092457.799472,315.339569092,5042.000000000,1718092457.799471617,,,,
1718092457.799836,,,,0.490799874,0.489574820,24837.000000000,1718092457.799836397
1718092457.800843,,,,0.245129570,0.245755628,24838.000000000,1718092457.800843477
1718092457.801851,,,,-0.017777804,-0.016454574,24839.000000000,1718092457.801850557
1718092457.802858,,,,-0.070402555,-0.067252241,24840.000000000,1718092457.802857637
1718092457.803865,,,,0.101968139,0.105503105,24841.000000000,1718092457.803864717
1718092457.804471,315.194549561,5043.000000000,1718092457.804471493,,,,
1718092457.804872,,,,0.412595987,0.413510531,24842.000000000,1718092457.804871798
1718092457.805879,,,,0.605930030,0.605305970,24843.000000000,1718092457.805878878
1718092457.806886,,,,0.637591422,0.639275253,24844.000000000,1718092457.806885958
1718092457.807893,,,,0.612757564,0.613503814,24845.000000000,1718092457.807893038
1718092457.808900,,,,0.542150497,0.543161213,24846.000000000,1718092457.808900118
1718092457.809472,315.114013672,5044.000000000,1718092457.809471607,,,,
1718092457.809907,,,,0.414831758,0.414928943,24847.000000000,1718092457.809907198
1718092457.810914,,,,0.210366949,0.211065128,24848.000000000,1718092457.810914278
1718092457.811921,,,,0.155386224,0.155146822,24849.000000000,1718092457.811921358
1718092457.812928,,,,0.230104238,0.230946660,24850.000000000,1718092457.812928438
1718092457.813936,,,,0.302754760,0.303380817,24851.000000000,1718092457.813935518
1718092457.814471,314.904571533,5045.000000000,1718092457.814471483,,,,
1718092457.814943,,,,0.272319436,0.272921443,24852.000000000,1718092457.814942598
1718092457.815950,,,,0.172430977,0.174499452,24853.000000000,1718092457.815949678
1718092457.816957,,,,0.149063557,0.153488025,24854.000000000,1718092457.816956758
1718092457.817964,,,,0.269122034,0.271118402,24855.000000000,1718092457.817963839
1718092457.818971,,,,0.412788332,0.412621051,24856.000000000,1718092457.818970919
1718092457.819472,314.824005127,5046.000000000,1718092457.819471598,,,,
1718092457.819978,,,,0.559796214,0.561071396,24857.000000000,1718092457.819977999
1718092457.820985,,,,0.606531084,0.607445598,24858.000000000,1718092457.820985079
1718092457.821992,,,,0.518662870,0.520394802,24859.000000000,1718092457.821992159
1718092457.822999,,,,0.426347196,0.427261740,24860.000000000,1718092457.822999239
1718092457.824006,,,,0.470918357,0.469933689,24861.000000000,1718092457.824006319
1718092457.824471,314.582366943,5047.000000000,1718092457.824471474,,,,
1718092457.825013,,,,0.535851836,0.534314275,24862.000000000,1718092457.825013399
1718092457.828035,,,,0.561479092,0.562634051,24865.000000000,1718092457.828034639
1718092457.829042,,,,0.472913712,0.473203212,24866.000000000,1718092457.829041719
1718092457.829472,314.340789795,5048.000000000,1718092457.829471588,,,,
1718092457.830049,,,,0.430361956,0.429785997,24867.000000000,1718092457.830048800
1718092457.831056,,,,0.437237561,0.437382787,24868.000000000,1718092457.831055880
1718092457.832063,,,,0.335377783,0.335859597,24869.000000000,1718092457.832062960
1718092457.833070,,,,0.347518235,0.348961681,24870.000000000,1718092457.833070040
1718092457.834077,,,,0.258159548,0.256910443,24871.000000000,1718092457.834077120
1718092457.834471,314.018615723,5049.000000000,1718092457.834471464,,,,
1718092457.835084,,,,0.164353356,0.165123641,24872.000000000,1718092457.835084200
1718092457.836091,,,,0.219887003,0.223325804,24873.000000000,1718092457.836091280
1718092457.837098,,,,0.262438774,0.263858169,24874.000000000,1718092457.837098360
1718092457.838105,,,,0.346003681,0.345596015,24875.000000000,1718092457.838105440
1718092457.839113,,,,0.453753412,0.453802496,24876.000000000,1718092457.839112520
1718092457.839472,313.793151855,5050.000000000,1718092457.839471579,,,,
1718092457.840120,,,,0.420481294,0.421564132,24877.000000000,1718092457.840119600
1718092457.841127,,,,0.364130259,0.364876509,24878.000000000,1718092457.841126680
1718092457.842134,,,,0.429496497,0.428776294,24879.000000000,1718092457.842133760
1718092457.843141,,,,0.559026957,0.557609558,24880.000000000,1718092457.843140841
1718092457.844148,,,,0.592371166,0.589174807,24881.000000000,1718092457.844147921
1718092457.844471,313.454956055,5051.000000000,1718092457.844471455,,,,
1718092457.845155,,,,0.535178721,0.537030876,24882.000000000,1718092457.845155001
1718092457.846162,,,,0.409566879,0.411827713,24883.000000000,1718092457.846162081
1718092457.847169,,,,0.329656124,0.328719556,24884.000000000,1718092457.847169161
1718092457.848176,,,,0.307154179,0.306385875,24885.000000000,1718092457.848176241
1718092457.849183,,,,0.260082781,0.262055129,24886.000000000,1718092457.849183321
1718092457.849472,313.213439941,5052.000000000,1718092457.849471569,,,,
1718092457.850190,,,,0.206400260,0.206064686,24887.000000000,1718092457.850190401
1718092457.851197,,,,0.270732760,0.270661622,24888.000000000,1718092457.851197481
1718092457.852205,,,,0.284652233,0.284340709,24889.000000000,1718092457.852204561
1718092457.853212,,,,0.283209801,0.282177061,24890.000000000,1718092457.853211641
1718092457.854219,,,,0.347301871,0.347495198,24891.000000000,1718092457.854218721
1718092457.854471,312.826965332,5053.000000000,1718092457.854471445,,,,
1718092457.855226,,,,0.482626110,0.482603043,24892.000000000,1718092457.855225801
1718092457.856233,,,,0.557752788,0.558402896,24893.000000000,1718092457.856232882
1718092457.857240,,,,0.567513227,0.569485605,24894.000000000,1718092457.857239962
1718092457.858247,,,,0.428005993,0.430531234,24895.000000000,1718092457.858247042
1718092457.859254,,,,0.321386188,0.323070019,24896.000000000,1718092457.859254122
1718092457.859472,312.553253174,5054.000000000,1718092457.859471560,,,,
1718092457.860261,,,,0.404157758,0.403701991,24897.000000000,1718092457.860261202
1718092457.861268,,,,0.458080709,0.454860270,24898.000000000,1718092457.861268282
1718092457.862275,,,,0.473827273,0.473419577,24899.000000000,1718092457.862275362
1718092457.863282,,,,0.503541350,0.505417526,24900.000000000,1718092457.863282442
1718092457.864290,,,,0.484909952,0.482939631,24901.000000000,1718092457.864289522
1718092457.864471,312.199066162,5055.000000000,1718092457.864471436,,,,
1718092457.865297,,,,0.260323197,0.255443960,24902.000000000,1718092457.865296602
1718092457.866304,,,,0.122138157,0.118701361,24903.000000000,1718092457.866303682
1718092457.867311,,,,0.300591111,0.300087243,24904.000000000,1718092457.867310762
1718092457.868318,,,,0.418317646,0.420626551,24905.000000000,1718092457.868317842
1718092457.869325,,,,0.416730970,0.416323274,24906.000000000,1718092457.869324923
