__time,/gdx/grip_force_stream/grip_force,/gdx/grip_force_stream/header/seq,/gdx/grip_force_stream/header/stamp,/shimmer0/emg_stream/emg_ch1,/shimmer0/emg_stream/emg_ch2,/shimmer0/emg_stream/header/seq,/shimmer0/emg_stream/header/stamp
1718092619.516224,,,,-4.591856956,-4.594114304,17159.000000000,1718092619.516224146
1718092619.517231,,,,-4.558152199,-4.560674191,17160.000000000,1718092619.517231226
1718092619.518238,,,,-4.520720959,-4.522689819,17161.000000000,1718092619.518238306
1718092619.519245,,,,-4.494036198,-4.493288517,17162.000000000,1718092619.519245386
1718092619.520252,,,,-4.484179497,-4.482734680,17163.000000000,1718092619.520252466
1718092619.521260,,,,-4.493170738,-4.494297981,17164.000000000,1718092619.521259546
1718092619.522267,,,,-4.522956848,-4.525550842,17165.000000000,1718092619.522266626
1718092619.523274,,,,-4.548007011,-4.551154137,17166.000000000,1718092619.523273706
1718092619.524281,,,,-4.585967064,-4.590171814,17167.000000000,1718092619.524280787
1718092619.525288,,,,-4.634240627,-4.637291431,17168.000000000,1718092619.525287867
1718092619.526295,,,,-4.677345276,-4.678448677,17169.000000000,1718092619.526294947
1718092619.527302,,,,-4.706698895,-4.707033157,17170.000000000,1718092619.527302027
1718092619.528309,,,,-4.715137005,-4.715230942,17171.000000000,1718092619.528309107
1718092619.529316,,,,-4.711122513,-4.712586403,17172.000000000,1718092619.529316187
1718092619.530323,,,,-4.701506138,-4.703955650,17173.000000000,1718092619.530323267
1718092619.531330,,,,-4.688620567,-4.688113213,17174.000000000,1718092619.531330347
1718092619.532337,,,,-4.666382790,-4.666524410,17175.000000000,1718092619.532337427
1718092619.533345,,,,-4.639818192,-4.639527321,17176.000000000,1718092619.533344507
1718092619.534352,,,,-4.612748623,-4.612505436,17177.000000000,1718092619.534351587
1718092619.535359,,,,-4.580005169,-4.580074787,17178.000000000,1718092619.535358667
1718092619.536366,,,,-4.545867443,-4.547572136,17179.000000000,1718092619.536365747
1718092619.537373,,,,-4.509061337,-4.511271000,17180.000000000,1718092619.537372828
1718092619.538380,,,,-4.474947929,-4.474897385,17181.000000000,1718092619.538379908
1718092619.539387,,,,-4.453143120,-4.454198360,17182.000000000,1718092619.539386988
1718092619.540394,,,,-4.447661877,-4.450664520,17183.000000000,1718092619.540394068
1718092619.541401,,,,-4.468216419,-4.469969273,17184.000000000,1718092619.541401148
1718092619.542408,,,,-4.500503063,-4.498456955,17185.000000000,1718092619.542408228
1718092619.543415,,,,-4.535169601,-4.535719872,17186.000000000,1718092619.543415308
1718092619.544422,,,,-4.596593380,-4.600557327,17187.000000000,1718092619.544422388
1718092619.545429,,,,-4.674075603,-4.678040028,17188.000000000,1718092619.545429468
1718092619.546437,,,,-4.727854729,-4.729558945,17189.000000000,1718092619.546436548
1718092619.547444,,,,-4.751966953,-4.753839970,17190.000000000,1718092619.547443628
1718092619.548451,,,,-4.754924297,-4.759970188,17191.000000000,1718092619.548450708
1718092619.549458,,,,-4.746966839,-4.751123428,17192.000000000,1718092619.549457788
1718092619.550465,,,,-4.745139599,-4.746555805,17193.000000000,1718092619.550464869
1718092619.551472,,,,-4.734369278,-4.736362457,17194.000000000,1718092619.551471949
1718092619.552479,,,,-4.716218948,-4.719389915,17195.000000000,1718092619.552479029
1718092619.553486,,,,-4.686889648,-4.692152023,17196.000000000,1718092619.553486109
1718092619.554493,,,,-4.653425217,-4.659360409,17197.000000000,1718092619.554493189
1718092619.555500,,,,-4.618710518,-4.623588085,17198.000000000,1718092619.555500269
1718092619.556507,,,,-4.586448193,-4.588152409,17199.000000000,1718092619.556507349
1718092619.557514,,,,-4.545483112,-4.547667980,17200.000000000,1718092619.557514429
1718092619.558522,,,,-4.500887871,-4.504323006,17201.000000000,1718092619.558521509
1718092619.559529,,,,-4.470740795,-4.472854137,17202.000000000,1718092619.559528589
1718092619.559787,0.355341315,3491.000000000,1718092619.559786797,,,,
1718092619.560536,,,,-4.453864574,-4.456842899,17203.000000000,1718092619.560535669
1718092619.561543,,,,-4.467735767,-4.469151974,17204.000000000,1718092619.561542749
1718092619.562550,,,,-4.507643223,-4.509780407,17205.000000000,1718092619.562549829
1718092619.563557,,,,-4.540482521,-4.541657925,17206.000000000,1718092619.563556910
1718092619.564564,,,,-4.576903820,-4.579473972,17207.000000000,1718092619.564563990
1718092619.564787,0.390691638,3492.000000000,1718092619.564786911,,,,
1718092619.565571,,,,-4.636765003,-4.638397217,17208.000000000,1718092619.565571070
1718092619.566578,,,,-4.690615654,-4.690901756,17209.000000000,1718092619.566578150
1718092619.567585,,,,-4.716867924,-4.718284130,17210.000000000,1718092619.567585230
1718092619.568592,,,,-4.729561329,-4.730087757,17211.000000000,1718092619.568592310
1718092619.569599,,,,-4.747784138,-4.750137806,17212.000000000,1718092619.569599390
1718092619.569787,0.549769104,3493.000000000,1718092619.569786787,,,,
1718092619.570606,,,,-4.755260944,-4.757854462,17213.000000000,1718092619.570606470
1718092619.571614,,,,-4.749202728,-4.749680996,17214.000000000,1718092619.571613550
1718092619.572621,,,,-4.729729652,-4.730616570,17215.000000000,1718092619.572620630
1718092619.573628,,,,-4.705039978,-4.707946301,17216.000000000,1718092619.573627710
1718092619.574635,,,,-4.672128677,-4.675948620,17217.000000000,1718092619.574634790
1718092619.574787,0.620471001,3494.000000000,1718092619.574786901,,,,
1718092619.575642,,,,-4.639361382,-4.641426086,17218.000000000,1718092619.575641870
1718092619.576649,,,,-4.607940197,-4.611423492,17219.000000000,1718092619.576648951
1718092619.577656,,,,-4.576278687,-4.578079224,17220.000000000,1718092619.577656031
1718092619.578663,,,,-4.540314198,-4.542186737,17221.000000000,1718092619.578663111
1718092619.579670,,,,-4.509686470,-4.513145924,17222.000000000,1718092619.579670191
1718092619.579787,0.744187713,3495.000000000,1718092619.579786777,,,,
1718092619.580677,,,,-4.500983715,-4.505260468,17223.000000000,1718092619.580677271
1718092619.581684,,,,-4.513917923,-4.518218517,17224.000000000,1718092619.581684351
1718092619.582691,,,,-4.539929390,-4.543004513,17225.000000000,1718092619.582691431
1718092619.583699,,,,-4.561445713,-4.567838192,17226.000000000,1718092619.583698511
1718092619.584706,,,,-4.597434521,-4.602961540,17227.000000000,1718092619.584705591
1718092619.584787,0.867897391,3496.000000000,1718092619.584786892,,,,
1718092619.585713,,,,-4.639337063,-4.643710136,17228.000000000,1718092619.585712671
1718092619.586720,,,,-4.669459820,-4.676237106,17229.000000000,1718092619.586719751
1718092619.587727,,,,-4.682706356,-4.686502457,17230.000000000,1718092619.587726831
1718092619.588734,,,,-4.683259487,-4.684963703,17231.000000000,1718092619.588733912
1718092619.589741,,,,-4.685422897,-4.687704563,17232.000000000,1718092619.589740992
1718092619.589787,1.026939988,3497.000000000,1718092619.589786768,,,,
1718092619.590748,,,,-4.688620567,-4.689531326,17233.000000000,1718092619.590748072
1718092619.591755,,,,-4.676504135,-4.677583218,17234.000000000,1718092619.591755152
1718092619.592762,,,,-4.668113708,-4.671236515,17235.000000000,1718092619.592762232
1718092619.593769,,,,-4.664676189,-4.667125702,17236.000000000,1718092619.593769312
1718092619.594776,,,,-4.640707493,-4.643133163,17237.000000000,1718092619.594776392
1718092619.594787,1.115295649,3498.000000000,1718092619.594786882,,,,
1718092619.595783,,,,-4.610849380,-4.611711979,17238.000000000,1718092619.595783472
1718092619.596791,,,,-4.577336788,-4.579569817,17239.000000000,1718092619.596790552
1718092619.597798,,,,-4.544809818,-4.548846245,17240.000000000,1718092619.597797632
1718092619.598805,,,,-4.516922951,-4.518723488,17241.000000000,1718092619.598804712
1718092619.599787,1.309655666,3499.000000000,1718092619.599786758,,,,
1718092619.599812,,,,-4.497233391,-4.497327328,17242.000000000,1718092619.599811792
1718092619.600819,,,,-4.491536140,-4.493240356,17243.000000000,1718092619.600818872
1718092619.601826,,,,-4.492762089,-4.494081974,17244.000000000,1718092619.601825953
1718092619.602833,,,,-4.498267174,-4.498120785,17245.000000000,1718092619.602833033
1718092619.603840,,,,-4.514735222,-4.516271114,17246.000000000,1718092619.603840113
1718092619.604787,1.468666077,3500.000000000,1718092619.604786873,,,,
1718092619.604847,,,,-4.546612740,-4.547451973,17247.000000000,1718092619.604847193
1718092619.605854,,,,-4.586495876,-4.586084843,17248.000000000,1718092619.605854273
1718092619.606861,,,,-4.609599113,-4.613274574,17249.000000000,1718092619.606861353
1718092619.607868,,,,-4.625225544,-4.626304626,17250.000000000,1718092619.607868433
1718092619.608876,,,,-4.623278141,-4.625583649,17251.000000000,1718092619.608875513
1718092619.609883,,,,-4.616089821,-4.616447926,17252.000000000,1718092619.609882593
1718092619.610890,,,,-4.611281872,-4.611039162,17253.000000000,1718092619.610889673
1718092619.611897,,,,-4.615465164,-4.618106842,17254.000000000,1718092619.611896753
1718092619.612904,,,,-4.655011654,-4.657413483,17255.000000000,1718092619.612903833
1718092619.613911,,,,-4.679436684,-4.678953648,17256.000000000,1718092619.613910913
1718092619.614918,,,,-4.660084248,-4.660346031,17257.000000000,1718092619.614917994
1718092619.615925,,,,-4.624095440,-4.626304626,17258.000000000,1718092619.615925074
1718092619.616932,,,,-4.595198631,-4.598345757,17259.000000000,1718092619.616932154
1718092619.617939,,,,-4.562215328,-4.562645435,17260.000000000,1718092619.617939234
1718092619.618946,,,,-4.525457382,-4.526007652,17261.000000000,1718092619.618946314
1718092619.619953,,,,-4.506032467,-4.510333061,17262.000000000,1718092619.619953394
1718092619.620960,,,,-4.508989334,-4.511487007,17263.000000000,1718092619.620960474
1718092619.621968,,,,-4.525793552,-4.526824951,17264.000000000,1718092619.621967554
1718092619.622975,,,,-4.549353600,-4.551706791,17265.000000000,1718092619.622974634
1718092619.623982,,,,-4.568657875,-4.571420193,17266.000000000,1718092619.623981714
1718092619.624989,,,,-4.598227978,-4.601158142,17267.000000000,1718092619.624988794
1718092619.625996,,,,-4.622965813,-4.622722626,17268.000000000,1718092619.625995874
1718092619.627003,,,,-4.633567333,-4.636642456,17269.000000000,1718092619.627002954
1718092619.628010,,,,-4.626355171,-4.629959106,17270.000000000,1718092619.628010035
1718092619.629017,,,,-4.598059654,-4.598946571,17271.000000000,1718092619.629017115
1718092619.630024,,,,-4.544376850,-4.545552731,17272.000000000,1718092619.630024195
1718092619.631031,,,,-4.477183819,-4.479393005,17273.000000000,1718092619.631031275
1718092619.632038,,,,-4.410158634,-4.412031651,17274.000000000,1718092619.632038355
1718092619.633045,,,,-4.341475010,-4.344261169,17275.000000000,1718092619.633045435
1718092619.634053,,,,-4.290941715,-4.292309284,17276.000000000,1718092619.634052515
1718092619.635060,,,,-4.259929180,-4.263436794,17277.000000000,1718092619.635059595
1718092619.636067,,,,-4.268295288,-4.270071983,17278.000000000,1718092619.636066675
1718092619.637074,,,,-4.293466091,-4.295026302,17279.000000000,1718092619.637073755
1718092619.638081,,,,-4.321088314,-4.323970795,17280.000000000,1718092619.638080835
1718092619.639088,,,,-4.347725391,-4.351497173,17281.000000000,1718092619.639087915
1718092619.640095,,,,-4.405879498,-4.408713818,17282.000000000,1718092619.640094995
1718092619.641102,,,,-4.501440525,-4.502183437,17283.000000000,1718092619.641102076
1718092619.642109,,,,-4.571975708,-4.572285652,17284.000000000,1718092619.642109156
1718092619.643116,,,,-4.592410088,-4.592816353,17285.000000000,1718092619.643116236
1718092619.644123,,,,-4.601545334,-4.604764462,17286.000000000,1718092619.644123316
1718092619.649159,,,,-4.685759544,-4.687608242,17291.000000000,1718092619.649158716
1718092619.650166,,,,-4.664988518,-4.666668892,17292.000000000,1718092619.650165796
1718092619.651173,,,,-4.600824356,-4.601759434,17293.000000000,1718092619.651172876
1718092619.652180,,,,-4.524086952,-4.522449493,17294.000000000,1718092619.652179956
1718092619.653187,,,,-4.458961010,-4.458068848,17295.000000000,1718092619.653187037
1718092619.654194,,,,-4.375011444,-4.376042843,17296.000000000,1718092619.654194117
1718092619.655201,,,,-4.273367882,-4.275697708,17297.000000000,1718092619.655201197
1718092619.656208,,,,-4.184802532,-4.186002254,17298.000000000,1718092619.656208277
1718092619.657215,,,,-4.098593235,-4.099696636,17299.000000000,1718092619.657215357
1718092619.658222,,,,-4.019547939,-4.019810200,17300.000000000,1718092619.658222437
1718092619.659230,,,,-3.970769644,-3.971127987,17301.000000000,1718092619.659229517
1718092619.660237,,,,-3.990434885,-3.991850853,17302.000000000,1718092619.660236597
1718092619.661244,,,,-4.108906746,-4.114601612,17303.000000000,1718092619.661243677
1718092619.662251,,,,-4.234590530,-4.237881660,17304.000000000,1718092619.662250757
1718092619.663258,,,,-4.342195988,-4.343323708,17305.000000000,1718092619.663257837
1718092619.663979,10.389931679,3511.000000000,1718092619.663978815,,,,
1718092619.664265,,,,-4.475356579,-4.477613926,17306.000000000,1718092619.664264917
1718092619.665272,,,,-4.585174084,-4.586950302,17307.000000000,1718092619.665271997
1718092619.666279,,,,-4.722877979,-4.726120949,17308.000000000,1718092619.666279078
1718092619.667286,,,,-4.842143059,-4.844376564,17309.000000000,1718092619.667286158
1718092619.668293,,,,-4.861591816,-4.864161968,17310.000000000,1718092619.668293238
1718092619.668979,12.763867378,3512.000000000,1718092619.668978930,,,,
1718092619.669300,,,,-4.794374466,-4.795189381,17311.000000000,1718092619.669300318
1718092619.670307,,,,-4.732326031,-4.733405590,17312.000000000,1718092619.670307398
1718092619.671314,,,,-4.668354034,-4.667149544,17313.000000000,1718092619.671314478
1718092619.672322,,,,-4.543920517,-4.545264244,17314.000000000,1718092619.672321558
1718092619.673329,,,,-4.391286850,-4.392606735,17315.000000000,1718092619.673328638
1718092619.673979,15.626665115,3513.000000000,1718092619.673978806,,,,
1718092619.674336,,,,-4.264400959,-4.265143871,17316.000000000,1718092619.674335718
1718092619.675343,,,,-4.169969559,-4.171457767,17317.000000000,1718092619.675342798
1718092619.676350,,,,-4.096261501,-4.098783016,17318.000000000,1718092619.676349878
1718092619.677357,,,,-4.081043720,-4.083204746,17319.000000000,1718092619.677356958
1718092619.678364,,,,-4.081260204,-4.084238529,17320.000000000,1718092619.678364038
1718092619.678979,18.818620682,3514.000000000,1718092619.678978920,,,,
1718092619.679371,,,,-4.106430531,-4.110370636,17321.000000000,1718092619.679371119
1718092619.680378,,,,-4.209828854,-4.212350845,17322.000000000,1718092619.680378199
1718092619.681385,,,,-4.367270470,-4.371282578,17323.000000000,1718092619.681385279
1718092619.682392,,,,-4.519086361,-4.523483276,17324.000000000,1718092619.682392359
1718092619.683399,,,,-4.637341976,-4.638902187,17325.000000000,1718092619.683399439
1718092619.683979,22.565641403,3515.000000000,1718092619.683978796,,,,
1718092619.684407,,,,-4.771007061,-4.771461487,17326.000000000,1718092619.684406519
1718092619.685414,,,,-4.903975487,-4.906881809,17327.000000000,1718092619.685413599
1718092619.686421,,,,-4.936334133,-4.937365532,17328.000000000,1718092619.686420679
1718092619.687428,,,,-4.846879005,-4.845987320,17329.000000000,1718092619.687427759
1718092619.688435,,,,-4.701554298,-4.703330517,17330.000000000,1718092619.688434839
1718092619.688979,26.829841614,3516.000000000,1718092619.688978910,,,,
1718092619.689442,,,,-4.583851814,-4.585484028,17331.000000000,1718092619.689441919
1718092619.690449,,,,-4.451989174,-4.453862190,17332.000000000,1718092619.690448999
1718092619.691456,,,,-4.372487068,-4.373494625,17333.000000000,1718092619.691456079
1718092619.692463,,,,-4.343349934,-4.346569061,17334.000000000,1718092619.692463160
1718092619.693470,,,,-4.270507336,-4.270360470,17335.000000000,1718092619.693470240
1718092619.693979,31.695098877,3517.000000000,1718092619.693978786,,,,
1718092619.694477,,,,-4.222113609,-4.223865986,17336.000000000,1718092619.694477320
1718092619.695484,,,,-4.175330639,-4.178573608,17337.000000000,1718092619.695484400
1718092619.696491,,,,-4.089289665,-4.088758469,17338.000000000,1718092619.696491480
1718092619.697499,,,,-4.052074909,-4.053394794,17339.000000000,1718092619.697498560
1718092619.698506,,,,-4.107800961,-4.108904362,17340.000000000,1718092619.698505640
1718092619.698979,36.948677063,3518.000000000,1718092619.698978901,,,,
1718092619.699513,,,,-4.280364037,-4.281731606,17341.000000000,1718092619.699512720
1718092619.700520,,,,-4.534183979,-4.535719872,17342.000000000,1718092619.700519800
1718092619.701527,,,,-4.656237602,-4.657004356,17343.000000000,1718092619.701526880
1718092619.702534,,,,-4.692106247,-4.692728996,17344.000000000,1718092619.702533960
1718092619.703541,,,,-4.749515057,-4.750426292,17345.000000000,1718092619.703541040
1718092619.703979,42.604885101,3519.000000000,1718092619.703978777,,,,
1718092619.704548,,,,-4.793365002,-4.796007156,17346.000000000,1718092619.704548120
1718092619.705555,,,,-4.872939110,-4.875124454,17347.000000000,1718092619.705555201
1718092619.706562,,,,-4.897268295,-4.898612022,17348.000000000,1718092619.706562281
1718092619.707569,,,,-4.875295162,-4.876446724,17349.000000000,1718092619.707569361
1718092619.708576,,,,-4.785119057,-4.787713051,17350.000000000,1718092619.708576441
1718092619.708979,48.763992310,3520.000000000,1718092619.708978891,,,,
1718092619.709584,,,,-4.676071167,-4.680035591,17351.000000000,1718092619.709583521
1718092619.710591,,,,-4.685735703,-4.688690186,17352.000000000,1718092619.710590601
1718092619.711598,,,,-4.715858459,-4.718692780,17353.000000000,1718092619.711597681
1718092619.712605,,,,-4.777450085,-4.778913975,17354.000000000,1718092619.712604761
1718092619.713612,,,,-4.796081543,-4.796367645,17355.000000000,1718092619.713611841
1718092619.714619,,,,-4.702347279,-4.703595161,17356.000000000,1718092619.714618921
1718092619.715626,,,,-4.595102787,-4.595581055,17357.000000000,1718092619.715626001
1718092619.716633,,,,-4.604550362,-4.604860783,17358.000000000,1718092619.716633081
1718092619.717640,,,,-4.655997276,-4.656523705,17359.000000000,1718092619.717640162
1718092619.717783,68.158668518,3523.000000000,1718092619.717782974,,,,
1718092619.718647,,,,-4.581784248,-4.584762573,17360.000000000,1718092619.718647242
1718092619.719654,,,,-4.490550518,-4.492278576,17361.000000000,1718092619.719654322
1718092619.720661,,,,-4.464009762,-4.464848518,17362.000000000,1718092619.720661402
1718092619.721668,,,,-4.435112953,-4.437105656,17363.000000000,1718092619.721668482
1718092619.722676,,,,-4.422275066,-4.422873497,17364.000000000,1718092619.722675562
1718092619.722783,74.719642639,3524.000000000,1718092619.722783089,,,,
1718092619.723683,,,,-4.459441662,-4.459102631,17365.000000000,1718092619.723682642
1718092619.724690,,,,-4.540843010,-4.543220520,17366.000000000,1718092619.724689722
1718092619.725697,,,,-4.666623116,-4.670419216,17367.000000000,1718092619.725696802
1718092619.726704,,,,-4.732061386,-4.736891270,17368.000000000,1718092619.726703882
1718092619.727711,,,,-4.734754086,-4.736747265,17369.000000000,1718092619.727710962
1718092619.727783,81.157798767,3525.000000000,1718092619.727782965,,,,
1718092619.728718,,,,-4.712131977,-4.710903645,17370.000000000,1718092619.728718042
1718092619.729725,,,,-4.657271385,-4.658879757,17371.000000000,1718092619.729725122
1718092619.730732,,,,-4.594261169,-4.596614838,17372.000000000,1718092619.730732203
1718092619.731739,,,,-4.552839279,-4.555409431,17373.000000000,1718092619.731739283
1718092619.732746,,,,-4.480982304,-4.481508732,17374.000000000,1718092619.732746363
1718092619.732783,87.609947205,3526.000000000,1718092619.732783079,,,,
1718092619.733753,,,,-4.367270470,-4.367412090,17375.000000000,1718092619.733753443
1718092619.734761,,,,-4.250072956,-4.250334740,17376.000000000,1718092619.734760523
1718092619.735768,,,,-4.119172096,-4.118592739,17377.000000000,1718092619.735767603
1718092619.736775,,,,-4.003272533,-4.002356529,17378.000000000,1718092619.736774683
1718092619.737782,,,,-3.988271236,-3.990191936,17379.000000000,1718092619.737781763
1718092619.737783,94.008361816,3527.000000000,1718092619.737782955,,,,
1718092619.738789,,,,-4.096213341,-4.098711014,17380.000000000,1718092619.738788843
1718092619.739796,,,,-4.177326202,-4.178429604,17381.000000000,1718092619.739795923
1718092619.740803,,,,-4.219204903,-4.220548630,17382.000000000,1718092619.740803003
1718092619.741810,,,,-4.263223171,-4.263773441,17383.000000000,1718092619.741810083
1718092619.742783,100.319953918,3528.000000000,1718092619.742783070,,,,
1718092619.742817,,,,-4.325439930,-4.327216625,17384.000000000,1718092619.742817163
1718092619.743824,,,,-4.370395660,-4.371090412,17385.000000000,1718092619.743824244
1718092619.744831,,,,-4.453864574,-4.454511166,17386.000000000,1718092619.744831324
1718092619.745838,,,,-4.546107769,-4.546826839,17387.000000000,1718092619.745838404
1718092619.746845,,,,-4.597506523,-4.596830845,17388.000000000,1718092619.746845484
1718092619.747783,106.461593628,3529.000000000,1718092619.747782946,,,,
1718092619.747853,,,,-4.622532845,-4.622674465,17389.000000000,1718092619.747852564
1718092619.748860,,,,-4.618614197,-4.618371487,17390.000000000,1718092619.748859644
1718092619.749867,,,,-4.642919064,-4.643469810,17391.000000000,1718092619.749866724
1718092619.750874,,,,-4.746029377,-4.747950077,17392.000000000,1718092619.750873804
1718092619.751881,,,,-4.828464031,-4.828966618,17393.000000000,1718092619.751880884
1718092619.752783,112.602424622,3530.000000000,1718092619.752783060,,,,
1718092619.752888,,,,-4.853827000,-4.853007317,17394.000000000,1718092619.752887964
1718092619.753895,,,,-4.772425652,-4.772326946,17395.000000000,1718092619.753895044
1718092619.754902,,,,-4.650684357,-4.649335861,17396.000000000,1718092619.754902124
1718092619.755909,,,,-4.539689064,-4.540696621,17397.000000000,1718092619.755909204
1718092619.756916,,,,-4.529640198,-4.530623436,17398.000000000,1718092619.756916285
1718092619.757783,118.608940125,3531.000000000,1718092619.757782936,,,,
1718092619.757923,,,,-4.570990086,-4.574136734,17399.000000000,1718092619.757923365
1718092619.758930,,,,-4.548079491,-4.548172951,17400.000000000,1718092619.758930445
1718092619.759938,,,,-4.417851925,-4.416406631,17401.000000000,1718092619.759937525
1718092619.760945,,,,-4.287936687,-4.286179066,17402.000000000,1718092619.760944605
1718092619.761952,,,,-4.230816364,-4.233362198,17403.000000000,1718092619.761951685
1718092619.762783,124.432441711,3532.000000000,1718092619.762783051,,,,
1718092619.762959,,,,-4.278512955,-4.280745983,17404.000000000,1718092619.762958765
1718092619.763966,,,,-4.267934799,-4.271634579,17405.000000000,1718092619.763965845
1718092619.764973,,,,-4.275098801,-4.277812958,17406.000000000,1718092619.764972925
1718092619.765980,,,,-4.323252201,-4.326351166,17407.000000000,1718092619.765980005
1718092619.766987,,,,-4.525336742,-4.527378082,17408.000000000,1718092619.766987085
1718092619.767783,130.074569702,3533.000000000,1718092619.767782927,,,,
1718092619.767994,,,,-4.720521927,-4.722106457,17409.000000000,1718092619.767994165
1718092619.769001,,,,-4.766463757,-4.766340733,17410.000000000,1718092619.769001245
1718092619.770008,,,,-4.716267109,-4.718019485,17411.000000000,1718092619.770008326
1718092619.771015,,,,-4.662656784,-4.664024353,17412.000000000,1718092619.771015406
1718092619.772022,,,,-4.692659378,-4.694555759,17413.000000000,1718092619.772022486
1718092619.772783,135.453979492,3534.000000000,1718092619.772783041,,,,
1718092619.773030,,,,-4.683523655,-4.684434891,17414.000000000,1718092619.773029566
1718092619.774037,,,,-4.503820896,-4.506679058,17415.000000000,1718092619.774036646
1718092619.775044,,,,-4.347581387,-4.347602844,17416.000000000,1718092619.775043726
1718092619.776051,,,,-4.250168800,-4.251344204,17417.000000000,1718092619.776050806
1718092619.777058,,,,-4.182230473,-4.186242580,17418.000000000,1718092619.777057886
1718092619.777783,140.638885498,3535.000000000,1718092619.777782917,,,,
1718092619.778065,,,,-4.190572262,-4.192420959,17419.000000000,1718092619.778064966
1718092619.779072,,,,-4.211848259,-4.211797714,17420.000000000,1718092619.779072046
1718092619.780079,,,,-4.271829605,-4.271057606,17421.000000000,1718092619.780079126
1718092619.781086,,,,-4.377007008,-4.376691818,17422.000000000,1718092619.781086206
1718092619.782093,,,,-4.420640469,-4.421767712,17423.000000000,1718092619.782093287
1718092619.782783,145.564697266,3536.000000000,1718092619.782783031,,,,
1718092619.783100,,,,-4.439872742,-4.441961765,17424.000000000,1718092619.783100367
1718092619.784107,,,,-4.562695980,-4.565361977,17425.000000000,1718092619.784107447
1718092619.785115,,,,-4.582241058,-4.584474087,17426.000000000,1718092619.785114527
1718092619.786122,,,,-4.559450626,-4.562525272,17427.000000000,1718092619.786121607
1718092619.787129,,,,-4.589669228,-4.590171814,17428.000000000,1718092619.787128687
1718092619.787783,150.365081787,3537.000000000,1718092619.787782907,,,,
1718092619.788136,,,,-4.638255596,-4.638613701,17429.000000000,1718092619.788135767
1718092619.789143,,,,-4.674917221,-4.674746513,17430.000000000,1718092619.789142847
1718092619.790150,,,,-4.674917221,-4.677078247,17431.000000000,1718092619.790149927
1718092619.791157,,,,-4.710329056,-4.714269161,17432.000000000,1718092619.791157007
1718092619.792783,154.827102661,3538.000000000,1718092619.792783022,,,,
1718092619.793171,,,,-4.799495220,-4.801295757,17434.000000000,1718092619.793171167
1718092619.794178,,,,-4.632990360,-4.632964134,17435.000000000,1718092619.794178247
1718092619.795185,,,,-4.424102306,-4.425854683,17436.000000000,1718092619.795185328
1718092619.796192,,,,-4.279690742,-4.280842304,17437.000000000,1718092619.796192408
1718092619.797199,,,,-4.166002750,-4.166072845,17438.000000000,1718092619.797199488
1718092619.797783,159.084136963,3539.000000000,1718092619.797782898,,,,
1718092619.798207,,,,-4.079817772,-4.081185341,17439.000000000,1718092619.798206568
1718092619.799214,,,,-4.033828259,-4.036397934,17440.000000000,1718092619.799213648
1718092619.800221,,,,-4.045079231,-4.047625065,17441.000000000,1718092619.800220728
1718092619.801228,,,,-4.141505718,-4.144099712,17442.000000000,1718092619.801227808
1718092619.802235,,,,-4.324382305,-4.327528954,17443.000000000,1718092619.802234888
1718092619.802783,163.202926636,3540.000000000,1718092619.802783012,,,,
1718092619.803242,,,,-4.514446735,-4.516271114,17444.000000000,1718092619.803241968
1718092619.804249,,,,-4.571999550,-4.574545383,17445.000000000,1718092619.804249048
1718092619.805256,,,,-4.627196789,-4.629213810,17446.000000000,1718092619.805256128
1718092619.806263,,,,-4.558392525,-4.561803818,17447.000000000,1718092619.806263208
1718092619.807270,,,,-4.461797714,-4.467516899,17448.000000000,1718092619.807270288
1718092619.808277,,,,-4.374650955,-4.376403332,17449.000000000,1718092619.808277369
1718092619.809284,,,,-4.233124256,-4.234684467,17450.000000000,1718092619.809284449
1718092619.810292,,,,-4.225383282,-4.227784634,17451.000000000,1718092619.810291529
1718092619.811299,,,,-4.364097118,-4.365801334,17452.000000000,1718092619.811298609
1718092619.812268,167.102416992,3541.000000000,1718092619.812267780,,,,
1718092619.812306,,,,-4.414462090,-4.414579868,17453.000000000,1718092619.812305689
1718092619.813313,,,,-4.458528519,-4.456434250,17454.000000000,1718092619.813312769
1718092619.814320,,,,-4.464081764,-4.460761547,17455.000000000,1718092619.814319849
1718092619.815327,,,,-4.347196579,-4.347049713,17456.000000000,1718092619.815326929
1718092619.816334,,,,-4.012335777,-4.015650749,17457.000000000,1718092619.816334009
1718092619.817268,170.783691406,3542.000000000,1718092619.817267895,,,,
1718092619.817341,,,,-4.025125504,-4.028584957,17458.000000000,1718092619.817341089
1718092619.818348,,,,-4.050992966,-4.052745342,17459.000000000,1718092619.818348169
1718092619.819355,,,,-4.037049294,-4.037792206,17460.000000000,1718092619.819355249
1718092619.820362,,,,-4.037674427,-4.042119503,17461.000000000,1718092619.820362329
1718092619.821369,,,,-4.168455124,-4.170928955,17462.000000000,1718092619.821369410
1718092619.822268,174.329421997,3543.000000000,1718092619.822267771,,,,
1718092619.822376,,,,-4.390926361,-4.393111706,17463.000000000,1718092619.822376490
1718092619.823384,,,,-4.566518307,-4.570049763,17464.000000000,1718092619.823383570
1718092619.824391,,,,-4.665060520,-4.668784618,17465.000000000,1718092619.824390650
1718092619.825398,,,,-4.719031811,-4.720928192,17466.000000000,1718092619.825397730
1718092619.826405,,,,-4.658785820,-4.660923004,17467.000000000,1718092619.826404810
1718092619.827268,177.723892212,3544.000000000,1718092619.827267885,,,,
1718092619.827412,,,,-4.623326302,-4.626977921,17468.000000000,1718092619.827411890
1718092619.828419,,,,-4.616017818,-4.620270729,17469.000000000,1718092619.828418970
1718092619.829426,,,,-4.545987606,-4.547547817,17470.000000000,1718092619.829426050
1718092619.830433,,,,-4.453599930,-4.455160141,17471.000000000,1718092619.830433130
1718092619.831440,,,,-4.340946198,-4.341184139,17472.000000000,1718092619.831440210
1718092619.832268,181.065490723,3545.000000000,1718092619.832267761,,,,
1718092619.832447,,,,-4.355659008,-4.356738091,17473.000000000,1718092619.832447290
1718092619.833454,,,,-4.358591557,-4.361714363,17474.000000000,1718092619.833454370
1718092619.834461,,,,-4.404893875,-4.407704353,17475.000000000,1718092619.834461451
1718092619.835469,,,,-4.598371983,-4.599763870,17476.000000000,1718092619.835468531
1718092619.836476,,,,-4.758963108,-4.759705544,17477.000000000,1718092619.836475611
1718092619.837268,184.240585327,3546.000000000,1718092619.837267876,,,,
1718092619.837483,,,,-4.797668457,-4.800214291,17478.000000000,1718092619.837482691
1718092619.838490,,,,-4.729249001,-4.729967594,17479.000000000,1718092619.838489771
1718092619.839497,,,,-4.595607281,-4.594619274,17480.000000000,1718092619.839496851
1718092619.840504,,,,-4.460066795,-4.461434841,17481.000000000,1718092619.840503931
1718092619.841511,,,,-4.432660580,-4.435927868,17482.000000000,1718092619.841511011
1718092619.842268,187.249786377,3547.000000000,1718092619.842267752,,,,
1718092619.842518,,,,-4.419798851,-4.422296524,17483.000000000,1718092619.842518091
1718092619.843525,,,,-4.428934574,-4.431407928,17484.000000000,1718092619.843525171
1718092619.844532,,,,-4.443238735,-4.446817875,17485.000000000,1718092619.844532251
1718092619.845539,,,,-4.449008465,-4.451866627,17486.000000000,1718092619.845539331
1718092619.846546,,,,-4.491367817,-4.492110252,17487.000000000,1718092619.846546412
1718092619.847268,190.256057739,3548.000000000,1718092619.847267866,,,,
1718092619.847553,,,,-4.483939171,-4.485571384,17488.000000000,1718092619.847553492
1718092619.848561,,,,-4.431867123,-4.433211327,17489.000000000,1718092619.848560572
1718092619.849568,,,,-4.366236687,-4.369768143,17490.000000000,1718092619.849567652
1718092619.852268,193.129684448,3549.000000000,1718092619.852267742,,,,
1718092619.857268,196.065658569,3550.000000000,1718092619.857267857,,,,
1718092619.858631,,,,-4.652607441,-4.654360294,17499.000000000,1718092619.858631372
1718092619.859638,,,,-4.645972252,-4.647436619,17500.000000000,1718092619.859638453
1718092619.860646,,,,-4.651285172,-4.653470516,17501.000000000,1718092619.860645533
1718092619.861653,,,,-4.745861053,-4.746315002,17502.000000000,1718092619.861652613
1718092619.862268,198.739898682,3551.000000000,1718092619.862267733,,,,
1718092619.862660,,,,-4.722685814,-4.722490788,17503.000000000,1718092619.862659693
1718092619.863667,,,,-4.610897064,-4.611399651,17504.000000000,1718092619.863666773
1718092619.864674,,,,-4.480165005,-4.481677055,17505.000000000,1718092619.864673853
1718092619.865681,,,,-4.340056419,-4.341616631,17506.000000000,1718092619.865680933
1718092619.866688,,,,-4.276372910,-4.277812958,17507.000000000,1718092619.866688013
1718092619.867268,201.298736572,3552.000000000,1718092619.867267847,,,,
1718092619.867695,,,,-4.160017014,-4.161817551,17508.000000000,1718092619.867695093
1718092619.868702,,,,-4.129846096,-4.131983280,17509.000000000,1718092619.868702173
1718092619.869709,,,,-4.205429554,-4.206196308,17510.000000000,1718092619.869709253
1718092619.870716,,,,-4.356740475,-4.358853817,17511.000000000,1718092619.870716333
1718092619.871723,,,,-4.607771873,-4.612000465,17512.000000000,1718092619.871723413
1718092619.872268,203.823410034,3553.000000000,1718092619.872267723,,,,
1718092619.872730,,,,-4.826805592,-4.826105595,17513.000000000,1718092619.872730494
1718092619.873738,,,,-4.936911106,-4.937629700,17514.000000000,1718092619.873737574
1718092619.874745,,,,-4.848609924,-4.851636887,17515.000000000,1718092619.874744654
1718092619.875752,,,,-4.700929165,-4.704677105,17516.000000000,1718092619.875751734
1718092619.876759,,,,-4.575269222,-4.580315113,17517.000000000,1718092619.876758814
1718092619.877268,206.249343872,3554.000000000,1718092619.877267838,,,,
1718092619.878773,,,,-4.381958961,-4.382629871,17519.000000000,1718092619.878772974
1718092619.879780,,,,-4.297937393,-4.298103333,17520.000000000,1718092619.879780054
1718092619.880787,,,,-4.306904793,-4.307888031,17521.000000000,1718092619.880787134
1718092619.881794,,,,-4.317242146,-4.317119598,17522.000000000,1718092619.881794214
1718092619.882268,208.479812622,3555.000000000,1718092619.882267714,,,,
1718092619.882801,,,,-4.306663990,-4.306324959,17523.000000000,1718092619.882801294
1718092619.883808,,,,-4.320799828,-4.319355011,17524.000000000,1718092619.883808374
1718092619.884815,,,,-4.337941170,-4.340679169,17525.000000000,1718092619.884815454
1718092619.885823,,,,-4.381502628,-4.384336948,17526.000000000,1718092619.885822535
1718092619.886830,,,,-4.393955231,-4.397414684,17527.000000000,1718092619.886829615
1718092619.887268,210.628265381,3556.000000000,1718092619.887267828,,,,
1718092619.887837,,,,-4.462254524,-4.463237762,17528.000000000,1718092619.887836695
1718092619.888844,,,,-4.523509979,-4.528916359,17529.000000000,1718092619.888843775
1718092619.889851,,,,-4.476630688,-4.481460571,17530.000000000,1718092619.889850855
1718092619.890858,,,,-4.353831768,-4.358589172,17531.000000000,1718092619.890857935
1718092619.891865,,,,-4.237860203,-4.240766525,17532.000000000,1718092619.891865015
1718092619.892268,212.711044312,3557.000000000,1718092619.892267704,,,,
1718092619.892872,,,,-4.269281387,-4.272500038,17533.000000000,1718092619.892872095
1718092619.893879,,,,-4.466509819,-4.469247818,17534.000000000,1718092619.893879175
1718092619.894886,,,,-4.548271656,-4.550384521,17535.000000000,1718092619.894886255
1718092619.895893,,,,-4.508628845,-4.512232304,17536.000000000,1718092619.895893335
1718092619.896900,,,,-4.566710949,-4.569448948,17537.000000000,1718092619.896900415
1718092619.897268,214.631393433,3558.000000000,1718092619.897267818,,,,
1718092619.897907,,,,-4.568080902,-4.570049763,17538.000000000,1718092619.897907495
1718092619.898915,,,,-4.506825924,-4.508001328,17539.000000000,1718092619.898914576
1718092619.899922,,,,-4.447493553,-4.448621273,17540.000000000,1718092619.899921656
1718092619.900929,,,,-4.424366474,-4.425205708,17541.000000000,1718092619.900928736
1718092619.901936,,,,-4.470692635,-4.470954895,17542.000000000,1718092619.901935816
1718092619.902268,216.405776978,3559.000000000,1718092619.902267694,,,,
1718092619.902943,,,,-4.553464413,-4.551923275,17543.000000000,1718092619.902942896
1718092619.903950,,,,-4.524735928,-4.522858143,17544.000000000,1718092619.903949976
1718092619.904957,,,,-4.591977119,-4.593417168,17545.000000000,1718092619.904957056
1718092619.905964,,,,-4.606930733,-4.612505436,17546.000000000,1718092619.905964136
1718092619.906971,,,,-4.500262737,-4.503025055,17547.000000000,1718092619.906971216
1718092619.907268,217.937606812,3560.000000000,1718092619.907267809,,,,
1718092619.907978,,,,-4.440233231,-4.439437866,17548.000000000,1718092619.907978296
1718092619.908985,,,,-4.416601658,-4.416382790,17549.000000000,1718092619.908985376
1718092619.909992,,,,-4.424246311,-4.424580574,17550.000000000,1718092619.909992456
1718092619.911000,,,,-4.484996796,-4.487999439,17551.000000000,1718092619.910999537
1718092619.912007,,,,-4.520648956,-4.521728516,17552.000000000,1718092619.912006617
1718092619.913014,,,,-4.502017498,-4.506630898,17553.000000000,1718092619.913013697
1718092619.914021,,,,-4.569139004,-4.572646141,17554.000000000,1718092619.914020777
1718092619.915028,,,,-4.595583439,-4.594811440,17555.000000000,1718092619.915027857
1718092619.916035,,,,-4.469923496,-4.472301006,17556.000000000,1718092619.916034937
1718092619.917042,,,,-4.362702847,-4.363781929,17557.000000000,1718092619.917042017
1718092619.918049,,,,-4.355466366,-4.358853817,17558.000000000,1718092619.918049097
1718092619.919056,,,,-4.375468254,-4.377533436,17559.000000000,1718092619.919056177
1718092619.920063,,,,-4.408187389,-4.410324574,17560.000000000,1718092619.920063257
1718092619.921070,,,,-4.457302094,-4.457227707,17561.000000000,1718092619.921070337
1718092619.922077,,,,-4.354432583,-4.352362633,17562.000000000,1718092619.922077417
1718092619.923084,,,,-4.281926632,-4.282573223,17563.000000000,1718092619.923084497
1718092619.924092,,,,-4.343301773,-4.343443871,17564.000000000,1718092619.924091578
1718092619.925099,,,,-4.434031010,-4.434725761,17565.000000000,1718092619.925098658
1718092619.926106,,,,-4.499036789,-4.498240948,17566.000000000,1718092619.926105738
1718092619.927113,,,,-4.529159546,-4.527762413,17567.000000000,1718092619.927112818
1718092619.928120,,,,-4.536828518,-4.539446354,17568.000000000,1718092619.928119898
1718092619.929127,,,,-4.398523331,-4.399962902,17569.000000000,1718092619.929126978
1718092619.930134,,,,-4.297360420,-4.299497604,17570.000000000,1718092619.930134058
1718092619.931141,,,,-4.367174149,-4.371090412,17571.000000000,1718092619.931141138
1718092619.932148,,,,-4.459201336,-4.463309765,17572.000000000,1718092619.932148218
1718092619.933155,,,,-4.446339607,-4.447611332,17573.000000000,1718092619.933155298
1718092619.934162,,,,-4.440882683,-4.442130089,17574.000000000,1718092619.934162378
1718092619.935169,,,,-4.435064793,-4.437706947,17575.000000000,1718092619.935169458
1718092619.936177,,,,-4.293201447,-4.293920040,17576.000000000,1718092619.936176538
1718092619.937184,,,,-4.213531017,-4.213023663,17577.000000000,1718092619.937183619
1718092619.938191,,,,-4.210045338,-4.211581230,17578.000000000,1718092619.938190699
1718092619.939198,,,,-4.225430965,-4.227135658,17579.000000000,1718092619.939197779
1718092619.940205,,,,-4.266660690,-4.269903660,17580.000000000,1718092619.940204859
1718092619.941212,,,,-4.405014038,-4.407031059,17581.000000000,1718092619.941211939
1718092619.942219,,,,-4.483193874,-4.486028194,17582.000000000,1718092619.942219019
1718092619.943226,,,,-4.438430309,-4.442370415,17583.000000000,1718092619.943226099
1718092619.944233,,,,-4.505623817,-4.508265495,17584.000000000,1718092619.944233179
1718092619.945240,,,,-4.567047119,-4.568607330,17585.000000000,1718092619.945240259
1718092619.946247,,,,-4.506104469,-4.506078243,17586.000000000,1718092619.946247339
1718092619.947254,,,,-4.521899223,-4.519709110,17587.000000000,1718092619.947254419
1718092619.948261,,,,-4.556229115,-4.557909489,17588.000000000,1718092619.948261499
1718092619.949269,,,,-4.625946522,-4.626689434,17589.000000000,1718092619.949268579
1718092619.950276,,,,-4.702467918,-4.703907490,17590.000000000,1718092619.950275660
1718092619.951283,,,,-4.635322571,-4.637387276,17591.000000000,1718092619.951282740
1718092619.952290,,,,-4.610921383,-4.613972187,17592.000000000,1718092619.952289820
1718092619.953297,,,,-4.611378193,-4.612818241,17593.000000000,1718092619.953296900
1718092619.954304,,,,-4.644842625,-4.645032406,17594.000000000,1718092619.954303980
1718092619.955311,,,,-4.764997005,-4.766990185,17595.000000000,1718092619.955311060
1718092619.956318,,,,-4.755765438,-4.757373810,17596.000000000,1718092619.956318140
1718092619.957325,,,,-4.630081654,-4.632194519,17597.000000000,1718092619.957325220
1718092619.958332,,,,-4.511850357,-4.513674736,17598.000000000,1718092619.958332300
1718092619.959339,,,,-4.438646793,-4.442250252,17599.000000000,1718092619.959339380
1718092619.960346,,,,-4.441291332,-4.444966793,17600.000000000,1718092619.960346460
1718092619.961354,,,,-4.460788250,-4.462228298,17601.000000000,1718092619.961353540
1718092619.962361,,,,-4.416601658,-4.417007923,17602.000000000,1718092619.962360620
1718092619.963368,,,,-4.427323818,-4.429701328,17603.000000000,1718092619.963367701
1718092619.964375,,,,-4.451604843,-4.453693867,17604.000000000,1718092619.964374781
1718092619.965382,,,,-4.497401714,-4.500428677,17605.000000000,1718092619.965381861
1718092619.966389,,,,-4.578827381,-4.580098629,17606.000000000,1718092619.966388941
1718092619.966932,229.354339600,3571.000000000,1718092619.966932058,,,,
1718092619.967396,,,,-4.662536144,-4.665058136,17607.000000000,1718092619.967396021
1718092619.968403,,,,-4.662969112,-4.665130138,17608.000000000,1718092619.968403101
1718092619.969410,,,,-4.607531548,-4.608731270,17609.000000000,1718092619.969410181
1718092619.970417,,,,-4.611017704,-4.610966682,17610.000000000,1718092619.970417261
1718092619.971424,,,,-4.620994091,-4.621136189,17611.000000000,1718092619.971424341
1718092619.971932,230.335433960,3572.000000000,1718092619.971932173,,,,
1718092619.972431,,,,-4.568898201,-4.571059704,17612.000000000,1718092619.972431421
1718092619.973439,,,,-4.451292038,-4.452010632,17613.000000000,1718092619.973438501
1718092619.974446,,,,-4.350850582,-4.350439548,17614.000000000,1718092619.974445581
1718092619.975453,,,,-4.306736469,-4.307935715,17615.000000000,1718092619.975452662
1718092619.976460,,,,-4.302240849,-4.303560734,17616.000000000,1718092619.976459742
1718092619.976932,231.300262451,3573.000000000,1718092619.976932049,,,,
1718092619.977467,,,,-4.291999340,-4.292573929,17617.000000000,1718092619.977466822
1718092619.978474,,,,-4.320703983,-4.322384357,17618.000000000,1718092619.978473902
1718092619.979481,,,,-4.370876312,-4.373133659,17619.000000000,1718092619.979480982
1718092619.980488,,,,-4.444392681,-4.446217060,17620.000000000,1718092619.980488062
1718092619.981495,,,,-4.480957985,-4.482398033,17621.000000000,1718092619.981495142
1718092619.981932,232.168487549,3574.000000000,1718092619.981932163,,,,
1718092619.982502,,,,-4.398931980,-4.400371552,17622.000000000,1718092619.982502222
1718092619.983509,,,,-4.301567554,-4.301517010,17623.000000000,1718092619.983509302
1718092619.984516,,,,-4.229013443,-4.229130745,17624.000000000,1718092619.984516382
1718092619.985523,,,,-4.220094204,-4.220620632,17625.000000000,1718092619.985523462
1718092619.986531,,,,-4.245625019,-4.246776581,17626.000000000,1718092619.986530542
1718092619.986932,232.972259521,3575.000000000,1718092619.986932039,,,,
1718092619.987538,,,,-4.431843281,-4.433740139,17627.000000000,1718092619.987537622
1718092619.988545,,,,-4.676792622,-4.677030563,17628.000000000,1718092619.988544703
1718092619.989552,,,,-4.736509323,-4.738357544,17629.000000000,1718092619.989551783
1718092619.990559,,,,-4.760189056,-4.762614727,17630.000000000,1718092619.990558863
1718092619.991566,,,,-4.769637108,-4.772567272,17631.000000000,1718092619.991565943
1718092619.991932,233.792022705,3576.000000000,1718092619.991932154,,,,
1718092619.992573,,,,-4.817429543,-4.819975376,17632.000000000,1718092619.992573023
1718092619.993580,,,,-4.653641224,-4.654528618,17633.000000000,1718092619.993580103
1718092619.994587,,,,-4.400542736,-4.401813984,17634.000000000,1718092619.994587183
1718092619.995594,,,,-4.242259502,-4.243074417,17635.000000000,1718092619.995594263
1718092619.996601,,,,-4.151963234,-4.151432037,17636.000000000,1718092619.996601343
1718092619.996932,234.547378540,3577.000000000,1718092619.996932030,,,,
1718092619.997608,,,,-4.100877285,-4.100418091,17637.000000000,1718092619.997608423
1718092619.998616,,,,-4.117561340,-4.117582798,17638.000000000,1718092619.998615503
1718092619.999623,,,,-4.227594852,-4.229083061,17639.000000000,1718092619.999622583
1718092620.000630,,,,-4.293946743,-4.295482635,17640.000000000,1718092620.000629663
1718092620.001637,,,,-4.358159065,-4.359694958,17641.000000000,1718092620.001636744
1718092620.001932,235.286605835,3578.000000000,1718092620.001932144,,,,
1718092620.002644,,,,-4.461990356,-4.461747169,17642.000000000,1718092620.002643824
1718092620.003651,,,,-4.617941380,-4.619212627,17643.000000000,1718092620.003650904
1718092620.004658,,,,-4.598708630,-4.601230621,17644.000000000,1718092620.004657984
1718092620.005665,,,,-4.574836254,-4.579401493,17645.000000000,1718092620.005665064
1718092620.006672,,,,-4.649001598,-4.651595592,17646.000000000,1718092620.006672144
1718092620.006932,236.025711060,3579.000000000,1718092620.006932020,,,,
1718092620.007679,,,,-4.740331650,-4.740737915,17647.000000000,1718092620.007679224
1718092620.008686,,,,-4.771368027,-4.770836353,17648.000000000,1718092620.008686304
1718092620.009693,,,,-4.707419872,-4.708980083,17649.000000000,1718092620.009693384
1718092620.010700,,,,-4.708021164,-4.708475590,17650.000000000,1718092620.010700464
1718092620.011708,,,,-4.865053654,-4.867311001,17651.000000000,1718092620.011707544
1718092620.011932,236.684448242,3580.000000000,1718092620.011932135,,,,
1718092620.012715,,,,-4.821492195,-4.823605537,17652.000000000,1718092620.012714624
1718092620.013722,,,,-4.640467167,-4.641666889,17653.000000000,1718092620.013721704
1718092620.014729,,,,-4.503171444,-4.507111549,17654.000000000,1718092620.014728785
1718092620.015736,,,,-4.479275227,-4.482662678,17655.000000000,1718092620.015735865
1718092620.016743,,,,-4.503195763,-4.504755974,17656.000000000,1718092620.016742945
1718092620.017750,,,,-4.485141277,-4.486701488,17657.000000000,1718092620.017750025
1718092620.018757,,,,-4.382031441,-4.385202408,17658.000000000,1718092620.018757105
1718092620.019764,,,,-4.361500740,-4.364431381,17659.000000000,1718092620.019764185
1718092620.020771,,,,-4.351379395,-4.353589058,17660.000000000,1718092620.020771265
1718092620.021778,,,,-4.335585117,-4.338491440,17661.000000000,1718092620.021778345
1718092620.022785,,,,-4.360058308,-4.362555981,17662.000000000,1718092620.022785425
1718092620.023793,,,,-4.337388039,-4.338154793,17663.000000000,1718092620.023792505
1718092620.024800,,,,-4.416433334,-4.418041706,17664.000000000,1718092620.024799585
1718092620.025807,,,,-4.487280846,-4.486196518,17665.000000000,1718092620.025806665
1718092620.026814,,,,-4.428862095,-4.427200794,17666.000000000,1718092620.026813745
1718092620.027821,,,,-4.419221878,-4.421743870,17667.000000000,1718092620.027820826
1718092620.028828,,,,-4.381286144,-4.382461548,17668.000000000,1718092620.028827906
1718092620.029835,,,,-4.302721500,-4.303175926,17669.000000000,1718092620.029834986
1718092620.030842,,,,-4.329093933,-4.332144737,17670.000000000,1718092620.030842066
1718092620.031849,,,,-4.365467548,-4.368542194,17671.000000000,1718092620.031849146
1718092620.032856,,,,-4.426338196,-4.427970409,17672.000000000,1718092620.032856226
1718092620.033863,,,,-4.439920902,-4.441649437,17673.000000000,1718092620.033863306
1718092620.034870,,,,-4.520889282,-4.524637222,17674.000000000,1718092620.034870386
1718092620.035877,,,,-4.746485710,-4.747541428,17675.000000000,1718092620.035877466
1718092620.036885,,,,-4.871785164,-4.872840405,17676.000000000,1718092620.036884546
1718092620.037892,,,,-4.810554028,-4.811994076,17677.000000000,1718092620.037891626
1718092620.038899,,,,-4.703573704,-4.704268456,17678.000000000,1718092620.038898706
1718092620.039906,,,,-4.605896950,-4.608611107,17679.000000000,1718092620.039905787
1718092620.040913,,,,-4.513773441,-4.513122082,17680.000000000,1718092620.040912867
1718092620.041920,,,,-4.401985168,-4.401646137,17681.000000000,1718092620.041919947
1718092620.042927,,,,-4.335248470,-4.332673550,17682.000000000,1718092620.042927027
1718092620.043934,,,,-4.338229656,-4.338948250,17683.000000000,1718092620.043934107
1718092620.044941,,,,-4.353687286,-4.355512142,17684.000000000,1718092620.044941187
1718092620.045948,,,,-4.300413609,-4.303969383,17685.000000000,1718092620.045948267
1718092620.046955,,,,-4.233124256,-4.234636307,17686.000000000,1718092620.046955347
1718092620.047962,,,,-4.243798256,-4.244997501,17687.000000000,1718092620.047962427
1718092620.048970,,,,-4.209444046,-4.208456039,17688.000000000,1718092620.048969507
1718092620.049977,,,,-4.152660370,-4.155110359,17689.000000000,1718092620.049976587
1718092620.050984,,,,-4.180379391,-4.184367657,17690.000000000,1718092620.050983667
1718092620.051991,,,,-4.281733990,-4.284039497,17691.000000000,1718092620.051990747
1718092620.052998,,,,-4.474274635,-4.477253437,17692.000000000,1718092620.052997828
1718092620.054005,,,,-4.645323277,-4.648157597,17693.000000000,1718092620.054004908
1718092620.055012,,,,-4.768771648,-4.771293163,17694.000000000,1718092620.055011988
1718092620.056019,,,,-4.818631649,-4.822235107,17695.000000000,1718092620.056019068
1718092620.057026,,,,-4.780094624,-4.781174183,17696.000000000,1718092620.057026148
1718092620.058033,,,,-4.690471649,-4.692031860,17697.000000000,1718092620.058033228
1718092620.059040,,,,-4.578706741,-4.578656197,17698.000000000,1718092620.059040308
1718092620.060047,,,,-4.577432632,-4.579185486,17699.000000000,1718092620.060047388
1718092620.061054,,,,-4.692995548,-4.694964409,17700.000000000,1718092620.061054468
1718092620.061750,239.543457031,3591.000000000,1718092620.061750174,,,,
1718092620.062062,,,,-4.850533485,-4.854834080,17701.000000000,1718092620.062061548
1718092620.063069,,,,-4.907317162,-4.909598351,17702.000000000,1718092620.063068628
1718092620.064076,,,,-4.877795219,-4.878417969,17703.000000000,1718092620.064075708
1718092620.065083,,,,-4.902533054,-4.902770996,17704.000000000,1718092620.065082788
1718092620.066090,,,,-4.905057430,-4.905175209,17705.000000000,1718092620.066089869
1718092620.066750,239.559539795,3592.000000000,1718092620.066750288,,,,
1718092620.067097,,,,-4.875415325,-4.875148296,17706.000000000,1718092620.067096949
1718092620.068104,,,,-4.769709110,-4.774034023,17707.000000000,1718092620.068104029
1718092620.069111,,,,-4.636500359,-4.639431000,17708.000000000,1718092620.069111109
1718092620.070118,,,,-4.580269814,-4.582839489,17709.000000000,1718092620.070118189
1718092620.071125,,,,-4.513412952,-4.516559601,17710.000000000,1718092620.071125269
1718092620.071750,239.575607300,3593.000000000,1718092620.071750164,,,,
1718092620.072132,,,,-4.452494144,-4.454655170,17711.000000000,1718092620.072132349
1718092620.073139,,,,-4.394604683,-4.397775173,17712.000000000,1718092620.073139429
1718092620.074147,,,,-4.355298042,-4.359094143,17713.000000000,1718092620.074146509
1718092620.075154,,,,-4.226489067,-4.228385925,17714.000000000,1718092620.075153589
1718092620.076161,,,,-4.064696312,-4.068203449,17715.000000000,1718092620.076160669
1718092620.076750,239.479232788,3594.000000000,1718092620.076750278,,,,
1718092620.077168,,,,-4.071138859,-4.073660851,17716.000000000,1718092620.077167749
1718092620.078175,,,,-4.142251015,-4.141142368,17717.000000000,1718092620.078174829
1718092620.079182,,,,-4.210405827,-4.210066795,17718.000000000,1718092620.079181910
1718092620.080189,,,,-4.323180199,-4.323754787,17719.000000000,1718092620.080188990
1718092620.081196,,,,-4.395445824,-4.397655010,17720.000000000,1718092620.081196070
1718092620.081750,239.398941040,3595.000000000,1718092620.081750154,,,,
1718092620.082203,,,,-4.467976093,-4.469896793,17721.000000000,1718092620.082203150
1718092620.083210,,,,-4.599045277,-4.602119923,17722.000000000,1718092620.083210230
1718092620.084217,,,,-4.674292088,-4.676982403,17723.000000000,1718092620.084217310
1718092620.085224,,,,-4.695471764,-4.697103977,17724.000000000,1718092620.085224390
1718092620.086231,,,,-4.733624458,-4.735785484,17725.000000000,1718092620.086231470
1718092620.086750,239.206237793,3596.000000000,1718092620.086750269,,,,
1718092620.087239,,,,-4.741365433,-4.744055271,17726.000000000,1718092620.087238550
1718092620.088246,,,,-4.625177383,-4.626977921,17727.000000000,1718092620.088245630
1718092620.089253,,,,-4.524735928,-4.526055813,17728.000000000,1718092620.089252710
1718092620.090260,,,,-4.451388359,-4.456265926,17729.000000000,1718092620.090259790
1718092620.091267,,,,-4.362101555,-4.366907120,17730.000000000,1718092620.091266870
1718092620.091750,238.917144775,3597.000000000,1718092620.091750145,,,,
1718092620.092274,,,,-4.244952202,-4.245862961,17731.000000000,1718092620.092273951
1718092620.093281,,,,-4.161699772,-4.163308144,17732.000000000,1718092620.093281031
1718092620.094288,,,,-4.171267986,-4.171313286,17733.000000000,1718092620.094288111
1718092620.095295,,,,-4.092486858,-4.094624043,17734.000000000,1718092620.095295191
1718092620.096302,,,,-4.087678909,-4.088133335,17735.000000000,1718092620.096302271
1718092620.096750,238.628082275,3598.000000000,1718092620.096750259,,,,
1718092620.097309,,,,-4.262165070,-4.261826038,17736.000000000,1718092620.097309351
1718092620.098316,,,,-4.493699551,-4.495259762,17737.000000000,1718092620.098316431
1718092620.099324,,,,-4.592842579,-4.595532894,17738.000000000,1718092620.099323511
1718092620.100331,,,,-4.664171219,-4.667005539,17739.000000000,1718092620.100330591
1718092620.101338,,,,-4.657079220,-4.660490513,17740.000000000,1718092620.101337671
1718092620.101750,238.290786743,3599.000000000,1718092620.101750135,,,,
1718092620.102345,,,,-4.649626732,-4.651379108,17741.000000000,1718092620.102344751
1718092620.103352,,,,-4.676359653,-4.679049969,17742.000000000,1718092620.103351831
1718092620.104359,,,,-4.747591972,-4.751243591,17743.000000000,1718092620.104358912
1718092620.105366,,,,-4.775743484,-4.777519703,17744.000000000,1718092620.105365992
1718092620.106373,,,,-4.772834301,-4.775476456,17745.000000000,1718092620.106373072
1718092620.106750,237.921356201,3600.000000000,1718092620.106750250,,,,
1718092620.107380,,,,-4.791537762,-4.792761326,17746.000000000,1718092620.107380152
1718092620.108387,,,,-4.835267544,-4.834856510,17747.000000000,1718092620.108387232
1718092620.109394,,,,-4.855365753,-4.856492996,17748.000000000,1718092620.109394312
1718092620.110401,,,,-4.795793056,-4.798939705,17749.000000000,1718092620.110401392
1718092620.111408,,,,-4.779878139,-4.782856941,17750.000000000,1718092620.111408472
1718092620.112416,,,,-4.788773060,-4.791246891,17751.000000000,1718092620.112415552
1718092620.113423,,,,-4.761703491,-4.765427589,17752.000000000,1718092620.113422632
1718092620.114430,,,,-4.683403492,-4.684771538,17753.000000000,1718092620.114429712
1718092620.115437,,,,-4.547791004,-4.548918247,17754.000000000,1718092620.115436792
1718092620.116444,,,,-4.415928364,-4.419339657,17755.000000000,1718092620.116443872
1718092620.117451,,,,-4.284498692,-4.285217762,17756.000000000,1718092620.117450953
1718092620.118458,,,,-4.134485722,-4.134363174,17757.000000000,1718092620.118458033
1718092620.119465,,,,-4.065128803,-4.068347931,17758.000000000,1718092620.119465113
1718092620.120472,,,,-4.123042583,-4.125035286,17759.000000000,1718092620.120472193
1718092620.121479,,,,-4.210333824,-4.210932255,17760.000000000,1718092620.121479273
1718092620.122486,,,,-4.080947399,-4.081305504,17761.000000000,1718092620.122486353
1718092620.123493,,,,-4.007623672,-4.006275177,17762.000000000,1718092620.123493433
1718092620.124501,,,,-4.120614529,-4.119410038,17763.000000000,1718092620.124500513
1718092620.125508,,,,-4.326954365,-4.328249931,17764.000000000,1718092620.125507593
1718092620.126515,,,,-4.535169601,-4.537643433,17765.000000000,1718092620.126514673
1718092620.127522,,,,-4.693981171,-4.696142673,17766.000000000,1718092620.127521753
1718092620.128529,,,,-4.867842674,-4.870797157,17767.000000000,1718092620.128528833
1718092620.129536,,,,-4.949099541,-4.951910019,17768.000000000,1718092620.129535913
1718092620.130543,,,,-4.960639000,-4.961742401,17769.000000000,1718092620.130542994
1718092620.131550,,,,-4.917222023,-4.916714668,17770.000000000,1718092620.131550074
1718092620.132557,,,,-4.861639977,-4.863440514,17771.000000000,1718092620.132557154
1718092620.133564,,,,-4.680686951,-4.685492516,17772.000000000,1718092620.133564234
1718092620.134571,,,,-4.537357330,-4.538724899,17773.000000000,1718092620.134571314
1718092620.135578,,,,-4.398691177,-4.402006626,17774.000000000,1718092620.135578394
1718092620.136585,,,,-4.295797825,-4.299810410,17775.000000000,1718092620.136585474
1718092620.137593,,,,-4.341691494,-4.345823765,17776.000000000,1718092620.137592554
1718092620.138600,,,,-4.375251770,-4.375970840,17777.000000000,1718092620.138599634
1718092620.139607,,,,-4.341042042,-4.340030193,17778.000000000,1718092620.139606714
1718092620.140614,,,,-4.211367607,-4.209778309,17779.000000000,1718092620.140613794
1718092620.141621,,,,-4.165305614,-4.165086746,17780.000000000,1718092620.141620874
1718092620.142628,,,,-4.147058964,-4.147273064,17781.000000000,1718092620.142627954
1718092620.143635,,,,-4.127874851,-4.128761768,17782.000000000,1718092620.143635035
1718092620.144642,,,,-4.267261982,-4.270360470,17783.000000000,1718092620.144642115
1718092620.145649,,,,-4.558465004,-4.561611652,17784.000000000,1718092620.145649195
1718092620.146656,,,,-4.883661270,-4.885678291,17785.000000000,1718092620.146656275
1718092620.147663,,,,-4.968019485,-4.969002724,17786.000000000,1718092620.147663355
1718092620.148670,,,,-4.852745056,-4.853319645,17787.000000000,1718092620.148670435
1718092620.149678,,,,-4.724945545,-4.727154732,17788.000000000,1718092620.149677515
1718092620.150685,,,,-4.703212738,-4.704508781,17789.000000000,1718092620.150684595
1718092620.151692,,,,-4.701434135,-4.703643322,17790.000000000,1718092620.151691675
1718092620.152699,,,,-4.581952572,-4.582839489,17791.000000000,1718092620.152698755
1718092620.153706,,,,-4.374602795,-4.376860142,17792.000000000,1718092620.153705835
1718092620.154713,,,,-4.249063015,-4.251969337,17793.000000000,1718092620.154712915
1718092620.155720,,,,-4.202184200,-4.202229500,17794.000000000,1718092620.155719995
1718092620.155942,237.182449341,3611.000000000,1718092620.155941725,,,,
1718092620.156727,,,,-4.228484154,-4.229467392,17795.000000000,1718092620.156727076
1718092620.157734,,,,-4.380829334,-4.380706787,17796.000000000,1718092620.157734156
1718092620.158741,,,,-4.487569332,-4.490715981,17797.000000000,1718092620.158741236
1718092620.159748,,,,-4.609406948,-4.614140034,17798.000000000,1718092620.159748316
1718092620.160755,,,,-4.712660789,-4.715182781,17799.000000000,1718092620.160755396
1718092620.160942,237.567993164,3612.000000000,1718092620.160941839,,,,
1718092620.161762,,,,-4.723454952,-4.724967003,17800.000000000,1718092620.161762476
1718092620.162770,,,,-4.806635380,-4.808291912,17801.000000000,1718092620.162769556
1718092620.163777,,,,-4.846807003,-4.845698833,17802.000000000,1718092620.163776636
1718092620.164784,,,,-4.802500248,-4.803267002,17803.000000000,1718092620.164783716
1718092620.165791,,,,-4.784998894,-4.785741806,17804.000000000,1718092620.165790796
1718092620.165942,238.065933228,3613.000000000,1718092620.165941715,,,,
1718092620.166798,,,,-4.692538738,-4.692608833,17805.000000000,1718092620.166797876
1718092620.167805,,,,-4.632389545,-4.633541107,17806.000000000,1718092620.167804956
1718092620.168812,,,,-4.684845924,-4.686526299,17807.000000000,1718092620.168812037
1718092620.169819,,,,-4.654771328,-4.655922890,17808.000000000,1718092620.169819117
1718092620.170826,,,,-4.648472786,-4.650946140,17809.000000000,1718092620.170826197
1718092620.170942,238.403213501,3614.000000000,1718092620.170941830,,,,
1718092620.171833,,,,-4.566254139,-4.567501545,17810.000000000,1718092620.171833277
1718092620.172840,,,,-4.511610031,-4.513434410,17811.000000000,1718092620.172840357
1718092620.173847,,,,-4.406865120,-4.408593655,17812.000000000,1718092620.173847437
1718092620.174855,,,,-4.232499123,-4.233987331,17813.000000000,1718092620.174854517
1718092620.175862,,,,-4.143188477,-4.146167278,17814.000000000,1718092620.175861597
1718092620.175942,238.756561279,3615.000000000,1718092620.175941706,,,,
1718092620.176869,,,,-4.118667126,-4.117486477,17815.000000000,1718092620.176868677
1718092620.177876,,,,-4.269858360,-4.268437386,17816.000000000,1718092620.177875757
1718092620.178883,,,,-4.422131062,-4.420565605,17817.000000000,1718092620.178882837
1718092620.179890,,,,-4.589813709,-4.588994026,17818.000000000,1718092620.179889917
1718092620.180897,,,,-4.692875385,-4.694868565,17819.000000000,1718092620.180896997
1718092620.180942,238.981384277,3616.000000000,1718092620.180941820,,,,
1718092620.181904,,,,-4.653641224,-4.655922890,17820.000000000,1718092620.181904078
1718092620.182911,,,,-4.638375759,-4.642508030,17821.000000000,1718092620.182911158
1718092620.183918,,,,-4.643135548,-4.646258354,17822.000000000,1718092620.183918238
1718092620.184925,,,,-4.641284466,-4.643517971,17823.000000000,1718092620.184925318
1718092620.185932,,,,-4.591953278,-4.592576027,17824.000000000,1718092620.185932398
1718092620.185942,239.206237793,3617.000000000,1718092620.185941696,,,,
1718092620.186939,,,,-4.539088249,-4.539878845,17825.000000000,1718092620.186939478
1718092620.187947,,,,-4.468120575,-4.467901707,17826.000000000,1718092620.187946558
1718092620.188954,,,,-4.426506519,-4.426095009,17827.000000000,1718092620.188953638
1718092620.189961,,,,-4.375348091,-4.378134251,17828.000000000,1718092620.189960718
1718092620.190942,239.334701538,3618.000000000,1718092620.190941811,,,,
1718092620.190968,,,,-4.209588528,-4.212855339,17829.000000000,1718092620.190967798
1718092620.191975,,,,-4.084048748,-4.086522579,17830.000000000,1718092620.191974878
1718092620.192982,,,,-4.279907227,-4.281659603,17831.000000000,1718092620.192981958
1718092620.193989,,,,-4.513629436,-4.514636517,17832.000000000,1718092620.193989038
1718092620.194996,,,,-4.640491009,-4.642916679,17833.000000000,1718092620.194996119
1718092620.195942,239.350769043,3619.000000000,1718092620.195941687,,,,
1718092620.196003,,,,-4.768362999,-4.772231102,17834.000000000,1718092620.196003199
1718092620.197010,,,,-4.871809483,-4.875412941,17835.000000000,1718092620.197010279
1718092620.198017,,,,-4.911476135,-4.910583973,17836.000000000,1718092620.198017359
1718092620.199024,,,,-4.849812031,-4.848800182,17837.000000000,1718092620.199024439
1718092620.200032,,,,-4.708453655,-4.708884239,17838.000000000,1718092620.200031519
1718092620.200942,239.334701538,3620.000000000,1718092620.200941801,,,,
1718092620.201039,,,,-4.675782681,-4.679193974,17839.000000000,1718092620.201038599
1718092620.202046,,,,-4.673763275,-4.675996780,17840.000000000,1718092620.202045679
1718092620.203053,,,,-4.552742958,-4.556322575,17841.000000000,1718092620.203052759
1718092620.204060,,,,-4.495045662,-4.498264790,17842.000000000,1718092620.204059839
1718092620.205067,,,,-4.575774193,-4.576348305,17843.000000000,1718092620.205066919
1718092620.206074,,,,-4.637678623,-4.637916565,17844.000000000,1718092620.206073999
1718092620.207081,,,,-4.614791870,-4.616063595,17845.000000000,1718092620.207081079
1718092620.208088,,,,-4.697395325,-4.701888084,17846.000000000,1718092620.208088160
1718092620.209095,,,,-4.822333813,-4.824975967,17847.000000000,1718092620.209095240
1718092620.210102,,,,-4.793365002,-4.793482780,17848.000000000,1718092620.210102320
1718092620.210329,239.125946045,3621.000000000,1718092620.210328817,,,,
1718092620.211109,,,,-4.668378353,-4.670347214,17849.000000000,1718092620.211109400
1718092620.212116,,,,-4.543848038,-4.546730518,17850.000000000,1718092620.212116480
1718092620.213124,,,,-4.369049549,-4.372244358,17851.000000000,1718092620.213123560
1718092620.214131,,,,-4.231777668,-4.235645771,17852.000000000,1718092620.214130640
1718092620.215138,,,,-4.130351067,-4.131117821,17853.000000000,1718092620.215137720
1718092620.215329,238.836853027,3622.000000000,1718092620.215328932,,,,
1718092620.216145,,,,-4.076571941,-4.078829288,17854.000000000,1718092620.216144800
1718092620.217152,,,,-3.966442347,-3.968892097,17855.000000000,1718092620.217151880
1718092620.218159,,,,-4.000195503,-4.003270149,17856.000000000,1718092620.218158960
1718092620.219166,,,,-4.265506744,-4.267187119,17857.000000000,1718092620.219166040
1718092620.220173,,,,-4.528702736,-4.528868675,17858.000000000,1718092620.220173120
1718092620.220329,238.531692505,3623.000000000,1718092620.220328808,,,,
1718092620.221180,,,,-4.693236351,-4.694675922,17859.000000000,1718092620.221180201
1718092620.222187,,,,-4.850148678,-4.853271484,17860.000000000,1718092620.222187281
1718092620.223194,,,,-4.880175591,-4.883274078,17861.000000000,1718092620.223194361
1718092620.224201,,,,-4.796682358,-4.798290730,17862.000000000,1718092620.224201441
1718092620.225209,,,,-4.783291817,-4.783505917,17863.000000000,1718092620.225208521
1718092620.226216,,,,-4.793413162,-4.796728134,17864.000000000,1718092620.226215601
1718092620.227223,,,,-4.804062843,-4.807786942,17865.000000000,1718092620.227222681
1718092620.228230,,,,-4.794639111,-4.796968460,17866.000000000,1718092620.228229761
1718092620.229237,,,,-4.742783546,-4.744872570,17867.000000000,1718092620.229236841
1718092620.230244,,,,-4.659459114,-4.661331654,17868.000000000,1718092620.230243921
1718092620.230329,237.696487427,3625.000000000,1718092620.230328798,,,,
1718092620.231251,,,,-4.514470577,-4.513482571,17869.000000000,1718092620.231251001
1718092620.232258,,,,-4.275772095,-4.274327278,17870.000000000,1718092620.232258081
1718092620.233265,,,,-4.089265347,-4.089455605,17871.000000000,1718092620.233265162
1718092620.234272,,,,-3.935069561,-3.935595989,17872.000000000,1718092620.234272242
1718092620.235279,,,,-3.832897186,-3.833111048,17873.000000000,1718092620.235279322
1718092620.235329,237.278823853,3626.000000000,1718092620.235328913,,,,
1718092620.236286,,,,-3.901532888,-3.903093100,17874.000000000,1718092620.236286402
1718092620.237293,,,,-4.061643124,-4.063371658,17875.000000000,1718092620.237293482
1718092620.238301,,,,-4.238869667,-4.241463661,17876.000000000,1718092620.238300562
1718092620.239308,,,,-4.370948792,-4.375321388,17877.000000000,1718092620.239307642
1718092620.240315,,,,-4.526731491,-4.527858734,17878.000000000,1718092620.240314722
1718092620.240329,236.877212524,3627.000000000,1718092620.240328789,,,,
1718092620.241322,,,,-4.733335972,-4.735448837,17879.000000000,1718092620.241321802
1718092620.242329,,,,-4.876641273,-4.878466129,17880.000000000,1718092620.242328882
1718092620.243336,,,,-4.949147701,-4.949962616,17881.000000000,1718092620.243335962
1718092620.244343,,,,-4.875751972,-4.877287865,17882.000000000,1718092620.244343042
1718092620.245329,236.604125977,3628.000000000,1718092620.245328903,,,,
1718092620.245350,,,,-4.879213810,-4.880341053,17883.000000000,1718092620.245350122
1718092620.246357,,,,-4.804784298,-4.804877758,17884.000000000,1718092620.246357203
1718092620.247364,,,,-4.706963062,-4.705518246,17885.000000000,1718092620.247364283
1718092620.248371,,,,-4.718382359,-4.721096516,17886.000000000,1718092620.248371363
1718092620.249378,,,,-4.781657219,-4.784154892,17887.000000000,1718092620.249378443
1718092620.250329,236.363113403,3629.000000000,1718092620.250328779,,,,
1718092620.250386,,,,-4.801130295,-4.802810669,17888.000000000,1718092620.250385523
1718092620.251393,,,,-4.774445057,-4.776437759,17889.000000000,1718092620.251392603
1718092620.252400,,,,-4.715665817,-4.720471382,17890.000000000,1718092620.252399683
1718092620.253407,,,,-4.621138573,-4.624718189,17891.000000000,1718092620.253406763
1718092620.254414,,,,-4.452445984,-4.453837872,17892.000000000,1718092620.254413843
1718092620.255329,236.138198853,3630.000000000,1718092620.255328894,,,,
1718092620.255421,,,,-4.234422207,-4.237689495,17893.000000000,1718092620.255420923
1718092620.256428,,,,-4.122345448,-4.121789932,17894.000000000,1718092620.256428003
1718092620.257435,,,,-4.154247284,-4.152273178,17895.000000000,1718092620.257435083
1718092620.258442,,,,-4.261419773,-4.259205818,17896.000000000,1718092620.258442163
1718092620.259449,,,,-4.428910255,-4.428379059,17897.000000000,1718092620.259449244
1718092620.260329,235.929321289,3631.000000000,1718092620.260328770,,,,
1718092620.260456,,,,-4.661141872,-4.661499977,17898.000000000,1718092620.260456324
1718092620.261463,,,,-4.678330898,-4.679770947,17899.000000000,1718092620.261463404
1718092620.262470,,,,-4.615056515,-4.616447926,17900.000000000,1718092620.262470484
1718092620.263478,,,,-4.575509548,-4.576636791,17901.000000000,1718092620.263477564
1718092620.264485,,,,-4.636716843,-4.639863491,17902.000000000,1718092620.264484644
1718092620.265329,235.784713745,3632.000000000,1718092620.265328884,,,,
1718092620.265492,,,,-4.763578892,-4.764706135,17903.000000000,1718092620.265491724
1718092620.266499,,,,-4.865775108,-4.866085052,17904.000000000,1718092620.266498804
1718092620.267506,,,,-4.856495380,-4.856541157,17905.000000000,1718092620.267505884
1718092620.268513,,,,-4.694077492,-4.691695213,17906.000000000,1718092620.268512964
1718092620.269520,,,,-4.576543331,-4.575771332,17907.000000000,1718092620.269520044
1718092620.270329,235.656188965,3633.000000000,1718092620.270328760,,,,
1718092620.270527,,,,-4.511754036,-4.515742302,17908.000000000,1718092620.270527124
1718092620.271534,,,,-4.406865120,-4.407680035,17909.000000000,1718092620.271534204
1718092620.272541,,,,-4.403571606,-4.403544903,17910.000000000,1718092620.272541285
1718092620.273548,,,,-4.502474308,-4.503746033,17911.000000000,1718092620.273548365
1718092620.274555,,,,-4.600607872,-4.602360249,17912.000000000,1718092620.274555445
1718092620.275329,235.495483398,3634.000000000,1718092620.275328875,,,,
1718092620.275563,,,,-4.658473492,-4.660875320,17913.000000000,1718092620.275562525
1718092620.276570,,,,-4.726580143,-4.728284836,17914.000000000,1718092620.276569605
1718092620.277577,,,,-4.790720463,-4.792425156,17915.000000000,1718092620.277576685
1718092620.278584,,,,-4.608445168,-4.609885216,17916.000000000,1718092620.278583765
1718092620.279591,,,,-4.546107769,-4.548990250,17917.000000000,1718092620.279590845
1718092620.280329,235.334808350,3635.000000000,1718092620.280328751,,,,
1718092620.280598,,,,-4.583490849,-4.584907055,17918.000000000,1718092620.280597925
1718092620.281605,,,,-4.534352303,-4.538172245,17919.000000000,1718092620.281605005
1718092620.284626,,,,-4.133476257,-4.134315014,17922.000000000,1718092620.284626245
1718092620.285329,235.190200806,3636.000000000,1718092620.285328865,,,,
1718092620.285633,,,,-4.132562637,-4.133569717,17923.000000000,1718092620.285633326
1718092620.286640,,,,-4.193216801,-4.193791389,17924.000000000,1718092620.286640406
1718092620.287647,,,,-4.325079441,-4.328875065,17925.000000000,1718092620.287647486
1718092620.288655,,,,-4.526971817,-4.530623436,17926.000000000,1718092620.288654566
1718092620.289662,,,,-4.852384567,-4.855002403,17927.000000000,1718092620.289661646
1718092620.290329,234.997344971,3637.000000000,1718092620.290328741,,,,
1718092620.290669,,,,-4.970135212,-4.969026566,17928.000000000,1718092620.290668726
1718092620.291676,,,,-4.925948620,-4.924359322,17929.000000000,1718092620.291675806
1718092620.292683,,,,-4.827574730,-4.828629971,17930.000000000,1718092620.292682886
1718092620.293690,,,,-4.580029011,-4.580002785,17931.000000000,1718092620.293689966
1718092620.294697,,,,-4.375660419,-4.374239922,17932.000000000,1718092620.294697046
1718092620.295329,234.804519653,3638.000000000,1718092620.295328856,,,,
1718092620.295704,,,,-4.253414154,-4.252594471,17933.000000000,1718092620.295704126
1718092620.296711,,,,-4.162396908,-4.162009716,17934.000000000,1718092620.296711206
1718092620.297718,,,,-4.227114201,-4.229227066,17935.000000000,1718092620.297718287
1718092620.298725,,,,-4.447421551,-4.451890469,17936.000000000,1718092620.298725367
1718092620.299732,,,,-4.248942852,-4.250166416,17937.000000000,1718092620.299732447
1718092620.300329,234.595626831,3639.000000000,1718092620.300328732,,,,
1718092620.300740,,,,-4.058710098,-4.058996201,17938.000000000,1718092620.300739527
1718092620.301747,,,,-4.171652317,-4.171866417,17939.000000000,1718092620.301746607
1718092620.302754,,,,-4.397417068,-4.397631168,17940.000000000,1718092620.302753687
1718092620.303761,,,,-4.488963604,-4.490067005,17941.000000000,1718092620.303760767
1718092620.304768,,,,-4.510792255,-4.510117054,17942.000000000,1718092620.304767847
1718092620.305329,234.450958252,3640.000000000,1718092620.305328846,,,,
1718092620.305775,,,,-4.705881596,-4.705277920,17943.000000000,1718092620.305774927
1718092620.306782,,,,-4.975063324,-4.974532127,17944.000000000,1718092620.306782007
1718092620.307789,,,,-5.104305267,-5.105985641,17945.000000000,1718092620.307789087
1718092620.308796,,,,-5.184480667,-5.187146664,17946.000000000,1718092620.308796167
1718092620.309803,,,,-5.183927536,-5.186713696,17947.000000000,1718092620.309803247
1718092620.310810,,,,-5.019346237,-5.021098614,17948.000000000,1718092620.310810328
1718092620.311817,,,,-4.834594727,-4.836659431,17949.000000000,1718092620.311817408
1718092620.312824,,,,-4.732013702,-4.732756138,17950.000000000,1718092620.312824488
1718092620.313832,,,,-4.585774899,-4.587647438,17951.000000000,1718092620.313831568
1718092620.314839,,,,-4.410038471,-4.414123058,17952.000000000,1718092620.314838648
1718092620.315157,234.322402954,3641.000000000,1718092620.315156937,,,,
1718092620.315846,,,,-4.230551720,-4.231174469,17953.000000000,1718092620.315845728
1718092620.316853,,,,-4.150689125,-4.150614738,17954.000000000,1718092620.316852808
1718092620.317860,,,,-4.350057602,-4.352963924,17955.000000000,1718092620.317859888
1718092620.318867,,,,-4.447445393,-4.450111866,17956.000000000,1718092620.318866968
1718092620.319874,,,,-4.370299339,-4.372148037,17957.000000000,1718092620.319874048
1718092620.320157,234.290267944,3642.000000000,1718092620.320157051,,,,
1718092620.320881,,,,-4.491896629,-4.491124630,17958.000000000,1718092620.320881128
1718092620.321888,,,,-4.784445763,-4.784467697,17959.000000000,1718092620.321888208
1718092620.322895,,,,-4.728359222,-4.729005814,17960.000000000,1718092620.322895288
1718092620.323902,,,,-4.515720844,-4.518074036,17961.000000000,1718092620.323902369
1718092620.324909,,,,-4.398378849,-4.406862736,17962.000000000,1718092620.324909449
1718092620.325157,234.322402954,3643.000000000,1718092620.325156927,,,,
1718092620.325917,,,,-4.500382900,-4.505236626,17963.000000000,1718092620.325916529
1718092620.326924,,,,-4.579908848,-4.581637383,17964.000000000,1718092620.326923609
1718092620.327931,,,,-4.649963379,-4.653590679,17965.000000000,1718092620.327930689
1718092620.328938,,,,-4.734177113,-4.736674786,17966.000000000,1718092620.328937769
1718092620.329945,,,,-4.732686520,-4.732587814,17967.000000000,1718092620.329944849
1718092620.330952,,,,-4.640899658,-4.641210079,17968.000000000,1718092620.330951929
1718092620.331959,,,,-4.575028896,-4.574184895,17969.000000000,1718092620.331959009
1718092620.332966,,,,-4.396960258,-4.397631168,17970.000000000,1718092620.332966089
1718092620.333973,,,,-4.231681824,-4.232160091,17971.000000000,1718092620.333973169
1718092620.334980,,,,-4.220574856,-4.222183228,17972.000000000,1718092620.334980249
1718092620.335987,,,,-4.282046795,-4.282380581,17973.000000000,1718092620.335987329
1718092620.336994,,,,-4.310871124,-4.311133385,17974.000000000,1718092620.336994410
1718092620.338001,,,,-4.324213982,-4.327889442,17975.000000000,1718092620.338001490
1718092620.339009,,,,-4.351980686,-4.355223656,17976.000000000,1718092620.339008570
1718092620.340016,,,,-4.436050415,-4.439509869,17977.000000000,1718092620.340015650
1718092620.341023,,,,-4.488531113,-4.491557598,17978.000000000,1718092620.341022730
1718092620.342030,,,,-4.507186413,-4.509684086,17979.000000000,1718092620.342029810
1718092620.343037,,,,-4.583443165,-4.584137440,17980.000000000,1718092620.343036890
1718092620.344044,,,,-4.797692299,-4.796944618,17981.000000000,1718092620.344043970
1718092620.345051,,,,-4.987107754,-4.988379478,17982.000000000,1718092620.345051050
1718092620.346058,,,,-5.065936565,-5.067088127,17983.000000000,1718092620.346058130
1718092620.347065,,,,-4.865198135,-4.863873482,17984.000000000,1718092620.347065210
1718092620.348072,,,,-4.918736458,-4.918373108,17985.000000000,1718092620.348072290
1718092620.349079,,,,-4.897412300,-4.899934292,17986.000000000,1718092620.349079370
1718092620.350086,,,,-4.736124516,-4.739752293,17987.000000000,1718092620.350086451
1718092620.351094,,,,-4.596665382,-4.598441601,17988.000000000,1718092620.351093531
1718092620.352101,,,,-4.436507225,-4.437009335,17989.000000000,1718092620.352100611
1718092620.353108,,,,-4.244567394,-4.244011879,17990.000000000,1718092620.353107691
1718092620.354115,,,,-4.158502102,-4.158644199,17991.000000000,1718092620.354114771
1718092620.355122,,,,-4.290965557,-4.292814255,17992.000000000,1718092620.355121851
1718092620.356129,,,,-4.336065769,-4.338034630,17993.000000000,1718092620.356128931
1718092620.357136,,,,-4.436098576,-4.438139439,17994.000000000,1718092620.357136011
1718092620.358143,,,,-4.602483273,-4.605389595,17995.000000000,1718092620.358143091
1718092620.359150,,,,-4.773891926,-4.779010296,17996.000000000,1718092620.359150171
1718092620.360157,,,,-4.996026993,-5.000375748,17997.000000000,1718092620.360157251
1718092620.361164,,,,-4.917558193,-4.919888020,17998.000000000,1718092620.361164331
1718092620.362171,,,,-4.675013542,-4.676717758,17999.000000000,1718092620.362171412
1718092620.363178,,,,-4.474058628,-4.475522518,18000.000000000,1718092620.363178492
1718092620.364186,,,,-4.288128853,-4.294184685,18001.000000000,1718092620.364185572
1718092620.365157,234.242050171,3651.000000000,1718092620.365156889,,,,
1718092620.365193,,,,-4.199395180,-4.201676846,18002.000000000,1718092620.365192652
1718092620.366200,,,,-4.140664101,-4.139844418,18003.000000000,1718092620.366199732
1718092620.367207,,,,-4.070033073,-4.070799828,18004.000000000,1718092620.367206812
1718092620.368214,,,,-4.077004910,-4.077555180,18005.000000000,1718092620.368213892
1718092620.369221,,,,-4.378184795,-4.379985332,18006.000000000,1718092620.369220972
1718092620.370157,234.209915161,3652.000000000,1718092620.370157003,,,,
1718092620.370228,,,,-4.847215652,-4.849016190,18007.000000000,1718092620.370228052
1718092620.371235,,,,-5.059397697,-5.062929153,18008.000000000,1718092620.371235132
1718092620.372242,,,,-4.988694191,-4.989293098,18009.000000000,1718092620.372242212
1718092620.373249,,,,-4.912293434,-4.911978722,18010.000000000,1718092620.373249292
1718092620.374256,,,,-4.929626942,-4.930802345,18011.000000000,1718092620.374256372
1718092620.375157,234.225982666,3653.000000000,1718092620.375156879,,,,
1718092620.375263,,,,-4.887940407,-4.887361050,18012.000000000,1718092620.375263453
1718092620.376271,,,,-4.760934353,-4.761340618,18013.000000000,1718092620.376270533
1718092620.377278,,,,-4.585125923,-4.582983494,18014.000000000,1718092620.377277613
1718092620.378285,,,,-4.487112522,-4.487903595,18015.000000000,1718092620.378284693
1718092620.379292,,,,-4.539063931,-4.540768623,18016.000000000,1718092620.379291773
1718092620.380157,234.290267944,3654.000000000,1718092620.380156994,,,,
1718092620.380299,,,,-4.571182251,-4.573511600,18017.000000000,1718092620.380298853
1718092620.381306,,,,-4.599309921,-4.601999760,18018.000000000,1718092620.381305933
1718092620.382313,,,,-4.542117119,-4.544374466,18019.000000000,1718092620.382313013
1718092620.383320,,,,-4.428982258,-4.429508686,18020.000000000,1718092620.383320093
1718092620.384327,,,,-4.398114204,-4.400131226,18021.000000000,1718092620.384327173
1718092620.385157,234.274185181,3655.000000000,1718092620.385156870,,,,
1718092620.385334,,,,-4.260867119,-4.262523174,18022.000000000,1718092620.385334253
1718092620.386341,,,,-4.081140041,-4.086282253,18023.000000000,1718092620.386341333
1718092620.387348,,,,-3.989329100,-3.993052959,18024.000000000,1718092620.387348413
1718092620.388355,,,,-4.121191502,-4.122463226,18025.000000000,1718092620.388355494
1718092620.389363,,,,-4.325824738,-4.324667931,18026.000000000,1718092620.389362574
1718092620.390157,234.386688232,3656.000000000,1718092620.390156984,,,,
1718092620.390370,,,,-4.498026848,-4.498433113,18027.000000000,1718092620.390369654
1718092620.391377,,,,-4.614960194,-4.616447926,18028.000000000,1718092620.391376734
1718092620.392384,,,,-4.882050514,-4.882456779,18029.000000000,1718092620.392383814
1718092620.393391,,,,-5.146520615,-5.148056507,18030.000000000,1718092620.393390894
1718092620.394398,,,,-5.180850506,-5.182482719,18031.000000000,1718092620.394397974
1718092620.395157,234.434890747,3657.000000000,1718092620.395156860,,,,
1718092620.395405,,,,-5.110363483,-5.113702774,18032.000000000,1718092620.395405054
1718092620.396412,,,,-4.934675217,-4.936716080,18033.000000000,1718092620.396412134
1718092620.397419,,,,-4.803870678,-4.807233810,18034.000000000,1718092620.397419214
1718092620.398426,,,,-4.673883438,-4.676549435,18035.000000000,1718092620.398426294
1718092620.399433,,,,-4.474467278,-4.474560738,18036.000000000,1718092620.399433374
1718092620.400157,234.467025757,3658.000000000,1718092620.400156975,,,,
1718092620.400440,,,,-4.334286690,-4.334813118,18037.000000000,1718092620.400440454
1718092620.401448,,,,-4.261924744,-4.261417389,18038.000000000,1718092620.401447535
1718092620.402455,,,,-4.249567986,-4.252834797,18039.000000000,1718092620.402454615
1718092620.403462,,,,-4.285484314,-4.287934303,18040.000000000,1718092620.403461695
1718092620.404469,,,,-4.360298634,-4.361258030,18041.000000000,1718092620.404468775
1718092620.405157,234.563446045,3659.000000000,1718092620.405156851,,,,
1718092620.405476,,,,-4.361813068,-4.363950253,18042.000000000,1718092620.405475855
1718092620.406483,,,,-4.416938305,-4.421166897,18043.000000000,1718092620.406482935
1718092620.407490,,,,-4.543295383,-4.546298027,18044.000000000,1718092620.407490015
1718092620.408497,,,,-4.559834957,-4.564400196,18045.000000000,1718092620.408497095
1718092620.409504,,,,-4.438526630,-4.440880299,18046.000000000,1718092620.409504175
1718092620.410157,234.515243530,3660.000000000,1718092620.410156965,,,,
1718092620.410511,,,,-4.522163391,-4.524012089,18047.000000000,1718092620.410511255
1718092620.411518,,,,-4.793316841,-4.796487808,18048.000000000,1718092620.411518335
1718092620.412525,,,,-4.848946571,-4.850170135,18049.000000000,1718092620.412525415
1718092620.413532,,,,-4.733696461,-4.737107754,18050.000000000,1718092620.413532495
1718092620.414540,,,,-4.706987381,-4.710013866,18051.000000000,1718092620.414539576
1718092620.415547,,,,-4.793268681,-4.793867588,18052.000000000,1718092620.415546656
1718092620.416554,,,,-4.834570408,-4.834207535,18053.000000000,1718092620.416553736
1718092620.417561,,,,-4.758097649,-4.758407593,18054.000000000,1718092620.417560816
1718092620.418568,,,,-4.731725216,-4.730616570,18055.000000000,1718092620.418567896
1718092620.419575,,,,-4.698524952,-4.701190948,18056.000000000,1718092620.419574976
1718092620.420582,,,,-4.659170628,-4.662485600,18057.000000000,1718092620.420582056
1718092620.421589,,,,-4.637341976,-4.638613701,18058.000000000,1718092620.421589136
1718092620.422596,,,,-4.615729332,-4.615270138,18059.000000000,1718092620.422596216
1718092620.423603,,,,-4.490814686,-4.493192196,18060.000000000,1718092620.423603296
1718092620.424610,,,,-4.277190685,-4.279159546,18061.000000000,1718092620.424610376
1718092620.425617,,,,-4.193096638,-4.194103718,18062.000000000,1718092620.425617456
1718092620.426625,,,,-4.259424686,-4.258869171,18063.000000000,1718092620.426624537
1718092620.427632,,,,-4.386070251,-4.385899544,18064.000000000,1718092620.427631617
1718092620.428639,,,,-4.512259007,-4.513891220,18065.000000000,1718092620.428638697
1718092620.429646,,,,-4.578634739,-4.581108570,18066.000000000,1718092620.429645777
1718092620.430653,,,,-4.700327873,-4.704172134,18067.000000000,1718092620.430652857
1718092620.431660,,,,-4.847840786,-4.850843430,18068.000000000,1718092620.431659937
1718092620.432667,,,,-4.784037113,-4.787136078,18069.000000000,1718092620.432667017
1718092620.433674,,,,-4.580317497,-4.584546566,18070.000000000,1718092620.433674097
1718092620.434681,,,,-4.469851494,-4.470017433,18071.000000000,1718092620.434681177
1718092620.435688,,,,-4.531731606,-4.531055927,18072.000000000,1718092620.435688257
1718092620.436695,,,,-4.663714409,-4.664914131,18073.000000000,1718092620.436695337
1718092620.437702,,,,-4.635250568,-4.636209488,18074.000000000,1718092620.437702417
1718092620.438709,,,,-4.418644905,-4.419676304,18075.000000000,1718092620.438709497
1718092620.439717,,,,-4.209612370,-4.211725712,18076.000000000,1718092620.439716578
1718092620.440724,,,,-4.193745613,-4.196507931,18077.000000000,1718092620.440723658
1718092620.441731,,,,-4.362462521,-4.366114140,18078.000000000,1718092620.441730738
1718092620.442738,,,,-4.589597225,-4.593609810,18079.000000000,1718092620.442737818
1718092620.443745,,,,-4.765550137,-4.769225597,18080.000000000,1718092620.443744898
1718092620.444752,,,,-4.835099220,-4.836250782,18081.000000000,1718092620.444751978
1718092620.445759,,,,-4.766391277,-4.768408298,18082.000000000,1718092620.445759058
1718092620.446766,,,,-4.771343708,-4.772952080,18083.000000000,1718092620.446766138
1718092620.447773,,,,-4.798485756,-4.800117970,18084.000000000,1718092620.447773218
1718092620.448780,,,,-4.730835438,-4.732804298,18085.000000000,1718092620.448780298
1718092620.449787,,,,-4.762424946,-4.762590408,18086.000000000,1718092620.449787378
1718092620.450794,,,,-4.836181164,-4.833654404,18087.000000000,1718092620.450794458
1718092620.451802,,,,-4.917414188,-4.917171478,18088.000000000,1718092620.451801538
1718092620.452809,,,,-4.899383545,-4.899958134,18089.000000000,1718092620.452808619
1718092620.453816,,,,-4.846831322,-4.848415375,18090.000000000,1718092620.453815699
1718092620.454823,,,,-4.854211807,-4.857767105,18091.000000000,1718092620.454822779
1718092620.455830,,,,-4.831902027,-4.832909107,18092.000000000,1718092620.455829859
1718092620.456837,,,,-4.738504410,-4.741218567,18093.000000000,1718092620.456836939
1718092620.457844,,,,-4.565364361,-4.568487167,18094.000000000,1718092620.457844019
1718092620.458851,,,,-4.338061333,-4.339741707,18095.000000000,1718092620.458851099
1718092620.459303,232.473922729,3671.000000000,1718092620.459303141,,,,
1718092620.459858,,,,-4.149751663,-4.150878906,18096.000000000,1718092620.459858179
1718092620.460865,,,,-3.978438616,-3.980864286,18097.000000000,1718092620.460865259
1718092620.461872,,,,-3.909538507,-3.909920692,18098.000000000,1718092620.461872339
1718092620.462879,,,,-3.842224836,-3.842703342,18099.000000000,1718092620.462879419
1718092620.463886,,,,-3.848763943,-3.849290371,18100.000000000,1718092620.463886499
1718092620.464303,232.184570313,3672.000000000,1718092620.464303255,,,,
1718092620.464894,,,,-4.129437447,-4.130997658,18101.000000000,1718092620.464893579
1718092620.465901,,,,-4.469779491,-4.472229004,18102.000000000,1718092620.465900660
1718092620.466908,,,,-4.758049488,-4.760186672,18103.000000000,1718092620.466907740
1718092620.467915,,,,-4.885320187,-4.886351109,18104.000000000,1718092620.467914820
1718092620.468922,,,,-4.873564243,-4.875605106,18105.000000000,1718092620.468921900
1718092620.469303,232.039855957,3673.000000000,1718092620.469303131,,,,
1718092620.469929,,,,-4.909625053,-4.910391808,18106.000000000,1718092620.469928980
1718092620.470936,,,,-4.894647598,-4.896159649,18107.000000000,1718092620.470936060
1718092620.471943,,,,-4.794470787,-4.799036026,18108.000000000,1718092620.471943140
1718092620.472950,,,,-4.658401489,-4.660923004,18109.000000000,1718092620.472950220
1718092620.473957,,,,-4.585774899,-4.588777542,18110.000000000,1718092620.473957300
1718092620.474303,231.846939087,3674.000000000,1718092620.474303246,,,,
1718092620.474964,,,,-4.533414364,-4.535647869,18111.000000000,1718092620.474964380
1718092620.475971,,,,-4.417418957,-4.416887760,18112.000000000,1718092620.475971460
1718092620.476979,,,,-4.259809017,-4.260864258,18113.000000000,1718092620.476978540
1718092620.477986,,,,-4.258102417,-4.261177063,18114.000000000,1718092620.477985620
1718092620.478993,,,,-4.231898308,-4.235405445,18115.000000000,1718092620.478992701
1718092620.479303,231.863006592,3675.000000000,1718092620.479303122,,,,
1718092620.480000,,,,-4.219348907,-4.224394798,18116.000000000,1718092620.479999781
1718092620.481007,,,,-4.359673500,-4.361065388,18117.000000000,1718092620.481006861
1718092620.482014,,,,-4.594164848,-4.595460892,18118.000000000,1718092620.482013941
1718092620.483021,,,,-4.947080135,-4.950251102,18119.000000000,1718092620.483021021
1718092620.484028,,,,-4.972058296,-4.973978996,18120.000000000,1718092620.484028101
1718092620.484303,231.798706055,3676.000000000,1718092620.484303236,,,,
1718092620.485035,,,,-4.808438301,-4.813868999,18121.000000000,1718092620.485035181
1718092620.486042,,,,-4.791874409,-4.795454025,18122.000000000,1718092620.486042261
1718092620.487049,,,,-4.877242565,-4.878345966,18123.000000000,1718092620.487049341
1718092620.488056,,,,-4.869885921,-4.872143269,18124.000000000,1718092620.488056421
1718092620.489064,,,,-4.766102791,-4.766388893,18125.000000000,1718092620.489063501
1718092620.489303,231.895156860,3677.000000000,1718092620.489303112,,,,
1718092620.490071,,,,-4.743096352,-4.747396946,18126.000000000,1718092620.490070581
1718092620.491078,,,,-4.846807003,-4.849112511,18127.000000000,1718092620.491077662
1718092620.492085,,,,-4.867890835,-4.867046833,18128.000000000,1718092620.492084742
1718092620.493092,,,,-4.789542675,-4.791318893,18129.000000000,1718092620.493091822
1718092620.494099,,,,-4.670229435,-4.670731544,18130.000000000,1718092620.494098902
1718092620.494303,232.055923462,3678.000000000,1718092620.494303226,,,,
1718092620.495106,,,,-4.638976574,-4.640007973,18131.000000000,1718092620.495105982
1718092620.496113,,,,-4.670469761,-4.670659542,18132.000000000,1718092620.496113062
1718092620.497120,,,,-4.593443871,-4.596013546,18133.000000000,1718092620.497120142
1718092620.498127,,,,-4.504373550,-4.505140305,18134.000000000,1718092620.498127222
1718092620.499134,,,,-4.312746525,-4.314523220,18135.000000000,1718092620.499134302
1718092620.499303,232.072006226,3679.000000000,1718092620.499303102,,,,
1718092620.500141,,,,-4.152564526,-4.154509068,18136.000000000,1718092620.500141382
1718092620.501148,,,,-4.128547668,-4.130853176,18137.000000000,1718092620.501148462
1718092620.502156,,,,-4.165714264,-4.167995930,18138.000000000,1718092620.502155542
1718092620.503163,,,,-4.316881657,-4.319715977,18139.000000000,1718092620.503162622
1718092620.504170,,,,-4.528125763,-4.532354355,18140.000000000,1718092620.504169703
1718092620.504303,232.023773193,3680.000000000,1718092620.504303217,,,,
1718092620.505177,,,,-4.728239059,-4.729630947,18141.000000000,1718092620.505176783
1718092620.506184,,,,-4.866832733,-4.867960453,18142.000000000,1718092620.506183863
1718092620.507191,,,,-4.833897114,-4.834904671,18143.000000000,1718092620.507190943
1718092620.508198,,,,-4.787715435,-4.791511536,18144.000000000,1718092620.508198023
1718092620.509205,,,,-4.858274460,-4.859305859,18145.000000000,1718092620.509205103
1718092620.510212,,,,-4.862361431,-4.864113808,18146.000000000,1718092620.510212183
1718092620.511219,,,,-4.669916630,-4.673352242,18147.000000000,1718092620.511219263
1718092620.512226,,,,-4.442204952,-4.443717003,18148.000000000,1718092620.512226343
1718092620.513233,,,,-4.339359283,-4.340847492,18149.000000000,1718092620.513233423
1718092620.514055,231.991622925,3681.000000000,1718092620.514054537,,,,
1718092620.514241,,,,-4.326642036,-4.329524517,18150.000000000,1718092620.514240503
1718092620.515248,,,,-4.312914848,-4.313465118,18151.000000000,1718092620.515247583
1718092620.516255,,,,-4.348110199,-4.349165440,18152.000000000,1718092620.516254663
1718092620.517262,,,,-4.487473011,-4.489874840,18153.000000000,1718092620.517261744
1718092620.518269,,,,-4.639673710,-4.640224457,18154.000000000,1718092620.518268824
1718092620.519055,231.975540161,3682.000000000,1718092620.519054651,,,,
1718092620.519276,,,,-4.618927002,-4.621111870,18155.000000000,1718092620.519275904
1718092620.520283,,,,-4.469563007,-4.471844196,18156.000000000,1718092620.520282984
1718092620.521290,,,,-4.459706306,-4.459559441,18157.000000000,1718092620.521290064
1718092620.522297,,,,-4.600319386,-4.602047920,18158.000000000,1718092620.522297144
1718092620.523304,,,,-4.762593269,-4.764874458,18159.000000000,1718092620.523304224
1718092620.524055,231.895156860,3683.000000000,1718092620.524054527,,,,
1718092620.524311,,,,-4.795865059,-4.798050404,18160.000000000,1718092620.524311304
1718092620.525318,,,,-4.835027218,-4.835938454,18161.000000000,1718092620.525318384
1718092620.526325,,,,-4.698116302,-4.700397968,18162.000000000,1718092620.526325464
1718092620.527333,,,,-4.481775284,-4.482037544,18163.000000000,1718092620.527332544
1718092620.528340,,,,-4.342220306,-4.341664791,18164.000000000,1718092620.528339624
1718092620.529055,231.846939087,3684.000000000,1718092620.529054642,,,,
1718092620.529347,,,,-4.391286850,-4.394529819,18165.000000000,1718092620.529346704
1718092620.530354,,,,-4.501945496,-4.507664680,18166.000000000,1718092620.530353785
1718092620.532368,,,,-4.712829113,-4.713139057,18168.000000000,1718092620.532367945
1718092620.533375,,,,-4.850293159,-4.850891590,18169.000000000,1718092620.533375025
1718092620.534055,231.814773560,3685.000000000,1718092620.534054518,,,,
1718092620.534382,,,,-4.903831482,-4.906256676,18170.000000000,1718092620.534382105
1718092620.535389,,,,-4.929747105,-4.931475639,18171.000000000,1718092620.535389185
1718092620.536396,,,,-4.861255646,-4.861012459,18172.000000000,1718092620.536396265
1718092620.537403,,,,-4.770791054,-4.769538403,18173.000000000,1718092620.537403345
1718092620.538410,,,,-4.581182957,-4.580796242,18174.000000000,1718092620.538410425
1718092620.539055,231.830856323,3686.000000000,1718092620.539054632,,,,
1718092620.539418,,,,-4.402417660,-4.405251980,18175.000000000,1718092620.539417505
1718092620.540425,,,,-4.319838524,-4.325677872,18176.000000000,1718092620.540424585
1718092620.541432,,,,-4.289595604,-4.293102741,18177.000000000,1718092620.541431665
1718092620.542439,,,,-4.275603771,-4.279135227,18178.000000000,1718092620.542438745
1718092620.543446,,,,-4.311904907,-4.314066410,18179.000000000,1718092620.543445826
1718092620.544055,231.911239624,3687.000000000,1718092620.544054508,,,,
1718092620.544453,,,,-4.380973339,-4.383975983,18180.000000000,1718092620.544452906
1718092620.545460,,,,-4.352389336,-4.355584145,18181.000000000,1718092620.545459986
1718092620.546467,,,,-4.489805222,-4.493528843,18182.000000000,1718092620.546467066
1718092620.547474,,,,-4.664387703,-4.665923595,18183.000000000,1718092620.547474146
1718092620.548481,,,,-4.835339546,-4.835865974,18184.000000000,1718092620.548481226
1718092620.549055,231.798706055,3688.000000000,1718092620.549054623,,,,
1718092620.549488,,,,-4.887676239,-4.890197754,18185.000000000,1718092620.549488306
1718092620.550495,,,,-4.783748627,-4.786991596,18186.000000000,1718092620.550495386
1718092620.551502,,,,-4.609094143,-4.612288952,18187.000000000,1718092620.551502466
1718092620.552510,,,,-4.458095551,-4.460593224,18188.000000000,1718092620.552509546
1718092620.553517,,,,-4.512811661,-4.516727924,18189.000000000,1718092620.553516626
1718092620.554524,,,,-4.630538464,-4.635127544,18190.000000000,1718092620.554523706
1718092620.555531,,,,-4.845893383,-4.848487377,18191.000000000,1718092620.555530787
1718092620.556538,,,,-4.982540131,-4.982465267,18192.000000000,1718092620.556537867
1718092620.557545,,,,-4.941647053,-4.940250397,18193.000000000,1718092620.557544947
1718092620.558552,,,,-4.818030357,-4.817306995,18194.000000000,1718092620.558552027
1718092620.559559,,,,-4.681095600,-4.684506893,18195.000000000,1718092620.559559107
1718092620.560566,,,,-4.605512142,-4.607409000,18196.000000000,1718092620.560566187
1718092620.561573,,,,-4.572023869,-4.572213650,18197.000000000,1718092620.561573267
1718092620.562580,,,,-4.540602684,-4.543076515,18198.000000000,1718092620.562580347
1718092620.563587,,,,-4.536227226,-4.538436413,18199.000000000,1718092620.563587427
1718092620.564054,231.750473022,3691.000000000,1718092620.564054489,,,,
1718092620.564595,,,,-4.611450195,-4.614164352,18200.000000000,1718092620.564594507
1718092620.565602,,,,-4.690735817,-4.692873001,18201.000000000,1718092620.565601587
1718092620.566609,,,,-4.686360359,-4.687656403,18202.000000000,1718092620.566608667
1718092620.567616,,,,-4.697803974,-4.701912403,18203.000000000,1718092620.567615747
1718092620.568623,,,,-4.792307377,-4.793458462,18204.000000000,1718092620.568622828
1718092620.569055,231.702239990,3692.000000000,1718092620.569054604,,,,
1718092620.569630,,,,-4.791898727,-4.793314457,18205.000000000,1718092620.569629908
1718092620.570637,,,,-4.734874249,-4.738381863,18206.000000000,1718092620.570636988
1718092620.571644,,,,-4.653040409,-4.654047489,18207.000000000,1718092620.571644068
1718092620.572651,,,,-4.510720253,-4.511991978,18208.000000000,1718092620.572651148
1718092620.573658,,,,-4.394940853,-4.396116734,18209.000000000,1718092620.573658228
1718092620.574054,231.605773926,3693.000000000,1718092620.574054480,,,,
1718092620.574665,,,,-4.376646042,-4.380009651,18210.000000000,1718092620.574665308
1718092620.575672,,,,-4.406167984,-4.409074306,18211.000000000,1718092620.575672388
1718092620.576679,,,,-4.451628685,-4.454342842,18212.000000000,1718092620.576679468
1718092620.577687,,,,-4.579908848,-4.580194950,18213.000000000,1718092620.577686548
1718092620.578694,,,,-4.641741276,-4.644912243,18214.000000000,1718092620.578693628
1718092620.579055,231.348495483,3694.000000000,1718092620.579054594,,,,
1718092620.579701,,,,-4.587072849,-4.590940952,18215.000000000,1718092620.579700708
1718092620.580708,,,,-4.505815983,-4.508914948,18216.000000000,1718092620.580707788
1718092620.581715,,,,-4.370371819,-4.370368958,18217.000000000,1718092620.581714869
1718092620.582722,,,,-4.295917988,-4.297165871,18218.000000000,1718092620.582721949
1718092620.583729,,,,-4.414317608,-4.418354034,18219.000000000,1718092620.583729029
1718092620.584054,230.978668213,3695.000000000,1718092620.584054470,,,,
1718092620.584736,,,,-4.541371822,-4.541201115,18220.000000000,1718092620.584736109
1718092620.585743,,,,-4.537453175,-4.537643433,18221.000000000,1718092620.585743189
1718092620.586750,,,,-4.520841599,-4.523387432,18222.000000000,1718092620.586750269
1718092620.587757,,,,-4.487377167,-4.487927437,18223.000000000,1718092620.587757349
1718092620.588764,,,,-4.535986900,-4.535719872,18224.000000000,1718092620.588764429
1718092620.589055,230.640991211,3696.000000000,1718092620.589054585,,,,
1718092620.589772,,,,-4.688091278,-4.689916134,18225.000000000,1718092620.589771509
1718092620.590779,,,,-4.793076515,-4.796752453,18226.000000000,1718092620.590778589
1718092620.591786,,,,-4.769732952,-4.770043373,18227.000000000,1718092620.591785669
1718092620.592793,,,,-4.690255165,-4.690733433,18228.000000000,1718092620.592792749
1718092620.593800,,,,-4.677609921,-4.675347328,18229.000000000,1718092620.593799829
1718092620.594054,230.206771851,3697.000000000,1718092620.594054461,,,,
1718092620.594807,,,,-4.805385113,-4.805190563,18230.000000000,1718092620.594806910
1718092620.595814,,,,-4.973092079,-4.975541592,18231.000000000,1718092620.595813990
1718092620.596821,,,,-4.977130890,-4.980806828,18232.000000000,1718092620.596821070
1718092620.597828,,,,-4.837575436,-4.840602398,18233.000000000,1718092620.597828150
1718092620.598835,,,,-4.725883007,-4.727635860,18234.000000000,1718092620.598835230
1718092620.599055,229.804702759,3698.000000000,1718092620.599054575,,,,
1718092620.599842,,,,-4.668354034,-4.670130730,18235.000000000,1718092620.599842310
1718092620.600849,,,,-4.644938469,-4.648758888,18236.000000000,1718092620.600849390
1718092620.601856,,,,-4.689293385,-4.690685272,18237.000000000,1718092620.601856470
1718092620.602864,,,,-4.717444897,-4.720062733,18238.000000000,1718092620.602863550
1718092620.603871,,,,-4.709872246,-4.713403702,18239.000000000,1718092620.603870630
1718092620.604054,229.370422363,3699.000000000,1718092620.604054451,,,,
1718092620.604878,,,,-4.639385223,-4.640608788,18240.000000000,1718092620.604877710
1718092620.605885,,,,-4.513124466,-4.513386250,18241.000000000,1718092620.605884790
1718092620.606892,,,,-4.469803333,-4.472733974,18242.000000000,1718092620.606891870
1718092620.607899,,,,-4.526851654,-4.527642250,18243.000000000,1718092620.607898951
1718092620.608906,,,,-4.531804085,-4.535960197,18244.000000000,1718092620.608906031
1718092620.609055,228.936111450,3700.000000000,1718092620.609054565,,,,
1718092620.609913,,,,-4.517788410,-4.518939495,18245.000000000,1718092620.609913111
1718092620.610920,,,,-4.487329006,-4.490836143,18246.000000000,1718092620.610920191
1718092620.611927,,,,-4.488795280,-4.490523815,18247.000000000,1718092620.611927271
1718092620.612934,,,,-4.545146465,-4.547740459,18248.000000000,1718092620.612934351
1718092620.613941,,,,-4.649770737,-4.653470516,18249.000000000,1718092620.613941431
1718092620.614949,,,,-4.720834732,-4.723717213,18250.000000000,1718092620.614948511
1718092620.615956,,,,-4.683427811,-4.686454296,18251.000000000,1718092620.615955591
1718092620.616963,,,,-4.589861870,-4.589162350,18252.000000000,1718092620.616962671
1718092620.617970,,,,-4.522331715,-4.520791054,18253.000000000,1718092620.617969751
1718092620.618977,,,,-4.475981712,-4.476291656,18254.000000000,1718092620.618976831
1718092620.619984,,,,-4.528966904,-4.530431271,18255.000000000,1718092620.619983912
1718092620.620991,,,,-4.551661491,-4.553702354,18256.000000000,1718092620.620990992
1718092620.621998,,,,-4.546588898,-4.550096035,18257.000000000,1718092620.621998072
1718092620.623005,,,,-4.658305168,-4.662101269,18258.000000000,1718092620.623005152
1718092620.624012,,,,-4.778219223,-4.778841972,18259.000000000,1718092620.624012232
1718092620.625019,,,,-4.824882030,-4.824302673,18260.000000000,1718092620.625019312
1718092620.626026,,,,-4.893517971,-4.897049427,18261.000000000,1718092620.626026392
1718092620.627033,,,,-4.888325214,-4.890726566,18262.000000000,1718092620.627033472
1718092620.628041,,,,-4.765501976,-4.767110348,18263.000000000,1718092620.628040552
1718092620.629048,,,,-4.695568085,-4.694964409,18264.000000000,1718092620.629047632
1718092620.630055,,,,-4.621547222,-4.621905327,18265.000000000,1718092620.630054712
1718092620.631062,,,,-4.571951389,-4.575050354,18266.000000000,1718092620.631061792
1718092620.632069,,,,-4.531322956,-4.533508301,18267.000000000,1718092620.632068872
1718092620.633076,,,,-4.542645931,-4.544446945,18268.000000000,1718092620.633075953
1718092620.634083,,,,-4.566854954,-4.570578575,18269.000000000,1718092620.634083033
1718092620.635090,,,,-4.628831387,-4.631233215,18270.000000000,1718092620.635090113
1718092620.636097,,,,-4.683211327,-4.683064461,18271.000000000,1718092620.636097193
1718092620.637104,,,,-4.695519924,-4.696286678,18272.000000000,1718092620.637104273
1718092620.638111,,,,-4.642823219,-4.645224571,18273.000000000,1718092620.638111353
1718092620.639118,,,,-4.607243061,-4.606807709,18274.000000000,1718092620.639118433
1718092620.640126,,,,-4.581399441,-4.584498405,18275.000000000,1718092620.640125513
1718092620.641133,,,,-4.566662788,-4.568799973,18276.000000000,1718092620.641132593
1718092620.642140,,,,-4.526587009,-4.527041435,18277.000000000,1718092620.642139673
1718092620.643147,,,,-4.493242741,-4.494442463,18278.000000000,1718092620.643146753
1718092620.644154,,,,-4.502450466,-4.506462574,18279.000000000,1718092620.644153833
1718092620.645161,,,,-4.480309010,-4.480138302,18280.000000000,1718092620.645160913
1718092620.646168,,,,-4.376453876,-4.377893925,18281.000000000,1718092620.646167994
1718092620.647175,,,,-4.374987602,-4.376883984,18282.000000000,1718092620.647175074
1718092620.648182,,,,-4.366573334,-4.367820740,18283.000000000,1718092620.648182154
1718092620.648361,225.331665039,3709.000000000,1718092620.648361206,,,,
1718092620.649189,,,,-4.348206043,-4.350800037,18284.000000000,1718092620.649189234
1718092620.650196,,,,-4.273127556,-4.274279118,18285.000000000,1718092620.650196314
1718092620.651203,,,,-4.227738857,-4.228794575,18286.000000000,1718092620.651203394
1718092620.652210,,,,-4.406721115,-4.408882141,18287.000000000,1718092620.652210474
1718092620.653218,,,,-4.485333443,-4.488600731,18288.000000000,1718092620.653217554
1718092620.653361,224.961410522,3710.000000000,1718092620.653361320,,,,
1718092620.654225,,,,-4.500310898,-4.501582623,18289.000000000,1718092620.654224634
1718092620.655232,,,,-4.654098034,-4.656018734,18290.000000000,1718092620.655231714
1718092620.656239,,,,-4.877987862,-4.877817154,18291.000000000,1718092620.656238794
1718092620.657246,,,,-4.958667755,-4.957102776,18292.000000000,1718092620.657245874
1718092620.658253,,,,-4.974294186,-4.973738670,18293.000000000,1718092620.658252954
1718092620.658361,224.623336792,3711.000000000,1718092620.658361197,,,,
1718092620.659260,,,,-4.926958084,-4.928806782,18294.000000000,1718092620.659260035
1718092620.660267,,,,-4.700111866,-4.702008247,18295.000000000,1718092620.660267115
1718092620.661274,,,,-4.584404469,-4.585315704,18296.000000000,1718092620.661274195
1718092620.662281,,,,-4.679172516,-4.681573868,18297.000000000,1718092620.662281275
1718092620.663288,,,,-4.764660358,-4.766461372,18298.000000000,1718092620.663288355
1718092620.663361,224.381851196,3712.000000000,1718092620.663361311,,,,
1718092620.664295,,,,-4.815386295,-4.816441536,18299.000000000,1718092620.664295435
1718092620.665303,,,,-4.914673328,-4.914647102,18300.000000000,1718092620.665302515
1718092620.666310,,,,-4.934266567,-4.934552670,18301.000000000,1718092620.666309595
1718092620.667317,,,,-4.830579758,-4.831707001,18302.000000000,1718092620.667316675
1718092620.668324,,,,-4.770959377,-4.771293163,18303.000000000,1718092620.668323755
1718092620.668361,224.204757690,3713.000000000,1718092620.668361187,,,,
1718092620.669331,,,,-4.740043163,-4.743550301,18304.000000000,1718092620.669330835
1718092620.670338,,,,-4.737182140,-4.738069057,18305.000000000,1718092620.670337915
1718092620.671345,,,,-4.634240627,-4.633469105,18306.000000000,1718092620.671344995
1718092620.672352,,,,-4.422082901,-4.422200680,18307.000000000,1718092620.672352076
1718092620.673359,,,,-4.351908684,-4.352771282,18308.000000000,1718092620.673359156
1718092620.673361,224.059829712,3714.000000000,1718092620.673361301,,,,
1718092620.674366,,,,-4.324934959,-4.321711063,18309.000000000,1718092620.674366236
1718092620.675373,,,,-4.262742043,-4.262931824,18310.000000000,1718092620.675373316
1718092620.676380,,,,-4.215646744,-4.216485500,18311.000000000,1718092620.676380396
1718092620.677387,,,,-4.262116909,-4.262186527,18312.000000000,1718092620.677387476
1718092620.678361,223.963241577,3715.000000000,1718092620.678361177,,,,
1718092620.678395,,,,-4.614191055,-4.618515491,18313.000000000,1718092620.678394556
1718092620.679402,,,,-4.757736683,-4.761003971,18314.000000000,1718092620.679401636
1718092620.680409,,,,-4.601906300,-4.604283810,18315.000000000,1718092620.680408716
1718092620.681416,,,,-4.574139118,-4.576661110,18316.000000000,1718092620.681415796
1718092620.682423,,,,-4.602194786,-4.606567383,18317.000000000,1718092620.682422876
1718092620.683361,223.866638184,3716.000000000,1718092620.683361292,,,,
1718092620.683430,,,,-4.694630623,-4.696382999,18318.000000000,1718092620.683429956
1718092620.684437,,,,-4.870703220,-4.871325970,18319.000000000,1718092620.684437037
1718092620.685444,,,,-4.998911858,-5.003957748,18320.000000000,1718092620.685444117
1718092620.686451,,,,-5.105892181,-5.110961914,18321.000000000,1718092620.686451197
1718092620.687458,,,,-5.101348400,-5.105553150,18322.000000000,1718092620.687458277
1718092620.688361,223.882736206,3717.000000000,1718092620.688361168,,,,
1718092620.688465,,,,-5.014249325,-5.015737534,18323.000000000,1718092620.688465357
1718092620.689472,,,,-4.887123108,-4.886952400,18324.000000000,1718092620.689472437
1718092620.690480,,,,-4.748072624,-4.748406887,18325.000000000,1718092620.690479517
1718092620.691487,,,,-4.688764572,-4.691118240,18326.000000000,1718092620.691486597
1718092620.692494,,,,-4.755837917,-4.757734299,18327.000000000,1718092620.692493677
1718092620.693361,223.689529419,3718.000000000,1718092620.693361282,,,,
1718092620.693501,,,,-4.776656628,-4.779539108,18328.000000000,1718092620.693500757
1718092620.694508,,,,-4.688548088,-4.689002514,18329.000000000,1718092620.694507837
1718092620.695515,,,,-4.629721165,-4.634069920,18330.000000000,1718092620.695514917
1718092620.696522,,,,-4.618686199,-4.622410297,18331.000000000,1718092620.696521997
1718092620.697529,,,,-4.640298843,-4.640464783,18332.000000000,1718092620.697529078
1718092620.698361,223.496276855,3719.000000000,1718092620.698361158,,,,
1718092620.698536,,,,-4.613421440,-4.615943432,18333.000000000,1718092620.698536158
1718092620.699543,,,,-4.598925114,-4.604619980,18334.000000000,1718092620.699543238
1718092620.700550,,,,-4.550940037,-4.550673008,18335.000000000,1718092620.700550318
1718092620.701557,,,,-4.524735928,-4.526103973,18336.000000000,1718092620.701557398
1718092620.702564,,,,-4.512475491,-4.514853001,18337.000000000,1718092620.702564478
1718092620.703361,223.206436157,3720.000000000,1718092620.703361273,,,,
1718092620.703572,,,,-4.551661491,-4.553437710,18338.000000000,1718092620.703571558
1718092620.704579,,,,-4.633038521,-4.634093761,18339.000000000,1718092620.704578638
1718092620.705586,,,,-4.696121216,-4.698931217,18340.000000000,1718092620.705585718
1718092620.706593,,,,-4.717276573,-4.719990730,18341.000000000,1718092620.706592798
1718092620.707600,,,,-4.767304897,-4.771245003,18342.000000000,1718092620.707599878
1718092620.708607,,,,-4.805481434,-4.808339596,18343.000000000,1718092620.708606958
1718092620.709614,,,,-4.762496948,-4.762518406,18344.000000000,1718092620.709614038
1718092620.710621,,,,-4.675974846,-4.677270889,18345.000000000,1718092620.710621119
1718092620.711628,,,,-4.601233006,-4.604187489,18346.000000000,1718092620.711628199
1718092620.712635,,,,-4.596737385,-4.595388412,18347.000000000,1718092620.712635279
1718092620.713642,,,,-4.605440140,-4.605029106,18348.000000000,1718092620.713642359
1718092620.714649,,,,-4.534881115,-4.536296844,18349.000000000,1718092620.714649439
1718092620.715657,,,,-4.416457176,-4.415877819,18350.000000000,1718092620.715656519
1718092620.716664,,,,-4.353374958,-4.356305599,18351.000000000,1718092620.716663599
1718092620.717671,,,,-4.365924358,-4.366931438,18352.000000000,1718092620.717670679
1718092620.718678,,,,-4.363063335,-4.362652302,18353.000000000,1718092620.718677759
1718092620.719685,,,,-4.220334530,-4.219250202,18354.000000000,1718092620.719684839
1718092620.720692,,,,-4.122273445,-4.124746799,18355.000000000,1718092620.720691919
1718092620.721699,,,,-4.127057076,-4.131838799,18356.000000000,1718092620.721698999
1718092620.722706,,,,-4.194731236,-4.194536686,18357.000000000,1718092620.722706079
1718092620.723713,,,,-4.346523285,-4.344069004,18358.000000000,1718092620.723713160
1718092620.724720,,,,-4.506873608,-4.509299278,18359.000000000,1718092620.724720240
1718092620.725727,,,,-4.605319977,-4.608034134,18360.000000000,1718092620.725727320
1718092620.726734,,,,-4.661382198,-4.663135052,18361.000000000,1718092620.726734400
1718092620.727741,,,,-4.725714684,-4.726000786,18362.000000000,1718092620.727741480
1718092620.728749,,,,-4.823535919,-4.824134350,18363.000000000,1718092620.728748560
1718092620.729756,,,,-4.795432568,-4.795934677,18364.000000000,1718092620.729755640
1718092620.730763,,,,-4.891210079,-4.892650127,18365.000000000,1718092620.730762720
1718092620.731770,,,,-5.054012775,-5.055043697,18366.000000000,1718092620.731769800
1718092620.732777,,,,-5.095746994,-5.099398613,18367.000000000,1718092620.732776880
1718092620.733784,,,,-4.961360455,-4.964795589,18368.000000000,1718092620.733783960
1718092620.734791,,,,-4.786465168,-4.788698673,18369.000000000,1718092620.734791040
1718092620.735798,,,,-4.698429108,-4.699364185,18370.000000000,1718092620.735798120
1718092620.736805,,,,-4.636283875,-4.638205051,18371.000000000,1718092620.736805201
1718092620.737812,,,,-4.458504200,-4.460737705,18372.000000000,1718092620.737812281
1718092620.738819,,,,-4.412178040,-4.413425922,18373.000000000,1718092620.738819361
1718092620.739826,,,,-4.507426739,-4.507352352,18374.000000000,1718092620.739826441
1718092620.740834,,,,-4.612532139,-4.615077972,18375.000000000,1718092620.740833521
1718092620.741841,,,,-4.708934784,-4.708931923,18376.000000000,1718092620.741840601
1718092620.742848,,,,-4.665180683,-4.664192677,18377.000000000,1718092620.742847681
1718092620.743855,,,,-4.631283760,-4.632050514,18378.000000000,1718092620.743854761
1718092620.744862,,,,-4.750164032,-4.749248028,18379.000000000,1718092620.744861841
1718092620.745869,,,,-4.971264839,-4.969940186,18380.000000000,1718092620.745868921
1718092620.746876,,,,-5.049396992,-5.049899101,18381.000000000,1718092620.746876001
1718092620.747883,,,,-5.002637863,-5.006193638,18382.000000000,1718092620.747883081
1718092620.748890,,,,-4.972491264,-4.976191044,18383.000000000,1718092620.748890162
1718092620.749897,,,,-4.959124565,-4.958112240,18384.000000000,1718092620.749897242
1718092620.750904,,,,-4.985112190,-4.983306885,18385.000000000,1718092620.750904322
1718092620.751911,,,,-4.871857166,-4.872119427,18386.000000000,1718092620.751911402
1718092620.752918,,,,-4.689509869,-4.691070080,18387.000000000,1718092620.752918482
1718092620.753926,,,,-4.529688358,-4.530190468,18388.000000000,1718092620.753925562
1718092620.754933,,,,-4.362077713,-4.362627983,18389.000000000,1718092620.754932642
1718092620.755940,,,,-4.146049500,-4.147657394,18390.000000000,1718092620.755939722
1718092620.756947,,,,-4.046545506,-4.047961235,18391.000000000,1718092620.756946802
1718092620.757954,,,,-4.072004318,-4.073396206,18392.000000000,1718092620.757953882
1718092620.758961,,,,-4.139005661,-4.140373230,18393.000000000,1718092620.758960962
1718092620.759968,,,,-4.260698795,-4.263051987,18394.000000000,1718092620.759968042
1718092620.760975,,,,-4.386502743,-4.387437820,18395.000000000,1718092620.760975122
1718092620.761982,,,,-4.604189873,-4.605509758,18396.000000000,1718092620.761982203
1718092620.762372,217.969848633,3731.000000000,1718092620.762371540,,,,
1718092620.762989,,,,-4.828079700,-4.831106186,18397.000000000,1718092620.762989283
1718092620.763996,,,,-4.875727654,-4.877648830,18398.000000000,1718092620.763996363
1718092620.765003,,,,-4.818848133,-4.819783211,18399.000000000,1718092620.765003443
1718092620.766011,,,,-4.822117329,-4.822331429,18400.000000000,1718092620.766010523
1718092620.767018,,,,-4.932703972,-4.934528351,18401.000000000,1718092620.767017603
1718092620.767372,217.663543701,3732.000000000,1718092620.767371655,,,,
1718092620.768025,,,,-4.932463646,-4.933999538,18402.000000000,1718092620.768024683
1718092620.769032,,,,-4.859236240,-4.859810352,18403.000000000,1718092620.769031763
1718092620.770039,,,,-4.828704357,-4.832308292,18404.000000000,1718092620.770038843
1718092620.771046,,,,-4.822165489,-4.824615002,18405.000000000,1718092620.771045923
1718092620.772053,,,,-4.848802567,-4.851011753,18406.000000000,1718092620.772053003
1718092620.772372,217.357192993,3733.000000000,1718092620.772371531,,,,
1718092620.773060,,,,-4.752953053,-4.757998943,18407.000000000,1718092620.773060083
1718092620.774067,,,,-4.560508251,-4.561731815,18408.000000000,1718092620.774067163
1718092620.775074,,,,-4.297216415,-4.294857979,18409.000000000,1718092620.775074244
1718092620.776081,,,,-4.030630589,-4.028248310,18410.000000000,1718092620.776081324
1718092620.777088,,,,-3.954446316,-3.956222773,18411.000000000,1718092620.777088404
1718092620.777372,217.002441406,3734.000000000,1718092620.777371645,,,,
1718092620.778095,,,,-4.112224102,-4.112654686,18412.000000000,1718092620.778095484
1718092620.779103,,,,-4.368256092,-4.370681763,18413.000000000,1718092620.779102564
1718092620.780110,,,,-4.674556732,-4.679170132,18414.000000000,1718092620.780109644
1718092620.781117,,,,-4.919217110,-4.923734188,18415.000000000,1718092620.781116724
1718092620.782124,,,,-5.156857967,-5.156711102,18416.000000000,1718092620.782123804
1718092620.782372,216.744445801,3735.000000000,1718092620.782371521,,,,
1718092620.783131,,,,-5.145270348,-5.144522667,18417.000000000,1718092620.783130884
1718092620.784138,,,,-4.960951805,-4.961622238,18418.000000000,1718092620.784137964
1718092620.785145,,,,-4.763458729,-4.763720512,18419.000000000,1718092620.785145044
1718092620.786152,,,,-4.682321548,-4.683329105,18420.000000000,1718092620.786152124
1718092620.787159,,,,-4.635129929,-4.638132572,18421.000000000,1718092620.787159204
1718092620.787372,216.421905518,3736.000000000,1718092620.787371635,,,,
1718092620.788166,,,,-4.644145489,-4.647508621,18422.000000000,1718092620.788166285
1718092620.789173,,,,-4.697563648,-4.702609539,18423.000000000,1718092620.789173365
1718092620.790180,,,,-4.806515217,-4.810743809,18424.000000000,1718092620.790180445
1718092620.791188,,,,-4.878901005,-4.882240295,18425.000000000,1718092620.791187525
1718092620.792195,,,,-4.823055267,-4.823533535,18426.000000000,1718092620.792194605
1718092620.792372,216.180007935,3737.000000000,1718092620.792371511,,,,
1718092620.793202,,,,-4.677633762,-4.678713322,18427.000000000,1718092620.793201685
1718092620.794209,,,,-4.569763660,-4.571708679,18428.000000000,1718092620.794208765
1718092620.795216,,,,-4.513148308,-4.513650894,18429.000000000,1718092620.795215845
1718092620.796223,,,,-4.461557388,-4.462636948,18430.000000000,1718092620.796222925
1718092620.797230,,,,-4.381141663,-4.385394573,18431.000000000,1718092620.797230005
1718092620.797372,216.050964355,3738.000000000,1718092620.797371626,,,,
1718092620.798237,,,,-4.395109177,-4.396357059,18432.000000000,1718092620.798237085
1718092620.799244,,,,-4.368279934,-4.368205547,18433.000000000,1718092620.799244165
1718092620.800251,,,,-4.377223015,-4.378446579,18434.000000000,1718092620.800251245
1718092620.801258,,,,-4.459802628,-4.463550091,18435.000000000,1718092620.801258326
1718092620.802265,,,,-4.593155384,-4.597504139,18436.000000000,1718092620.802265406
1718092620.802372,215.970321655,3739.000000000,1718092620.802371502,,,,
1718092620.803272,,,,-4.787138462,-4.789107323,18437.000000000,1718092620.803272486
1718092620.804280,,,,-5.064253807,-5.065381050,18438.000000000,1718092620.804279566
1718092620.805287,,,,-5.143275261,-5.145748615,18439.000000000,1718092620.805286646
1718092620.806294,,,,-4.998863697,-4.999942780,18440.000000000,1718092620.806293726
1718092620.807301,,,,-4.938329697,-4.937149048,18441.000000000,1718092620.807300806
1718092620.807372,215.970321655,3740.000000000,1718092620.807371616,,,,
1718092620.808308,,,,-4.898325920,-4.898540020,18442.000000000,1718092620.808307886
1718092620.809315,,,,-4.763578892,-4.764177322,18443.000000000,1718092620.809314966
1718092620.810322,,,,-4.644842625,-4.645417213,18444.000000000,1718092620.810322046
1718092620.811329,,,,-4.499252796,-4.501991272,18445.000000000,1718092620.811329126
1718092620.812336,,,,-4.284811497,-4.283582687,18446.000000000,1718092620.812336206
1718092620.813343,,,,-4.205549717,-4.207037926,18447.000000000,1718092620.813343287
1718092620.814350,,,,-4.252501011,-4.253676414,18448.000000000,1718092620.814350367
1718092620.815357,,,,-4.281085014,-4.283943176,18449.000000000,1718092620.815357447
1718092620.816365,,,,-4.324478149,-4.328082085,18450.000000000,1718092620.816364527
1718092620.817266,216.147720337,3741.000000000,1718092620.817265987,,,,
1718092620.817372,,,,-4.349119663,-4.352939606,18451.000000000,1718092620.817371607
1718092620.818379,,,,-4.273031712,-4.276010036,18452.000000000,1718092620.818378687
1718092620.819386,,,,-4.256395340,-4.257690907,18453.000000000,1718092620.819385767
1718092620.820393,,,,-4.241394043,-4.244829655,18454.000000000,1718092620.820392847
