__time,/gdx/grip_force_stream/grip_force,/gdx/grip_force_stream/header/seq,/gdx/grip_force_stream/header/stamp,/shimmer0/emg_stream/emg_ch1,/shimmer0/emg_stream/emg_ch2,/shimmer0/emg_stream/header/seq,/shimmer0/emg_stream/header/stamp
1718100287.303926,,,,-15.048612595,-15.053161621,135172.000000000,1718100287.303926229
1718100287.304933,,,,-15.052218437,-15.058403015,135173.000000000,1718100287.304933310
1718100287.305940,,,,-15.051929474,-15.059965134,135174.000000000,1718100287.305940390
1718100287.306947,,,,-15.054213524,-15.059484482,135175.000000000,1718100287.306947470
1718100287.307955,,,,-15.052434921,-15.054724693,135176.000000000,1718100287.307954550
1718100287.308962,,,,-15.049573898,-15.053787231,135177.000000000,1718100287.308961630
1718100287.309969,,,,-15.050078392,-15.057008743,135178.000000000,1718100287.309968710
1718100287.310976,,,,-15.050415039,-15.056960106,135179.000000000,1718100287.310975790
1718100287.311983,,,,-15.050968170,-15.057681084,135180.000000000,1718100287.311982870
1718100287.312990,,,,-15.048588753,-15.055685997,135181.000000000,1718100287.312989950
1718100287.313997,,,,-15.050631523,-15.057008743,135182.000000000,1718100287.313997030
1718100287.315004,,,,-15.058709145,-15.062249184,135183.000000000,1718100287.315004110
1718100287.316011,,,,-15.059526443,-15.065254211,135184.000000000,1718100287.316011190
1718100287.317018,,,,-15.056304932,-15.061504364,135185.000000000,1718100287.317018270
1718100287.318025,,,,-15.055848122,-15.061768532,135186.000000000,1718100287.318025351
1718100287.319032,,,,-15.054526329,-15.057873726,135187.000000000,1718100287.319032431
1718100287.320040,,,,-15.051208496,-15.054099083,135188.000000000,1718100287.320039511
1718100287.321047,,,,-15.047145844,-15.052464485,135189.000000000,1718100287.321046591
1718100287.322054,,,,-15.046112061,-15.053474426,135190.000000000,1718100287.322053671
1718100287.323061,,,,-15.047482491,-15.053522110,135191.000000000,1718100287.323060751
1718100287.324068,,,,-15.049646378,-15.056767464,135192.000000000,1718100287.324067831
1718100287.325075,,,,-15.051713943,-15.058763504,135193.000000000,1718100287.325074911
1718100287.326082,,,,-15.053685188,-15.061599731,135194.000000000,1718100287.326081991
1718100287.327089,,,,-15.055920601,-15.061696053,135195.000000000,1718100287.327089071
1718100287.328096,,,,-15.054526329,-15.057489395,135196.000000000,1718100287.328096151
1718100287.329103,,,,-15.053732872,-15.061047554,135197.000000000,1718100287.329103231
1718100287.330110,,,,-15.057507515,-15.063475609,135198.000000000,1718100287.330110312
1718100287.331117,,,,-15.060152054,-15.064460754,135199.000000000,1718100287.331117392
1718100287.332124,,,,-15.061497688,-15.066864967,135200.000000000,1718100287.332124472
1718100287.333132,,,,-15.058685303,-15.066167831,135201.000000000,1718100287.333131552
1718100287.334139,,,,-15.058877945,-15.063330650,135202.000000000,1718100287.334138632
1718100287.335146,,,,-15.060488701,-15.066120148,135203.000000000,1718100287.335145712
1718100287.336153,,,,-15.060463905,-15.067585945,135204.000000000,1718100287.336152792
1718100287.337160,,,,-15.054286003,-15.058979988,135205.000000000,1718100287.337159872
1718100287.338167,,,,-15.042097092,-15.046887398,135206.000000000,1718100287.338166952
1718100287.339174,,,,-15.034115791,-15.043016434,135207.000000000,1718100287.339174032
1718100287.340181,,,,-15.037697792,-15.045324326,135208.000000000,1718100287.340181112
1718100287.340354,-0.134913608,27251.000000000,1718100287.340354443,,,,
1718100287.341188,,,,-15.050078392,-15.055229187,135209.000000000,1718100287.341188192
1718100287.342195,,,,-15.062243462,-15.068716049,135210.000000000,1718100287.342195272
1718100287.343202,,,,-15.071402550,-15.077707291,135211.000000000,1718100287.343202353
1718100287.344209,,,,-15.067989349,-15.070086479,135212.000000000,1718100287.344209433
1718100287.345217,,,,-15.063228607,-15.065326691,135213.000000000,1718100287.345216513
1718100287.345355,-0.064197637,27252.000000000,1718100287.345354557,,,,
1718100287.346224,,,,-15.058541298,-15.065446854,135214.000000000,1718100287.346223593
1718100287.347231,,,,-15.055968285,-15.061888695,135215.000000000,1718100287.347230673
1718100287.348238,,,,-15.052555084,-15.058811188,135216.000000000,1718100287.348237753
1718100287.349245,,,,-15.048804283,-15.054484367,135217.000000000,1718100287.349244833
1718100287.350252,,,,-15.042049408,-15.047247887,135218.000000000,1718100287.350251913
1718100287.350354,-0.064197637,27253.000000000,1718100287.350354433,,,,
1718100287.351259,,,,-15.040655136,-15.048738480,135219.000000000,1718100287.351258993
1718100287.352266,,,,-15.042553902,-15.051359177,135220.000000000,1718100287.352266073
1718100287.353273,,,,-15.049717903,-15.058210373,135221.000000000,1718100287.353273153
1718100287.354280,,,,-15.066474915,-15.073596001,135222.000000000,1718100287.354280233
1718100287.355287,,,,-15.086043358,-15.092011452,135223.000000000,1718100287.355287313
1718100287.355355,-0.046510898,27254.000000000,1718100287.355354548,,,,
1718100287.356294,,,,-15.098448753,-15.102877617,135224.000000000,1718100287.356294394
1718100287.357301,,,,-15.099073410,-15.104079247,135225.000000000,1718100287.357301474
1718100287.358309,,,,-15.080610275,-15.087924004,135226.000000000,1718100287.358308554
1718100287.359316,,,,-15.063204765,-15.068643570,135227.000000000,1718100287.359315634
1718100287.360323,,,,-15.067507744,-15.074533463,135228.000000000,1718100287.360322714
1718100287.360354,0.024202200,27255.000000000,1718100287.360354424,,,,
1718100287.361330,,,,-15.082317352,-15.086794853,135229.000000000,1718100287.361329794
1718100287.362337,,,,-15.083302498,-15.089967728,135230.000000000,1718100287.362336874
1718100287.363344,,,,-15.073806763,-15.080087662,135231.000000000,1718100287.363343954
1718100287.364351,,,,-15.071835518,-15.075279236,135232.000000000,1718100287.364351034
1718100287.365355,0.041880116,27256.000000000,1718100287.365354538,,,,
1718100287.365358,,,,-15.074215889,-15.080255508,135233.000000000,1718100287.365358114
1718100287.366365,,,,-15.076595306,-15.081409454,135234.000000000,1718100287.366365194
1718100287.367372,,,,-15.071931839,-15.077875137,135235.000000000,1718100287.367372274
1718100287.368379,,,,-15.069118500,-15.073884964,135236.000000000,1718100287.368379354
1718100287.369386,,,,-15.063830376,-15.070639610,135237.000000000,1718100287.369386435
1718100287.370354,0.183306411,27257.000000000,1718100287.370354414,,,,
1718100287.370394,,,,-15.063348770,-15.070014000,135238.000000000,1718100287.370393515
1718100287.371401,,,,-15.066474915,-15.072514534,135239.000000000,1718100287.371400595
1718100287.372408,,,,-15.059069633,-15.065013885,135240.000000000,1718100287.372407675
1718100287.373415,,,,-15.038659096,-15.043065071,135241.000000000,1718100287.373414755
1718100287.374422,,,,-15.019547462,-15.025419235,135242.000000000,1718100287.374421835
1718100287.375355,0.218659520,27258.000000000,1718100287.375354528,,,,
1718100287.375429,,,,-15.000651360,-15.009480476,135243.000000000,1718100287.375428915
1718100287.376436,,,,-14.995939255,-14.999792099,135244.000000000,1718100287.376435995
1718100287.377443,,,,-14.999473572,-15.001787186,135245.000000000,1718100287.377443075
1718100287.378450,,,,-15.006781578,-15.010394096,135246.000000000,1718100287.378450155
1718100287.379457,,,,-15.037289619,-15.043497086,135247.000000000,1718100287.379457235
1718100287.380354,0.289372146,27259.000000000,1718100287.380354404,,,,
1718100287.380464,,,,-15.057243347,-15.065494537,135248.000000000,1718100287.380464315
1718100287.381471,,,,-15.075153351,-15.084366798,135249.000000000,1718100287.381471395
1718100287.382478,,,,-15.104169846,-15.112998962,135250.000000000,1718100287.382478476
1718100287.383486,,,,-15.132946968,-15.139059067,135251.000000000,1718100287.383485556
1718100287.384493,,,,-15.158429146,-15.163579941,135252.000000000,1718100287.384492636
1718100287.385355,0.466131479,27260.000000000,1718100287.385354519,,,,
1718100287.385500,,,,-15.201702118,-15.207069397,135253.000000000,1718100287.385499716
1718100287.386507,,,,-15.200693130,-15.204857826,135254.000000000,1718100287.386506796
1718100287.387514,,,,-15.175883293,-15.181178093,135255.000000000,1718100287.387513876
1718100287.388521,,,,-15.161939621,-15.165767670,135256.000000000,1718100287.388520956
1718100287.389528,,,,-15.162107468,-15.168268204,135257.000000000,1718100287.389528036
1718100287.390535,,,,-15.163117409,-15.168748856,135258.000000000,1718100287.390535116
1718100287.391542,,,,-15.148356438,-15.153098106,135259.000000000,1718100287.391542196
1718100287.392549,,,,-15.133571625,-15.137351990,135260.000000000,1718100287.392549276
1718100287.393556,,,,-15.108858109,-15.111459732,135261.000000000,1718100287.393556356
1718100287.394563,,,,-15.070321083,-15.072370529,135262.000000000,1718100287.394563437
1718100287.395571,,,,-15.042457581,-15.046887398,135263.000000000,1718100287.395570517
1718100287.396578,,,,-15.029716492,-15.035756111,135264.000000000,1718100287.396577597
1718100287.397585,,,,-15.026999474,-15.033040047,135265.000000000,1718100287.397584677
1718100287.398592,,,,-15.030317307,-15.038640976,135266.000000000,1718100287.398591757
1718100287.399599,,,,-15.035366058,-15.041045189,135267.000000000,1718100287.399598837
1718100287.400606,,,,-15.036303520,-15.042199135,135268.000000000,1718100287.400605917
1718100287.401613,,,,-15.038106918,-15.041237831,135269.000000000,1718100287.401612997
1718100287.402620,,,,-15.048852921,-15.053017616,135270.000000000,1718100287.402620077
1718100287.403627,,,,-15.055872917,-15.062513351,135271.000000000,1718100287.403627157
1718100287.404634,,,,-15.054598808,-15.060133934,135272.000000000,1718100287.404634237
1718100287.405641,,,,-15.037264824,-15.041213989,135273.000000000,1718100287.405641317
1718100287.406648,,,,-15.023080826,-15.030611992,135274.000000000,1718100287.406648397
1718100287.407655,,,,-15.029283524,-15.037055016,135275.000000000,1718100287.407655478
1718100287.408663,,,,-15.048588753,-15.053017616,135276.000000000,1718100287.408662558
1718100287.409670,,,,-15.057651520,-15.061888695,135277.000000000,1718100287.409669638
1718100287.410677,,,,-15.049406052,-15.055709839,135278.000000000,1718100287.410676718
1718100287.411684,,,,-15.050751686,-15.055181503,135279.000000000,1718100287.411683798
1718100287.412691,,,,-15.049406052,-15.054435730,135280.000000000,1718100287.412690878
1718100287.413698,,,,-15.048732758,-15.055229187,135281.000000000,1718100287.413697958
1718100287.414705,,,,-15.063204765,-15.068860054,135282.000000000,1718100287.414705038
1718100287.415712,,,,-15.089432716,-15.096266747,135283.000000000,1718100287.415712118
1718100287.416719,,,,-15.105227470,-15.110210419,135284.000000000,1718100287.416719198
1718100287.417726,,,,-15.093784332,-15.098982811,135285.000000000,1718100287.417726278
1718100287.418733,,,,-15.082725525,-15.089174271,135286.000000000,1718100287.418733358
1718100287.419740,,,,-15.090491295,-15.094679832,135287.000000000,1718100287.419740438
1718100287.420748,,,,-15.085490227,-15.089847565,135288.000000000,1718100287.420747519
1718100287.421755,,,,-15.070224762,-15.076673508,135289.000000000,1718100287.421754599
1718100287.422762,,,,-15.069791794,-15.077250481,135290.000000000,1718100287.422761679
1718100287.423769,,,,-15.100275040,-15.106964111,135291.000000000,1718100287.423768759
1718100287.424776,,,,-15.135398865,-15.141414642,135292.000000000,1718100287.424775839
1718100287.425783,,,,-15.154486656,-15.159300804,135293.000000000,1718100287.425782919
1718100287.425802,2.497862101,27267.000000000,1718100287.425802231,,,,
1718100287.426790,,,,-15.151721954,-15.158290863,135294.000000000,1718100287.426789999
1718100287.427797,,,,-15.138403893,-15.146703720,135295.000000000,1718100287.427797079
1718100287.428804,,,,-15.118017197,-15.125379562,135296.000000000,1718100287.428804159
1718100287.429811,,,,-15.099722862,-15.106796265,135297.000000000,1718100287.429811239
1718100287.430802,3.027567387,27268.000000000,1718100287.430802345,,,,
1718100287.430818,,,,-15.103232384,-15.112926483,135298.000000000,1718100287.430818319
1718100287.431825,,,,-15.100154877,-15.105762482,135299.000000000,1718100287.431825399
1718100287.432832,,,,-15.068926811,-15.073740959,135300.000000000,1718100287.432832479
1718100287.433840,,,,-15.046833038,-15.050902367,135301.000000000,1718100287.433839560
1718100287.434847,,,,-15.039572716,-15.041165352,135302.000000000,1718100287.434846640
1718100287.435802,3.663044691,27269.000000000,1718100287.435802221,,,,
1718100287.435854,,,,-15.037577629,-15.043689728,135303.000000000,1718100287.435853720
1718100287.436861,,,,-15.033779144,-15.038977623,135304.000000000,1718100287.436860800
1718100287.437868,,,,-15.029692650,-15.034290314,135305.000000000,1718100287.437867880
1718100287.438875,,,,-15.069575310,-15.075279236,135306.000000000,1718100287.438874960
1718100287.439882,,,,-15.125494003,-15.129922867,135307.000000000,1718100287.439882040
1718100287.440802,4.492411137,27270.000000000,1718100287.440802336,,,,
1718100287.440889,,,,-15.141408920,-15.146655083,135308.000000000,1718100287.440889120
1718100287.441896,,,,-15.103521347,-15.109393120,135309.000000000,1718100287.441896200
1718100287.442903,,,,-15.087221146,-15.090184212,135310.000000000,1718100287.442903280
1718100287.443910,,,,-15.095371246,-15.097637177,135311.000000000,1718100287.443910360
1718100287.444917,,,,-15.106261253,-15.110017776,135312.000000000,1718100287.444917440
1718100287.445802,5.480176449,27271.000000000,1718100287.445802212,,,,
1718100287.445925,,,,-15.120902061,-15.124730110,135313.000000000,1718100287.445924520
1718100287.446932,,,,-15.128619194,-15.132856369,135314.000000000,1718100287.446931601
1718100287.447939,,,,-15.117272377,-15.124321938,135315.000000000,1718100287.447938681
1718100287.448946,,,,-15.109049797,-15.116124153,135316.000000000,1718100287.448945761
1718100287.449953,,,,-15.129220009,-15.134803772,135317.000000000,1718100287.449952841
1718100287.450802,6.784751892,27272.000000000,1718100287.450802326,,,,
1718100287.450960,,,,-15.140663147,-15.147833824,135318.000000000,1718100287.450959921
1718100287.451967,,,,-15.172733307,-15.179110527,135319.000000000,1718100287.451967001
1718100287.452974,,,,-15.215405464,-15.221566200,135320.000000000,1718100287.452974081
1718100287.453981,,,,-15.218603134,-15.224715233,135321.000000000,1718100287.453981161
1718100287.454988,,,,-15.223723412,-15.226446152,135322.000000000,1718100287.454988241
1718100287.455802,8.247043610,27273.000000000,1718100287.455802202,,,,
1718100287.455995,,,,-15.213458061,-15.220123291,135323.000000000,1718100287.455995321
1718100287.457002,,,,-15.207688332,-15.213199615,135324.000000000,1718100287.457002401
1718100287.458009,,,,-15.210741997,-15.216324806,135325.000000000,1718100287.458009481
1718100287.459017,,,,-15.187013626,-15.194543839,135326.000000000,1718100287.459016562
1718100287.460024,,,,-15.172012329,-15.177451134,135327.000000000,1718100287.460023642
1718100287.460802,9.972334862,27274.000000000,1718100287.460802317,,,,
1718100287.461031,,,,-15.178382874,-15.184471130,135328.000000000,1718100287.461030722
1718100287.462038,,,,-15.182326317,-15.188750267,135329.000000000,1718100287.462037802
1718100287.463045,,,,-15.163910866,-15.167090416,135330.000000000,1718100287.463044882
1718100287.464052,,,,-15.211630821,-15.214858055,135331.000000000,1718100287.464051962
1718100287.465059,,,,-15.264039993,-15.268829346,135332.000000000,1718100287.465059042
1718100287.465802,11.995141029,27275.000000000,1718100287.465802193,,,,
1718100287.466066,,,,-15.236152649,-15.242889404,135333.000000000,1718100287.466066122
1718100287.467073,,,,-15.165689468,-15.173677444,135334.000000000,1718100287.467073202
1718100287.468080,,,,-15.128979683,-15.133961678,135335.000000000,1718100287.468080282
1718100287.469087,,,,-15.119339943,-15.122278214,135336.000000000,1718100287.469087362
1718100287.470094,,,,-15.058565140,-15.063018799,135337.000000000,1718100287.470094442
1718100287.470802,14.349734306,27276.000000000,1718100287.470802307,,,,
1718100287.471102,,,,-15.046401024,-15.051022530,135338.000000000,1718100287.471101522
1718100287.472109,,,,-15.134388924,-15.138938904,135339.000000000,1718100287.472108603
1718100287.473116,,,,-15.199730873,-15.204881668,135340.000000000,1718100287.473115683
1718100287.474123,,,,-15.251851082,-15.257386208,135341.000000000,1718100287.474122763
1718100287.475130,,,,-15.248678207,-15.254284859,135342.000000000,1718100287.475129843
1718100287.475802,16.999937057,27277.000000000,1718100287.475802183,,,,
1718100287.476137,,,,-15.204659462,-15.211949348,135343.000000000,1718100287.476136923
1718100287.477144,,,,-15.133884430,-15.141246796,135344.000000000,1718100287.477144003
1718100287.478151,,,,-15.111430168,-15.119706154,135345.000000000,1718100287.478151083
1718100287.479158,,,,-15.216367722,-15.225484848,135346.000000000,1718100287.479158163
1718100287.480165,,,,-15.273655891,-15.282820702,135347.000000000,1718100287.480165243
1718100287.480802,20.224851608,27278.000000000,1718100287.480802298,,,,
1718100287.481172,,,,-15.228507996,-15.236471176,135348.000000000,1718100287.481172323
1718100287.482179,,,,-15.206534386,-15.213945389,135349.000000000,1718100287.482179403
1718100287.483186,,,,-15.320343018,-15.329195023,135350.000000000,1718100287.483186483
1718100287.484194,,,,-15.459153175,-15.468077660,135351.000000000,1718100287.484193563
1718100287.485201,,,,-15.632725716,-15.641386032,135352.000000000,1718100287.485200644
1718100287.485802,23.934415817,27279.000000000,1718100287.485802174,,,,
1718100287.486208,,,,-15.769780159,-15.777768135,135353.000000000,1718100287.486207724
1718100287.487215,,,,-15.761077881,-15.766469002,135354.000000000,1718100287.487214804
1718100287.488222,,,,-15.600823402,-15.606214523,135355.000000000,1718100287.488221884
1718100287.489229,,,,-15.451387405,-15.457932472,135356.000000000,1718100287.489228964
1718100287.490236,,,,-15.362653732,-15.369198799,135357.000000000,1718100287.490236044
1718100287.490407,32.866436005,27281.000000000,1718100287.490406990,,,,
1718100287.490802,28.003908157,27280.000000000,1718100287.490802288,,,,
1718100287.491243,,,,-15.231536865,-15.237288475,135358.000000000,1718100287.491243124
1718100287.492250,,,,-15.154895782,-15.161128044,135359.000000000,1718100287.492250204
1718100287.493257,,,,-15.145591736,-15.152160645,135360.000000000,1718100287.493257284
1718100287.494264,,,,-15.108617783,-15.110882759,135361.000000000,1718100287.494264364
1718100287.495271,,,,-15.072268486,-15.076192856,135362.000000000,1718100287.495271444
1718100287.495407,38.290702820,27282.000000000,1718100287.495407104,,,,
1718100287.496279,,,,-15.036592484,-15.042247772,135363.000000000,1718100287.496278524
1718100287.497286,,,,-15.039621353,-15.045540810,135364.000000000,1718100287.497285604
1718100287.498293,,,,-15.121864319,-15.127470970,135365.000000000,1718100287.498292685
1718100287.499300,,,,-15.230262756,-15.234571457,135366.000000000,1718100287.499299765
1718100287.500307,,,,-15.288080215,-15.294528961,135367.000000000,1718100287.500306845
1718100287.501314,,,,-15.362245560,-15.368958473,135368.000000000,1718100287.501313925
1718100287.502321,,,,-15.429078102,-15.436151505,135369.000000000,1718100287.502321005
1718100287.503328,,,,-15.438549995,-15.445527077,135370.000000000,1718100287.503328085
1718100287.504335,,,,-15.453647614,-15.460240364,135371.000000000,1718100287.504335165
1718100287.505342,,,,-15.484851837,-15.490772247,135372.000000000,1718100287.505342245
1718100287.506349,,,,-15.465331078,-15.472717285,135373.000000000,1718100287.506349325
1718100287.507356,,,,-15.449272156,-15.456922531,135374.000000000,1718100287.507356405
1718100287.508363,,,,-15.419582367,-15.425525665,135375.000000000,1718100287.508363485
1718100287.509371,,,,-15.355562210,-15.361962318,135376.000000000,1718100287.509370565
1718100287.510378,,,,-15.344263077,-15.350567818,135377.000000000,1718100287.510377645
1718100287.511385,,,,-15.242042542,-15.246471405,135378.000000000,1718100287.511384726
1718100287.512392,,,,-15.117223740,-15.121581078,135379.000000000,1718100287.512391806
1718100287.513399,,,,-15.065079689,-15.070735931,135380.000000000,1718100287.513398886
1718100287.514406,,,,-15.079047203,-15.085375786,135381.000000000,1718100287.514405966
1718100287.515413,,,,-15.190764427,-15.195866585,135382.000000000,1718100287.515413046
1718100287.516420,,,,-15.270698547,-15.274551392,135383.000000000,1718100287.516420126
1718100287.517427,,,,-15.233700752,-15.240557671,135384.000000000,1718100287.517427206
1718100287.518434,,,,-15.194706917,-15.202646255,135385.000000000,1718100287.518434286
1718100287.519441,,,,-15.157107353,-15.162065506,135386.000000000,1718100287.519441366
1718100287.520448,,,,-15.130662918,-15.134971619,135387.000000000,1718100287.520448446
1718100287.521456,,,,-15.125998497,-15.129899025,135388.000000000,1718100287.521455526
1718100287.522463,,,,-15.202735901,-15.208992958,135389.000000000,1718100287.522462606
1718100287.523470,,,,-15.331665993,-15.337609291,135390.000000000,1718100287.523469687
1718100287.524477,,,,-15.419125557,-15.424877167,135391.000000000,1718100287.524476767
1718100287.525484,,,,-15.505671501,-15.512577057,135392.000000000,1718100287.525483847
1718100287.526491,,,,-15.551949501,-15.557147980,135393.000000000,1718100287.526490927
1718100287.527498,,,,-15.422298431,-15.429420471,135394.000000000,1718100287.527498007
1718100287.528505,,,,-15.369986534,-15.375809669,135395.000000000,1718100287.528505087
1718100287.529512,,,,-15.401960373,-15.408312798,135396.000000000,1718100287.529512167
1718100287.530519,,,,-15.365250587,-15.371338844,135397.000000000,1718100287.530519247
1718100287.531526,,,,-15.423621178,-15.427689552,135398.000000000,1718100287.531526327
1718100287.532533,,,,-15.471581459,-15.477068901,135399.000000000,1718100287.532533407
1718100287.533540,,,,-15.421481133,-15.427640915,135400.000000000,1718100287.533540487
1718100287.534548,,,,-15.432275772,-15.435406685,135401.000000000,1718100287.534547567
1718100287.535555,,,,-15.501127243,-15.506807327,135402.000000000,1718100287.535554647
1718100287.536562,,,,-15.702851295,-15.707184792,135403.000000000,1718100287.536561728
1718100287.537569,,,,-15.879573822,-15.886743546,135404.000000000,1718100287.537568808
1718100287.538576,,,,-15.798148155,-15.804332733,135405.000000000,1718100287.538575888
1718100287.539583,,,,-15.583370209,-15.587703705,135406.000000000,1718100287.539582968
1718100287.540407,100.594078064,27291.000000000,1718100287.540406942,,,,
1718100287.540590,,,,-15.393449783,-15.396989822,135407.000000000,1718100287.540590048
1718100287.541597,,,,-15.141144753,-15.145982742,135408.000000000,1718100287.541597128
1718100287.542604,,,,-15.110756874,-15.117855072,135409.000000000,1718100287.542604208
1718100287.543611,,,,-15.144606590,-15.152329445,135410.000000000,1718100287.543611288
1718100287.544618,,,,-15.149222374,-15.156151772,135411.000000000,1718100287.544618368
1718100287.545407,107.793052673,27292.000000000,1718100287.545407057,,,,
1718100287.545625,,,,-15.316472054,-15.323570251,135412.000000000,1718100287.545625448
1718100287.546633,,,,-15.402513504,-15.409322739,135413.000000000,1718100287.546632528
1718100287.547640,,,,-15.372318268,-15.377973557,135414.000000000,1718100287.547639608
1718100287.548647,,,,-15.404315948,-15.409394264,135415.000000000,1718100287.548646688
1718100287.549654,,,,-15.368086815,-15.372684479,135416.000000000,1718100287.549653769
1718100287.550407,114.917778015,27293.000000000,1718100287.550406933,,,,
1718100287.550661,,,,-15.324189186,-15.331166267,135417.000000000,1718100287.550660849
1718100287.551668,,,,-15.307072639,-15.313665390,135418.000000000,1718100287.551667929
1718100287.552675,,,,-15.360875130,-15.365496635,135419.000000000,1718100287.552675009
1718100287.553682,,,,-15.371861458,-15.376699448,135420.000000000,1718100287.553682089
1718100287.554689,,,,-15.364264488,-15.368188858,135421.000000000,1718100287.554689169
1718100287.555407,121.852439880,27294.000000000,1718100287.555407047,,,,
1718100287.555696,,,,-15.289690971,-15.292942047,135422.000000000,1718100287.555696249
1718100287.556703,,,,-15.064070702,-15.066335678,135423.000000000,1718100287.556703329
1718100287.557710,,,,-15.011566162,-15.015490532,135424.000000000,1718100287.557710409
1718100287.558717,,,,-15.102727890,-15.105354309,135425.000000000,1718100287.558717489
1718100287.559725,,,,-15.090875626,-15.095256805,135426.000000000,1718100287.559724569
1718100287.560407,128.782089233,27295.000000000,1718100287.560406923,,,,
1718100287.560732,,,,-15.141985893,-15.148674965,135427.000000000,1718100287.560731649
1718100287.561739,,,,-15.140158653,-15.147232056,135428.000000000,1718100287.561738729
1718100287.562746,,,,-15.136384010,-15.141174316,135429.000000000,1718100287.562745810
1718100287.563753,,,,-15.169103622,-15.175168037,135430.000000000,1718100287.563752890
1718100287.564760,,,,-15.261611938,-15.270560265,135431.000000000,1718100287.564759970
1718100287.565407,135.475006104,27296.000000000,1718100287.565407038,,,,
1718100287.565767,,,,-15.321640968,-15.328497887,135432.000000000,1718100287.565767050
1718100287.566774,,,,-15.291253090,-15.295970917,135433.000000000,1718100287.566774130
1718100287.567781,,,,-15.333973885,-15.337345123,135434.000000000,1718100287.567781210
1718100287.568788,,,,-15.512546539,-15.517144203,135435.000000000,1718100287.568788290
1718100287.569795,,,,-15.656501770,-15.661868095,135436.000000000,1718100287.569795370
1718100287.570407,142.132049561,27297.000000000,1718100287.570406914,,,,
1718100287.570802,,,,-15.743215561,-15.747116089,135437.000000000,1718100287.570802450
1718100287.571810,,,,-15.773627281,-15.772959709,135438.000000000,1718100287.571809530
1718100287.572817,,,,-15.719079018,-15.718267441,135439.000000000,1718100287.572816610
1718100287.573824,,,,-15.648520470,-15.652372360,135440.000000000,1718100287.573823690
1718100287.574831,,,,-15.441867828,-15.447426796,135441.000000000,1718100287.574830770
1718100287.575407,148.523056030,27298.000000000,1718100287.575407028,,,,
1718100287.575838,,,,-15.295316696,-15.299938202,135442.000000000,1718100287.575837851
1718100287.576845,,,,-15.345368385,-15.349774361,135443.000000000,1718100287.576844931
1718100287.577852,,,,-15.375780106,-15.382036209,135444.000000000,1718100287.577852011
1718100287.578859,,,,-15.327025414,-15.331382751,135445.000000000,1718100287.578859091
1718100287.579866,,,,-15.216367722,-15.221926689,135446.000000000,1718100287.579866171
1718100287.580407,154.847961426,27299.000000000,1718100287.580406904,,,,
1718100287.580873,,,,-15.079672813,-15.082058907,135447.000000000,1718100287.580873251
1718100287.581880,,,,-15.010051727,-15.014096260,135448.000000000,1718100287.581880331
1718100287.582887,,,,-14.979712486,-14.988733292,135449.000000000,1718100287.582887411
1718100287.583894,,,,-15.028850555,-15.036117554,135450.000000000,1718100287.583894491
1718100287.584902,,,,-15.107920647,-15.112181664,135451.000000000,1718100287.584901571
1718100287.585407,160.894378662,27300.000000000,1718100287.585407019,,,,
1718100287.585909,,,,-15.184946060,-15.192284584,135452.000000000,1718100287.585908651
1718100287.586916,,,,-15.270818710,-15.279527664,135453.000000000,1718100287.586915731
1718100287.587923,,,,-15.258871078,-15.264910698,135454.000000000,1718100287.587922812
1718100287.588930,,,,-15.252620697,-15.257578850,135455.000000000,1718100287.588929892
1718100287.589937,,,,-15.353662491,-15.358981133,135456.000000000,1718100287.589936972
1718100287.590944,,,,-15.338397026,-15.344292641,135457.000000000,1718100287.590944052
1718100287.591951,,,,-15.302191734,-15.309433937,135458.000000000,1718100287.591951132
1718100287.592958,,,,-15.380468369,-15.384320259,135459.000000000,1718100287.592958212
1718100287.593965,,,,-15.446555138,-15.451585770,135460.000000000,1718100287.593965292
1718100287.594775,166.664718628,27301.000000000,1718100287.594774723,,,,
1718100287.594972,,,,-15.422947884,-15.428819656,135461.000000000,1718100287.594972372
1718100287.595979,,,,-15.358951569,-15.365592957,135462.000000000,1718100287.595979452
1718100287.596987,,,,-15.208097458,-15.212622643,135463.000000000,1718100287.596986532
1718100287.597994,,,,-15.095227242,-15.100112915,135464.000000000,1718100287.597993612
1718100287.599001,,,,-15.069864273,-15.074582100,135465.000000000,1718100287.599000692
1718100287.599775,172.144821167,27302.000000000,1718100287.599774837,,,,
1718100287.600008,,,,-15.174007416,-15.177427292,135466.000000000,1718100287.600007772
1718100287.601015,,,,-15.257380486,-15.260030746,135467.000000000,1718100287.601014853
1718100287.602022,,,,-15.227762222,-15.232528687,135468.000000000,1718100287.602021933
1718100287.603029,,,,-15.235118866,-15.241904259,135469.000000000,1718100287.603029013
1718100287.604036,,,,-15.198576927,-15.205265999,135470.000000000,1718100287.604036093
1718100287.604775,177.353103638,27303.000000000,1718100287.604774714,,,,
1718100287.605043,,,,-15.089385033,-15.098334312,135471.000000000,1718100287.605043173
1718100287.606050,,,,-15.124893188,-15.132927895,135472.000000000,1718100287.606050253
1718100287.607057,,,,-15.200019836,-15.206876755,135473.000000000,1718100287.607057333
1718100287.608064,,,,-15.273175240,-15.279214859,135474.000000000,1718100287.608064413
1718100287.609071,,,,-15.441458702,-15.448556900,135475.000000000,1718100287.609071493
1718100287.609775,182.340301514,27304.000000000,1718100287.609774828,,,,
1718100287.610079,,,,-15.633470535,-15.640496254,135476.000000000,1718100287.610078573
1718100287.611086,,,,-15.854907990,-15.859914780,135477.000000000,1718100287.611085653
1718100287.612093,,,,-16.010425568,-16.015697479,135478.000000000,1718100287.612092733
1718100287.613100,,,,-16.015859604,-16.022909164,135479.000000000,1718100287.613099813
1718100287.614107,,,,-15.805768967,-15.811039925,135480.000000000,1718100287.614106894
1718100287.614775,187.156570435,27305.000000000,1718100287.614774704,,,,
1718100287.615114,,,,-15.531202316,-15.540175438,135481.000000000,1718100287.615113974
1718100287.616121,,,,-15.492978096,-15.501037598,135482.000000000,1718100287.616121054
1718100287.617128,,,,-15.474826813,-15.479448318,135483.000000000,1718100287.617128134
1718100287.618135,,,,-15.331930161,-15.339292526,135484.000000000,1718100287.618135214
1718100287.619142,,,,-15.325222969,-15.333810806,135485.000000000,1718100287.619142294
1718100287.620149,,,,-15.177037239,-15.180768967,135486.000000000,1718100287.620149374
1718100287.621156,,,,-15.034452438,-15.039650917,135487.000000000,1718100287.621156454
1718100287.622164,,,,-15.103665352,-15.111147881,135488.000000000,1718100287.622163534
1718100287.623171,,,,-15.069984436,-15.080279350,135489.000000000,1718100287.623170614
1718100287.624178,,,,-15.111093521,-15.118528366,135490.000000000,1718100287.624177694
1718100287.625185,,,,-15.345753670,-15.351576805,135491.000000000,1718100287.625184774
1718100287.626192,,,,-15.465307236,-15.470866203,135492.000000000,1718100287.626191854
1718100287.627199,,,,-15.499132156,-15.503993988,135493.000000000,1718100287.627198935
1718100287.628206,,,,-15.466388702,-15.470505714,135494.000000000,1718100287.628206015
1718100287.629213,,,,-15.445304871,-15.451345444,135495.000000000,1718100287.629213095
1718100287.630220,,,,-15.383377075,-15.391773224,135496.000000000,1718100287.630220175
1718100287.631227,,,,-15.299090385,-15.304818153,135497.000000000,1718100287.631227255
1718100287.632234,,,,-15.221872330,-15.227720261,135498.000000000,1718100287.632234335
1718100287.633241,,,,-15.228171349,-15.234931946,135499.000000000,1718100287.633241415
1718100287.634248,,,,-15.249879837,-15.256592751,135500.000000000,1718100287.634248495
1718100287.635256,,,,-15.248341560,-15.254020691,135501.000000000,1718100287.635255575
1718100287.636263,,,,-15.258270264,-15.264983177,135502.000000000,1718100287.636262655
1718100287.637270,,,,-15.266708374,-15.269238472,135503.000000000,1718100287.637269735
1718100287.638277,,,,-15.254231453,-15.259526253,135504.000000000,1718100287.638276815
1718100287.639284,,,,-15.203553200,-15.211781502,135505.000000000,1718100287.639283895
1718100287.640291,,,,-15.166122437,-15.176129341,135506.000000000,1718100287.640290976
1718100287.641298,,,,-15.134749413,-15.143746376,135507.000000000,1718100287.641298056
1718100287.642305,,,,-15.088831902,-15.094102859,135508.000000000,1718100287.642305136
1718100287.643312,,,,-15.054453850,-15.059412003,135509.000000000,1718100287.643312216
1718100287.644319,,,,-15.007094383,-15.014576912,135510.000000000,1718100287.644319296
1718100287.644775,212.021240234,27311.000000000,1718100287.644774675,,,,
1718100287.645326,,,,-15.046448708,-15.052945137,135511.000000000,1718100287.645326376
1718100287.646333,,,,-15.356643677,-15.360904694,135512.000000000,1718100287.646333456
1718100287.647341,,,,-15.694196701,-15.698698044,135513.000000000,1718100287.647340536
1718100287.648348,,,,-15.923736572,-15.930882454,135514.000000000,1718100287.648347616
1718100287.649355,,,,-16.043506622,-16.048656464,135515.000000000,1718100287.649354696
1718100287.649775,215.716567993,27312.000000000,1718100287.649774790,,,,
1718100287.650362,,,,-16.112262726,-16.116907120,135516.000000000,1718100287.650361776
1718100287.651369,,,,-16.143321991,-16.148063660,135517.000000000,1718100287.651368856
1718100287.652376,,,,-16.013118744,-16.017066956,135518.000000000,1718100287.652375937
1718100287.653383,,,,-15.803533554,-15.810510635,135519.000000000,1718100287.653383017
1718100287.654390,,,,-15.673690796,-15.675643921,135520.000000000,1718100287.654390097
1718100287.654775,219.231475830,27313.000000000,1718100287.654774666,,,,
1718100287.655397,,,,-15.471990585,-15.476155281,135521.000000000,1718100287.655397177
1718100287.656404,,,,-15.280195236,-15.286764145,135522.000000000,1718100287.656404257
1718100287.657411,,,,-15.245047569,-15.252217293,135523.000000000,1718100287.657411337
1718100287.658418,,,,-15.279305458,-15.285033226,135524.000000000,1718100287.658418417
1718100287.659425,,,,-15.233988762,-15.242000580,135525.000000000,1718100287.659425497
1718100287.659775,222.630966187,27314.000000000,1718100287.659774780,,,,
1718100287.660433,,,,-15.161890984,-15.169445992,135526.000000000,1718100287.660432577
1718100287.661440,,,,-15.120157242,-15.128024101,135527.000000000,1718100287.661439657
1718100287.662447,,,,-15.025797844,-15.033207893,135528.000000000,1718100287.662446737
1718100287.663454,,,,-14.873260498,-14.876319885,135529.000000000,1718100287.663453817
1718100287.664461,,,,-14.768371582,-14.774483681,135530.000000000,1718100287.664460897
1718100287.664775,225.802749634,27315.000000000,1718100287.664774656,,,,
1718100287.665468,,,,-14.749691963,-14.755130768,135531.000000000,1718100287.665467978
1718100287.666475,,,,-14.972428322,-14.975198746,135532.000000000,1718100287.666475058
1718100287.667482,,,,-15.254952431,-15.261737823,135533.000000000,1718100287.667482138
1718100287.668489,,,,-15.546371460,-15.554286957,135534.000000000,1718100287.668489218
1718100287.669496,,,,-15.795071602,-15.800366402,135535.000000000,1718100287.669496298
1718100287.669775,228.988693237,27316.000000000,1718100287.669774771,,,,
1718100287.670503,,,,-15.797330856,-15.802818298,135536.000000000,1718100287.670503378
1718100287.671510,,,,-15.822669983,-15.828949928,135537.000000000,1718100287.671510458
1718100287.672518,,,,-15.796129227,-15.801255226,135538.000000000,1718100287.672517538
1718100287.673525,,,,-15.677729607,-15.682398796,135539.000000000,1718100287.673524618
1718100287.674532,,,,-15.636644363,-15.641265869,135540.000000000,1718100287.674531698
1718100287.674775,232.044174194,27317.000000000,1718100287.674774647,,,,
1718100287.675539,,,,-15.485116959,-15.490747452,135541.000000000,1718100287.675538778
1718100287.676546,,,,-15.451387405,-15.458125114,135542.000000000,1718100287.676545858
1718100287.677553,,,,-15.508411407,-15.515485764,135543.000000000,1718100287.677552938
1718100287.678560,,,,-15.495622635,-15.502816200,135544.000000000,1718100287.678560019
1718100287.679567,,,,-15.389940262,-15.394753456,135545.000000000,1718100287.679567099
1718100287.679775,234.953460693,27318.000000000,1718100287.679774761,,,,
1718100287.680574,,,,-15.224853516,-15.229859352,135546.000000000,1718100287.680574179
1718100287.681581,,,,-15.140639305,-15.143554688,135547.000000000,1718100287.681581259
1718100287.682588,,,,-15.181508064,-15.187692642,135548.000000000,1718100287.682588339
1718100287.683595,,,,-15.244518280,-15.252530098,135549.000000000,1718100287.683595419
1718100287.684602,,,,-15.268799782,-15.274166107,135550.000000000,1718100287.684602499
1718100287.684775,237.748962402,27319.000000000,1718100287.684774637,,,,
1718100287.685610,,,,-15.271877289,-15.276426315,135551.000000000,1718100287.685609579
1718100287.686617,,,,-15.271035194,-15.278133392,135552.000000000,1718100287.686616659
1718100287.687624,,,,-15.293440819,-15.299721718,135553.000000000,1718100287.687623739
1718100287.688631,,,,-15.324573517,-15.329940796,135554.000000000,1718100287.688630819
1718100287.688759,243.047760010,27321.000000000,1718100287.688758612,,,,
1718100287.689638,,,,-15.300533295,-15.304697990,135555.000000000,1718100287.689637899
1718100287.689775,240.495178223,27320.000000000,1718100287.689774752,,,,
1718100287.690645,,,,-15.245311737,-15.249813080,135556.000000000,1718100287.690644979
1718100287.691652,,,,-15.256299019,-15.263108253,135557.000000000,1718100287.691652060
1718100287.692659,,,,-15.335559845,-15.340157509,135558.000000000,1718100287.692659140
1718100287.693666,,,,-15.400253296,-15.406028748,135559.000000000,1718100287.693666220
1718100287.693759,245.471176147,27322.000000000,1718100287.693758726,,,,
1718100287.694673,,,,-15.449920654,-15.457595825,135560.000000000,1718100287.694673300
1718100287.695680,,,,-15.441314697,-15.448291779,135561.000000000,1718100287.695680380
1718100287.696687,,,,-15.450041771,-15.456249237,135562.000000000,1718100287.696687460
1718100287.697695,,,,-15.455739021,-15.463005066,135563.000000000,1718100287.697694540
1718100287.698702,,,,-15.461796761,-15.468798637,135564.000000000,1718100287.698701620
1718100287.698759,247.781646729,27323.000000000,1718100287.698758602,,,,
1718100287.699709,,,,-15.483217239,-15.489089012,135565.000000000,1718100287.699708700
1718100287.700716,,,,-15.285315514,-15.290466309,135566.000000000,1718100287.700715780
1718100287.701723,,,,-15.207977295,-15.212069511,135567.000000000,1718100287.701722860
1718100287.702730,,,,-15.486799240,-15.491733551,135568.000000000,1718100287.702729940
1718100287.703737,,,,-15.613781929,-15.619532585,135569.000000000,1718100287.703737020
1718100287.703759,249.995300293,27324.000000000,1718100287.703758717,,,,
1718100287.704744,,,,-15.622531891,-15.626360893,135570.000000000,1718100287.704744101
1718100287.705751,,,,-15.596015930,-15.600925446,135571.000000000,1718100287.705751181
1718100287.706758,,,,-15.562791824,-15.568278313,135572.000000000,1718100287.706758261
1718100287.707765,,,,-15.537861824,-15.541786194,135573.000000000,1718100287.707765341
1718100287.708759,252.064178467,27325.000000000,1718100287.708758593,,,,
1718100287.708772,,,,-15.447541237,-15.450961113,135574.000000000,1718100287.708772421
1718100287.709780,,,,-15.426169395,-15.431872368,135575.000000000,1718100287.709779501
1718100287.710787,,,,-15.479659081,-15.484953880,135576.000000000,1718100287.710786581
1718100287.711794,,,,-15.456123352,-15.461441994,135577.000000000,1718100287.711793661
1718100287.712801,,,,-15.397344589,-15.403673172,135578.000000000,1718100287.712800741
1718100287.713759,254.100646973,27326.000000000,1718100287.713758707,,,,
1718100287.713808,,,,-15.370923996,-15.374175072,135579.000000000,1718100287.713807821
1718100287.714815,,,,-15.534351349,-15.538204193,135580.000000000,1718100287.714814901
1718100287.715822,,,,-15.610271454,-15.613931656,135581.000000000,1718100287.715821981
1718100287.716829,,,,-15.494900703,-15.497599602,135582.000000000,1718100287.716829062
1718100287.717836,,,,-15.373664856,-15.379824638,135583.000000000,1718100287.717836142
1718100287.718843,,,,-15.344984055,-15.350831985,135584.000000000,1718100287.718843222
1718100287.719850,,,,-15.391430855,-15.396436691,135585.000000000,1718100287.719850302
1718100287.720857,,,,-15.407320976,-15.412976265,135586.000000000,1718100287.720857382
1718100287.721864,,,,-15.370178223,-15.376867294,135587.000000000,1718100287.721864462
1718100287.722872,,,,-15.371644974,-15.377492905,135588.000000000,1718100287.722871542
1718100287.723879,,,,-15.488722801,-15.492503166,135589.000000000,1718100287.723878622
1718100287.724886,,,,-15.452324867,-15.457668304,135590.000000000,1718100287.724885702
1718100287.725893,,,,-15.408860207,-15.418217659,135591.000000000,1718100287.725892782
1718100287.726900,,,,-15.538630486,-15.545488358,135592.000000000,1718100287.726899862
1718100287.727907,,,,-15.627724648,-15.635255814,135593.000000000,1718100287.727906942
1718100287.728914,,,,-15.661501884,-15.666460037,135594.000000000,1718100287.728914022
1718100287.729921,,,,-15.623685837,-15.629606247,135595.000000000,1718100287.729921103
1718100287.730928,,,,-15.510503769,-15.514259338,135596.000000000,1718100287.730928183
1718100287.731935,,,,-15.454368591,-15.459182739,135597.000000000,1718100287.731935263
1718100287.732942,,,,-15.501440048,-15.508321762,135598.000000000,1718100287.732942343
1718100287.733949,,,,-15.531082153,-15.536930084,135599.000000000,1718100287.733949423
1718100287.734957,,,,-15.515888214,-15.523178101,135600.000000000,1718100287.734956503
1718100287.735964,,,,-15.395133018,-15.399465561,135601.000000000,1718100287.735963583
1718100287.736971,,,,-15.368688583,-15.372372627,135602.000000000,1718100287.736970663
1718100287.737978,,,,-15.461965561,-15.467187881,135603.000000000,1718100287.737977743
1718100287.738759,262.900878906,27331.000000000,1718100287.738758564,,,,
1718100287.738985,,,,-15.497040749,-15.502166748,135604.000000000,1718100287.738984823
1718100287.739992,,,,-15.488939285,-15.494329453,135605.000000000,1718100287.739991903
1718100287.740999,,,,-15.484924316,-15.492647171,135606.000000000,1718100287.740998983
1718100287.742006,,,,-15.436891556,-15.443364143,135607.000000000,1718100287.742006063
1718100287.743013,,,,-15.476702690,-15.480554581,135608.000000000,1718100287.743013144
1718100287.743759,264.407348633,27332.000000000,1718100287.743758678,,,,
1718100287.744020,,,,-15.515696526,-15.522144318,135609.000000000,1718100287.744020224
1718100287.745027,,,,-15.419533730,-15.423698425,135610.000000000,1718100287.745027304
1718100287.746034,,,,-15.348734856,-15.351264954,135611.000000000,1718100287.746034384
1718100287.747041,,,,-15.261155128,-15.265391350,135612.000000000,1718100287.747041464
1718100287.748049,,,,-15.180330276,-15.182980537,135613.000000000,1718100287.748048544
1718100287.748759,265.913696289,27333.000000000,1718100287.748758554,,,,
1718100287.749056,,,,-15.206630707,-15.212069511,135614.000000000,1718100287.749055624
1718100287.750063,,,,-15.282839775,-15.288806915,135615.000000000,1718100287.750062704
1718100287.751070,,,,-15.337026596,-15.343859673,135616.000000000,1718100287.751069784
1718100287.752077,,,,-15.492881775,-15.497334480,135617.000000000,1718100287.752076864
1718100287.753084,,,,-15.686287880,-15.692087173,135618.000000000,1718100287.753083944
1718100287.753759,267.275817871,27334.000000000,1718100287.753758669,,,,
1718100287.754091,,,,-15.724608421,-15.732619286,135619.000000000,1718100287.754091024
1718100287.755098,,,,-15.675061226,-15.683576584,135620.000000000,1718100287.755098104
1718100287.756105,,,,-15.593226433,-15.600588799,135621.000000000,1718100287.756105185
1718100287.757112,,,,-15.534615517,-15.544358253,135622.000000000,1718100287.757112265
1718100287.758119,,,,-15.449752808,-15.461971283,135623.000000000,1718100287.758119345
1718100287.758759,268.637908936,27335.000000000,1718100287.758758545,,,,
1718100287.759126,,,,-15.406912804,-15.413938522,135624.000000000,1718100287.759126425
1718100287.760134,,,,-15.388569832,-15.393671989,135625.000000000,1718100287.760133505
1718100287.761141,,,,-15.381357193,-15.386460304,135626.000000000,1718100287.761140585
1718100287.762148,,,,-15.395950317,-15.401245117,135627.000000000,1718100287.762147665
1718100287.763155,,,,-15.434414864,-15.440599442,135628.000000000,1718100287.763154745
1718100287.763759,269.871795654,27336.000000000,1718100287.763758659,,,,
1718100287.764162,,,,-15.429558754,-15.437906265,135629.000000000,1718100287.764161825
1718100287.765169,,,,-15.380492210,-15.386171341,135630.000000000,1718100287.765168905
1718100287.766176,,,,-15.348734856,-15.354221344,135631.000000000,1718100287.766175985
1718100287.767183,,,,-15.330031395,-15.336431503,135632.000000000,1718100287.767183065
1718100287.768190,,,,-15.289234161,-15.293879509,135633.000000000,1718100287.768190145
1718100287.768759,271.073669434,27337.000000000,1718100287.768758535,,,,
1718100287.769197,,,,-15.270217896,-15.275248528,135634.000000000,1718100287.769197226
1718100287.770204,,,,-15.311326981,-15.315516472,135635.000000000,1718100287.770204306
1718100287.771211,,,,-15.395493507,-15.403192520,135636.000000000,1718100287.771211386
1718100287.772218,,,,-15.478096962,-15.482669830,135637.000000000,1718100287.772218466
1718100287.773226,,,,-15.494684219,-15.501398087,135638.000000000,1718100287.773225546
1718100287.773759,272.147277832,27338.000000000,1718100287.773758650,,,,
1718100287.774233,,,,-15.474586487,-15.480314255,135639.000000000,1718100287.774232626
1718100287.775240,,,,-15.416456223,-15.423434258,135640.000000000,1718100287.775239706
1718100287.776247,,,,-15.471389771,-15.480386734,135641.000000000,1718100287.776246786
1718100287.777254,,,,-15.551203728,-15.555970192,135642.000000000,1718100287.777253866
1718100287.778261,,,,-15.566373825,-15.568783760,135643.000000000,1718100287.778260946
1718100287.778759,273.060729980,27339.000000000,1718100287.778758526,,,,
1718100287.779268,,,,-15.424198151,-15.430117607,135644.000000000,1718100287.779268026
1718100287.780275,,,,-15.339238167,-15.347081184,135645.000000000,1718100287.780275106
1718100287.781282,,,,-15.508460045,-15.518707275,135646.000000000,1718100287.781282187
1718100287.782289,,,,-15.629263878,-15.638068199,135647.000000000,1718100287.782289267
1718100287.783296,,,,-15.632533073,-15.639726639,135648.000000000,1718100287.783296347
1718100287.783759,274.038208008,27340.000000000,1718100287.783758640,,,,
1718100287.784303,,,,-15.545169830,-15.553397179,135649.000000000,1718100287.784303427
1718100287.785311,,,,-15.537428856,-15.542867661,135650.000000000,1718100287.785310507
1718100287.786318,,,,-15.591711998,-15.596718788,135651.000000000,1718100287.786317587
1718100287.787325,,,,-15.574018478,-15.576355934,135652.000000000,1718100287.787324667
1718100287.788332,,,,-15.566277504,-15.571235657,135653.000000000,1718100287.788331747
1718100287.789339,,,,-15.681215286,-15.686702728,135654.000000000,1718100287.789338827
1718100287.790346,,,,-15.759226799,-15.765748024,135655.000000000,1718100287.790345907
1718100287.791353,,,,-15.664867401,-15.670955658,135656.000000000,1718100287.791352987
1718100287.792360,,,,-15.553896904,-15.558012962,135657.000000000,1718100287.792360067
1718100287.793291,274.935638428,27341.000000000,1718100287.793291092,,,,
1718100287.793367,,,,-15.449632645,-15.456465721,135658.000000000,1718100287.793367147
1718100287.794374,,,,-15.425592422,-15.433122635,135659.000000000,1718100287.794374228
1718100287.795381,,,,-15.352004051,-15.356505394,135660.000000000,1718100287.795381308
1718100287.796388,,,,-15.244182587,-15.248995781,135661.000000000,1718100287.796388388
1718100287.797395,,,,-15.206462860,-15.210411072,135662.000000000,1718100287.797395468
1718100287.798291,275.720886230,27342.000000000,1718100287.798291206,,,,
1718100287.798403,,,,-15.202904701,-15.207622528,135663.000000000,1718100287.798402548
1718100287.799410,,,,-15.260842323,-15.266690254,135664.000000000,1718100287.799409628
1718100287.800417,,,,-15.309716225,-15.316862106,135665.000000000,1718100287.800416708
1718100287.801424,,,,-15.360442162,-15.367395401,135666.000000000,1718100287.801423788
1718100287.802431,,,,-15.452373505,-15.460144043,135667.000000000,1718100287.802430868
1718100287.803291,276.474151611,27343.000000000,1718100287.803291082,,,,
1718100287.803438,,,,-15.603107452,-15.607344627,135668.000000000,1718100287.803437948
1718100287.804445,,,,-15.821083069,-15.826786041,135669.000000000,1718100287.804445028
1718100287.805452,,,,-15.960229874,-15.967206955,135670.000000000,1718100287.805452108
1718100287.806459,,,,-15.862889290,-15.867295265,135671.000000000,1718100287.806459188
1718100287.807466,,,,-15.736797333,-15.742813110,135672.000000000,1718100287.807466269
1718100287.808291,277.211303711,27344.000000000,1718100287.808291197,,,,
1718100287.808473,,,,-15.694461823,-15.699131012,135673.000000000,1718100287.808473349
1718100287.809480,,,,-15.712395668,-15.717859268,135674.000000000,1718100287.809480429
1718100287.810488,,,,-15.508676529,-15.514860153,135675.000000000,1718100287.810487509
1718100287.811495,,,,-15.260313034,-15.267098427,135676.000000000,1718100287.811494589
1718100287.812502,,,,-15.189970970,-15.196323395,135677.000000000,1718100287.812501669
1718100287.813291,277.900451660,27345.000000000,1718100287.813291073,,,,
1718100287.813509,,,,-15.318299294,-15.321959496,135678.000000000,1718100287.813508749
1718100287.814516,,,,-15.440040588,-15.442426682,135679.000000000,1718100287.814515829
1718100287.815523,,,,-15.429198265,-15.432665825,135680.000000000,1718100287.815522909
1718100287.816530,,,,-15.375106812,-15.378262520,135681.000000000,1718100287.816529989
1718100287.817537,,,,-15.339478493,-15.344798088,135682.000000000,1718100287.817537069
1718100287.818544,,,,-15.329261780,-15.335758209,135683.000000000,1718100287.818544149
1718100287.819551,,,,-15.356884003,-15.364295006,135684.000000000,1718100287.819551229
1718100287.820558,,,,-15.374794006,-15.380401611,135685.000000000,1718100287.820558310
1718100287.821565,,,,-15.372174263,-15.378790855,135686.000000000,1718100287.821565390
1718100287.822572,,,,-15.368303299,-15.372131348,135687.000000000,1718100287.822572470
1718100287.823580,,,,-15.375515938,-15.377733231,135688.000000000,1718100287.823579550
1718100287.824587,,,,-15.386790276,-15.389056206,135689.000000000,1718100287.824586630
1718100287.825594,,,,-15.370779991,-15.374319077,135690.000000000,1718100287.825593710
1718100287.826601,,,,-15.457180977,-15.464231491,135691.000000000,1718100287.826600790
1718100287.827608,,,,-15.497858047,-15.503897667,135692.000000000,1718100287.827607870
1718100287.828615,,,,-15.458696365,-15.465240479,135693.000000000,1718100287.828614950
1718100287.829622,,,,-15.548030853,-15.555273056,135694.000000000,1718100287.829622030
1718100287.830629,,,,-15.635538101,-15.643213272,135695.000000000,1718100287.830629110
1718100287.831636,,,,-15.654962540,-15.660810471,135696.000000000,1718100287.831636190
1718100287.832643,,,,-15.548968315,-15.555200577,135697.000000000,1718100287.832643270
1718100287.833650,,,,-15.490188599,-15.496373177,135698.000000000,1718100287.833650351
1718100287.834657,,,,-15.487809181,-15.492527008,135699.000000000,1718100287.834657431
1718100287.835665,,,,-15.533221245,-15.539549828,135700.000000000,1718100287.835664511
1718100287.836672,,,,-15.510214806,-15.516303062,135701.000000000,1718100287.836671591
1718100287.837679,,,,-15.404004097,-15.408962250,135702.000000000,1718100287.837678671
1718100287.838686,,,,-15.396671295,-15.403600693,135703.000000000,1718100287.838685751
1718100287.839693,,,,-15.451243401,-15.455576897,135704.000000000,1718100287.839692831
1718100287.840700,,,,-15.429029465,-15.434204102,135705.000000000,1718100287.840699911
1718100287.841707,,,,-15.437131882,-15.444085121,135706.000000000,1718100287.841706991
1718100287.842714,,,,-15.421601295,-15.426752090,135707.000000000,1718100287.842714071
1718100287.843291,281.506896973,27351.000000000,1718100287.843291044,,,,
1718100287.843721,,,,-15.330199242,-15.336431503,135708.000000000,1718100287.843721151
1718100287.844728,,,,-15.394290924,-15.399201393,135709.000000000,1718100287.844728231
1718100287.845735,,,,-15.441242218,-15.447474480,135710.000000000,1718100287.845735312
1718100287.846742,,,,-15.454464912,-15.459663391,135711.000000000,1718100287.846742392
1718100287.847749,,,,-15.539135933,-15.545536041,135712.000000000,1718100287.847749472
1718100287.848291,281.971771240,27352.000000000,1718100287.848291159,,,,
1718100287.848757,,,,-15.592288971,-15.597343445,135713.000000000,1718100287.848756552
1718100287.849764,,,,-15.605895996,-15.612850189,135714.000000000,1718100287.849763632
1718100287.850771,,,,-15.516585350,-15.524211884,135715.000000000,1718100287.850770712
1718100287.851778,,,,-15.437563896,-15.444565773,135716.000000000,1718100287.851777792
1718100287.852785,,,,-15.356186867,-15.362227440,135717.000000000,1718100287.852784872
1718100287.853291,282.372528076,27353.000000000,1718100287.853291035,,,,
1718100287.853792,,,,-15.349936485,-15.359102249,135718.000000000,1718100287.853791952
1718100287.854799,,,,-15.523268700,-15.532915115,135719.000000000,1718100287.854799032
1718100287.855806,,,,-15.597890854,-15.604170799,135720.000000000,1718100287.855806112
1718100287.856813,,,,-15.594285011,-15.599987984,135721.000000000,1718100287.856813192
1718100287.857820,,,,-15.531971931,-15.539573669,135722.000000000,1718100287.857820272
1718100287.858291,282.821380615,27354.000000000,1718100287.858291149,,,,
1718100287.858827,,,,-15.374169350,-15.381555557,135723.000000000,1718100287.858827353
1718100287.859834,,,,-15.390805244,-15.395763397,135724.000000000,1718100287.859834433
1718100287.860842,,,,-15.592938423,-15.601262093,135725.000000000,1718100287.860841513
1718100287.861849,,,,-15.642558098,-15.651001930,135726.000000000,1718100287.861848593
1718100287.862856,,,,-15.749562263,-15.756587982,135727.000000000,1718100287.862855673
1718100287.863291,283.318359375,27355.000000000,1718100287.863291025,,,,
1718100287.863863,,,,-15.810072899,-15.814429283,135728.000000000,1718100287.863862753
1718100287.864870,,,,-15.657727242,-15.662854195,135729.000000000,1718100287.864869833
1718100287.865877,,,,-15.480284691,-15.486396790,135730.000000000,1718100287.865876913
1718100287.866884,,,,-15.373352051,-15.379680634,135731.000000000,1718100287.866883993
1718100287.867891,,,,-15.294570923,-15.299962044,135732.000000000,1718100287.867891073
1718100287.868291,283.767242432,27356.000000000,1718100287.868291140,,,,
1718100287.868898,,,,-15.314861298,-15.318881989,135733.000000000,1718100287.868898153
1718100287.869905,,,,-15.337892532,-15.344701767,135734.000000000,1718100287.869905233
1718100287.870912,,,,-15.261491776,-15.267603874,135735.000000000,1718100287.870912313
1718100287.871919,,,,-15.096885681,-15.103478432,135736.000000000,1718100287.871919394
1718100287.872926,,,,-14.996396065,-15.000032425,135737.000000000,1718100287.872926474
1718100287.873291,284.168060303,27357.000000000,1718100287.873291016,,,,
1718100287.873934,,,,-15.068013191,-15.072225571,135738.000000000,1718100287.873933554
1718100287.874941,,,,-15.360105515,-15.362202644,135739.000000000,1718100287.874940634
1718100287.875948,,,,-15.575412750,-15.581091881,135740.000000000,1718100287.875947714
1718100287.876955,,,,-15.627364159,-15.633259773,135741.000000000,1718100287.876954794
1718100287.877962,,,,-15.630201340,-15.635183334,135742.000000000,1718100287.877961874
1718100287.878291,284.600952148,27358.000000000,1718100287.878291130,,,,
1718100287.878969,,,,-15.507642746,-15.512455940,135743.000000000,1718100287.878968954
1718100287.879976,,,,-15.456676483,-15.462548256,135744.000000000,1718100287.879976034
1718100287.880983,,,,-15.529735565,-15.536040306,135745.000000000,1718100287.880983114
1718100287.881990,,,,-15.531826973,-15.537074089,135746.000000000,1718100287.881990194
1718100287.882997,,,,-15.514758110,-15.520173073,135747.000000000,1718100287.882997274
1718100287.883291,284.873535156,27359.000000000,1718100287.883291006,,,,
1718100287.884004,,,,-15.441675186,-15.445983887,135748.000000000,1718100287.884004354
1718100287.885011,,,,-15.419220924,-15.424179077,135749.000000000,1718100287.885011435
1718100287.886019,,,,-15.421168327,-15.428146362,135750.000000000,1718100287.886018515
1718100287.887026,,,,-15.395565033,-15.400859833,135751.000000000,1718100287.887025595
1718100287.888033,,,,-15.385324478,-15.391220093,135752.000000000,1718100287.888032675
1718100287.888291,285.274383545,27360.000000000,1718100287.888291121,,,,
1718100287.889040,,,,-15.551612854,-15.556522369,135753.000000000,1718100287.889039755
1718100287.890047,,,,-15.684508324,-15.688601494,135754.000000000,1718100287.890046835
1718100287.891054,,,,-15.714872360,-15.719037056,135755.000000000,1718100287.891053915
1718100287.892061,,,,-15.737037659,-15.741346359,135756.000000000,1718100287.892060995
1718100287.893068,,,,-15.744393349,-15.748774529,135757.000000000,1718100287.893068075
1718100287.894075,,,,-15.758000374,-15.760193825,135758.000000000,1718100287.894075155
1718100287.895082,,,,-15.677103996,-15.678960800,135759.000000000,1718100287.895082235
1718100287.896089,,,,-15.545122147,-15.548974037,135760.000000000,1718100287.896089315
1718100287.897096,,,,-15.544520378,-15.549190521,135761.000000000,1718100287.897096395
1718100287.898103,,,,-15.556468964,-15.561234474,135762.000000000,1718100287.898103476
1718100287.899111,,,,-15.545122147,-15.549141884,135763.000000000,1718100287.899110556
1718100287.900118,,,,-15.476798058,-15.482718468,135764.000000000,1718100287.900117636
1718100287.901125,,,,-15.442901611,-15.448388100,135765.000000000,1718100287.901124716
1718100287.902132,,,,-15.591567993,-15.598810196,135766.000000000,1718100287.902131796
1718100287.903139,,,,-15.654458046,-15.663575172,135767.000000000,1718100287.903138876
1718100287.904146,,,,-15.625561714,-15.629461288,135768.000000000,1718100287.904145956
1718100287.905153,,,,-15.434751511,-15.437065125,135769.000000000,1718100287.905153036
1718100287.906160,,,,-15.265938759,-15.273445129,135770.000000000,1718100287.906160116
1718100287.907167,,,,-15.334959030,-15.343835831,135771.000000000,1718100287.907167196
1718100287.908174,,,,-15.606208801,-15.611551285,135772.000000000,1718100287.908174276
1718100287.909181,,,,-15.762448311,-15.768007278,135773.000000000,1718100287.909181356
1718100287.910188,,,,-15.690807343,-15.696919441,135774.000000000,1718100287.910188437
1718100287.911196,,,,-15.456532478,-15.458365440,135775.000000000,1718100287.911195517
1718100287.912203,,,,-15.289378166,-15.293591499,135776.000000000,1718100287.912202597
1718100287.913210,,,,-15.297888756,-15.305322647,135777.000000000,1718100287.913209677
1718100287.914217,,,,-15.260746002,-15.267507553,135778.000000000,1718100287.914216757
1718100287.915224,,,,-15.172998428,-15.178268433,135779.000000000,1718100287.915223837
1718100287.916231,,,,-15.110901833,-15.115498543,135780.000000000,1718100287.916230917
1718100287.917238,,,,-15.230359077,-15.237456322,135781.000000000,1718100287.917237997
1718100287.918245,,,,-15.415134430,-15.421847343,135782.000000000,1718100287.918245077
1718100287.919252,,,,-15.514109612,-15.517961502,135783.000000000,1718100287.919252157
1718100287.920259,,,,-15.550002098,-15.554046631,135784.000000000,1718100287.920259237
1718100287.921266,,,,-15.540577888,-15.545151711,135785.000000000,1718100287.921266317
1718100287.922273,,,,-15.531538963,-15.536617279,135786.000000000,1718100287.922273397
1718100287.923280,,,,-15.537308693,-15.543011665,135787.000000000,1718100287.923280478
1718100287.924288,,,,-15.530481339,-15.534813881,135788.000000000,1718100287.924287558
1718100287.925295,,,,-15.445737839,-15.450695992,135789.000000000,1718100287.925294638
1718100287.926302,,,,-15.415687561,-15.420886040,135790.000000000,1718100287.926301718
1718100287.927309,,,,-15.465018272,-15.470458031,135791.000000000,1718100287.927308798
1718100287.928316,,,,-15.475163460,-15.482309341,135792.000000000,1718100287.928315878
1718100287.929323,,,,-15.386261940,-15.391917229,135793.000000000,1718100287.929322958
1718100287.930330,,,,-15.282719612,-15.287461281,135794.000000000,1718100287.930330038
1718100287.931337,,,,-15.242932320,-15.247264862,135795.000000000,1718100287.931337118
1718100287.932344,,,,-15.233147621,-15.239764214,135796.000000000,1718100287.932344198
1718100287.933351,,,,-15.247067451,-15.252963066,135797.000000000,1718100287.933351278
1718100287.934358,,,,-15.278656006,-15.282099724,135798.000000000,1718100287.934358358
1718100287.935365,,,,-15.413932800,-15.419804573,135799.000000000,1718100287.935365438
1718100287.936373,,,,-15.575076103,-15.579817772,135800.000000000,1718100287.936372519
1718100287.937380,,,,-15.678690910,-15.684995651,135801.000000000,1718100287.937379599
1718100287.938387,,,,-15.671479225,-15.676677704,135802.000000000,1718100287.938386679
1718100287.939394,,,,-15.585942268,-15.589771271,135803.000000000,1718100287.939393759
1718100287.940401,,,,-15.457036972,-15.460288048,135804.000000000,1718100287.940400839
1718100287.941408,,,,-15.322265625,-15.326815605,135805.000000000,1718100287.941407919
1718100287.942415,,,,-15.176580429,-15.181178093,135806.000000000,1718100287.942414999
1718100287.943422,,,,-15.273055077,-15.279383659,135807.000000000,1718100287.943422079
1718100287.944429,,,,-15.514734268,-15.519812584,135808.000000000,1718100287.944429159
1718100287.945436,,,,-15.637918472,-15.647035599,135809.000000000,1718100287.945436239
1718100287.946443,,,,-15.703668594,-15.714035988,135810.000000000,1718100287.946443319
1718100287.947450,,,,-15.704294205,-15.712882042,135811.000000000,1718100287.947450399
1718100287.948457,,,,-15.784589767,-15.789162636,135812.000000000,1718100287.948457479
1718100287.948819,288.144775391,27371.000000000,1718100287.948818922,,,,
1718100287.949465,,,,-15.774540901,-15.780027390,135813.000000000,1718100287.949464560
1718100287.950472,,,,-15.666237831,-15.671316147,135814.000000000,1718100287.950471640
1718100287.951479,,,,-15.616041183,-15.619388580,135815.000000000,1718100287.951478720
1718100287.952486,,,,-15.505575180,-15.506350517,135816.000000000,1718100287.952485800
1718100287.953493,,,,-15.506776810,-15.510293007,135817.000000000,1718100287.953492880
1718100287.953819,288.128784180,27372.000000000,1718100287.953819036,,,,
1718100287.954500,,,,-15.406095505,-15.412231445,135818.000000000,1718100287.954499960
1718100287.955507,,,,-15.420254707,-15.425189018,135819.000000000,1718100287.955507040
1718100287.956514,,,,-15.630321503,-15.634389877,135820.000000000,1718100287.956514120
1718100287.957521,,,,-15.719728470,-15.722835541,135821.000000000,1718100287.957521200
1718100287.958528,,,,-15.556540489,-15.561594963,135822.000000000,1718100287.958528280
1718100287.958819,288.160858154,27373.000000000,1718100287.958818913,,,,
1718100287.959535,,,,-15.318972588,-15.321766853,135823.000000000,1718100287.959535360
1718100287.960542,,,,-15.337603569,-15.341383934,135824.000000000,1718100287.960542440
1718100287.961550,,,,-15.538895607,-15.544405937,135825.000000000,1718100287.961549520
1718100287.962557,,,,-15.560338974,-15.566740036,135826.000000000,1718100287.962556601
1718100287.963564,,,,-15.498915672,-15.504042625,135827.000000000,1718100287.963563681
1718100287.963819,288.144775391,27374.000000000,1718100287.963819027,,,,
1718100287.964571,,,,-15.379385948,-15.382902145,135828.000000000,1718100287.964570761
1718100287.965578,,,,-15.341089249,-15.345038414,135829.000000000,1718100287.965577841
1718100287.966585,,,,-15.524351120,-15.531184196,135830.000000000,1718100287.966584921
1718100287.967592,,,,-15.679388046,-15.686389923,135831.000000000,1718100287.967592001
1718100287.968599,,,,-15.646813393,-15.653742790,135832.000000000,1718100287.968599081
1718100287.968819,288.241027832,27375.000000000,1718100287.968818903,,,,
1718100287.969606,,,,-15.557045937,-15.560609818,135833.000000000,1718100287.969606161
1718100287.970613,,,,-15.476125717,-15.479953766,135834.000000000,1718100287.970613241
1718100287.971620,,,,-15.355658531,-15.361865997,135835.000000000,1718100287.971620321
1718100287.972627,,,,-15.234085083,-15.241278648,135836.000000000,1718100287.972627401
1718100287.973634,,,,-15.270530701,-15.274287224,135837.000000000,1718100287.973634481
1718100287.973819,288.305175781,27376.000000000,1718100287.973819017,,,,
1718100287.974642,,,,-15.374145508,-15.378574371,135838.000000000,1718100287.974641562
1718100287.975649,,,,-15.551684380,-15.557604790,135839.000000000,1718100287.975648642
1718100287.976656,,,,-15.705664635,-15.711896896,135840.000000000,1718100287.976655722
1718100287.977663,,,,-15.797139168,-15.800967216,135841.000000000,1718100287.977662802
1718100287.978670,,,,-15.761871338,-15.767719269,135842.000000000,1718100287.978669882
1718100287.978819,288.305175781,27377.000000000,1718100287.978818893,,,,
1718100287.979677,,,,-15.688812256,-15.697328568,135843.000000000,1718100287.979676962
1718100287.980684,,,,-15.749418259,-15.755674362,135844.000000000,1718100287.980684042
1718100287.981691,,,,-15.794061661,-15.798586845,135845.000000000,1718100287.981691122
1718100287.982698,,,,-15.733190536,-15.735816956,135846.000000000,1718100287.982698202
1718100287.983705,,,,-15.719126701,-15.724373817,135847.000000000,1718100287.983705282
1718100287.983819,288.353302002,27378.000000000,1718100287.983819008,,,,
1718100287.984712,,,,-15.535938263,-15.544189453,135848.000000000,1718100287.984712362
1718100287.985719,,,,-15.395156860,-15.402062416,135849.000000000,1718100287.985719442
1718100287.986727,,,,-15.364408493,-15.369198799,135850.000000000,1718100287.986726522
1718100287.987734,,,,-15.359408379,-15.365592957,135851.000000000,1718100287.987733603
1718100287.988741,,,,-15.397416115,-15.404827118,135852.000000000,1718100287.988740683
1718100287.988819,288.401458740,27379.000000000,1718100287.988818884,,,,
1718100287.989748,,,,-15.385372162,-15.393287659,135853.000000000,1718100287.989747763
1718100287.990755,,,,-15.254111290,-15.259573936,135854.000000000,1718100287.990754843
1718100287.991762,,,,-15.179345131,-15.186707497,135855.000000000,1718100287.991761923
1718100287.992769,,,,-15.209972382,-15.214666367,135856.000000000,1718100287.992769003
1718100287.993583,288.577819824,27381.000000000,1718100287.993583441,,,,
1718100287.993776,,,,-15.206727028,-15.213583946,135857.000000000,1718100287.993776083
1718100287.993819,288.513671875,27380.000000000,1718100287.993818998,,,,
1718100287.994783,,,,-15.372606277,-15.378646851,135858.000000000,1718100287.994783163
1718100287.995790,,,,-15.475860596,-15.480050087,135859.000000000,1718100287.995790243
1718100287.996797,,,,-15.426673889,-15.432641983,135860.000000000,1718100287.996797323
1718100287.997804,,,,-15.324501991,-15.328113556,135861.000000000,1718100287.997804403
1718100287.998584,288.754272461,27382.000000000,1718100287.998583555,,,,
1718100287.998811,,,,-15.327987671,-15.331719398,135862.000000000,1718100287.998811483
1718100287.999819,,,,-15.438020706,-15.440719604,135863.000000000,1718100287.999818563
1718100288.000826,,,,-15.544376373,-15.548060417,135864.000000000,1718100288.000825644
1718100288.001833,,,,-15.696480751,-15.702136040,135865.000000000,1718100288.001832724
1718100288.002840,,,,-15.729392052,-15.734182358,135866.000000000,1718100288.002839804
1718100288.003583,288.754272461,27383.000000000,1718100288.003583431,,,,
1718100288.003847,,,,-15.567551613,-15.575562477,135867.000000000,1718100288.003846884
1718100288.004854,,,,-15.402681351,-15.411125183,135868.000000000,1718100288.004853964
1718100288.005861,,,,-15.373183250,-15.379584312,135869.000000000,1718100288.005861044
1718100288.006868,,,,-15.432707787,-15.439685822,135870.000000000,1718100288.006868124
1718100288.007875,,,,-15.538198471,-15.548036575,135871.000000000,1718100288.007875204
1718100288.008584,288.882568359,27384.000000000,1718100288.008583546,,,,
1718100288.008882,,,,-15.551179886,-15.560417175,135872.000000000,1718100288.008882284
1718100288.009889,,,,-15.518676758,-15.525582314,135873.000000000,1718100288.009889364
1718100288.010896,,,,-15.480044365,-15.484160423,135874.000000000,1718100288.010896444
1718100288.011904,,,,-15.432250977,-15.439541817,135875.000000000,1718100288.011903524
1718100288.012911,,,,-15.409292221,-15.414226532,135876.000000000,1718100288.012910604
1718100288.013583,288.882568359,27385.000000000,1718100288.013583422,,,,
1718100288.013918,,,,-15.389290810,-15.392518044,135877.000000000,1718100288.013917685
1718100288.014925,,,,-15.370226860,-15.372804642,135878.000000000,1718100288.014924765
1718100288.015932,,,,-15.393858910,-15.397470474,135879.000000000,1718100288.015931845
1718100288.016939,,,,-15.449945450,-15.456033707,135880.000000000,1718100288.016938925
1718100288.017946,,,,-15.488578796,-15.494257927,135881.000000000,1718100288.017946005
1718100288.018953,,,,-15.448671341,-15.457475662,135882.000000000,1718100288.018953085
1718100288.019960,,,,-15.399700165,-15.411077499,135883.000000000,1718100288.019960165
1718100288.020967,,,,-15.327627182,-15.333017349,135884.000000000,1718100288.020967245
1718100288.021974,,,,-15.346955299,-15.354413986,135885.000000000,1718100288.021974325
1718100288.022981,,,,-15.475789070,-15.481804848,135886.000000000,1718100288.022981405
1718100288.023988,,,,-15.701289177,-15.707689285,135887.000000000,1718100288.023988485
1718100288.024996,,,,-15.827526093,-15.835152626,135888.000000000,1718100288.024995565
1718100288.026003,,,,-15.873058319,-15.878593445,135889.000000000,1718100288.026002645
1718100288.027010,,,,-15.906331062,-15.911024094,135890.000000000,1718100288.027009726
1718100288.028017,,,,-15.845748901,-15.852749825,135891.000000000,1718100288.028016806
1718100288.029024,,,,-15.711121559,-15.717282295,135892.000000000,1718100288.029023886
1718100288.030031,,,,-15.505286217,-15.511758804,135893.000000000,1718100288.030030966
1718100288.031038,,,,-15.326280594,-15.331719398,135894.000000000,1718100288.031038046
1718100288.032045,,,,-15.356307030,-15.358885765,135895.000000000,1718100288.032045126
1718100288.033052,,,,-15.370467186,-15.370977402,135896.000000000,1718100288.033052206
1718100288.034059,,,,-15.228772163,-15.232383728,135897.000000000,1718100288.034059286
1718100288.035066,,,,-15.123979568,-15.128433228,135898.000000000,1718100288.035066366
1718100288.036073,,,,-15.055727959,-15.058691025,135899.000000000,1718100288.036073446
1718100288.037081,,,,-15.159415245,-15.161969185,135900.000000000,1718100288.037080526
1718100288.038088,,,,-15.428981781,-15.430742264,135901.000000000,1718100288.038087606
1718100288.039095,,,,-15.571686745,-15.577293396,135902.000000000,1718100288.039094687
1718100288.040102,,,,-15.608396530,-15.612921715,135903.000000000,1718100288.040101767
1718100288.041109,,,,-15.765813828,-15.767310143,135904.000000000,1718100288.041108847
1718100288.042116,,,,-15.743528366,-15.747332573,135905.000000000,1718100288.042115927
1718100288.043123,,,,-15.695927620,-15.703218460,135906.000000000,1718100288.043123007
1718100288.043583,289.042968750,27391.000000000,1718100288.043583393,,,,
1718100288.044130,,,,-15.532283783,-15.539694786,135907.000000000,1718100288.044130087
1718100288.045137,,,,-15.348830223,-15.354029655,135908.000000000,1718100288.045137167
1718100288.046144,,,,-15.344022751,-15.348668098,135909.000000000,1718100288.046144247
1718100288.047151,,,,-15.372510910,-15.378502846,135910.000000000,1718100288.047151327
1718100288.048158,,,,-15.353878975,-15.360159874,135911.000000000,1718100288.048158407
1718100288.048584,289.010894775,27392.000000000,1718100288.048583508,,,,
1718100288.049165,,,,-15.297264099,-15.303760529,135912.000000000,1718100288.049165487
1718100288.050173,,,,-15.268366814,-15.276498795,135913.000000000,1718100288.050172567
1718100288.051180,,,,-15.317698479,-15.325637817,135914.000000000,1718100288.051179647
1718100288.052187,,,,-15.426794052,-15.435070038,135915.000000000,1718100288.052186728
1718100288.053194,,,,-15.521970749,-15.531375885,135916.000000000,1718100288.053193808
1718100288.053583,289.091094971,27393.000000000,1718100288.053583384,,,,
1718100288.054201,,,,-15.588395119,-15.593280792,135917.000000000,1718100288.054200888
1718100288.055208,,,,-15.601905823,-15.605733871,135918.000000000,1718100288.055207968
1718100288.056215,,,,-15.736677170,-15.742596626,135919.000000000,1718100288.056215048
1718100288.057222,,,,-15.833319664,-15.836931229,135920.000000000,1718100288.057222128
1718100288.058229,,,,-15.867264748,-15.872943878,135921.000000000,1718100288.058229208
1718100288.058583,289.091094971,27394.000000000,1718100288.058583498,,,,
1718100288.059236,,,,-15.959388733,-15.966125488,135922.000000000,1718100288.059236288
1718100288.060243,,,,-16.107093811,-16.113132477,135923.000000000,1718100288.060243368
1718100288.061250,,,,-16.094280243,-16.101064682,135924.000000000,1718100288.061250448
1718100288.062258,,,,-15.847023010,-15.852005005,135925.000000000,1718100288.062257528
1718100288.063265,,,,-15.491583824,-15.495748520,135926.000000000,1718100288.063264608
1718100288.063583,289.139190674,27395.000000000,1718100288.063583374,,,,
1718100288.064272,,,,-15.204058647,-15.209136963,135927.000000000,1718100288.064271688
1718100288.065279,,,,-15.177614212,-15.181129456,135928.000000000,1718100288.065278769
1718100288.066286,,,,-15.287550926,-15.292629242,135929.000000000,1718100288.066285849
1718100288.067293,,,,-15.347340584,-15.355207443,135930.000000000,1718100288.067292929
1718100288.068300,,,,-15.462518692,-15.472717285,135931.000000000,1718100288.068300009
1718100288.068583,289.075042725,27396.000000000,1718100288.068583488,,,,
1718100288.069307,,,,-15.567935944,-15.573856354,135932.000000000,1718100288.069307089
1718100288.070314,,,,-15.483770370,-15.490170479,135933.000000000,1718100288.070314169
1718100288.071321,,,,-15.438934326,-15.446296692,135934.000000000,1718100288.071321249
1718100288.072328,,,,-15.469490051,-15.471370697,135935.000000000,1718100288.072328329
1718100288.073335,,,,-15.408403397,-15.411053658,135936.000000000,1718100288.073335409
1718100288.073583,289.187347412,27397.000000000,1718100288.073583364,,,,
1718100288.074342,,,,-15.233484268,-15.236662865,135937.000000000,1718100288.074342489
1718100288.075350,,,,-15.189393997,-15.194399834,135938.000000000,1718100288.075349569
1718100288.076357,,,,-15.300917625,-15.307582855,135939.000000000,1718100288.076356649
1718100288.077364,,,,-15.400397301,-15.405427933,135940.000000000,1718100288.077363729
1718100288.078371,,,,-15.441434860,-15.444854736,135941.000000000,1718100288.078370810
1718100288.078583,289.347717285,27398.000000000,1718100288.078583479,,,,
1718100288.079378,,,,-15.586591721,-15.591670036,135942.000000000,1718100288.079377890
1718100288.080385,,,,-15.648856163,-15.655089378,135943.000000000,1718100288.080384970
1718100288.081392,,,,-15.555242538,-15.561547279,135944.000000000,1718100288.081392050
1718100288.082399,,,,-15.390877724,-15.397638321,135945.000000000,1718100288.082399130
1718100288.083406,,,,-15.370178223,-15.374078751,135946.000000000,1718100288.083406210
1718100288.083583,289.283569336,27399.000000000,1718100288.083583355,,,,
1718100288.084413,,,,-15.363519669,-15.365569115,135947.000000000,1718100288.084413290
1718100288.085420,,,,-15.292599678,-15.295562744,135948.000000000,1718100288.085420370
1718100288.086427,,,,-15.283752441,-15.288615227,135949.000000000,1718100288.086427450
1718100288.087435,,,,-15.301398277,-15.307222366,135950.000000000,1718100288.087434530
1718100288.088374,289.267517090,27401.000000000,1718100288.088374376,,,,
1718100288.088442,,,,-15.280002594,-15.287869453,135951.000000000,1718100288.088441610
1718100288.088583,289.299591064,27400.000000000,1718100288.088583469,,,,
1718100288.089449,,,,-15.319429398,-15.327656746,135952.000000000,1718100288.089448690
1718100288.090456,,,,-15.319861412,-15.327440262,135953.000000000,1718100288.090455770
1718100288.091463,,,,-15.246922493,-15.254405022,135954.000000000,1718100288.091462851
1718100288.092470,,,,-15.241970062,-15.246567726,135955.000000000,1718100288.092469931
1718100288.093374,289.203338623,27402.000000000,1718100288.093374491,,,,
1718100288.093477,,,,-15.445954323,-15.449951172,135956.000000000,1718100288.093477011
1718100288.094484,,,,-15.612386703,-15.615229607,135957.000000000,1718100288.094484091
1718100288.095491,,,,-15.592721939,-15.600276947,135958.000000000,1718100288.095491171
1718100288.096498,,,,-15.661766052,-15.670402527,135959.000000000,1718100288.096498251
1718100288.097505,,,,-15.537789345,-15.546257019,135960.000000000,1718100288.097505331
1718100288.098374,289.042968750,27403.000000000,1718100288.098374367,,,,
1718100288.098512,,,,-15.437179565,-15.443364143,135961.000000000,1718100288.098512411
1718100288.099519,,,,-15.599958420,-15.608762741,135962.000000000,1718100288.099519491
1718100288.100527,,,,-15.945132256,-15.955956459,135963.000000000,1718100288.100526571
1718100288.101534,,,,-16.067426682,-16.073850632,135964.000000000,1718100288.101533651
1718100288.102541,,,,-16.069879532,-16.074235916,135965.000000000,1718100288.102540731
1718100288.103548,,,,-16.010690689,-16.018100739,135966.000000000,1718100288.103547812
1718100288.104555,,,,-15.822069168,-15.829647064,135967.000000000,1718100288.104554892
1718100288.105562,,,,-15.788315773,-15.794524193,135968.000000000,1718100288.105561972
1718100288.106569,,,,-15.723838806,-15.728244781,135969.000000000,1718100288.106569052
1718100288.107576,,,,-15.665757179,-15.669441223,135970.000000000,1718100288.107576132
1718100288.108583,,,,-15.501680374,-15.507624626,135971.000000000,1718100288.108583212
1718100288.109590,,,,-15.386646271,-15.391941071,135972.000000000,1718100288.109590292
1718100288.110597,,,,-15.267356873,-15.270993233,135973.000000000,1718100288.110597372
1718100288.111604,,,,-15.135951996,-15.138746262,135974.000000000,1718100288.111604452
1718100288.112612,,,,-15.056617737,-15.060951233,135975.000000000,1718100288.112611532
1718100288.113619,,,,-15.106934547,-15.113575935,135976.000000000,1718100288.113618612
1718100288.114626,,,,-15.227954865,-15.236085892,135977.000000000,1718100288.114625692
1718100288.115633,,,,-15.331930161,-15.337633133,135978.000000000,1718100288.115632772
1718100288.116640,,,,-15.545506477,-15.549791336,135979.000000000,1718100288.116639853
1718100288.117647,,,,-15.707900047,-15.715791702,135980.000000000,1718100288.117646933
1718100288.118654,,,,-15.746340752,-15.752501488,135981.000000000,1718100288.118654013
1718100288.119661,,,,-15.657295227,-15.661531448,135982.000000000,1718100288.119661093
1718100288.120668,,,,-15.472423553,-15.478343010,135983.000000000,1718100288.120668173
1718100288.121675,,,,-15.329405785,-15.335517883,135984.000000000,1718100288.121675253
1718100288.122682,,,,-15.318803787,-15.325685501,135985.000000000,1718100288.122682333
1718100288.123689,,,,-15.334647179,-15.340109825,135986.000000000,1718100288.123689413
1718100288.124696,,,,-15.301614761,-15.307679176,135987.000000000,1718100288.124696493
1718100288.125704,,,,-15.322626114,-15.325973511,135988.000000000,1718100288.125703573
1718100288.126711,,,,-15.359071732,-15.363813400,135989.000000000,1718100288.126710653
1718100288.127718,,,,-15.467831612,-15.474184036,135990.000000000,1718100288.127717733
1718100288.128725,,,,-15.594765663,-15.600228310,135991.000000000,1718100288.128724813
1718100288.129732,,,,-15.631042480,-15.635807991,135992.000000000,1718100288.129731894
1718100288.130739,,,,-15.645755768,-15.652108192,135993.000000000,1718100288.130738974
1718100288.131746,,,,-15.690157890,-15.695765495,135994.000000000,1718100288.131746054
1718100288.132753,,,,-15.722493172,-15.730624199,135995.000000000,1718100288.132753134
1718100288.133760,,,,-15.664916039,-15.671316147,135996.000000000,1718100288.133760214
1718100288.134767,,,,-15.579571724,-15.583255768,135997.000000000,1718100288.134767294
1718100288.135774,,,,-15.450233459,-15.455240250,135998.000000000,1718100288.135774374
1718100288.136781,,,,-15.410518646,-15.414275169,135999.000000000,1718100288.136781454
1718100288.137789,,,,-15.534159660,-15.540367126,136000.000000000,1718100288.137788534
1718100288.138374,288.641967773,27411.000000000,1718100288.138374329,,,,
1718100288.138796,,,,-15.737831116,-15.743510246,136001.000000000,1718100288.138795614
1718100288.139803,,,,-15.900705338,-15.906841278,136002.000000000,1718100288.139802694
1718100288.140810,,,,-15.963307381,-15.968457222,136003.000000000,1718100288.140809774
1718100288.141817,,,,-16.051536560,-16.057575226,136004.000000000,1718100288.141816854
1718100288.142824,,,,-16.066513062,-16.070629120,136005.000000000,1718100288.142823935
1718100288.143374,288.690124512,27412.000000000,1718100288.143374443,,,,
1718100288.143831,,,,-15.801946640,-15.806231499,136006.000000000,1718100288.143831015
1718100288.144838,,,,-15.358518600,-15.364606857,136007.000000000,1718100288.144838095
1718100288.145845,,,,-15.135831833,-15.143001556,136008.000000000,1718100288.145845175
1718100288.146852,,,,-15.079913139,-15.082299232,136009.000000000,1718100288.146852255
1718100288.147859,,,,-15.192711830,-15.194592476,136010.000000000,1718100288.147859335
1718100288.148374,288.722198486,27413.000000000,1718100288.148374319,,,,
1718100288.148866,,,,-15.294691086,-15.296452522,136011.000000000,1718100288.148866415
1718100288.149873,,,,-15.285844803,-15.289624214,136012.000000000,1718100288.149873495
1718100288.150881,,,,-15.232978821,-15.236783028,136013.000000000,1718100288.150880575
1718100288.151888,,,,-15.197255135,-15.205025673,136014.000000000,1718100288.151887655
1718100288.152895,,,,-15.211606979,-15.217742920,136015.000000000,1718100288.152894735
1718100288.153374,288.754272461,27414.000000000,1718100288.153374434,,,,
1718100288.153902,,,,-15.256634712,-15.261448860,136016.000000000,1718100288.153901815
1718100288.154909,,,,-15.371885300,-15.377252579,136017.000000000,1718100288.154908895
1718100288.155916,,,,-15.478096962,-15.483030319,136018.000000000,1718100288.155915976
1718100288.156923,,,,-15.474635124,-15.480001450,136019.000000000,1718100288.156923056
1718100288.157930,,,,-15.517811775,-15.522216797,136020.000000000,1718100288.157930136
1718100288.158374,288.674041748,27415.000000000,1718100288.158374310,,,,
1718100288.158937,,,,-15.559305191,-15.567052841,136021.000000000,1718100288.158937216
1718100288.159944,,,,-15.683691025,-15.690572739,136022.000000000,1718100288.159944296
1718100288.160951,,,,-15.708693504,-15.717714310,136023.000000000,1718100288.160951376
1718100288.161958,,,,-15.556059837,-15.561450958,136024.000000000,1718100288.161958456
1718100288.162966,,,,-15.392896652,-15.398167610,136025.000000000,1718100288.162965536
1718100288.163374,288.561828613,27416.000000000,1718100288.163374424,,,,
1718100288.163973,,,,-15.333637238,-15.337489128,136026.000000000,1718100288.163972616
1718100288.164980,,,,-15.321808815,-15.328978539,136027.000000000,1718100288.164979696
1718100288.165987,,,,-15.372390747,-15.380377769,136028.000000000,1718100288.165986776
1718100288.166994,,,,-15.416697502,-15.423001289,136029.000000000,1718100288.166993856
1718100288.168001,,,,-15.509133339,-15.512985229,136030.000000000,1718100288.168000937
1718100288.168374,288.433532715,27417.000000000,1718100288.168374300,,,,
1718100288.169008,,,,-15.587985992,-15.591646194,136031.000000000,1718100288.169008017
1718100288.170015,,,,-15.652246475,-15.656891823,136032.000000000,1718100288.170015097
1718100288.171022,,,,-15.789613724,-15.795437813,136033.000000000,1718100288.171022177
1718100288.172029,,,,-15.850556374,-15.854265213,136034.000000000,1718100288.172029257
1718100288.173036,,,,-15.788339615,-15.792552948,136035.000000000,1718100288.173036337
1718100288.173374,288.289154053,27418.000000000,1718100288.173374414,,,,
1718100288.174043,,,,-15.720329285,-15.727042198,136036.000000000,1718100288.174043417
1718100288.175050,,,,-15.635682106,-15.642034531,136037.000000000,1718100288.175050497
1718100288.176058,,,,-15.563176155,-15.568230629,136038.000000000,1718100288.176057577
1718100288.177065,,,,-15.435929298,-15.439469337,136039.000000000,1718100288.177064657
1718100288.178072,,,,-15.384722710,-15.390643120,136040.000000000,1718100288.178071737
1718100288.178374,288.096710205,27419.000000000,1718100288.178374290,,,,
1718100288.179079,,,,-15.450498581,-15.457764626,136041.000000000,1718100288.179078817
1718100288.180086,,,,-15.492592812,-15.496300697,136042.000000000,1718100288.180085897
1718100288.181093,,,,-15.497905731,-15.502407074,136043.000000000,1718100288.181092978
1718100288.182100,,,,-15.434270859,-15.440238953,136044.000000000,1718100288.182100058
1718100288.183107,,,,-15.455739021,-15.459038734,136045.000000000,1718100288.183107138
1718100288.183374,287.904266357,27420.000000000,1718100288.183374405,,,,
1718100288.184114,,,,-15.612939835,-15.616527557,136046.000000000,1718100288.184114218
1718100288.185121,,,,-15.742254257,-15.748173714,136047.000000000,1718100288.185121298
1718100288.186128,,,,-15.784733772,-15.790076256,136048.000000000,1718100288.186128378
1718100288.187135,,,,-15.693692207,-15.702929497,136049.000000000,1718100288.187135458
1718100288.188143,,,,-15.611978531,-15.617344856,136050.000000000,1718100288.188142538
1718100288.189150,,,,-15.511128426,-15.515005112,136051.000000000,1718100288.189149618
1718100288.190157,,,,-15.389723778,-15.397157669,136052.000000000,1718100288.190156698
1718100288.191164,,,,-15.394747734,-15.401581764,136053.000000000,1718100288.191163778
1718100288.192171,,,,-15.536828041,-15.544742584,136054.000000000,1718100288.192170858
1718100288.193178,,,,-15.566950798,-15.576308250,136055.000000000,1718100288.193177938
1718100288.194185,,,,-15.548102379,-15.552435875,136056.000000000,1718100288.194185019
1718100288.195192,,,,-15.554257393,-15.557364464,136057.000000000,1718100288.195192099
1718100288.196199,,,,-15.509301186,-15.514163017,136058.000000000,1718100288.196199179
1718100288.197206,,,,-15.380323410,-15.385763168,136059.000000000,1718100288.197206259
1718100288.198213,,,,-15.342772484,-15.349845886,136060.000000000,1718100288.198213339
1718100288.199220,,,,-15.477760315,-15.484184265,136061.000000000,1718100288.199220419
1718100288.200227,,,,-15.607506752,-15.612537384,136062.000000000,1718100288.200227499
1718100288.201235,,,,-15.565411568,-15.571812630,136063.000000000,1718100288.201234579
1718100288.202242,,,,-15.575725555,-15.579000473,136064.000000000,1718100288.202241659
1718100288.203249,,,,-15.607386589,-15.611454964,136065.000000000,1718100288.203248739
1718100288.204256,,,,-15.584716797,-15.590660095,136066.000000000,1718100288.204255819
1718100288.205263,,,,-15.588298798,-15.594867706,136067.000000000,1718100288.205262899
1718100288.206270,,,,-15.537308693,-15.543949127,136068.000000000,1718100288.206269979
1718100288.207277,,,,-15.544616699,-15.551065445,136069.000000000,1718100288.207277060
1718100288.208284,,,,-15.505118370,-15.509619713,136070.000000000,1718100288.208284140
1718100288.209291,,,,-15.476726532,-15.482333183,136071.000000000,1718100288.209291220
1718100288.210298,,,,-15.565940857,-15.573880196,136072.000000000,1718100288.210298300
1718100288.211305,,,,-15.640754700,-15.645521164,136073.000000000,1718100288.211305380
1718100288.212312,,,,-15.625561714,-15.631384850,136074.000000000,1718100288.212312460
1718100288.213320,,,,-15.628206253,-15.634222031,136075.000000000,1718100288.213319540
1718100288.214327,,,,-15.792210579,-15.797817230,136076.000000000,1718100288.214326620
1718100288.215334,,,,-15.939891815,-15.945330620,136077.000000000,1718100288.215333700
1718100288.216341,,,,-15.990208626,-15.995310783,136078.000000000,1718100288.216340780
1718100288.217348,,,,-15.885030746,-15.890806198,136079.000000000,1718100288.217347860
1718100288.218355,,,,-15.645009995,-15.649991989,136080.000000000,1718100288.218354940
1718100288.219362,,,,-15.535217285,-15.538949013,136081.000000000,1718100288.219362020
1718100288.220369,,,,-15.449031830,-15.452956200,136082.000000000,1718100288.220369101
1718100288.221376,,,,-15.382800102,-15.386435509,136083.000000000,1718100288.221376181
1718100288.222383,,,,-15.361692429,-15.366890907,136084.000000000,1718100288.222383261
1718100288.223390,,,,-15.256033897,-15.261016846,136085.000000000,1718100288.223390341
1718100288.224397,,,,-15.147611618,-15.151103020,136086.000000000,1718100288.224397421
1718100288.225405,,,,-15.272021294,-15.275512695,136087.000000000,1718100288.225404501
1718100288.226412,,,,-15.486246109,-15.491926193,136088.000000000,1718100288.226411581
1718100288.227419,,,,-15.549616814,-15.557364464,136089.000000000,1718100288.227418661
1718100288.228426,,,,-15.570267677,-15.573687553,136090.000000000,1718100288.228425741
1718100288.229433,,,,-15.562286377,-15.566066742,136091.000000000,1718100288.229432821
1718100288.230440,,,,-15.552357674,-15.556330681,136092.000000000,1718100288.230439901
1718100288.231447,,,,-15.569018364,-15.574841499,136093.000000000,1718100288.231446981
1718100288.232454,,,,-15.609743118,-15.613498688,136094.000000000,1718100288.232454062
1718100288.233461,,,,-15.576253891,-15.584193230,136095.000000000,1718100288.233461142
1718100288.234468,,,,-15.579860687,-15.586741447,136096.000000000,1718100288.234468222
1718100288.235475,,,,-15.655491829,-15.662590027,136097.000000000,1718100288.235475302
1718100288.236482,,,,-15.655924797,-15.662157059,136098.000000000,1718100288.236482382
1718100288.237489,,,,-15.558944702,-15.564912796,136099.000000000,1718100288.237489462
1718100288.238497,,,,-15.378544807,-15.383912086,136100.000000000,1718100288.238496542
1718100288.239504,,,,-15.260481834,-15.266064644,136101.000000000,1718100288.239503622
1718100288.240511,,,,-15.242235184,-15.245630264,136102.000000000,1718100288.240510702
1718100288.241518,,,,-15.269809723,-15.273133278,136103.000000000,1718100288.241517782
1718100288.242525,,,,-15.392632484,-15.399369240,136104.000000000,1718100288.242524862
1718100288.243532,,,,-15.548607826,-15.555296898,136105.000000000,1718100288.243531942
1718100288.243664,286.909973145,27431.000000000,1718100288.243663549,,,,
1718100288.244539,,,,-15.628061295,-15.634582520,136106.000000000,1718100288.244539022
1718100288.245546,,,,-15.606328964,-15.615422249,136107.000000000,1718100288.245546103
1718100288.246553,,,,-15.603611946,-15.610830307,136108.000000000,1718100288.246553183
1718100288.247560,,,,-15.633133888,-15.636506081,136109.000000000,1718100288.247560263
1718100288.248567,,,,-15.566590309,-15.569912910,136110.000000000,1718100288.248567343
1718100288.248664,286.893920898,27432.000000000,1718100288.248663664,,,,
1718100288.249574,,,,-15.451050758,-15.457066536,136111.000000000,1718100288.249574423
1718100288.250582,,,,-15.414148331,-15.420453072,136112.000000000,1718100288.250581503
1718100288.251589,,,,-15.417490005,-15.423650742,136113.000000000,1718100288.251588583
1718100288.252596,,,,-15.417178154,-15.420838356,136114.000000000,1718100288.252595663
1718100288.253603,,,,-15.423164368,-15.427160263,136115.000000000,1718100288.253602743
1718100288.253664,286.765625000,27433.000000000,1718100288.253663540,,,,
1718100288.254610,,,,-15.458647728,-15.464206696,136116.000000000,1718100288.254609823
1718100288.255617,,,,-15.540265083,-15.544935226,136117.000000000,1718100288.255616903
1718100288.256624,,,,-15.539953232,-15.544694901,136118.000000000,1718100288.256623983
1718100288.257631,,,,-15.539784431,-15.546113014,136119.000000000,1718100288.257631063
1718100288.258638,,,,-15.556445122,-15.563999176,136120.000000000,1718100288.258638144
1718100288.258664,286.605285645,27434.000000000,1718100288.258663654,,,,
1718100288.259645,,,,-15.484851837,-15.491229057,136121.000000000,1718100288.259645224
1718100288.260652,,,,-15.434775352,-15.441080093,136122.000000000,1718100288.260652304
1718100288.261659,,,,-15.495958328,-15.502359390,136123.000000000,1718100288.261659384
1718100288.262666,,,,-15.495502472,-15.501037598,136124.000000000,1718100288.262666464
1718100288.263664,286.444946289,27435.000000000,1718100288.263663530,,,,
1718100288.263674,,,,-15.544833183,-15.550921440,136125.000000000,1718100288.263673544
1718100288.264681,,,,-15.592962265,-15.601911545,136126.000000000,1718100288.264680624
1718100288.265688,,,,-15.677801132,-15.684105873,136127.000000000,1718100288.265687704
1718100288.266695,,,,-15.829833984,-15.837147713,136128.000000000,1718100288.266694784
1718100288.267702,,,,-15.844546318,-15.850730896,136129.000000000,1718100288.267701864
1718100288.268664,286.140258789,27436.000000000,1718100288.268663645,,,,
1718100288.268709,,,,-15.794133186,-15.801327705,136130.000000000,1718100288.268708944
1718100288.269716,,,,-15.769636154,-15.776205063,136131.000000000,1718100288.269716024
1718100288.270723,,,,-15.694413185,-15.699371338,136132.000000000,1718100288.270723104
1718100288.271730,,,,-15.695135117,-15.697640419,136133.000000000,1718100288.271730185
1718100288.272737,,,,-15.691673279,-15.694563866,136134.000000000,1718100288.272737265
1718100288.273664,285.803497314,27437.000000000,1718100288.273663521,,,,
1718100288.273744,,,,-15.456123352,-15.460288048,136135.000000000,1718100288.273744345
1718100288.274751,,,,-15.534736633,-15.542867661,136136.000000000,1718100288.274751425
1718100288.275759,,,,-15.704510689,-15.710502625,136137.000000000,1718100288.275758505
1718100288.276766,,,,-15.745403290,-15.753246307,136138.000000000,1718100288.276765585
1718100288.277773,,,,-15.764539719,-15.773223877,136139.000000000,1718100288.277772665
1718100288.278664,285.546966553,27438.000000000,1718100288.278663635,,,,
1718100288.278780,,,,-15.674098969,-15.678720474,136140.000000000,1718100288.278779745
1718100288.279787,,,,-15.517691612,-15.524091721,136141.000000000,1718100288.279786825
1718100288.280794,,,,-15.410975456,-15.417207718,136142.000000000,1718100288.280793905
1718100288.281801,,,,-15.296157837,-15.301043510,136143.000000000,1718100288.281800985
1718100288.282808,,,,-15.274280548,-15.278084755,136144.000000000,1718100288.282808065
1718100288.283664,285.258300781,27439.000000000,1718100288.283663511,,,,
1718100288.283815,,,,-15.293489456,-15.298207283,136145.000000000,1718100288.283815145
1718100288.284822,,,,-15.345729828,-15.350687981,136146.000000000,1718100288.284822226
1718100288.285829,,,,-15.390324593,-15.396220207,136147.000000000,1718100288.285829306
1718100288.286836,,,,-15.514542580,-15.520629883,136148.000000000,1718100288.286836386
1718100288.287843,,,,-15.622243881,-15.627225876,136149.000000000,1718100288.287843466
1718100288.288664,285.146118164,27440.000000000,1718100288.288663626,,,,
1718100288.288851,,,,-15.558632851,-15.563806534,136150.000000000,1718100288.288850546
1718100288.289858,,,,-15.584957123,-15.591886520,136151.000000000,1718100288.289857626
1718100288.290865,,,,-15.704510689,-15.710286140,136152.000000000,1718100288.290864706
1718100288.291872,,,,-15.770165443,-15.774786949,136153.000000000,1718100288.291871786
1718100288.292879,,,,-15.854234695,-15.860419273,136154.000000000,1718100288.292878866
1718100288.293886,,,,-15.835771561,-15.841571808,136155.000000000,1718100288.293885946
1718100288.294893,,,,-15.738575935,-15.740817070,136156.000000000,1718100288.294893026
1718100288.295900,,,,-15.566301346,-15.571908951,136157.000000000,1718100288.295900106
1718100288.296907,,,,-15.427780151,-15.434156418,136158.000000000,1718100288.296907187
1718100288.297914,,,,-15.403979301,-15.408553123,136159.000000000,1718100288.297914267
1718100288.298921,,,,-15.369577408,-15.377805710,136160.000000000,1718100288.298921347
1718100288.299928,,,,-15.452974319,-15.459302902,136161.000000000,1718100288.299928427
1718100288.300936,,,,-15.718045235,-15.722690582,136162.000000000,1718100288.300935507
1718100288.301943,,,,-15.804471016,-15.808155060,136163.000000000,1718100288.301942587
1718100288.302950,,,,-15.762905121,-15.767045975,136164.000000000,1718100288.302949667
1718100288.303957,,,,-15.717251778,-15.722955704,136165.000000000,1718100288.303956747
1718100288.304964,,,,-15.625969887,-15.631841660,136166.000000000,1718100288.304963827
1718100288.305971,,,,-15.498482704,-15.502552032,136167.000000000,1718100288.305970907
1718100288.306978,,,,-15.476197243,-15.481925011,136168.000000000,1718100288.306977987
1718100288.307985,,,,-15.478048325,-15.484064102,136169.000000000,1718100288.307985067
1718100288.308992,,,,-15.570363998,-15.576044083,136170.000000000,1718100288.308992147
1718100288.309999,,,,-15.558055878,-15.564504623,136171.000000000,1718100288.309999228
1718100288.311006,,,,-15.510815620,-15.514836311,136172.000000000,1718100288.311006308
1718100288.312013,,,,-15.592674255,-15.597848892,136173.000000000,1718100288.312013388
1718100288.313020,,,,-15.644769669,-15.650521278,136174.000000000,1718100288.313020468
1718100288.314028,,,,-15.530288696,-15.533515930,136175.000000000,1718100288.314027548
1718100288.315035,,,,-15.350176811,-15.354846954,136176.000000000,1718100288.315034628
1718100288.316042,,,,-15.247403145,-15.250846863,136177.000000000,1718100288.316041708
1718100288.317049,,,,-15.255385399,-15.258660316,136178.000000000,1718100288.317048788
1718100288.318056,,,,-15.334694862,-15.341888428,136179.000000000,1718100288.318055868
1718100288.319063,,,,-15.404772758,-15.412207603,136180.000000000,1718100288.319062948
1718100288.320070,,,,-15.405518532,-15.411534309,136181.000000000,1718100288.320070028
1718100288.321077,,,,-15.423476219,-15.431921005,136182.000000000,1718100288.321077108
1718100288.322084,,,,-15.534399986,-15.540872574,136183.000000000,1718100288.322084188
1718100288.323091,,,,-15.635490417,-15.640255928,136184.000000000,1718100288.323091269
1718100288.324098,,,,-15.604574203,-15.610733986,136185.000000000,1718100288.324098349
1718100288.325105,,,,-15.570629120,-15.574625015,136186.000000000,1718100288.325105429
1718100288.326113,,,,-15.654530525,-15.661050797,136187.000000000,1718100288.326112509
1718100288.327120,,,,-15.641307831,-15.648838043,136188.000000000,1718100288.327119589
1718100288.328127,,,,-15.601809502,-15.608498573,136189.000000000,1718100288.328126669
1718100288.329134,,,,-15.589187622,-15.597175598,136190.000000000,1718100288.329133749
1718100288.330141,,,,-15.516921997,-15.524981499,136191.000000000,1718100288.330140829
1718100288.331148,,,,-15.471918106,-15.477742195,136192.000000000,1718100288.331147909
1718100288.332155,,,,-15.483120918,-15.489618301,136193.000000000,1718100288.332154989
1718100288.333162,,,,-15.498218536,-15.504186630,136194.000000000,1718100288.333162069
1718100288.334169,,,,-15.465547562,-15.468822479,136195.000000000,1718100288.334169149
1718100288.335176,,,,-15.455498695,-15.459879875,136196.000000000,1718100288.335176229
1718100288.336183,,,,-15.506920815,-15.511157990,136197.000000000,1718100288.336183310
1718100288.336708,284.745269775,27451.000000000,1718100288.336708307,,,,
1718100288.337190,,,,-15.528148651,-15.529644966,136198.000000000,1718100288.337190390
1718100288.338197,,,,-15.549184799,-15.551185608,136199.000000000,1718100288.338197470
1718100288.339205,,,,-15.546997070,-15.550872803,136200.000000000,1718100288.339204550
1718100288.340212,,,,-15.567624092,-15.571668625,136201.000000000,1718100288.340211630
1718100288.341219,,,,-15.566108704,-15.570562363,136202.000000000,1718100288.341218710
1718100288.341708,284.328369141,27452.000000000,1718100288.341708422,,,,
1718100288.342226,,,,-15.664194107,-15.671028137,136203.000000000,1718100288.342225790
1718100288.343233,,,,-15.784012794,-15.792216301,136204.000000000,1718100288.343232870
1718100288.344240,,,,-15.799230576,-15.806808472,136205.000000000,1718100288.344239950
1718100288.345247,,,,-15.766174316,-15.770964622,136206.000000000,1718100288.345247030
1718100288.346254,,,,-15.683787346,-15.689707756,136207.000000000,1718100288.346254110
1718100288.346708,284.007720947,27453.000000000,1718100288.346708298,,,,
1718100288.347261,,,,-15.636018753,-15.642636299,136208.000000000,1718100288.347261190
1718100288.348268,,,,-15.603179932,-15.608931541,136209.000000000,1718100288.348268270
1718100288.349275,,,,-15.497184753,-15.501758575,136210.000000000,1718100288.349275351
1718100288.350282,,,,-15.346931458,-15.352803230,136211.000000000,1718100288.350282431
1718100288.351290,,,,-15.302288055,-15.307462692,136212.000000000,1718100288.351289511
1718100288.351708,283.622985840,27454.000000000,1718100288.351708412,,,,
1718100288.352297,,,,-15.283200264,-15.287172318,136213.000000000,1718100288.352296591
1718100288.353304,,,,-15.213097572,-15.216901779,136214.000000000,1718100288.353303671
1718100288.354311,,,,-15.260866165,-15.264790535,136215.000000000,1718100288.354310751
1718100288.355318,,,,-15.430328369,-15.437665939,136216.000000000,1718100288.355317831
1718100288.356325,,,,-15.552477837,-15.560417175,136217.000000000,1718100288.356324911
1718100288.356708,283.270233154,27455.000000000,1718100288.356708288,,,,
1718100288.357332,,,,-15.757928848,-15.762790680,136218.000000000,1718100288.357331991
1718100288.358339,,,,-15.953834534,-15.959778786,136219.000000000,1718100288.358339071
1718100288.359346,,,,-16.008768082,-16.016105652,136220.000000000,1718100288.359346151
1718100288.360353,,,,-15.757375717,-15.761900902,136221.000000000,1718100288.360353231
1718100288.361360,,,,-15.468504906,-15.473823547,136222.000000000,1718100288.361360312
1718100288.361708,282.933624268,27456.000000000,1718100288.361708403,,,,
1718100288.362367,,,,-15.487568855,-15.494378090,136223.000000000,1718100288.362367392
1718100288.363374,,,,-15.702514648,-15.708531380,136224.000000000,1718100288.363374472
1718100288.364382,,,,-15.863923073,-15.873833656,136225.000000000,1718100288.364381552
1718100288.365389,,,,-15.803461075,-15.811593056,136226.000000000,1718100288.365388632
1718100288.366396,,,,-15.627123833,-15.633476257,136227.000000000,1718100288.366395712
1718100288.366708,282.661071777,27457.000000000,1718100288.366708279,,,,
1718100288.367403,,,,-15.365682602,-15.371939659,136228.000000000,1718100288.367402792
1718100288.368410,,,,-15.282503128,-15.288062096,136229.000000000,1718100288.368409872
1718100288.369417,,,,-15.283440590,-15.291019440,136230.000000000,1718100288.369416952
1718100288.370424,,,,-15.466100693,-15.473703384,136231.000000000,1718100288.370424032
1718100288.371431,,,,-15.759226799,-15.763751984,136232.000000000,1718100288.371431112
1718100288.371708,282.516784668,27458.000000000,1718100288.371708393,,,,
1718100288.372438,,,,-15.873154640,-15.875540733,136233.000000000,1718100288.372438192
1718100288.373445,,,,-15.793292046,-15.798466682,136234.000000000,1718100288.373445272
1718100288.374452,,,,-15.664434433,-15.668911934,136235.000000000,1718100288.374452353
1718100288.375459,,,,-15.710761070,-15.714276314,136236.000000000,1718100288.375459433
1718100288.376467,,,,-15.723021507,-15.729903221,136237.000000000,1718100288.376466513
1718100288.376708,282.404602051,27459.000000000,1718100288.376708269,,,,
1718100288.377474,,,,-15.612579346,-15.617080688,136238.000000000,1718100288.377473593
1718100288.378481,,,,-15.411889076,-15.414155006,136239.000000000,1718100288.378480673
1718100288.379488,,,,-15.272718430,-15.277507782,136240.000000000,1718100288.379487753
1718100288.380495,,,,-15.271227837,-15.277292252,136241.000000000,1718100288.380494833
1718100288.381502,,,,-15.352748871,-15.357948303,136242.000000000,1718100288.381501913
1718100288.381708,282.324432373,27460.000000000,1718100288.381708384,,,,
1718100288.382509,,,,-15.519639015,-15.525341988,136243.000000000,1718100288.382508993
1718100288.383516,,,,-15.627364159,-15.633164406,136244.000000000,1718100288.383516073
1718100288.384523,,,,-15.561661720,-15.568831444,136245.000000000,1718100288.384523153
1718100288.385530,,,,-15.498771667,-15.505364418,136246.000000000,1718100288.385530233
1718100288.386537,,,,-15.509757996,-15.519908905,136247.000000000,1718100288.386537313
1718100288.387544,,,,-15.594885826,-15.600733757,136248.000000000,1718100288.387544394
1718100288.388551,,,,-15.675782204,-15.682038307,136249.000000000,1718100288.388551474
1718100288.389559,,,,-15.678066254,-15.683745384,136250.000000000,1718100288.389558554
1718100288.390566,,,,-15.664122581,-15.668383598,136251.000000000,1718100288.390565634
1718100288.391389,282.244232178,27461.000000000,1718100288.391388893,,,,
1718100288.391573,,,,-15.596424103,-15.602079391,136252.000000000,1718100288.391572714
1718100288.392580,,,,-15.478433609,-15.483246803,136253.000000000,1718100288.392579794
1718100288.393587,,,,-15.472663879,-15.478222847,136254.000000000,1718100288.393586874
1718100288.394594,,,,-15.550650597,-15.556907654,136255.000000000,1718100288.394593954
1718100288.395601,,,,-15.533101082,-15.538996696,136256.000000000,1718100288.395601034
1718100288.396389,282.292358398,27462.000000000,1718100288.396389008,,,,
1718100288.396608,,,,-15.499925613,-15.503489494,136257.000000000,1718100288.396608114
1718100288.397615,,,,-15.495309830,-15.499114037,136258.000000000,1718100288.397615194
1718100288.398622,,,,-15.519133568,-15.525678635,136259.000000000,1718100288.398622274
1718100288.399629,,,,-15.521201134,-15.527818680,136260.000000000,1718100288.399629354
1718100288.400636,,,,-15.520119667,-15.524428368,136261.000000000,1718100288.400636435
1718100288.401389,282.196197510,27463.000000000,1718100288.401388884,,,,
1718100288.401644,,,,-15.518316269,-15.523298264,136262.000000000,1718100288.401643515
1718100288.402651,,,,-15.550987244,-15.556642532,136263.000000000,1718100288.402650595
1718100288.403658,,,,-15.575965881,-15.581404686,136264.000000000,1718100288.403657675
1718100288.404665,,,,-15.599718094,-15.605324745,136265.000000000,1718100288.404664755
1718100288.405672,,,,-15.619767189,-15.624244690,136266.000000000,1718100288.405671835
1718100288.406389,282.003845215,27464.000000000,1718100288.406388998,,,,
1718100288.406679,,,,-15.624527931,-15.629245758,136267.000000000,1718100288.406678915
1718100288.407686,,,,-15.597770691,-15.604146957,136268.000000000,1718100288.407685995
1718100288.408693,,,,-15.580821991,-15.585924149,136269.000000000,1718100288.408693075
1718100288.409700,,,,-15.519422531,-15.522793770,136270.000000000,1718100288.409700155
1718100288.410707,,,,-15.410999298,-15.415909767,136271.000000000,1718100288.410707235
1718100288.411389,281.795410156,27465.000000000,1718100288.411388874,,,,
1718100288.411714,,,,-15.347892761,-15.352659225,136272.000000000,1718100288.411714315
1718100288.412721,,,,-15.340055466,-15.345590591,136273.000000000,1718100288.412721395
1718100288.413728,,,,-15.390444756,-15.395619392,136274.000000000,1718100288.413728476
1718100288.414736,,,,-15.504324913,-15.509956360,136275.000000000,1718100288.414735556
1718100288.415743,,,,-15.571133614,-15.577462196,136276.000000000,1718100288.415742636
1718100288.416389,281.538940430,27466.000000000,1718100288.416388988,,,,
1718100288.416750,,,,-15.629167557,-15.635567665,136277.000000000,1718100288.416749716
1718100288.417757,,,,-15.702731133,-15.708723068,136278.000000000,1718100288.417756796
1718100288.418764,,,,-15.769659996,-15.778585434,136279.000000000,1718100288.418763876
1718100288.419771,,,,-15.755091667,-15.764425278,136280.000000000,1718100288.419770956
1718100288.420778,,,,-15.635922432,-15.645015717,136281.000000000,1718100288.420778036
1718100288.421785,,,,-15.567047119,-15.574313164,136282.000000000,1718100288.421785116
1718100288.422792,,,,-15.512811661,-15.519164085,136283.000000000,1718100288.422792196
1718100288.423799,,,,-15.480669022,-15.486371994,136284.000000000,1718100288.423799276
1718100288.424806,,,,-15.500045776,-15.508273125,136285.000000000,1718100288.424806356
1718100288.425813,,,,-15.513556480,-15.520870209,136286.000000000,1718100288.425813437
1718100288.426821,,,,-15.554401398,-15.563158035,136287.000000000,1718100288.426820517
1718100288.427828,,,,-15.633110046,-15.642059326,136288.000000000,1718100288.427827597
1718100288.428835,,,,-15.682826042,-15.691222191,136289.000000000,1718100288.428834677
1718100288.429842,,,,-15.618156433,-15.623043060,136290.000000000,1718100288.429841757
1718100288.430849,,,,-15.516273499,-15.522601128,136291.000000000,1718100288.430848837
1718100288.431856,,,,-15.506800652,-15.512288094,136292.000000000,1718100288.431855917
1718100288.432863,,,,-15.523292542,-15.529140472,136293.000000000,1718100288.432862997
1718100288.433870,,,,-15.551804543,-15.559070587,136294.000000000,1718100288.433870077
1718100288.434877,,,,-15.606929779,-15.611984253,136295.000000000,1718100288.434877157
1718100288.435884,,,,-15.714390755,-15.718844414,136296.000000000,1718100288.435884237
1718100288.436891,,,,-15.910802841,-15.915664673,136297.000000000,1718100288.436891317
1718100288.437898,,,,-15.893036842,-15.898499489,136298.000000000,1718100288.437898397
1718100288.438905,,,,-15.753216743,-15.760626793,136299.000000000,1718100288.438905478
1718100288.439913,,,,-15.740571022,-15.749207497,136300.000000000,1718100288.439912558
1718100288.440920,,,,-15.655539513,-15.662854195,136301.000000000,1718100288.440919638
1718100288.441389,279.583404541,27471.000000000,1718100288.441388845,,,,
1718100288.441927,,,,-15.485188484,-15.490987778,136302.000000000,1718100288.441926718
1718100288.442934,,,,-15.454969406,-15.461707115,136303.000000000,1718100288.442933798
1718100288.443941,,,,-15.592312813,-15.598329544,136304.000000000,1718100288.443940878
1718100288.444948,,,,-15.596063614,-15.603233337,136305.000000000,1718100288.444947958
1718100288.445955,,,,-15.505166054,-15.511374474,136306.000000000,1718100288.445955038
1718100288.446389,279.278869629,27472.000000000,1718100288.446388960,,,,
1718100288.446962,,,,-15.351258278,-15.358669281,136307.000000000,1718100288.446962118
1718100288.447969,,,,-15.229132652,-15.235461235,136308.000000000,1718100288.447969198
1718100288.448976,,,,-15.182710648,-15.187404633,136309.000000000,1718100288.448976278
1718100288.449983,,,,-15.300701141,-15.310203552,136310.000000000,1718100288.449983358
1718100288.450990,,,,-15.616521835,-15.622201920,136311.000000000,1718100288.450990438
1718100288.451389,279.006378174,27473.000000000,1718100288.451388836,,,,
1718100288.451998,,,,-15.965518951,-15.970140457,136312.000000000,1718100288.451997519
1718100288.453005,,,,-16.052520752,-16.056879044,136313.000000000,1718100288.453004599
1718100288.454012,,,,-16.084688187,-16.092000961,136314.000000000,1718100288.454011679
1718100288.455019,,,,-15.971023560,-15.979011536,136315.000000000,1718100288.455018759
1718100288.456026,,,,-15.704534531,-15.708291054,136316.000000000,1718100288.456025839
1718100288.456389,278.910217285,27474.000000000,1718100288.456388950,,,,
1718100288.457033,,,,-15.621233940,-15.626601219,136317.000000000,1718100288.457032919
1718100288.458040,,,,-15.492328644,-15.497262955,136318.000000000,1718100288.458039999
1718100288.459047,,,,-15.320943832,-15.327536583,136319.000000000,1718100288.459047079
1718100288.460054,,,,-15.301638603,-15.306501389,136320.000000000,1718100288.460054159
1718100288.461061,,,,-15.335415840,-15.341816902,136321.000000000,1718100288.461061239
1718100288.461389,278.830047607,27475.000000000,1718100288.461388826,,,,
1718100288.462068,,,,-15.368447304,-15.377276421,136322.000000000,1718100288.462068319
1718100288.463075,,,,-15.395565033,-15.404106140,136323.000000000,1718100288.463075399
1718100288.464082,,,,-15.499155998,-15.505124092,136324.000000000,1718100288.464082479
1718100288.465090,,,,-15.591977119,-15.596838951,136325.000000000,1718100288.465089560
1718100288.466097,,,,-15.619455338,-15.626648903,136326.000000000,1718100288.466096640
1718100288.466389,278.765930176,27476.000000000,1718100288.466388941,,,,
1718100288.467104,,,,-15.639120102,-15.645256042,136327.000000000,1718100288.467103720
1718100288.468111,,,,-15.607579231,-15.612608910,136328.000000000,1718100288.468110800
1718100288.469118,,,,-15.603540421,-15.608955383,136329.000000000,1718100288.469117880
1718100288.470125,,,,-15.530241013,-15.537410736,136330.000000000,1718100288.470124960
1718100288.471132,,,,-15.504757881,-15.509450912,136331.000000000,1718100288.471132040
1718100288.471389,278.846099854,27477.000000000,1718100288.471388817,,,,
1718100288.472139,,,,-15.634673119,-15.639871597,136332.000000000,1718100288.472139120
1718100288.473146,,,,-15.733863831,-15.740072250,136333.000000000,1718100288.473146200
1718100288.474153,,,,-15.598347664,-15.604411125,136334.000000000,1718100288.474153280
1718100288.475160,,,,-15.472038269,-15.477813721,136335.000000000,1718100288.475160360
1718100288.476167,,,,-15.526730537,-15.532674789,136336.000000000,1718100288.476167440
1718100288.476389,278.846099854,27478.000000000,1718100288.476388931,,,,
1718100288.477175,,,,-15.534856796,-15.541304588,136337.000000000,1718100288.477174520
1718100288.478182,,,,-15.612868309,-15.616095543,136338.000000000,1718100288.478181601
1718100288.479189,,,,-15.628061295,-15.633765221,136339.000000000,1718100288.479188681
1718100288.480196,,,,-15.513749123,-15.518731117,136340.000000000,1718100288.480195761
1718100288.481203,,,,-15.420711517,-15.426391602,136341.000000000,1718100288.481202841
1718100288.481389,278.878143311,27479.000000000,1718100288.481388807,,,,
1718100288.482210,,,,-15.426049232,-15.429660797,136342.000000000,1718100288.482209921
1718100288.483217,,,,-15.426144600,-15.431535721,136343.000000000,1718100288.483217001
1718100288.484224,,,,-15.404219627,-15.409539223,136344.000000000,1718100288.484224081
1718100288.485231,,,,-15.407393456,-15.411750793,136345.000000000,1718100288.485231161
1718100288.486238,,,,-15.412417412,-15.416077614,136346.000000000,1718100288.486238241
1718100288.486389,278.958312988,27480.000000000,1718100288.486388922,,,,
1718100288.487245,,,,-15.447300911,-15.450936317,136347.000000000,1718100288.487245321
1718100288.488252,,,,-15.543871880,-15.550848961,136348.000000000,1718100288.488252401
1718100288.489259,,,,-15.625561714,-15.634318352,136349.000000000,1718100288.489259481
1718100288.490267,,,,-15.611569405,-15.617657661,136350.000000000,1718100288.490266562
1718100288.491274,,,,-15.590341568,-15.595275879,136351.000000000,1718100288.491273642
1718100288.492281,,,,-15.606328964,-15.609748840,136352.000000000,1718100288.492280722
1718100288.493288,,,,-15.711025238,-15.715142250,136353.000000000,1718100288.493287802
1718100288.494295,,,,-15.855461121,-15.861332893,136354.000000000,1718100288.494294882
1718100288.495302,,,,-15.918904305,-15.922299385,136355.000000000,1718100288.495301962
1718100288.496309,,,,-15.874164581,-15.880757332,136356.000000000,1718100288.496309042
1718100288.496441,279.038421631,27481.000000000,1718100288.496440649,,,,
1718100288.497316,,,,-15.700856209,-15.706631660,136357.000000000,1718100288.497316122
1718100288.498323,,,,-15.513916969,-15.521303177,136358.000000000,1718100288.498323202
1718100288.499330,,,,-15.413259506,-15.419924736,136359.000000000,1718100288.499330282
1718100288.500337,,,,-15.488265991,-15.494017601,136360.000000000,1718100288.500337362
1718100288.501344,,,,-15.630152702,-15.636746407,136361.000000000,1718100288.501344442
1718100288.502352,,,,-15.680421829,-15.683072090,136362.000000000,1718100288.502351522
1718100288.503359,,,,-15.623902321,-15.630519867,136363.000000000,1718100288.503358603
1718100288.504366,,,,-15.630537987,-15.635592461,136364.000000000,1718100288.504365683
1718100288.505373,,,,-15.657752037,-15.661651611,136365.000000000,1718100288.505372763
1718100288.506380,,,,-15.581302643,-15.586213112,136366.000000000,1718100288.506379843
1718100288.507387,,,,-15.452901840,-15.457548141,136367.000000000,1718100288.507386923
1718100288.508394,,,,-15.308538437,-15.313953400,136368.000000000,1718100288.508394003
1718100288.509401,,,,-15.266035080,-15.273998260,136369.000000000,1718100288.509401083
1718100288.510408,,,,-15.318370819,-15.325372696,136370.000000000,1718100288.510408163
1718100288.511415,,,,-15.430832863,-15.438002586,136371.000000000,1718100288.511415243
1718100288.512422,,,,-15.634576797,-15.642203331,136372.000000000,1718100288.512422323
1718100288.513429,,,,-15.756197929,-15.763584137,136373.000000000,1718100288.513429403
1718100288.514436,,,,-15.789036751,-15.795629501,136374.000000000,1718100288.514436483
1718100288.515444,,,,-15.810096741,-15.816280365,136375.000000000,1718100288.515443563
1718100288.516451,,,,-15.749201775,-15.755939484,136376.000000000,1718100288.516450644
1718100288.517458,,,,-15.596207619,-15.601262093,136377.000000000,1718100288.517457724
1718100288.518465,,,,-15.353542328,-15.355784416,136378.000000000,1718100288.518464804
1718100288.519472,,,,-15.271083832,-15.273060799,136379.000000000,1718100288.519471884
1718100288.520479,,,,-15.479635239,-15.484786034,136380.000000000,1718100288.520478964
1718100288.521486,,,,-15.654290199,-15.658262253,136381.000000000,1718100288.521486044
1718100288.522493,,,,-15.640803337,-15.645689011,136382.000000000,1718100288.522493124
1718100288.523500,,,,-15.590293884,-15.594747543,136383.000000000,1718100288.523500204
1718100288.524507,,,,-15.533461571,-15.538395882,136384.000000000,1718100288.524507284
1718100288.525514,,,,-15.668738365,-15.672349930,136385.000000000,1718100288.525514364
1718100288.526521,,,,-15.846782684,-15.852461815,136386.000000000,1718100288.526521444
1718100288.527529,,,,-15.905850410,-15.914077759,136387.000000000,1718100288.527528524
1718100288.528536,,,,-15.930851936,-15.940955162,136388.000000000,1718100288.528535604
1718100288.529543,,,,-16.126422882,-16.136091232,136389.000000000,1718100288.529542685
1718100288.530550,,,,-16.134162903,-16.140924454,136390.000000000,1718100288.530549765
1718100288.531557,,,,-16.021436691,-16.028606415,136391.000000000,1718100288.531556845
1718100288.532564,,,,-15.915610313,-15.921265602,136392.000000000,1718100288.532563925
1718100288.533571,,,,-15.880944252,-15.886527061,136393.000000000,1718100288.533571005
1718100288.534578,,,,-15.708333015,-15.715118408,136394.000000000,1718100288.534578085
1718100288.535585,,,,-15.570844650,-15.575394630,136395.000000000,1718100288.535585165
1718100288.536592,,,,-15.477856636,-15.483199120,136396.000000000,1718100288.536592245
1718100288.537599,,,,-15.369049072,-15.376122475,136397.000000000,1718100288.537599325
1718100288.538606,,,,-15.353278160,-15.359029770,136398.000000000,1718100288.538606405
1718100288.539613,,,,-15.361788750,-15.367540359,136399.000000000,1718100288.539613485
1718100288.540621,,,,-15.452277184,-15.458365440,136400.000000000,1718100288.540620565
1718100288.541628,,,,-15.495069504,-15.502095222,136401.000000000,1718100288.541627645
1718100288.542635,,,,-15.506969452,-15.513898849,136402.000000000,1718100288.542634726
1718100288.543642,,,,-15.408258438,-15.413962364,136403.000000000,1718100288.543641806
1718100288.544649,,,,-15.285748482,-15.290153503,136404.000000000,1718100288.544648886
1718100288.545656,,,,-15.288200378,-15.291139603,136405.000000000,1718100288.545655966
1718100288.546441,277.676086426,27491.000000000,1718100288.546440601,,,,
1718100288.546663,,,,-15.344142914,-15.347562790,136406.000000000,1718100288.546663046
1718100288.547670,,,,-15.479250908,-15.483319283,136407.000000000,1718100288.547670126
1718100288.548677,,,,-15.635370255,-15.639895439,136408.000000000,1718100288.548677206
1718100288.549684,,,,-15.598323822,-15.604435921,136409.000000000,1718100288.549684286
1718100288.550691,,,,-15.515431404,-15.521471977,136410.000000000,1718100288.550691366
1718100288.551441,277.596008301,27492.000000000,1718100288.551440716,,,,
1718100288.551698,,,,-15.564377785,-15.570826530,136411.000000000,1718100288.551698446
1718100288.552706,,,,-15.758433342,-15.765963554,136412.000000000,1718100288.552705526
1718100288.553713,,,,-15.767497063,-15.774497986,136413.000000000,1718100288.553712606
1718100288.554720,,,,-15.670926094,-15.678745270,136414.000000000,1718100288.554719687
