__time,/gdx/grip_force_stream/grip_force,/gdx/grip_force_stream/header/seq,/gdx/grip_force_stream/header/stamp,/shimmer0/emg_stream/emg_ch1,/shimmer0/emg_stream/emg_ch2,/shimmer0/emg_stream/header/seq,/shimmer0/emg_stream/header/stamp
1718100445.311695,,,,14.850257874,14.859086990,23727.000000000,1718100445.311694622
1718100445.312702,,,,14.850017548,14.856058121,23728.000000000,1718100445.312701702
1718100445.313709,,,,14.850065231,14.857452393,23729.000000000,1718100445.313708782
1718100445.314716,,,,14.851002693,14.858726501,23730.000000000,1718100445.314715862
1718100445.315723,,,,14.849848747,14.852643967,23731.000000000,1718100445.315722942
1718100445.316730,,,,14.841818810,14.847114563,23732.000000000,1718100445.316730022
1718100445.317737,,,,14.837684631,14.845864296,23733.000000000,1718100445.317737103
1718100445.318744,,,,14.833068848,14.841176987,23734.000000000,1718100445.318744183
1718100445.319751,,,,14.829798698,14.836657524,23735.000000000,1718100445.319751263
1718100445.320758,,,,14.828837395,14.836272240,23736.000000000,1718100445.320758343
1718100445.321765,,,,14.832395554,14.839854240,23737.000000000,1718100445.321765423
1718100445.322773,,,,14.831746101,14.839902878,23738.000000000,1718100445.322772503
1718100445.323780,,,,14.833597183,14.841753960,23739.000000000,1718100445.323779583
1718100445.324787,,,,14.834751129,14.841537476,23740.000000000,1718100445.324786663
1718100445.325794,,,,14.835640907,14.842162132,23741.000000000,1718100445.325793743
1718100445.326801,,,,14.839295387,14.844422340,23742.000000000,1718100445.326800823
1718100445.327808,,,,14.842612267,14.846489906,23743.000000000,1718100445.327807903
1718100445.328815,,,,14.843838692,14.849687576,23744.000000000,1718100445.328814983
1718100445.329822,,,,14.844295502,14.848388672,23745.000000000,1718100445.329822063
1718100445.330829,,,,14.843214035,14.849638939,23746.000000000,1718100445.330829144
1718100445.331836,,,,14.841314316,14.846489906,23747.000000000,1718100445.331836224
1718100445.332843,,,,14.840160370,14.845552444,23748.000000000,1718100445.332843304
1718100445.333850,,,,14.838021278,14.845936775,23749.000000000,1718100445.333850384
1718100445.334857,,,,14.839510918,14.843941689,23750.000000000,1718100445.334857464
1718100445.335865,,,,14.836241722,14.841994286,23751.000000000,1718100445.335864544
1718100445.336872,,,,14.833549500,14.838845253,23752.000000000,1718100445.336871624
1718100445.337879,,,,14.830448151,14.835431099,23753.000000000,1718100445.337878704
1718100445.338886,,,,14.823908806,14.827713966,23754.000000000,1718100445.338885784
1718100445.339893,,,,14.817297935,14.821871758,23755.000000000,1718100445.339892864
1718100445.340900,,,,14.814436913,14.819179535,23756.000000000,1718100445.340899944
1718100445.341907,,,,14.816697121,14.820790291,23757.000000000,1718100445.341907024
1718100445.342914,,,,14.823331833,14.829372406,23758.000000000,1718100445.342914104
1718100445.343921,,,,14.824702263,14.830647469,23759.000000000,1718100445.343921185
1718100445.344928,,,,14.825976372,14.831439972,23760.000000000,1718100445.344928265
1718100445.345935,,,,14.826625824,14.832305908,23761.000000000,1718100445.345935345
1718100445.346942,,,,14.830448151,14.836488724,23762.000000000,1718100445.346942425
1718100445.347950,,,,14.831722260,14.836608887,23763.000000000,1718100445.347949505
1718100445.348957,,,,14.829438210,14.835647583,23764.000000000,1718100445.348956585
1718100445.349964,,,,14.828500748,14.834180832,23765.000000000,1718100445.349963665
1718100445.350971,,,,14.832612038,14.836224556,23766.000000000,1718100445.350970745
1718100445.351978,,,,14.841386795,14.844902992,23767.000000000,1718100445.351977825
1718100445.352985,,,,14.846386909,14.851490021,23768.000000000,1718100445.352984905
1718100445.353992,,,,14.848214149,14.852163315,23769.000000000,1718100445.353991985
1718100445.354999,,,,14.852806091,14.856442451,23770.000000000,1718100445.354999065
1718100445.356006,,,,14.849848747,14.855336189,23771.000000000,1718100445.356006145
1718100445.357013,,,,14.842997551,14.848869324,23772.000000000,1718100445.357013226
1718100445.358020,,,,14.834534645,14.843461037,23773.000000000,1718100445.358020306
1718100445.358690,0.199269846,4791.000000000,1718100445.358689547,,,,
1718100445.359027,,,,14.840617180,14.846273422,23774.000000000,1718100445.359027386
1718100445.360034,,,,14.845112801,14.852283478,23775.000000000,1718100445.360034466
1718100445.361042,,,,14.842516899,14.849591255,23776.000000000,1718100445.361041546
1718100445.362049,,,,14.838549614,14.843461037,23777.000000000,1718100445.362048626
1718100445.363056,,,,14.837251663,14.841464996,23778.000000000,1718100445.363055706
1718100445.363690,0.216946334,4792.000000000,1718100445.363689661,,,,
1718100445.364063,,,,14.840473175,14.843364716,23779.000000000,1718100445.364062786
1718100445.365070,,,,14.833909988,14.837811470,23780.000000000,1718100445.365069866
1718100445.366077,,,,14.832299232,14.838676453,23781.000000000,1718100445.366076946
1718100445.367084,,,,14.836842537,14.842811584,23782.000000000,1718100445.367084026
1718100445.368091,,,,14.845930099,14.850336075,23783.000000000,1718100445.368091106
1718100445.368690,0.216946334,4793.000000000,1718100445.368689537,,,,
1718100445.369098,,,,14.851171494,14.855288506,23784.000000000,1718100445.369098186
1718100445.370105,,,,14.860426903,14.865337372,23785.000000000,1718100445.370105267
1718100445.371112,,,,14.857638359,14.863510132,23786.000000000,1718100445.371112347
1718100445.372119,,,,14.848814964,14.854038239,23787.000000000,1718100445.372119427
1718100445.373127,,,,14.842637062,14.849158287,23788.000000000,1718100445.373126507
1718100445.373690,0.234622702,4794.000000000,1718100445.373689651,,,,
1718100445.374134,,,,14.837155342,14.843676567,23789.000000000,1718100445.374133587
1718100445.375141,,,,14.830231667,14.837114334,23790.000000000,1718100445.375140667
1718100445.376148,,,,14.829871178,14.835743904,23791.000000000,1718100445.376147747
1718100445.377155,,,,14.835977554,14.841753960,23792.000000000,1718100445.377154827
1718100445.378162,,,,14.840112686,14.846513748,23793.000000000,1718100445.378161907
1718100445.378690,0.216946334,4795.000000000,1718100445.378689528,,,,
1718100445.379169,,,,14.841818810,14.849326134,23794.000000000,1718100445.379168987
1718100445.380176,,,,14.852300644,14.857452393,23795.000000000,1718100445.380176067
1718100445.381183,,,,14.867446899,14.872309685,23796.000000000,1718100445.381183147
1718100445.382190,,,,14.874465942,14.881925583,23797.000000000,1718100445.382190228
1718100445.383197,,,,14.857518196,14.865433693,23798.000000000,1718100445.383197308
1718100445.383690,0.252307028,4796.000000000,1718100445.383689642,,,,
1718100445.384204,,,,14.839199066,14.844590187,23799.000000000,1718100445.384204388
1718100445.385211,,,,14.833116531,14.835743904,23800.000000000,1718100445.385211468
1718100445.386219,,,,14.829607010,14.831079483,23801.000000000,1718100445.386218548
1718100445.387226,,,,14.821504593,14.828218460,23802.000000000,1718100445.387225628
1718100445.388233,,,,14.818861008,14.824275970,23803.000000000,1718100445.388232708
1718100445.388690,0.340685934,4797.000000000,1718100445.388689518,,,,
1718100445.389240,,,,14.810878754,14.816583633,23804.000000000,1718100445.389239788
1718100445.390247,,,,14.809917450,14.815741539,23805.000000000,1718100445.390246868
1718100445.391254,,,,14.821889877,14.828675270,23806.000000000,1718100445.391253948
1718100445.392261,,,,14.841698647,14.848989487,23807.000000000,1718100445.392261028
1718100445.393268,,,,14.844295502,14.852139473,23808.000000000,1718100445.393268108
1718100445.393690,0.393719673,4798.000000000,1718100445.393689632,,,,
1718100445.394275,,,,14.846747398,14.853941917,23809.000000000,1718100445.394275188
1718100445.395282,,,,14.866460800,14.871347427,23810.000000000,1718100445.395282269
1718100445.396289,,,,14.878192902,14.882863045,23811.000000000,1718100445.396289349
1718100445.397296,,,,14.877014160,14.882453918,23812.000000000,1718100445.397296429
1718100445.398304,,,,14.873528481,14.878487587,23813.000000000,1718100445.398303509
1718100445.398690,0.429069370,4799.000000000,1718100445.398689508,,,,
1718100445.399311,,,,14.856388092,14.859951973,23814.000000000,1718100445.399310589
1718100445.400318,,,,14.842083931,14.846826553,23815.000000000,1718100445.400317669
1718100445.401325,,,,14.830736160,14.837474823,23816.000000000,1718100445.401324749
1718100445.402332,,,,14.793930054,14.798504829,23817.000000000,1718100445.402331829
1718100445.403339,,,,14.753109932,14.757226944,23818.000000000,1718100445.403338909
1718100445.403690,0.429069370,4800.000000000,1718100445.403689623,,,,
1718100445.404346,,,,14.745800972,14.749918938,23819.000000000,1718100445.404345989
1718100445.405353,,,,14.756932259,14.763213158,23820.000000000,1718100445.405353069
1718100445.406360,,,,14.775852203,14.782566071,23821.000000000,1718100445.406360149
1718100445.407367,,,,14.790637016,14.794345856,23822.000000000,1718100445.407367229
1718100445.408374,,,,14.811071396,14.814780235,23823.000000000,1718100445.408374310
1718100445.409381,,,,14.825688362,14.831368446,23824.000000000,1718100445.409381390
1718100445.410388,,,,14.836194038,14.843075752,23825.000000000,1718100445.410388470
1718100445.411396,,,,14.840329170,14.844855309,23826.000000000,1718100445.411395550
1718100445.412403,,,,14.838766098,14.840094566,23827.000000000,1718100445.412402630
1718100445.413410,,,,14.857109070,14.857043266,23828.000000000,1718100445.413409710
1718100445.414417,,,,14.872711182,14.876155853,23829.000000000,1718100445.414416790
1718100445.415424,,,,14.878866196,14.886901855,23830.000000000,1718100445.415423870
1718100445.416431,,,,14.883602142,14.889739037,23831.000000000,1718100445.416430950
1718100445.417438,,,,14.890862465,14.895724297,23832.000000000,1718100445.417438030
1718100445.418445,,,,14.892208099,14.897960663,23833.000000000,1718100445.418445110
1718100445.419452,,,,14.877062798,14.881132126,23834.000000000,1718100445.419452190
1718100445.420459,,,,14.852709770,14.859663963,23835.000000000,1718100445.420459270
1718100445.421466,,,,14.843334198,14.849278450,23836.000000000,1718100445.421466351
1718100445.422473,,,,14.835496902,14.839517593,23837.000000000,1718100445.422473431
1718100445.423481,,,,14.815086365,14.819660187,23838.000000000,1718100445.423480511
1718100445.424488,,,,14.786694527,14.790667534,23839.000000000,1718100445.424487591
1718100445.425495,,,,14.751546860,14.755231857,23840.000000000,1718100445.425494671
1718100445.426502,,,,14.733156204,14.737970352,23841.000000000,1718100445.426501751
1718100445.427509,,,,14.740777016,14.745711327,23842.000000000,1718100445.427508831
1718100445.428516,,,,14.749768257,14.756673813,23843.000000000,1718100445.428515911
1718100445.429523,,,,14.738445282,14.745807648,23844.000000000,1718100445.429522991
1718100445.430530,,,,14.726569176,14.730518341,23845.000000000,1718100445.430530071
1718100445.431537,,,,14.731953621,14.736600876,23846.000000000,1718100445.431537151
1718100445.432544,,,,14.757100105,14.763237000,23847.000000000,1718100445.432544231
1718100445.433551,,,,14.787487984,14.797158241,23848.000000000,1718100445.433551311
1718100445.434558,,,,14.783040047,14.792422295,23849.000000000,1718100445.434558392
1718100445.435565,,,,14.778760910,14.786725044,23850.000000000,1718100445.435565472
1718100445.436573,,,,14.789170265,14.795379639,23851.000000000,1718100445.436572552
1718100445.437580,,,,14.803643227,14.807929039,23852.000000000,1718100445.437579632
1718100445.438587,,,,14.804388046,14.809347153,23853.000000000,1718100445.438586712
1718100445.439594,,,,14.804027557,14.808409691,23854.000000000,1718100445.439593792
1718100445.440601,,,,14.797728539,14.800499916,23855.000000000,1718100445.440600872
1718100445.441608,,,,14.797080040,14.803601265,23856.000000000,1718100445.441607952
1718100445.442615,,,,14.816744804,14.822377205,23857.000000000,1718100445.442615032
1718100445.443622,,,,14.835520744,14.841441154,23858.000000000,1718100445.443622112
1718100445.444629,,,,14.842251778,14.848364830,23859.000000000,1718100445.444629192
1718100445.445636,,,,14.859249115,14.865721703,23860.000000000,1718100445.445636272
1718100445.446643,,,,14.892208099,14.898393631,23861.000000000,1718100445.446643353
1718100445.447650,,,,14.917835236,14.924044609,23862.000000000,1718100445.447650433
1718100445.448658,,,,14.940145493,14.943758011,23863.000000000,1718100445.448657513
1718100445.449665,,,,14.930096626,14.935343742,23864.000000000,1718100445.449664593
1718100445.450672,,,,14.900429726,14.904090881,23865.000000000,1718100445.450671673
1718100445.451679,,,,14.895573616,14.897960663,23866.000000000,1718100445.451678753
1718100445.452686,,,,14.889924049,14.895556450,23867.000000000,1718100445.452685833
1718100445.453126,2.584446669,4811.000000000,1718100445.453125954,,,,
1718100445.453693,,,,14.861604691,14.867597580,23868.000000000,1718100445.453692913
1718100445.454700,,,,14.807105064,14.811943054,23869.000000000,1718100445.454699993
1718100445.455707,,,,14.762605667,14.769872665,23870.000000000,1718100445.455707073
1718100445.456714,,,,14.739190102,14.746817589,23871.000000000,1718100445.456714153
1718100445.457721,,,,14.751186371,14.759078026,23872.000000000,1718100445.457721233
1718100445.458126,3.008202553,4812.000000000,1718100445.458126068,,,,
1718100445.458728,,,,14.776212692,14.781724930,23873.000000000,1718100445.458728313
1718100445.459735,,,,14.786093712,14.792951584,23874.000000000,1718100445.459735394
1718100445.460742,,,,14.774578094,14.779657364,23875.000000000,1718100445.460742474
1718100445.461750,,,,14.781141281,14.786075592,23876.000000000,1718100445.461749554
1718100445.462757,,,,14.815470695,14.820549965,23877.000000000,1718100445.462756634
1718100445.463126,3.555432796,4813.000000000,1718100445.463125944,,,,
1718100445.463764,,,,14.814797401,14.817544937,23878.000000000,1718100445.463763714
1718100445.464771,,,,14.812129021,14.816174507,23879.000000000,1718100445.464770794
1718100445.465778,,,,14.807393074,14.810091972,23880.000000000,1718100445.465777874
1718100445.466785,,,,14.803017616,14.804538727,23881.000000000,1718100445.466784954
1718100445.467792,,,,14.807080269,14.810453415,23882.000000000,1718100445.467792034
1718100445.468126,4.349555016,4814.000000000,1718100445.468126059,,,,
1718100445.468799,,,,14.837131500,14.840600014,23883.000000000,1718100445.468799114
1718100445.469806,,,,14.877182961,14.884426117,23884.000000000,1718100445.469806194
1718100445.470813,,,,14.887351990,14.894426346,23885.000000000,1718100445.470813274
1718100445.471820,,,,14.852156639,14.859303474,23886.000000000,1718100445.471820354
1718100445.472827,,,,14.818259239,14.823146820,23887.000000000,1718100445.472827435
1718100445.473126,5.196294785,4815.000000000,1718100445.473125935,,,,
1718100445.473835,,,,14.825303078,14.831248283,23888.000000000,1718100445.473834515
1718100445.474842,,,,14.854657173,14.863029480,23889.000000000,1718100445.474841595
1718100445.475849,,,,14.886438370,14.893632889,23890.000000000,1718100445.475848675
1718100445.476856,,,,14.927836418,14.933348656,23891.000000000,1718100445.476855755
1718100445.477863,,,,14.961444855,14.965586662,23892.000000000,1718100445.477862835
1718100445.478126,6.218994141,4816.000000000,1718100445.478126049,,,,
1718100445.478870,,,,14.950001717,14.954071045,23893.000000000,1718100445.478869915
1718100445.479877,,,,14.921633720,14.923563957,23894.000000000,1718100445.479876995
1718100445.480884,,,,14.892497063,14.896277428,23895.000000000,1718100445.480884075
1718100445.481891,,,,14.862133980,14.866274834,23896.000000000,1718100445.481891155
1718100445.482898,,,,14.839896202,14.841730118,23897.000000000,1718100445.482898235
1718100445.483126,7.346938133,4817.000000000,1718100445.483125925,,,,
1718100445.483905,,,,14.819846153,14.821992874,23898.000000000,1718100445.483905315
1718100445.484912,,,,14.786501884,14.789129257,23899.000000000,1718100445.484912395
1718100445.485919,,,,14.778351784,14.781676292,23900.000000000,1718100445.485919476
1718100445.486927,,,,14.769649506,14.777806282,23901.000000000,1718100445.486926556
1718100445.487934,,,,14.771140099,14.777276993,23902.000000000,1718100445.487933636
1718100445.488126,8.808847427,4818.000000000,1718100445.488126040,,,,
1718100445.488941,,,,14.759864807,14.764631271,23903.000000000,1718100445.488940716
1718100445.489948,,,,14.788185120,14.790163040,23904.000000000,1718100445.489947796
1718100445.490955,,,,14.798065186,14.803914070,23905.000000000,1718100445.490954876
1718100445.491962,,,,14.860643387,14.864880562,23906.000000000,1718100445.491961956
1718100445.492969,,,,15.032725334,15.034823418,23907.000000000,1718100445.492969036
1718100445.493126,10.551280022,4819.000000000,1718100445.493125916,,,,
1718100445.493976,,,,15.131339073,15.135504723,23908.000000000,1718100445.493976116
1718100445.494983,,,,15.049288750,15.055185318,23909.000000000,1718100445.494983196
1718100445.495990,,,,14.928894043,14.935968399,23910.000000000,1718100445.495990276
1718100445.496997,,,,14.854127884,14.860625267,23911.000000000,1718100445.496997356
1718100445.498004,,,,14.827226639,14.834445000,23912.000000000,1718100445.498004436
1718100445.498126,12.591114998,4820.000000000,1718100445.498126030,,,,
1718100445.499012,,,,14.895573616,14.903946877,23913.000000000,1718100445.499011517
1718100445.500019,,,,14.917403221,14.924477577,23914.000000000,1718100445.500018597
1718100445.501026,,,,14.854368210,14.862621307,23915.000000000,1718100445.501025677
1718100445.502033,,,,14.877350807,14.884473801,23916.000000000,1718100445.502032757
1718100445.503040,,,,14.924999237,14.931617737,23917.000000000,1718100445.503039837
1718100445.504047,,,,14.955627441,14.963783264,23918.000000000,1718100445.504046917
1718100445.505054,,,,14.995198250,15.002248764,23919.000000000,1718100445.505053997
1718100445.506061,,,,15.039793015,15.045160294,23920.000000000,1718100445.506061077
1718100445.507068,,,,15.039023399,15.042757034,23921.000000000,1718100445.507068157
1718100445.508075,,,,14.997506142,15.001935959,23922.000000000,1718100445.508075237
1718100445.509082,,,,14.972479820,14.980948448,23923.000000000,1718100445.509082317
1718100445.510089,,,,14.974427223,14.983736992,23924.000000000,1718100445.510089397
1718100445.511096,,,,15.012218475,15.017971039,23925.000000000,1718100445.511096478
1718100445.512104,,,,15.031498909,15.036361694,23926.000000000,1718100445.512103558
1718100445.513111,,,,15.066333771,15.069538116,23927.000000000,1718100445.513110638
1718100445.514118,,,,15.056717873,15.062037468,23928.000000000,1718100445.514117718
1718100445.515125,,,,15.044024467,15.048381805,23929.000000000,1718100445.515124798
1718100445.516132,,,,15.030825615,15.034439087,23930.000000000,1718100445.516131878
1718100445.517139,,,,15.050804138,15.054560661,23931.000000000,1718100445.517138958
1718100445.518146,,,,14.993154526,14.998041153,23932.000000000,1718100445.518146038
1718100445.519153,,,,14.805878639,14.812881470,23933.000000000,1718100445.519153118
1718100445.520160,,,,14.808883667,14.813097000,23934.000000000,1718100445.520160198
1718100445.521167,,,,14.852060318,14.857188225,23935.000000000,1718100445.521167278
1718100445.522174,,,,14.803907394,14.808409691,23936.000000000,1718100445.522174358
1718100445.523181,,,,14.673727989,14.679143906,23937.000000000,1718100445.523181438
1718100445.524189,,,,14.595740318,14.601636887,23938.000000000,1718100445.524188519
1718100445.525196,,,,14.639782906,14.646160126,23939.000000000,1718100445.525195599
1718100445.526203,,,,14.815903664,14.821800232,23940.000000000,1718100445.526202679
1718100445.527210,,,,14.993202209,14.999748230,23941.000000000,1718100445.527209759
1718100445.528217,,,,15.066382408,15.073697090,23942.000000000,1718100445.528216839
1718100445.529224,,,,15.054073334,15.056435585,23943.000000000,1718100445.529223919
1718100445.530231,,,,14.965412140,14.968711853,23944.000000000,1718100445.530230999
1718100445.531238,,,,14.937020302,14.941017151,23945.000000000,1718100445.531238079
1718100445.532245,,,,14.932885170,14.936858177,23946.000000000,1718100445.532245159
1718100445.533252,,,,14.934952736,14.941473961,23947.000000000,1718100445.533252239
1718100445.534259,,,,14.934447289,14.939863205,23948.000000000,1718100445.534259319
1718100445.535266,,,,15.042677879,15.047804832,23949.000000000,1718100445.535266399
1718100445.536273,,,,15.125064850,15.130264282,23950.000000000,1718100445.536273479
1718100445.537281,,,,15.203100204,15.205631256,23951.000000000,1718100445.537280560
1718100445.538288,,,,15.102154732,15.104637146,23952.000000000,1718100445.538287640
1718100445.539295,,,,15.000391006,15.005157471,23953.000000000,1718100445.539294720
1718100445.540302,,,,14.833068848,14.838339806,23954.000000000,1718100445.540301800
1718100445.541309,,,,14.726112366,14.733139038,23955.000000000,1718100445.541308880
1718100445.542316,,,,14.702889442,14.709170341,23956.000000000,1718100445.542315960
1718100445.543323,,,,14.732843399,14.737249374,23957.000000000,1718100445.543323040
1718100445.544330,,,,14.829125404,14.834541321,23958.000000000,1718100445.544330120
1718100445.545337,,,,14.918508530,14.926640511,23959.000000000,1718100445.545337200
1718100445.546344,,,,14.983178139,14.989987373,23960.000000000,1718100445.546344280
1718100445.547351,,,,14.968055725,14.973736763,23961.000000000,1718100445.547351360
1718100445.547653,55.751495361,4831.000000000,1718100445.547652960,,,,
1718100445.548358,,,,14.950121880,14.954936981,23962.000000000,1718100445.548358440
1718100445.549366,,,,14.884683609,14.888993263,23963.000000000,1718100445.549365520
1718100445.550373,,,,14.869898796,14.873343468,23964.000000000,1718100445.550372601
1718100445.551380,,,,15.031210899,15.037948608,23965.000000000,1718100445.551379681
1718100445.552387,,,,15.132349014,15.141443253,23966.000000000,1718100445.552386761
1718100445.552653,61.476650238,4832.000000000,1718100445.552653074,,,,
1718100445.553394,,,,15.090615273,15.099612236,23967.000000000,1718100445.553393841
1718100445.554401,,,,15.018180847,15.027972221,23968.000000000,1718100445.554400921
1718100445.555408,,,,15.020248413,15.027707100,23969.000000000,1718100445.555408001
1718100445.556415,,,,14.971710205,14.977726936,23970.000000000,1718100445.556415081
1718100445.557422,,,,14.891246796,14.895869255,23971.000000000,1718100445.557422161
1718100445.557653,67.528297424,4833.000000000,1718100445.557652950,,,,
1718100445.558429,,,,14.800662041,14.803890228,23972.000000000,1718100445.558429241
1718100445.559436,,,,14.622328758,14.627913475,23973.000000000,1718100445.559436321
1718100445.560443,,,,14.584248543,14.588750839,23974.000000000,1718100445.560443401
1718100445.561450,,,,14.812177658,14.817400932,23975.000000000,1718100445.561450481
1718100445.562458,,,,15.298493385,15.302202225,23976.000000000,1718100445.562457561
1718100445.562653,73.835304260,4834.000000000,1718100445.562653065,,,,
1718100445.563465,,,,15.635325432,15.639202118,23977.000000000,1718100445.563464642
1718100445.564472,,,,15.498149872,15.503734589,23978.000000000,1718100445.564471722
1718100445.565479,,,,15.226540565,15.230850220,23979.000000000,1718100445.565478802
1718100445.566486,,,,15.081551552,15.084274292,23980.000000000,1718100445.566485882
1718100445.567493,,,,15.302147865,15.309750557,23981.000000000,1718100445.567492962
1718100445.567653,80.650474548,4835.000000000,1718100445.567652941,,,,
1718100445.568500,,,,15.633161545,15.639370918,23982.000000000,1718100445.568500042
1718100445.569507,,,,15.277434349,15.284989357,23983.000000000,1718100445.569507122
1718100445.570514,,,,14.826697350,14.833724022,23984.000000000,1718100445.570514202
1718100445.571521,,,,14.834583282,14.843075752,23985.000000000,1718100445.571521282
1718100445.572528,,,,15.074218750,15.078192711,23986.000000000,1718100445.572528362
1718100445.572653,87.561981201,4836.000000000,1718100445.572653055,,,,
1718100445.573535,,,,15.118309975,15.121056557,23987.000000000,1718100445.573535442
1718100445.574543,,,,15.044697762,15.052108765,23988.000000000,1718100445.574542522
1718100445.575550,,,,14.932572365,14.937651634,23989.000000000,1718100445.575549603
1718100445.576557,,,,14.948823929,14.953662872,23990.000000000,1718100445.576556683
1718100445.577564,,,,15.139633179,15.143823624,23991.000000000,1718100445.577563763
1718100445.577653,94.873031616,4837.000000000,1718100445.577652931,,,,
1718100445.578571,,,,15.214591980,15.219551086,23992.000000000,1718100445.578570843
1718100445.579578,,,,14.962407112,14.968158722,23993.000000000,1718100445.579577923
1718100445.580585,,,,14.794171333,14.800308228,23994.000000000,1718100445.580585003
1718100445.581592,,,,14.809700966,14.813602448,23995.000000000,1718100445.581592083
1718100445.582599,,,,14.814124107,14.818795204,23996.000000000,1718100445.582599163
1718100445.582653,102.175613403,4838.000000000,1718100445.582653046,,,,
1718100445.583606,,,,14.627882957,14.632841110,23997.000000000,1718100445.583606243
1718100445.584613,,,,14.570978165,14.574110031,23998.000000000,1718100445.584613323
1718100445.585620,,,,14.755658150,14.759775162,23999.000000000,1718100445.585620403
1718100445.586627,,,,14.804220200,14.811245918,24000.000000000,1718100445.586627483
1718100445.587635,,,,14.983298302,14.987584114,24001.000000000,1718100445.587634563
1718100445.587653,109.671279907,4839.000000000,1718100445.587652922,,,,
1718100445.588642,,,,15.111890793,15.119878769,24002.000000000,1718100445.588641644
1718100445.589649,,,,15.111914635,15.118797302,24003.000000000,1718100445.589648724
1718100445.590656,,,,14.980028152,14.987222672,24004.000000000,1718100445.590655804
1718100445.591663,,,,14.838236809,14.844518661,24005.000000000,1718100445.591662884
1718100445.592653,117.157684326,4840.000000000,1718100445.592653036,,,,
1718100445.592670,,,,14.624709129,14.629042625,24006.000000000,1718100445.592669964
1718100445.593677,,,,14.534317017,14.539347649,24007.000000000,1718100445.593677044
1718100445.594684,,,,14.594009399,14.599401474,24008.000000000,1718100445.594684124
1718100445.595691,,,,14.960074425,14.966476440,24009.000000000,1718100445.595691204
1718100445.596698,,,,15.106265068,15.110359192,24010.000000000,1718100445.596698284
1718100445.597705,,,,14.979090691,14.984457970,24011.000000000,1718100445.597705364
1718100445.598712,,,,15.039384842,15.045641899,24012.000000000,1718100445.598712444
1718100445.599720,,,,15.155716896,15.160363197,24013.000000000,1718100445.599719524
1718100445.600727,,,,15.051404953,15.056387901,24014.000000000,1718100445.600726604
1718100445.601734,,,,14.871389389,14.874689102,24015.000000000,1718100445.601733685
1718100445.602741,,,,14.691710472,14.697245598,24016.000000000,1718100445.602740765
1718100445.603748,,,,14.714212418,14.722224236,24017.000000000,1718100445.603747845
1718100445.604755,,,,14.794219017,14.799345970,24018.000000000,1718100445.604754925
1718100445.605762,,,,14.929711342,14.933516502,24019.000000000,1718100445.605762005
1718100445.606769,,,,15.108381271,15.115142822,24020.000000000,1718100445.606769085
1718100445.607776,,,,15.058568954,15.064561844,24021.000000000,1718100445.607776165
1718100445.608783,,,,15.066839218,15.069128990,24022.000000000,1718100445.608783245
1718100445.609790,,,,15.072560310,15.077423096,24023.000000000,1718100445.609790325
1718100445.610797,,,,15.065108299,15.070426941,24024.000000000,1718100445.610797405
1718100445.611804,,,,15.022964478,15.028019905,24025.000000000,1718100445.611804485
1718100445.612812,,,,14.921080589,14.928059578,24026.000000000,1718100445.612811565
1718100445.613819,,,,14.926225662,14.933276176,24027.000000000,1718100445.613818645
1718100445.614826,,,,14.877712250,14.884040833,24028.000000000,1718100445.614825726
1718100445.615833,,,,14.762869835,14.770449638,24029.000000000,1718100445.615832806
1718100445.616840,,,,14.855041504,14.859951973,24030.000000000,1718100445.616839886
1718100445.617847,,,,14.879010201,14.883584023,24031.000000000,1718100445.617846966
1718100445.618854,,,,14.742675781,14.749822617,24032.000000000,1718100445.618854046
1718100445.619861,,,,14.579994202,14.587163925,24033.000000000,1718100445.619861126
1718100445.620868,,,,14.499866486,14.506436348,24034.000000000,1718100445.620868206
1718100445.621875,,,,14.571146965,14.578148842,24035.000000000,1718100445.621875286
1718100445.622882,,,,14.736954689,14.742418289,24036.000000000,1718100445.622882366
1718100445.623889,,,,15.034864426,15.041121483,24037.000000000,1718100445.623889446
1718100445.624897,,,,15.267913818,15.274796486,24038.000000000,1718100445.624896526
1718100445.625904,,,,15.240988731,15.245491028,24039.000000000,1718100445.625903606
1718100445.626911,,,,15.127685547,15.132308006,24040.000000000,1718100445.626910686
1718100445.627918,,,,15.021041870,15.026432991,24041.000000000,1718100445.627917767
1718100445.628925,,,,15.170237541,15.176902771,24042.000000000,1718100445.628924847
1718100445.629932,,,,15.318014145,15.322612762,24043.000000000,1718100445.629931927
1718100445.630939,,,,15.222165108,15.230417252,24044.000000000,1718100445.630939007
1718100445.631946,,,,15.176655769,15.183922768,24045.000000000,1718100445.631946087
1718100445.632953,,,,14.996303558,15.003690720,24046.000000000,1718100445.632953167
1718100445.633960,,,,14.960700035,14.965610504,24047.000000000,1718100445.633960247
1718100445.634967,,,,14.926225662,14.933997154,24048.000000000,1718100445.634967327
1718100445.635974,,,,14.823235512,14.830286026,24049.000000000,1718100445.635974407
1718100445.636981,,,,14.827010155,14.833868027,24050.000000000,1718100445.636981487
1718100445.637989,,,,14.998083115,15.004099846,24051.000000000,1718100445.637988567
1718100445.638996,,,,14.995750427,15.002633095,24052.000000000,1718100445.638995647
1718100445.640003,,,,14.783640862,14.788576126,24053.000000000,1718100445.640002728
1718100445.641010,,,,14.611029625,14.614281654,24054.000000000,1718100445.641009808
1718100445.642017,,,,14.540350914,14.547617912,24055.000000000,1718100445.642016888
1718100445.643024,,,,14.597880363,14.605171204,24056.000000000,1718100445.643023968
1718100445.644031,,,,14.909565926,14.914067268,24057.000000000,1718100445.644031048
1718100445.645038,,,,14.922283173,14.925174713,24058.000000000,1718100445.645038128
1718100445.646045,,,,14.804388046,14.809203148,24059.000000000,1718100445.646045208
1718100445.647052,,,,14.697792053,14.699481964,24060.000000000,1718100445.647052288
1718100445.648059,,,,14.564607620,14.567282677,24061.000000000,1718100445.648059368
1718100445.649066,,,,14.624516487,14.628201485,24062.000000000,1718100445.649066448
1718100445.650074,,,,14.820302963,14.824084282,24063.000000000,1718100445.650073528
1718100445.651081,,,,14.859801292,14.864640236,24064.000000000,1718100445.651080608
1718100445.652088,,,,14.905165672,14.909908295,24065.000000000,1718100445.652087688
1718100445.652248,187.805282593,4851.000000000,1718100445.652248144,,,,
1718100445.653095,,,,14.938053131,14.942988396,24066.000000000,1718100445.653094769
1718100445.654102,,,,15.009886742,15.013523102,24067.000000000,1718100445.654101849
1718100445.655109,,,,15.071142197,15.077639580,24068.000000000,1718100445.655108929
1718100445.656116,,,,15.109750748,15.117258072,24069.000000000,1718100445.656116009
1718100445.657123,,,,15.072704315,15.079874992,24070.000000000,1718100445.657123089
1718100445.657248,192.710525513,4852.000000000,1718100445.657248259,,,,
1718100445.658130,,,,14.964642525,14.971356392,24071.000000000,1718100445.658130169
1718100445.659137,,,,15.115640640,15.122475624,24072.000000000,1718100445.659137249
1718100445.660144,,,,15.217620850,15.222459793,24073.000000000,1718100445.660144329
1718100445.661151,,,,15.026835442,15.031529427,24074.000000000,1718100445.661151409
1718100445.662158,,,,14.954233170,14.960537910,24075.000000000,1718100445.662158489
1718100445.662248,197.430114746,4853.000000000,1718100445.662248135,,,,
1718100445.663166,,,,15.016786575,15.021456718,24076.000000000,1718100445.663165569
1718100445.664173,,,,15.122997284,15.130240440,24077.000000000,1718100445.664172649
1718100445.665180,,,,15.243488312,15.249673843,24078.000000000,1718100445.665179729
1718100445.666187,,,,15.141099930,15.147500992,24079.000000000,1718100445.666186810
1718100445.667194,,,,15.039625168,15.046939850,24080.000000000,1718100445.667193890
1718100445.667248,201.900466919,4854.000000000,1718100445.667248249,,,,
1718100445.668201,,,,15.027316093,15.034270287,24081.000000000,1718100445.668200970
1718100445.669208,,,,15.053880692,15.059200287,24082.000000000,1718100445.669208050
1718100445.670215,,,,14.801983833,14.806125641,24083.000000000,1718100445.670215130
1718100445.671222,,,,14.574392319,14.581635475,24084.000000000,1718100445.671222210
1718100445.672229,,,,14.558260918,14.565912247,24085.000000000,1718100445.672229290
1718100445.672248,206.187438965,4855.000000000,1718100445.672248125,,,,
1718100445.673236,,,,14.742700577,14.748524666,24086.000000000,1718100445.673236370
1718100445.674243,,,,15.082080841,15.086366653,24087.000000000,1718100445.674243450
1718100445.675251,,,,15.119102478,15.123052597,24088.000000000,1718100445.675250530
1718100445.676258,,,,15.016233444,15.021288872,24089.000000000,1718100445.676257610
1718100445.677248,210.259597778,4856.000000000,1718100445.677248240,,,,
1718100445.677265,,,,14.969498634,14.977414131,24090.000000000,1718100445.677264690
1718100445.678272,,,,14.744526863,14.749149323,24091.000000000,1718100445.678271770
1718100445.679279,,,,14.762437820,14.767468452,24092.000000000,1718100445.679278851
1718100445.680286,,,,14.679569244,14.685634613,24093.000000000,1718100445.680285931
1718100445.681293,,,,14.659904480,14.666089058,24094.000000000,1718100445.681293011
1718100445.682248,214.198547363,4857.000000000,1718100445.682248116,,,,
1718100445.682300,,,,14.772221565,14.776676178,24095.000000000,1718100445.682300091
1718100445.683307,,,,14.894901276,14.900075912,24096.000000000,1718100445.683307171
1718100445.684314,,,,14.979619980,14.986790657,24097.000000000,1718100445.684314251
1718100445.685321,,,,15.012578964,15.022514343,24098.000000000,1718100445.685321331
1718100445.686328,,,,15.161510468,15.168825150,24099.000000000,1718100445.686328411
1718100445.687248,217.924240112,4858.000000000,1718100445.687248230,,,,
1718100445.687335,,,,15.362344742,15.368313789,24100.000000000,1718100445.687335491
1718100445.688343,,,,15.444660187,15.451494217,24101.000000000,1718100445.688342571
1718100445.689350,,,,15.398983002,15.406514168,24102.000000000,1718100445.689349651
1718100445.690357,,,,15.357007980,15.363048553,24103.000000000,1718100445.690356731
1718100445.691364,,,,15.279910088,15.288234711,24104.000000000,1718100445.691363811
1718100445.692248,221.598526001,4859.000000000,1718100445.692248106,,,,
1718100445.692371,,,,15.125882149,15.134807587,24105.000000000,1718100445.692370892
1718100445.693378,,,,14.889010429,14.893681526,24106.000000000,1718100445.693377972
1718100445.694385,,,,14.802176476,14.804995537,24107.000000000,1718100445.694385052
1718100445.695392,,,,14.420147896,14.425516129,24108.000000000,1718100445.695392132
1718100445.696399,,,,14.123463631,14.129072189,24109.000000000,1718100445.696399212
1718100445.697248,225.044647217,4860.000000000,1718100445.697248220,,,,
1718100445.697406,,,,14.319490433,14.326204300,24110.000000000,1718100445.697406292
1718100445.698413,,,,14.567997932,14.574470520,24111.000000000,1718100445.698413372
1718100445.699420,,,,14.785491943,14.790691376,24112.000000000,1718100445.699420452
1718100445.700428,,,,14.962165833,14.969024658,24113.000000000,1718100445.700427532
1718100445.701435,,,,15.220602036,15.227339745,24114.000000000,1718100445.701434612
1718100445.702442,,,,15.118621826,15.126585960,24115.000000000,1718100445.702441692
1718100445.703449,,,,14.734430313,14.739172935,24116.000000000,1718100445.703448772
1718100445.704456,,,,14.561651230,14.569037437,24117.000000000,1718100445.704455853
1718100445.705463,,,,14.691950798,14.702102661,24118.000000000,1718100445.705462933
1718100445.706470,,,,14.854825020,14.861899376,24119.000000000,1718100445.706470013
1718100445.707477,,,,15.051236153,15.055545807,24120.000000000,1718100445.707477093
1718100445.708484,,,,15.261206627,15.265419960,24121.000000000,1718100445.708484173
1718100445.709491,,,,15.296161652,15.303452492,24122.000000000,1718100445.709491253
1718100445.710498,,,,15.246229172,15.252438545,24123.000000000,1718100445.710498333
1718100445.711505,,,,15.183146477,15.189332008,24124.000000000,1718100445.711505413
1718100445.712512,,,,14.921874046,14.926592827,24125.000000000,1718100445.712512493
1718100445.713520,,,,14.748806000,14.755448341,24126.000000000,1718100445.713519573
1718100445.714527,,,,14.747027397,14.754847527,24127.000000000,1718100445.714526653
1718100445.715534,,,,14.781742096,14.788864136,24128.000000000,1718100445.715533733
1718100445.716541,,,,14.962238312,14.969456673,24129.000000000,1718100445.716540813
1718100445.717548,,,,15.367730141,15.375333786,24130.000000000,1718100445.717547894
1718100445.718555,,,,15.707783699,15.713247299,24131.000000000,1718100445.718554974
1718100445.719562,,,,15.591547966,15.598886490,24132.000000000,1718100445.719562054
1718100445.720569,,,,15.414368629,15.422260284,24133.000000000,1718100445.720569134
1718100445.721576,,,,15.150644302,15.157886505,24134.000000000,1718100445.721576214
1718100445.722583,,,,14.867542267,14.874617577,24135.000000000,1718100445.722583294
1718100445.723590,,,,14.703057289,14.709050179,24136.000000000,1718100445.723590374
1718100445.724597,,,,14.690267563,14.698255539,24137.000000000,1718100445.724597454
1718100445.725605,,,,14.670217514,14.677677155,24138.000000000,1718100445.725604534
1718100445.726612,,,,14.586028099,14.592020988,24139.000000000,1718100445.726611614
1718100445.727619,,,,14.422047615,14.428641319,24140.000000000,1718100445.727618694
1718100445.728626,,,,14.481235504,14.484992027,24141.000000000,1718100445.728625774
1718100445.729633,,,,14.687839508,14.691140175,24142.000000000,1718100445.729632854
1718100445.730640,,,,14.832635880,14.838219643,24143.000000000,1718100445.730639935
1718100445.731647,,,,14.686084747,14.690033913,24144.000000000,1718100445.731647015
1718100445.732654,,,,14.666707993,14.672051430,24145.000000000,1718100445.732654095
1718100445.733661,,,,14.770346642,14.777757645,24146.000000000,1718100445.733661175
1718100445.734668,,,,15.135499001,15.144304276,24147.000000000,1718100445.734668255
1718100445.735675,,,,15.421195984,15.429352760,24148.000000000,1718100445.735675335
1718100445.736682,,,,15.123430252,15.130144119,24149.000000000,1718100445.736682415
1718100445.737689,,,,14.929855347,14.933660507,24150.000000000,1718100445.737689495
1718100445.738697,,,,14.956708908,14.962412834,24151.000000000,1718100445.738696575
1718100445.739704,,,,15.062030792,15.066172600,24152.000000000,1718100445.739703655
1718100445.740711,,,,15.060948372,15.065667152,24153.000000000,1718100445.740710735
1718100445.741718,,,,14.991736412,14.997223854,24154.000000000,1718100445.741717815
1718100445.742725,,,,14.947669983,14.954335213,24155.000000000,1718100445.742724895
1718100445.743732,,,,15.086311340,15.094444275,24156.000000000,1718100445.743731976
1718100445.744739,,,,15.207740784,15.214045525,24157.000000000,1718100445.744739056
1718100445.745746,,,,15.125449181,15.130865097,24158.000000000,1718100445.745746136
1718100445.746718,255.477951050,4871.000000000,1718100445.746717930,,,,
1718100445.746753,,,,14.952213287,14.954816818,24159.000000000,1718100445.746753216
1718100445.747760,,,,14.923316956,14.927242279,24160.000000000,1718100445.747760296
1718100445.748767,,,,14.914950371,14.920293808,24161.000000000,1718100445.748767376
1718100445.749774,,,,14.839319229,14.846850395,24162.000000000,1718100445.749774456
1718100445.750782,,,,14.894251823,14.899908066,24163.000000000,1718100445.750781536
1718100445.751718,257.642150879,4872.000000000,1718100445.751718044,,,,
1718100445.751789,,,,14.957429886,14.962317467,24164.000000000,1718100445.751788616
1718100445.752796,,,,14.949160576,14.954431534,24165.000000000,1718100445.752795696
1718100445.753803,,,,14.989740372,14.994362831,24166.000000000,1718100445.753802776
1718100445.754810,,,,15.028302193,15.035640717,24167.000000000,1718100445.754809856
1718100445.755817,,,,14.869105339,14.875675201,24168.000000000,1718100445.755816936
1718100445.756718,259.709930420,4873.000000000,1718100445.756717920,,,,
1718100445.756824,,,,14.625886917,14.630822182,24169.000000000,1718100445.756824017
1718100445.757831,,,,14.627858162,14.634644508,24170.000000000,1718100445.757831097
1718100445.758838,,,,14.798401833,14.807640076,24171.000000000,1718100445.758838177
1718100445.759845,,,,15.020392418,15.027539253,24172.000000000,1718100445.759845257
1718100445.760852,,,,15.058088303,15.063695908,24173.000000000,1718100445.760852337
1718100445.761718,261.697357178,4874.000000000,1718100445.761718035,,,,
1718100445.761859,,,,15.010656357,15.014556885,24174.000000000,1718100445.761859417
1718100445.762866,,,,15.146124840,15.151828766,24175.000000000,1718100445.762866497
1718100445.763874,,,,15.253225327,15.259482384,24176.000000000,1718100445.763873577
1718100445.764881,,,,14.978610039,14.983472824,24177.000000000,1718100445.764880657
1718100445.765888,,,,14.740056038,14.745110512,24178.000000000,1718100445.765887737
1718100445.766718,263.636535645,4875.000000000,1718100445.766717911,,,,
1718100445.766895,,,,14.878000259,14.883007050,24179.000000000,1718100445.766894817
1718100445.767902,,,,14.914469719,14.917264938,24180.000000000,1718100445.767901897
1718100445.768909,,,,14.794963837,14.798360825,24181.000000000,1718100445.768908978
1718100445.769916,,,,14.735031128,14.740303040,24182.000000000,1718100445.769916058
1718100445.770923,,,,14.639806747,14.644260406,24183.000000000,1718100445.770923138
1718100445.771718,265.527557373,4876.000000000,1718100445.771718025,,,,
1718100445.771930,,,,14.760706902,14.766050339,24184.000000000,1718100445.771930218
1718100445.772937,,,,14.932499886,14.936858177,24185.000000000,1718100445.772937298
1718100445.773944,,,,14.960579872,14.966403961,24186.000000000,1718100445.773944378
1718100445.774951,,,,14.883962631,14.891229630,24187.000000000,1718100445.774951458
1718100445.775959,,,,14.838549614,14.843628883,24188.000000000,1718100445.775958538
1718100445.776718,267.322357178,4877.000000000,1718100445.776717901,,,,
1718100445.776966,,,,15.018348694,15.026793480,24189.000000000,1718100445.776965618
1718100445.777973,,,,15.192643166,15.198274612,24190.000000000,1718100445.777972698
1718100445.778980,,,,15.113429070,15.119565964,24191.000000000,1718100445.778979778
1718100445.779987,,,,15.047462463,15.052733421,24192.000000000,1718100445.779986858
1718100445.780994,,,,14.970676422,14.977823257,24193.000000000,1718100445.780993938
1718100445.781718,269.036956787,4878.000000000,1718100445.781718016,,,,
1718100445.782001,,,,15.049674034,15.058815956,24194.000000000,1718100445.782001019
1718100445.783008,,,,15.089436531,15.096583366,24195.000000000,1718100445.783008099
1718100445.784015,,,,15.049721718,15.056387901,24196.000000000,1718100445.784015179
1718100445.785022,,,,14.892568588,14.896662712,24197.000000000,1718100445.785022259
1718100445.786029,,,,14.787824631,14.793985367,24198.000000000,1718100445.786029339
1718100445.786718,270.623382568,4879.000000000,1718100445.786717892,,,,
1718100445.787036,,,,14.901559830,14.908177376,24199.000000000,1718100445.787036419
1718100445.788043,,,,15.140619278,15.151371956,24200.000000000,1718100445.788043499
1718100445.789051,,,,15.339962959,15.348576546,24201.000000000,1718100445.789050579
1718100445.790058,,,,15.322389603,15.330497742,24202.000000000,1718100445.790057659
1718100445.791065,,,,15.080734253,15.086318016,24203.000000000,1718100445.791064739
1718100445.791718,272.129699707,4880.000000000,1718100445.791718006,,,,
1718100445.792072,,,,14.746257782,14.754150391,24204.000000000,1718100445.792071819
1718100445.793079,,,,14.708899498,14.714843750,24205.000000000,1718100445.793078899
1718100445.794086,,,,14.787608147,14.793479919,24206.000000000,1718100445.794085979
1718100445.795093,,,,14.707456589,14.715107918,24207.000000000,1718100445.795093060
1718100445.796100,,,,14.678054810,14.686812401,24208.000000000,1718100445.796100140
1718100445.797107,,,,14.669665337,14.674455643,24209.000000000,1718100445.797107220
1718100445.798114,,,,14.656562805,14.660079002,24210.000000000,1718100445.798114300
1718100445.799121,,,,14.777703285,14.780402184,24211.000000000,1718100445.799121380
1718100445.800128,,,,14.946972847,14.953301430,24212.000000000,1718100445.800128460
1718100445.801136,,,,15.119222641,15.124758720,24213.000000000,1718100445.801135540
1718100445.802143,,,,15.175021172,15.178730011,24214.000000000,1718100445.802142620
1718100445.803150,,,,15.105591774,15.110310555,24215.000000000,1718100445.803149700
1718100445.804157,,,,14.971662521,14.977510452,24216.000000000,1718100445.804156780
1718100445.805164,,,,14.799652100,14.806245804,24217.000000000,1718100445.805163860
1718100445.806171,,,,14.780659676,14.786725044,24218.000000000,1718100445.806170940
1718100445.807178,,,,14.926946640,14.934309959,24219.000000000,1718100445.807178020
1718100445.808185,,,,15.232694626,15.239384651,24220.000000000,1718100445.808185101
1718100445.809192,,,,15.690234184,15.696106911,24221.000000000,1718100445.809192181
1718100445.810199,,,,15.470070839,15.476544380,24222.000000000,1718100445.810199261
1718100445.811206,,,,14.936250687,14.940704346,24223.000000000,1718100445.811206341
1718100445.812213,,,,14.734550476,14.738042831,24224.000000000,1718100445.812213421
1718100445.813221,,,,14.797440529,14.801076889,24225.000000000,1718100445.813220501
1718100445.814228,,,,14.852300644,14.857933044,24226.000000000,1718100445.814227581
1718100445.815235,,,,14.942068100,14.947556496,24227.000000000,1718100445.815234661
1718100445.816242,,,,14.963248253,14.969432831,24228.000000000,1718100445.816241741
1718100445.817249,,,,14.867134094,14.871804237,24229.000000000,1718100445.817248821
1718100445.818256,,,,15.146245003,15.153270721,24230.000000000,1718100445.818255901
1718100445.819263,,,,15.328664780,15.334344864,24231.000000000,1718100445.819262981
1718100445.820270,,,,15.282434464,15.287850380,24232.000000000,1718100445.820270061
1718100445.821277,,,,15.127445221,15.136010170,24233.000000000,1718100445.821277142
1718100445.822284,,,,15.000270844,15.008426666,24234.000000000,1718100445.822284222
1718100445.823291,,,,14.756355286,14.761362076,24235.000000000,1718100445.823291302
1718100445.824298,,,,14.508040428,14.512157440,24236.000000000,1718100445.824298382
1718100445.825305,,,,14.532297134,14.538313866,24237.000000000,1718100445.825305462
1718100445.826313,,,,14.686854362,14.691884995,24238.000000000,1718100445.826312542
1718100445.827320,,,,14.753374100,14.761410713,24239.000000000,1718100445.827319622
1718100445.828327,,,,14.730031013,14.733931541,24240.000000000,1718100445.828326702
1718100445.829334,,,,14.773808479,14.776435852,24241.000000000,1718100445.829333782
1718100445.830341,,,,14.887928963,14.892599106,24242.000000000,1718100445.830340862
1718100445.831348,,,,14.921032906,14.927578926,24243.000000000,1718100445.831347942
1718100445.832355,,,,14.910118103,14.916134834,24244.000000000,1718100445.832355022
1718100445.833362,,,,14.946563721,14.952580452,24245.000000000,1718100445.833362103
1718100445.834369,,,,14.947260857,14.953566551,24246.000000000,1718100445.834369183
1718100445.835376,,,,15.020031929,15.024148941,24247.000000000,1718100445.835376263
1718100445.836383,,,,15.027725220,15.033525467,24248.000000000,1718100445.836383343
1718100445.837390,,,,14.967046738,14.973159790,24249.000000000,1718100445.837390423
1718100445.838398,,,,15.043831825,15.052325249,24250.000000000,1718100445.838397503
1718100445.839405,,,,15.020656586,15.028933525,24251.000000000,1718100445.839404583
1718100445.840412,,,,14.919061661,14.924477577,24252.000000000,1718100445.840411663
1718100445.841419,,,,14.988947868,14.993569374,24253.000000000,1718100445.841418743
1718100445.842426,,,,15.185359001,15.189644814,24254.000000000,1718100445.842425823
1718100445.843433,,,,15.245171547,15.252053261,24255.000000000,1718100445.843432903
1718100445.844440,,,,15.215553284,15.221185684,24256.000000000,1718100445.844439983
1718100445.845447,,,,15.329746246,15.334224701,24257.000000000,1718100445.845447063
1718100445.846454,,,,15.486322403,15.493564606,24258.000000000,1718100445.846454144
1718100445.847461,,,,15.268659592,15.273160934,24259.000000000,1718100445.847461224
1718100445.848468,,,,14.936034203,14.938997269,24260.000000000,1718100445.848468304
1718100445.849475,,,,14.869826317,14.876949310,24261.000000000,1718100445.849475384
1718100445.850482,,,,14.931394577,14.938636780,24262.000000000,1718100445.850482464
1718100445.851490,,,,14.757869720,14.762972832,24263.000000000,1718100445.851489544
1718100445.851739,284.519256592,4891.000000000,1718100445.851738691,,,,
1718100445.852497,,,,14.721736908,14.726936340,24264.000000000,1718100445.852496624
1718100445.853504,,,,14.692671776,14.696764946,24265.000000000,1718100445.853503704
1718100445.854511,,,,14.676132202,14.678325653,24266.000000000,1718100445.854510784
1718100445.855518,,,,14.696614265,14.700106621,24267.000000000,1718100445.855517864
1718100445.856525,,,,14.764625549,14.768454552,24268.000000000,1718100445.856524944
1718100445.856739,285.288879395,4892.000000000,1718100445.856738806,,,,
1718100445.857532,,,,14.794219017,14.797183037,24269.000000000,1718100445.857532024
1718100445.858539,,,,14.774698257,14.777084351,24270.000000000,1718100445.858539104
1718100445.859546,,,,14.918051720,14.925606728,24271.000000000,1718100445.859546185
1718100445.860553,,,,15.092009544,15.094972610,24272.000000000,1718100445.860553265
1718100445.861560,,,,15.083065987,15.085524559,24273.000000000,1718100445.861560345
1718100445.861739,285.994354248,4893.000000000,1718100445.861738682,,,,
1718100445.862567,,,,14.907449722,14.913851738,24274.000000000,1718100445.862567425
1718100445.863575,,,,15.022844315,15.031001091,24275.000000000,1718100445.863574505
1718100445.864582,,,,15.582508087,15.590039253,24276.000000000,1718100445.864581585
1718100445.865589,,,,15.759711266,15.766232491,24277.000000000,1718100445.865588665
1718100445.866596,,,,15.409632683,15.416130066,24278.000000000,1718100445.866595745
1718100445.866739,286.748046875,4894.000000000,1718100445.866738796,,,,
1718100445.867603,,,,15.141099930,15.145169258,24279.000000000,1718100445.867602825
1718100445.868610,,,,15.200864792,15.207169533,24280.000000000,1718100445.868609905
1718100445.869617,,,,15.331524849,15.337013245,24281.000000000,1718100445.869616985
1718100445.870624,,,,15.341814041,15.347495079,24282.000000000,1718100445.870624065
1718100445.871631,,,,15.145114899,15.149857521,24283.000000000,1718100445.871631145
1718100445.871739,287.453613281,4895.000000000,1718100445.871738672,,,,
1718100445.872638,,,,15.018829346,15.024053574,24284.000000000,1718100445.872638226
1718100445.873645,,,,15.035610199,15.042011261,24285.000000000,1718100445.873645306
1718100445.874652,,,,15.009309769,15.015422821,24286.000000000,1718100445.874652386
1718100445.875659,,,,14.831914902,14.836104393,24287.000000000,1718100445.875659466
1718100445.876667,,,,14.610741615,14.612863541,24288.000000000,1718100445.876666546
1718100445.876739,288.159301758,4896.000000000,1718100445.876738787,,,,
1718100445.877674,,,,14.528282166,14.533866882,24289.000000000,1718100445.877673626
1718100445.878681,,,,14.402261734,14.406523705,24290.000000000,1718100445.878680706
1718100445.879688,,,,14.359325409,14.361639977,24291.000000000,1718100445.879687786
1718100445.880695,,,,14.491308212,14.494175911,24292.000000000,1718100445.880694866
1718100445.881702,,,,14.587326050,14.595193863,24293.000000000,1718100445.881701946
1718100445.881739,288.929168701,4897.000000000,1718100445.881738663,,,,
1718100445.882709,,,,14.666828156,14.673902512,24294.000000000,1718100445.882709026
1718100445.883716,,,,14.746522903,14.754270554,24295.000000000,1718100445.883716106
1718100445.884723,,,,14.802873611,14.810380936,24296.000000000,1718100445.884723186
1718100445.885730,,,,14.768495560,14.774464607,24297.000000000,1718100445.885730267
1718100445.886737,,,,14.567661285,14.573942184,24298.000000000,1718100445.886737347
1718100445.886739,289.586761475,4898.000000000,1718100445.886738777,,,,
1718100445.887744,,,,14.714764595,14.720901489,24299.000000000,1718100445.887744427
1718100445.888752,,,,15.058592796,15.064609528,24300.000000000,1718100445.888751507
1718100445.889759,,,,15.229376793,15.236379623,24301.000000000,1718100445.889758587
1718100445.890766,,,,15.182497978,15.188418388,24302.000000000,1718100445.890765667
1718100445.891739,290.260498047,4899.000000000,1718100445.891738653,,,,
1718100445.891773,,,,15.099894524,15.103747368,24303.000000000,1718100445.891772747
1718100445.892780,,,,15.190359116,15.199597359,24304.000000000,1718100445.892779827
1718100445.893787,,,,15.294117928,15.300518990,24305.000000000,1718100445.893786907
1718100445.894794,,,,15.465382576,15.468370438,24306.000000000,1718100445.894793987
1718100445.895801,,,,15.560823441,15.563714981,24307.000000000,1718100445.895801067
1718100445.896739,290.870056152,4900.000000000,1718100445.896738768,,,,
1718100445.896808,,,,15.469998360,15.474837303,24308.000000000,1718100445.896808147
1718100445.897815,,,,15.239233971,15.241956711,24309.000000000,1718100445.897815228
1718100445.898822,,,,14.933245659,14.935030937,24310.000000000,1718100445.898822308
1718100445.899829,,,,14.900429726,14.903850555,24311.000000000,1718100445.899829388
1718100445.900836,,,,15.015608788,15.017850876,24312.000000000,1718100445.900836468
1718100445.901844,,,,14.904493332,14.910341263,24313.000000000,1718100445.901843548
1718100445.902851,,,,14.838453293,14.845432281,24314.000000000,1718100445.902850628
1718100445.903858,,,,14.777559280,14.782542229,24315.000000000,1718100445.903857708
1718100445.904865,,,,14.688152313,14.694529533,24316.000000000,1718100445.904864788
1718100445.905872,,,,14.683296204,14.689529419,24317.000000000,1718100445.905871868
1718100445.906113,291.479705811,4901.000000000,1718100445.906112909,,,,
1718100445.906879,,,,14.602254868,14.609714508,24318.000000000,1718100445.906878948
1718100445.907886,,,,14.681492805,14.688807487,24319.000000000,1718100445.907886028
1718100445.908893,,,,14.919469833,14.927963257,24320.000000000,1718100445.908893108
1718100445.909900,,,,15.156221390,15.162863731,24321.000000000,1718100445.909900188
1718100445.910907,,,,15.342967987,15.347927094,24322.000000000,1718100445.910907269
1718100445.911113,292.041259766,4902.000000000,1718100445.911113024,,,,
1718100445.911914,,,,15.404079437,15.407932281,24323.000000000,1718100445.911914349
1718100445.912921,,,,15.387900352,15.393628120,24324.000000000,1718100445.912921429
1718100445.913929,,,,15.517550468,15.525057793,24325.000000000,1718100445.913928509
1718100445.914936,,,,15.690065384,15.693222046,24326.000000000,1718100445.914935589
1718100445.915943,,,,15.102442741,15.105381966,24327.000000000,1718100445.915942669
1718100445.916113,292.554718018,4903.000000000,1718100445.916112900,,,,
1718100445.916950,,,,14.340261459,14.345797539,24328.000000000,1718100445.916949749
1718100445.917957,,,,14.410122871,14.414865494,24329.000000000,1718100445.917956829
1718100445.918964,,,,14.751883507,14.758044243,24330.000000000,1718100445.918963909
1718100445.919971,,,,14.950169563,14.954335213,24331.000000000,1718100445.919970989
1718100445.920978,,,,14.952622414,14.955609322,24332.000000000,1718100445.920978069
1718100445.921113,292.955810547,4904.000000000,1718100445.921113014,,,,
1718100445.921985,,,,14.952165604,14.955393791,24333.000000000,1718100445.921985149
1718100445.922992,,,,15.030177116,15.034342766,24334.000000000,1718100445.922992229
1718100445.923999,,,,15.001881599,15.010494232,24335.000000000,1718100445.923999310
1718100445.925006,,,,14.895261765,14.901158333,24336.000000000,1718100445.925006390
1718100445.926013,,,,14.792655945,14.795812607,24337.000000000,1718100445.926013470
1718100445.926113,293.276794434,4905.000000000,1718100445.926112890,,,,
1718100445.927021,,,,14.799435616,14.802350998,24338.000000000,1718100445.927020550
1718100445.928028,,,,14.936755180,14.941089630,24339.000000000,1718100445.928027630
1718100445.929035,,,,15.294046402,15.299918175,24340.000000000,1718100445.929034710
1718100445.930042,,,,15.319264412,15.324079514,24341.000000000,1718100445.930041790
1718100445.931049,,,,15.048567772,15.052083969,24342.000000000,1718100445.931048870
1718100445.931113,293.485351563,4906.000000000,1718100445.931113005,,,,
1718100445.932056,,,,15.072463989,15.076269150,24343.000000000,1718100445.932055950
1718100445.933063,,,,15.163986206,15.170989037,24344.000000000,1718100445.933063030
1718100445.934070,,,,14.970940590,14.978256226,24345.000000000,1718100445.934070110
1718100445.935077,,,,14.791934967,14.798264503,24346.000000000,1718100445.935077190
1718100445.936084,,,,14.784026146,14.789297104,24347.000000000,1718100445.936084270
1718100445.936113,293.838439941,4907.000000000,1718100445.936112881,,,,
1718100445.937091,,,,14.841121674,14.845215797,24348.000000000,1718100445.937091351
1718100445.938098,,,,14.902209282,14.904067039,24349.000000000,1718100445.938098431
1718100445.939106,,,,14.990173340,14.995685577,24350.000000000,1718100445.939105511
1718100445.940113,,,,14.893842697,14.901975632,24351.000000000,1718100445.940112591
1718100445.941120,,,,14.607904434,14.613560677,24352.000000000,1718100445.941119671
1718100445.942127,,,,14.607664108,14.612887383,24353.000000000,1718100445.942126751
1718100445.943134,,,,14.762845993,14.768502235,24354.000000000,1718100445.943133831
1718100445.944141,,,,14.776693344,14.783479691,24355.000000000,1718100445.944140911
1718100445.945148,,,,14.809316635,14.815044403,24356.000000000,1718100445.945147991
1718100445.946155,,,,14.940649986,14.947893143,24357.000000000,1718100445.946155071
1718100445.947162,,,,15.102178574,15.107233047,24358.000000000,1718100445.947162151
1718100445.948169,,,,15.216803551,15.219574928,24359.000000000,1718100445.948169231
1718100445.949176,,,,15.310441971,15.317107201,24360.000000000,1718100445.949176311
1718100445.950183,,,,15.307484627,15.313621521,24361.000000000,1718100445.950183392
1718100445.951190,,,,15.218414307,15.224551201,24362.000000000,1718100445.951190472
1718100445.952198,,,,15.270798683,15.276887894,24363.000000000,1718100445.952197552
1718100445.953205,,,,15.222476959,15.229094505,24364.000000000,1718100445.953204632
1718100445.954212,,,,15.001208305,15.007465363,24365.000000000,1718100445.954211712
1718100445.955219,,,,14.865595818,14.871924400,24366.000000000,1718100445.955218792
1718100445.956113,294.496429443,4911.000000000,1718100445.956112862,,,,
1718100445.956226,,,,15.157038689,15.163440704,24367.000000000,1718100445.956225872
1718100445.957233,,,,15.285679817,15.290759087,24368.000000000,1718100445.957232952
1718100445.958240,,,,15.014550209,15.021793365,24369.000000000,1718100445.958240032
1718100445.959247,,,,14.897136688,14.903393745,24370.000000000,1718100445.959247112
1718100445.960254,,,,15.010776520,15.017827034,24371.000000000,1718100445.960254192
1718100445.961113,294.608795166,4912.000000000,1718100445.961112976,,,,
1718100445.961261,,,,14.825568199,14.831224442,24372.000000000,1718100445.961261272
1718100445.962268,,,,14.847853661,14.852235794,24373.000000000,1718100445.962268353
1718100445.963275,,,,15.015896797,15.021745682,24374.000000000,1718100445.963275433
1718100445.964283,,,,15.140666962,15.144784927,24375.000000000,1718100445.964282513
1718100445.965290,,,,15.042918205,15.048117638,24376.000000000,1718100445.965289593
1718100445.966113,294.672973633,4913.000000000,1718100445.966112852,,,,
1718100445.966297,,,,14.929038048,14.936377525,24377.000000000,1718100445.966296673
1718100445.967304,,,,15.189205170,15.196472168,24378.000000000,1718100445.967303753
1718100445.968311,,,,15.252311707,15.258399963,24379.000000000,1718100445.968310833
1718100445.969318,,,,15.015175819,15.022610664,24380.000000000,1718100445.969317913
1718100445.970325,,,,14.881966591,14.887815475,24381.000000000,1718100445.970324993
1718100445.971113,294.688995361,4914.000000000,1718100445.971112967,,,,
1718100445.971332,,,,15.034720421,15.037155151,24382.000000000,1718100445.971332073
1718100445.972339,,,,14.982601166,14.988184929,24383.000000000,1718100445.972339153
1718100445.973346,,,,14.840785980,14.846249580,24384.000000000,1718100445.973346233
1718100445.974353,,,,14.850161552,14.858774185,24385.000000000,1718100445.974353313
1718100445.975360,,,,15.068881989,15.075211525,24386.000000000,1718100445.975360394
1718100445.976113,294.769256592,4915.000000000,1718100445.976112843,,,,
1718100445.976367,,,,15.251662254,15.258929253,24387.000000000,1718100445.976367474
1718100445.977375,,,,15.070636749,15.077903748,24388.000000000,1718100445.977374554
1718100445.978382,,,,14.708850861,14.713665962,24389.000000000,1718100445.978381634
1718100445.979389,,,,14.568742752,14.575312614,24390.000000000,1718100445.979388714
1718100445.980396,,,,14.741930962,14.748019218,24391.000000000,1718100445.980395794
1718100445.981113,294.833465576,4916.000000000,1718100445.981112957,,,,
1718100445.981403,,,,14.968176842,14.974577904,24392.000000000,1718100445.981402874
1718100445.982410,,,,15.013372421,15.017947197,24393.000000000,1718100445.982409954
1718100445.983417,,,,14.927283287,14.928684235,24394.000000000,1718100445.983417034
1718100445.984424,,,,14.867903709,14.872573853,24395.000000000,1718100445.984424114
1718100445.985431,,,,15.022147179,15.027250290,24396.000000000,1718100445.985431194
1718100445.986113,295.026062012,4917.000000000,1718100445.986112833,,,,
1718100445.986438,,,,15.093860626,15.099324226,24397.000000000,1718100445.986438274
1718100445.987445,,,,14.991591454,14.999411583,24398.000000000,1718100445.987445354
1718100445.988452,,,,14.991928101,14.998810768,24399.000000000,1718100445.988452435
1718100445.989460,,,,15.207836151,15.216329575,24400.000000000,1718100445.989459515
1718100445.990467,,,,15.663429260,15.668387413,24401.000000000,1718100445.990466595
1718100445.991113,295.106323242,4918.000000000,1718100445.991112947,,,,
1718100445.991474,,,,15.533465385,15.538688660,24402.000000000,1718100445.991473675
1718100445.992481,,,,15.094077110,15.098963737,24403.000000000,1718100445.992480755
1718100445.993488,,,,14.925024033,14.930294991,24404.000000000,1718100445.993487835
1718100445.994495,,,,14.953800201,14.959407806,24405.000000000,1718100445.994494915
1718100445.995502,,,,14.860186577,14.868174553,24406.000000000,1718100445.995501995
1718100445.996113,295.347045898,4919.000000000,1718100445.996112823,,,,
1718100445.996509,,,,14.989668846,14.994795799,24407.000000000,1718100445.996509075
1718100445.997516,,,,15.230338097,15.236763954,24408.000000000,1718100445.997516155
1718100445.998523,,,,15.197475433,15.204646111,24409.000000000,1718100445.998523235
1718100445.999530,,,,14.949424744,14.955850601,24410.000000000,1718100445.999530315
1718100446.000537,,,,14.778496742,14.782060623,24411.000000000,1718100446.000537395
1718100446.001113,295.555725098,4920.000000000,1718100446.001112938,,,,
1718100446.001544,,,,14.678319931,14.680658340,24412.000000000,1718100446.001544476
1718100446.002552,,,,14.752820969,14.757179260,24413.000000000,1718100446.002551556
1718100446.003559,,,,14.939255714,14.944358826,24414.000000000,1718100446.003558636
1718100446.004566,,,,14.991086960,14.995276451,24415.000000000,1718100446.004565716
1718100446.005573,,,,14.863335609,14.870674133,24416.000000000,1718100446.005572796
1718100446.006580,,,,14.982865334,14.991598129,24417.000000000,1718100446.006579876
1718100446.007587,,,,15.124223709,15.129110336,24418.000000000,1718100446.007586956
1718100446.008594,,,,15.071238518,15.077927589,24419.000000000,1718100446.008594036
1718100446.009601,,,,14.976590157,14.981789589,24420.000000000,1718100446.009601116
1718100446.010608,,,,14.958127022,14.963566780,24421.000000000,1718100446.010608196
1718100446.011615,,,,15.055540085,15.061411858,24422.000000000,1718100446.011615276
1718100446.012622,,,,15.011304855,15.017009735,24423.000000000,1718100446.012622356
1718100446.013629,,,,14.915743828,14.921279907,24424.000000000,1718100446.013629436
1718100446.014637,,,,14.882472038,14.886541367,24425.000000000,1718100446.014636517
1718100446.015644,,,,14.914301872,14.920510292,24426.000000000,1718100446.015643597
1718100446.016651,,,,15.017194748,15.022033691,24427.000000000,1718100446.016650677
1718100446.017658,,,,15.098572731,15.103314400,24428.000000000,1718100446.017657757
1718100446.018665,,,,15.033182144,15.038285255,24429.000000000,1718100446.018664837
1718100446.019672,,,,14.918292046,14.923130989,24430.000000000,1718100446.019671917
1718100446.020679,,,,14.938919067,14.942338943,24431.000000000,1718100446.020678997
1718100446.021686,,,,15.027003288,15.031024933,24432.000000000,1718100446.021686077
1718100446.022693,,,,14.939712524,14.946474075,24433.000000000,1718100446.022693157
1718100446.023700,,,,14.718731880,14.725565910,24434.000000000,1718100446.023700237
1718100446.024707,,,,14.629204750,14.635197639,24435.000000000,1718100446.024707317
1718100446.025714,,,,14.690460205,14.698111534,24436.000000000,1718100446.025714397
1718100446.026721,,,,14.840617180,14.846898079,24437.000000000,1718100446.026721478
1718100446.027729,,,,14.959113121,14.964192390,24438.000000000,1718100446.027728558
1718100446.028736,,,,15.036884308,15.042877197,24439.000000000,1718100446.028735638
1718100446.029743,,,,15.295368195,15.303092003,24440.000000000,1718100446.029742718
1718100446.030750,,,,15.342319489,15.349057198,24441.000000000,1718100446.030749798
1718100446.031757,,,,15.215289116,15.224046707,24442.000000000,1718100446.031756878
1718100446.032764,,,,15.097177505,15.104684830,24443.000000000,1718100446.032763958
1718100446.033771,,,,15.048399925,15.055594444,24444.000000000,1718100446.033771038
1718100446.034778,,,,15.100278854,15.104036331,24445.000000000,1718100446.034778118
1718100446.035785,,,,14.905406952,14.910100937,24446.000000000,1718100446.035785198
1718100446.036792,,,,14.701326370,14.705948830,24447.000000000,1718100446.036792278
1718100446.037799,,,,14.792608261,14.798000336,24448.000000000,1718100446.037799358
1718100446.038806,,,,14.958848953,14.965417862,24449.000000000,1718100446.038806438
1718100446.039814,,,,14.953439713,14.960273743,24450.000000000,1718100446.039813519
1718100446.040821,,,,14.768062592,14.772131920,24451.000000000,1718100446.040820599
1718100446.041828,,,,14.762966156,14.766867638,24452.000000000,1718100446.041827679
1718100446.042835,,,,14.900791168,14.907048225,24453.000000000,1718100446.042834759
1718100446.043842,,,,15.350709915,15.360116005,24454.000000000,1718100446.043841839
1718100446.044849,,,,15.690667152,15.696948051,24455.000000000,1718100446.044848919
1718100446.045856,,,,15.598062515,15.604439735,24456.000000000,1718100446.045855999
1718100446.046863,,,,15.385111809,15.389012337,24457.000000000,1718100446.046863079
1718100446.047870,,,,15.380086899,15.384036064,24458.000000000,1718100446.047870159
1718100446.048877,,,,15.296738625,15.299389839,24459.000000000,1718100446.048877239
1718100446.049884,,,,15.072272301,15.075211525,24460.000000000,1718100446.049884319
1718100446.050835,297.161071777,4931.000000000,1718100446.050834894,,,,
1718100446.050891,,,,14.968128204,14.971476555,24461.000000000,1718100446.050891399
1718100446.051898,,,,14.929062843,14.935174942,24462.000000000,1718100446.051898479
1718100446.052906,,,,15.132228851,15.138053894,24463.000000000,1718100446.052905560
1718100446.053913,,,,15.035057068,15.041698456,24464.000000000,1718100446.053912640
1718100446.054920,,,,14.933413506,14.939382553,24465.000000000,1718100446.054919720
1718100446.055835,297.273437500,4932.000000000,1718100446.055835009,,,,
1718100446.055927,,,,14.881895065,14.886492729,24466.000000000,1718100446.055926800
1718100446.056934,,,,14.760417938,14.764679909,24467.000000000,1718100446.056933880
1718100446.057941,,,,14.660938263,14.664526939,24468.000000000,1718100446.057940960
1718100446.058948,,,,14.631320000,14.637553215,24469.000000000,1718100446.058948040
1718100446.059955,,,,14.731256485,14.739004135,24470.000000000,1718100446.059955120
1718100446.060835,297.337646484,4933.000000000,1718100446.060834885,,,,
1718100446.060962,,,,14.943078041,14.950104713,24471.000000000,1718100446.060962200
1718100446.061969,,,,15.112131119,15.117594719,24472.000000000,1718100446.061969280
1718100446.062976,,,,15.176944733,15.179354668,24473.000000000,1718100446.062976360
1718100446.063983,,,,15.109293938,15.112090111,24474.000000000,1718100446.063983440
1718100446.064991,,,,14.986687660,14.993834496,24475.000000000,1718100446.064990520
1718100446.065835,297.482177734,4934.000000000,1718100446.065834999,,,,
1718100446.065998,,,,15.090710640,15.098939896,24476.000000000,1718100446.065997601
1718100446.067005,,,,15.269788742,15.277319908,24477.000000000,1718100446.067004681
1718100446.068012,,,,15.221755981,15.226522446,24478.000000000,1718100446.068011761
1718100446.069019,,,,14.968801498,14.974217415,24479.000000000,1718100446.069018841
1718100446.070026,,,,15.017988205,15.024942398,24480.000000000,1718100446.070025921
1718100446.070835,297.578491211,4935.000000000,1718100446.070834875,,,,
1718100446.071033,,,,15.107731819,15.112354279,24481.000000000,1718100446.071033001
1718100446.072040,,,,15.258249283,15.261886597,24482.000000000,1718100446.072040081
1718100446.073047,,,,15.232790947,15.237293243,24483.000000000,1718100446.073047161
1718100446.074054,,,,14.842324257,14.846826553,24484.000000000,1718100446.074054241
1718100446.075061,,,,14.642018318,14.648371696,24485.000000000,1718100446.075061321
1718100446.075835,297.610595703,4936.000000000,1718100446.075834990,,,,
1718100446.076068,,,,14.884756088,14.891637802,24486.000000000,1718100446.076068401
1718100446.077075,,,,15.244787216,15.249841690,24487.000000000,1718100446.077075481
1718100446.078083,,,,15.035778046,15.040400505,24488.000000000,1718100446.078082561
1718100446.079090,,,,14.709043503,14.715011597,24489.000000000,1718100446.079089642
1718100446.080097,,,,14.877350807,14.884233475,24490.000000000,1718100446.080096722
1718100446.080835,297.755126953,4937.000000000,1718100446.080834866,,,,
1718100446.081104,,,,14.945433617,14.949888229,24491.000000000,1718100446.081103802
1718100446.082111,,,,14.880235672,14.887791634,24492.000000000,1718100446.082110882
1718100446.083118,,,,14.771092415,14.776315689,24493.000000000,1718100446.083117962
1718100446.084125,,,,14.645287514,14.651496887,24494.000000000,1718100446.084125042
1718100446.085132,,,,14.641345024,14.647410393,24495.000000000,1718100446.085132122
1718100446.085835,297.723022461,4938.000000000,1718100446.085834980,,,,
1718100446.086139,,,,14.748685837,14.755592346,24496.000000000,1718100446.086139202
1718100446.087146,,,,14.906776428,14.913682938,24497.000000000,1718100446.087146282
1718100446.088153,,,,14.975268364,14.984674454,24498.000000000,1718100446.088153362
1718100446.089160,,,,14.969786644,14.978447914,24499.000000000,1718100446.089160442
1718100446.090168,,,,14.839703560,14.846802711,24500.000000000,1718100446.090167522
1718100446.090835,297.706939697,4939.000000000,1718100446.090834856,,,,
1718100446.091175,,,,14.845112801,14.850792885,24501.000000000,1718100446.091174603
1718100446.092182,,,,14.943174362,14.948781967,24502.000000000,1718100446.092181683
1718100446.093189,,,,15.014069557,15.019101143,24503.000000000,1718100446.093188763
1718100446.094196,,,,15.043543816,15.050425529,24504.000000000,1718100446.094195843
1718100446.094893,297.466094971,4941.000000000,1718100446.094892502,,,,
1718100446.095203,,,,15.044481277,15.050689697,24505.000000000,1718100446.095202923
1718100446.095835,297.578491211,4940.000000000,1718100446.095834970,,,,
1718100446.096210,,,,15.019502640,15.024365425,24506.000000000,1718100446.096210003
1718100446.097217,,,,14.975436211,14.980587959,24507.000000000,1718100446.097217083
1718100446.098224,,,,14.956131935,14.960874557,24508.000000000,1718100446.098224163
1718100446.099231,,,,14.988971710,14.994122505,24509.000000000,1718100446.099231243
1718100446.099893,297.209197998,4942.000000000,1718100446.099892616,,,,
1718100446.100238,,,,14.944568634,14.950633049,24510.000000000,1718100446.100238323
1718100446.101245,,,,14.973633766,14.977799416,24511.000000000,1718100446.101245403
1718100446.102252,,,,15.249210358,15.252966881,24512.000000000,1718100446.102252483
1718100446.103260,,,,15.550005913,15.555950165,24513.000000000,1718100446.103259563
1718100446.104267,,,,15.577628136,15.583428383,24514.000000000,1718100446.104266644
1718100446.104892,297.016571045,4943.000000000,1718100446.104892492,,,,
1718100446.105274,,,,15.459468842,15.466255188,24515.000000000,1718100446.105273724
1718100446.106281,,,,15.419104576,15.421587944,24516.000000000,1718100446.106280804
1718100446.107288,,,,15.367297173,15.374203682,24517.000000000,1718100446.107287884
1718100446.108295,,,,15.570704460,15.577731133,24518.000000000,1718100446.108294964
1718100446.109302,,,,15.359003067,15.365116119,24519.000000000,1718100446.109302044
1718100446.109893,296.856018066,4944.000000000,1718100446.109892607,,,,
1718100446.110309,,,,15.224136353,15.230200768,24520.000000000,1718100446.110309124
1718100446.111316,,,,14.901872635,14.907865524,24521.000000000,1718100446.111316204
1718100446.112323,,,,14.687502861,14.693351746,24522.000000000,1718100446.112323284
1718100446.113330,,,,14.658149719,14.662531853,24523.000000000,1718100446.113330364
1718100446.114337,,,,14.638869286,14.644573212,24524.000000000,1718100446.114337444
1718100446.115345,,,,14.714428902,14.722080231,24525.000000000,1718100446.115344524
1718100446.116352,,,,14.728396416,14.734388351,24526.000000000,1718100446.116351604
1718100446.117359,,,,14.814677238,14.818458557,24527.000000000,1718100446.117358685
1718100446.118366,,,,15.038975716,15.044608116,24528.000000000,1718100446.118365765
1718100446.119373,,,,15.032341003,15.037203789,24529.000000000,1718100446.119372845
1718100446.120380,,,,14.856748581,14.864496231,24530.000000000,1718100446.120379925
1718100446.121387,,,,14.713466644,14.719532013,24531.000000000,1718100446.121387005
1718100446.122394,,,,14.834197998,14.843051910,24532.000000000,1718100446.122394085
1718100446.123401,,,,14.971469879,14.975779533,24533.000000000,1718100446.123401165
1718100446.124408,,,,14.984283447,14.988064766,24534.000000000,1718100446.124408245
1718100446.125415,,,,15.164082527,15.166276932,24535.000000000,1718100446.125415325
1718100446.126422,,,,15.478124619,15.481593132,24536.000000000,1718100446.126422405
1718100446.127429,,,,15.606645584,15.609560966,24537.000000000,1718100446.127429485
1718100446.128437,,,,15.511660576,15.516692162,24538.000000000,1718100446.128436565
1718100446.129444,,,,15.447184563,15.452167511,24539.000000000,1718100446.129443645
1718100446.130451,,,,15.189926147,15.195942879,24540.000000000,1718100446.130450726
1718100446.131458,,,,15.069507599,15.077038765,24541.000000000,1718100446.131457806
1718100446.132465,,,,15.036980629,15.043790817,24542.000000000,1718100446.132464886
1718100446.133472,,,,15.112684250,15.118532181,24543.000000000,1718100446.133471966
1718100446.134479,,,,14.894059181,14.900556564,24544.000000000,1718100446.134479046
1718100446.135486,,,,14.761932373,14.769271851,24545.000000000,1718100446.135486126
1718100446.136493,,,,14.734694481,14.741648674,24546.000000000,1718100446.136493206
1718100446.137500,,,,14.625863075,14.629715919,24547.000000000,1718100446.137500286
1718100446.138507,,,,14.588312149,14.593366623,24548.000000000,1718100446.138507366
1718100446.139514,,,,14.635744095,14.645943642,24549.000000000,1718100446.139514446
1718100446.140522,,,,14.631488800,14.640221596,24550.000000000,1718100446.140521526
1718100446.141529,,,,14.638243675,14.644837379,24551.000000000,1718100446.141528606
1718100446.142536,,,,14.635167122,14.644092560,24552.000000000,1718100446.142535686
1718100446.143543,,,,14.630719185,14.638442993,24553.000000000,1718100446.143542767
1718100446.144550,,,,14.695844650,14.705203056,24554.000000000,1718100446.144549847
1718100446.144892,296.165740967,4951.000000000,1718100446.144892454,,,,
1718100446.145557,,,,14.821216583,14.829588890,24555.000000000,1718100446.145556927
1718100446.146564,,,,14.939472198,14.945128441,24556.000000000,1718100446.146564007
1718100446.147571,,,,15.191873550,15.198563576,24557.000000000,1718100446.147571087
1718100446.148578,,,,15.449299812,15.456133842,24558.000000000,1718100446.148578167
1718100446.149585,,,,15.520507813,15.527245522,24559.000000000,1718100446.149585247
1718100446.149893,296.005157471,4952.000000000,1718100446.149892569,,,,
1718100446.150592,,,,15.483461380,15.489790916,24560.000000000,1718100446.150592327
1718100446.151599,,,,15.480840683,15.485896111,24561.000000000,1718100446.151599407
1718100446.152606,,,,15.335155487,15.339248657,24562.000000000,1718100446.152606487
1718100446.153614,,,,15.150138855,15.154497147,24563.000000000,1718100446.153613567
1718100446.154621,,,,15.002506256,15.009412766,24564.000000000,1718100446.154620647
1718100446.154892,295.796539307,4953.000000000,1718100446.154892445,,,,
1718100446.155628,,,,14.994668961,15.000517845,24565.000000000,1718100446.155627728
1718100446.156635,,,,14.900718689,14.905605316,24566.000000000,1718100446.156634808
1718100446.157642,,,,14.718419075,14.720829964,24567.000000000,1718100446.157641888
1718100446.158649,,,,14.612640381,14.618681908,24568.000000000,1718100446.158648968
1718100446.159656,,,,14.533763885,14.540381432,24569.000000000,1718100446.159656048
1718100446.159893,295.395233154,4954.000000000,1718100446.159892559,,,,
1718100446.160663,,,,14.751570702,14.757563591,24570.000000000,1718100446.160663128
1718100446.161670,,,,14.936130524,14.940031052,24571.000000000,1718100446.161670208
1718100446.162677,,,,14.908483505,14.913274765,24572.000000000,1718100446.162677288
1718100446.163684,,,,14.816240311,14.820910454,24573.000000000,1718100446.163684368
1718100446.164691,,,,14.801695824,14.807640076,24574.000000000,1718100446.164691448
1718100446.164892,295.042144775,4955.000000000,1718100446.164892435,,,,
1718100446.165699,,,,15.071142197,15.076822281,24575.000000000,1718100446.165698528
1718100446.166706,,,,15.188219070,15.192577362,24576.000000000,1718100446.166705608
1718100446.167713,,,,15.082272530,15.085453033,24577.000000000,1718100446.167712688
1718100446.168720,,,,15.044672966,15.049344063,24578.000000000,1718100446.168719769
1718100446.169727,,,,15.085061073,15.091486931,24579.000000000,1718100446.169726849
1718100446.169893,294.512420654,4956.000000000,1718100446.169892550,,,,
1718100446.170734,,,,15.137133598,15.141971588,24580.000000000,1718100446.170733929
1718100446.171741,,,,15.147807121,15.153872490,24581.000000000,1718100446.171741009
1718100446.172748,,,,15.159996033,15.165050507,24582.000000000,1718100446.172748089
1718100446.173755,,,,15.126267433,15.129230499,24583.000000000,1718100446.173755169
1718100446.174762,,,,14.980461121,14.986093521,24584.000000000,1718100446.174762249
1718100446.174892,294.014923096,4957.000000000,1718100446.174892426,,,,
1718100446.175769,,,,15.016137123,15.021096230,24585.000000000,1718100446.175769329
1718100446.176776,,,,15.334746361,15.341845512,24586.000000000,1718100446.176776409
1718100446.177783,,,,15.444515228,15.452575684,24587.000000000,1718100446.177783489
1718100446.178791,,,,15.355998039,15.362977028,24588.000000000,1718100446.178790569
1718100446.179798,,,,15.051645279,15.056941032,24589.000000000,1718100446.179797649
1718100446.179893,293.581695557,4958.000000000,1718100446.179892540,,,,
1718100446.180805,,,,14.706398964,14.709650993,24590.000000000,1718100446.180804729
1718100446.181812,,,,14.640720367,14.646688461,24591.000000000,1718100446.181811810
1718100446.182819,,,,14.729982376,14.737009048,24592.000000000,1718100446.182818890
1718100446.183826,,,,14.774529457,14.781604767,24593.000000000,1718100446.183825970
1718100446.184833,,,,14.793738365,14.800259590,24594.000000000,1718100446.184833050
1718100446.184892,293.228607178,4959.000000000,1718100446.184892416,,,,
1718100446.185840,,,,15.017940521,15.022730827,24595.000000000,1718100446.185840130
1718100446.186847,,,,15.237887383,15.242317200,24596.000000000,1718100446.186847210
1718100446.187854,,,,15.275871277,15.283114433,24597.000000000,1718100446.187854290
1718100446.188861,,,,15.175765991,15.182672501,24598.000000000,1718100446.188861370
1718100446.189868,,,,15.080204964,15.086486816,24599.000000000,1718100446.189868450
1718100446.189893,292.939788818,4960.000000000,1718100446.189892530,,,,
1718100446.190876,,,,15.131531715,15.140216827,24600.000000000,1718100446.190875530
1718100446.191883,,,,15.088788033,15.096632004,24601.000000000,1718100446.191882610
1718100446.192890,,,,15.287242889,15.293595314,24602.000000000,1718100446.192889690
1718100446.193897,,,,15.468147278,15.474043846,24603.000000000,1718100446.193896770
1718100446.194904,,,,15.266759872,15.270709038,24604.000000000,1718100446.194903851
1718100446.195911,,,,14.960796356,14.966163635,24605.000000000,1718100446.195910931
1718100446.196918,,,,14.979836464,14.986934662,24606.000000000,1718100446.196918011
1718100446.197925,,,,15.038495064,15.044439316,24607.000000000,1718100446.197925091
1718100446.198932,,,,14.733276367,14.735878944,24608.000000000,1718100446.198932171
1718100446.199829,292.779357910,4961.000000000,1718100446.199828625,,,,
1718100446.199939,,,,14.614804268,14.618609428,24609.000000000,1718100446.199939251
1718100446.200946,,,,14.727097511,14.732320786,24610.000000000,1718100446.200946331
1718100446.201953,,,,15.040033340,15.044175148,24611.000000000,1718100446.201953411
1718100446.202960,,,,15.362777710,15.367400169,24612.000000000,1718100446.202960491
1718100446.203968,,,,15.504400253,15.509912491,24613.000000000,1718100446.203967571
1718100446.204829,292.715179443,4962.000000000,1718100446.204828739,,,,
1718100446.204975,,,,15.496707916,15.502484322,24614.000000000,1718100446.204974651
1718100446.205982,,,,15.419008255,15.424857140,24615.000000000,1718100446.205981731
1718100446.206989,,,,15.074003220,15.080740929,24616.000000000,1718100446.206988811
1718100446.207996,,,,14.655673027,14.661041260,24617.000000000,1718100446.207995892
1718100446.209003,,,,14.631296158,14.635870934,24618.000000000,1718100446.209002972
1718100446.209829,292.666992188,4963.000000000,1718100446.209828615,,,,
1718100446.210010,,,,14.715918541,14.718305588,24619.000000000,1718100446.210010052
1718100446.211017,,,,14.606726646,14.613680840,24620.000000000,1718100446.211017132
1718100446.212024,,,,14.482749939,14.492805481,24621.000000000,1718100446.212024212
1718100446.213031,,,,14.534148216,14.543362617,24622.000000000,1718100446.213031292
1718100446.214038,,,,14.777534485,14.782253265,24623.000000000,1718100446.214038372
1718100446.215045,,,,14.957238197,14.963783264,24624.000000000,1718100446.215045452
1718100446.216053,,,,15.061141014,15.067807198,24625.000000000,1718100446.216052532
1718100446.217060,,,,15.109222412,15.114445686,24626.000000000,1718100446.217059612
1718100446.218067,,,,15.274140358,15.279772758,24627.000000000,1718100446.218066692
1718100446.219074,,,,15.418456078,15.424664497,24628.000000000,1718100446.219073772
1718100446.220081,,,,15.425596237,15.430530548,24629.000000000,1718100446.220080853
1718100446.221088,,,,15.090229988,15.094948769,24630.000000000,1718100446.221087933
1718100446.222095,,,,14.895453453,14.899884224,24631.000000000,1718100446.222095013
1718100446.223102,,,,14.963801384,14.968158722,24632.000000000,1718100446.223102093
1718100446.224109,,,,15.101913452,15.110286713,24633.000000000,1718100446.224109173
1718100446.225116,,,,15.049144745,15.056796074,24634.000000000,1718100446.225116253
1718100446.226123,,,,15.005174637,15.011191368,24635.000000000,1718100446.226123333
1718100446.227130,,,,15.079964638,15.086030006,24636.000000000,1718100446.227130413
1718100446.228137,,,,15.278828621,15.280926704,24637.000000000,1718100446.228137493
1718100446.229145,,,,15.317004204,15.321025848,24638.000000000,1718100446.229144573
1718100446.230152,,,,15.291593552,15.293499947,24639.000000000,1718100446.230151653
1718100446.231159,,,,15.322533607,15.326915741,24640.000000000,1718100446.231158733
1718100446.232166,,,,15.054963112,15.059560776,24641.000000000,1718100446.232165813
1718100446.233173,,,,14.733613014,14.736528397,24642.000000000,1718100446.233172894
1718100446.234180,,,,14.565593719,14.569639206,24643.000000000,1718100446.234179974
1718100446.235187,,,,14.586172104,14.592525482,24644.000000000,1718100446.235187054
1718100446.236194,,,,14.731593132,14.739653587,24645.000000000,1718100446.236194134
1718100446.237201,,,,14.863335609,14.871396065,24646.000000000,1718100446.237201214
1718100446.238208,,,,14.870475769,14.877045631,24647.000000000,1718100446.238208294
1718100446.239215,,,,14.866557121,14.871900558,24648.000000000,1718100446.239215374
1718100446.240222,,,,14.832443237,14.837378502,24649.000000000,1718100446.240222454
1718100446.241230,,,,14.700485229,14.704626083,24650.000000000,1718100446.241229534
1718100446.242237,,,,14.651850700,14.657867432,24651.000000000,1718100446.242236614
1718100446.243244,,,,14.866797447,14.874401093,24652.000000000,1718100446.243243694
1718100446.244251,,,,15.059001923,15.064272881,24653.000000000,1718100446.244250774
1718100446.245258,,,,15.134897232,15.139062881,24654.000000000,1718100446.245257854
1718100446.246265,,,,15.115088463,15.120022774,24655.000000000,1718100446.246264935
1718100446.247272,,,,15.092970848,15.101463318,24656.000000000,1718100446.247272015
1718100446.248279,,,,15.117828369,15.123292923,24657.000000000,1718100446.248279095
1718100446.249286,,,,15.169876099,15.178105354,24658.000000000,1718100446.249286175
1718100446.249829,291.463653564,4971.000000000,1718100446.249828577,,,,
1718100446.250293,,,,15.137830734,15.145674706,24659.000000000,1718100446.250293255
1718100446.251300,,,,15.073089600,15.081389427,24660.000000000,1718100446.251300335
1718100446.252307,,,,14.935529709,14.942003250,24661.000000000,1718100446.252307415
1718100446.253314,,,,14.833669662,14.838339806,24662.000000000,1718100446.253314495
1718100446.254322,,,,14.727242470,14.729797363,24663.000000000,1718100446.254321575
1718100446.254829,291.094696045,4972.000000000,1718100446.254828691,,,,
1718100446.255329,,,,14.712793350,14.718786240,24664.000000000,1718100446.255328655
1718100446.256336,,,,14.815879822,14.823025703,24665.000000000,1718100446.256335735
1718100446.257343,,,,14.861291885,14.867284775,24666.000000000,1718100446.257342815
1718100446.258350,,,,14.842901230,14.849566460,24667.000000000,1718100446.258349895
1718100446.259357,,,,14.910503387,14.915918350,24668.000000000,1718100446.259356976
1718100446.259829,290.677581787,4973.000000000,1718100446.259828568,,,,
1718100446.260364,,,,14.884803772,14.889306068,24669.000000000,1718100446.260364056
1718100446.261371,,,,15.003396034,15.010397911,24670.000000000,1718100446.261371136
1718100446.262378,,,,15.123021126,15.130264282,24671.000000000,1718100446.262378216
1718100446.263385,,,,15.198003769,15.202073097,24672.000000000,1718100446.263385296
1718100446.264392,,,,15.200119972,15.202529907,24673.000000000,1718100446.264392376
1718100446.264829,290.100097656,4974.000000000,1718100446.264828682,,,,
1718100446.265399,,,,15.128142357,15.135144234,24674.000000000,1718100446.265399456
1718100446.266407,,,,15.270174026,15.276767731,24675.000000000,1718100446.266406536
1718100446.267414,,,,15.471825600,15.477337837,24676.000000000,1718100446.267413616
1718100446.268421,,,,15.619314194,15.625330925,24677.000000000,1718100446.268420696
1718100446.269428,,,,15.646937370,15.653554916,24678.000000000,1718100446.269427776
1718100446.269829,289.650939941,4975.000000000,1718100446.269828558,,,,
1718100446.270435,,,,15.487356186,15.493757248,24679.000000000,1718100446.270434856
1718100446.271442,,,,15.269620895,15.277729034,24680.000000000,1718100446.271441936
1718100446.272449,,,,14.944352150,14.948998451,24681.000000000,1718100446.272449017
1718100446.273456,,,,14.776909828,14.777517319,24682.000000000,1718100446.273456097
1718100446.274463,,,,14.790204048,14.795547485,24683.000000000,1718100446.274463177
1718100446.274829,289.233917236,4976.000000000,1718100446.274828672,,,,
1718100446.275470,,,,14.823500633,14.830094337,24684.000000000,1718100446.275470257
1718100446.276477,,,,14.802825928,14.808962822,24685.000000000,1718100446.276477337
1718100446.277484,,,,14.711999893,14.717559814,24686.000000000,1718100446.277484417
1718100446.278491,,,,14.725270271,14.729340553,24687.000000000,1718100446.278491497
1718100446.279499,,,,14.760778427,14.766530991,24688.000000000,1718100446.279498577
1718100446.279829,288.864990234,4977.000000000,1718100446.279828548,,,,
1718100446.280506,,,,14.756475449,14.762228012,24689.000000000,1718100446.280505657
1718100446.281513,,,,14.816817284,14.821727753,24690.000000000,1718100446.281512737
1718100446.282520,,,,15.020104408,15.025327682,24691.000000000,1718100446.282519817
1718100446.283527,,,,15.126748085,15.133798599,24692.000000000,1718100446.283526897
1718100446.284534,,,,15.142638206,15.150674820,24693.000000000,1718100446.284533978
1718100446.284829,288.496093750,4978.000000000,1718100446.284828663,,,,
1718100446.285541,,,,15.346815109,15.354634285,24694.000000000,1718100446.285541058
1718100446.286548,,,,15.271351814,15.277392387,24695.000000000,1718100446.286548138
1718100446.287555,,,,15.283852577,15.290879250,24696.000000000,1718100446.287555218
1718100446.288562,,,,15.468796730,15.474644661,24697.000000000,1718100446.288562298
1718100446.289569,,,,15.241420746,15.247389793,24698.000000000,1718100446.289569378
1718100446.289829,288.271575928,4979.000000000,1718100446.289828539,,,,
1718100446.290576,,,,14.953968048,14.957869530,24699.000000000,1718100446.290576458
1718100446.291584,,,,14.865330696,14.871299744,24700.000000000,1718100446.291583538
1718100446.292591,,,,14.821289063,14.827233315,24701.000000000,1718100446.292590618
1718100446.293598,,,,14.759432793,14.764511108,24702.000000000,1718100446.293597698
1718100446.294605,,,,14.634493828,14.639573097,24703.000000000,1718100446.294604778
1718100446.294829,288.175354004,4980.000000000,1718100446.294828653,,,,
1718100446.295612,,,,14.831192970,14.835503578,24704.000000000,1718100446.295611858
1718100446.296619,,,,15.058376312,15.060306549,24705.000000000,1718100446.296618938
1718100446.297626,,,,15.139321327,15.143558502,24706.000000000,1718100446.297626019
1718100446.298633,,,,15.035874367,15.044487953,24707.000000000,1718100446.298633099
1718100446.299640,,,,14.854007721,14.861274719,24708.000000000,1718100446.299640179
1718100446.300647,,,,14.783063889,14.789297104,24709.000000000,1718100446.300647259
1718100446.301654,,,,14.816216469,14.820453644,24710.000000000,1718100446.301654339
1718100446.302661,,,,15.105688095,15.111176491,24711.000000000,1718100446.302661419
1718100446.303668,,,,15.109870911,15.116873741,24712.000000000,1718100446.303668499
1718100446.304676,,,,14.932692528,14.940969467,24713.000000000,1718100446.304675579
1718100446.305683,,,,14.783593178,14.789561272,24714.000000000,1718100446.305682659
1718100446.306690,,,,14.924591064,14.931978226,24715.000000000,1718100446.306689739
1718100446.307697,,,,15.230747223,15.236716270,24716.000000000,1718100446.307696819
1718100446.308704,,,,15.375760078,15.380477905,24717.000000000,1718100446.308703899
1718100446.309711,,,,15.327534676,15.334055901,24718.000000000,1718100446.309710979
1718100446.310718,,,,15.330924034,15.336820602,24719.000000000,1718100446.310718060
1718100446.311725,,,,15.231107712,15.237557411,24720.000000000,1718100446.311725140
1718100446.312732,,,,14.615501404,14.622528076,24721.000000000,1718100446.312732220
1718100446.313739,,,,14.516021729,14.522254944,24722.000000000,1718100446.313739300
1718100446.314746,,,,14.707576752,14.713497162,24723.000000000,1718100446.314746380
1718100446.315753,,,,14.760153770,14.763813972,24724.000000000,1718100446.315753460
1718100446.316761,,,,14.825303078,14.830815315,24725.000000000,1718100446.316760540
1718100446.317768,,,,14.795205116,14.800692558,24726.000000000,1718100446.317767620
1718100446.318775,,,,14.905165672,14.913635254,24727.000000000,1718100446.318774700
1718100446.319782,,,,14.964762688,14.971764565,24728.000000000,1718100446.319781780
1718100446.320789,,,,14.911417007,14.918442726,24729.000000000,1718100446.320788860
1718100446.321796,,,,14.888097763,14.893537521,24730.000000000,1718100446.321795940
1718100446.322803,,,,14.868167877,14.872164726,24731.000000000,1718100446.322803020
1718100446.323810,,,,15.069362640,15.074827194,24732.000000000,1718100446.323810101
1718100446.324817,,,,15.214856148,15.220536232,24733.000000000,1718100446.324817181
1718100446.325824,,,,15.233511925,15.238903046,24734.000000000,1718100446.325824261
1718100446.326831,,,,15.155740738,15.161517143,24735.000000000,1718100446.326831341
1718100446.327838,,,,15.143480301,15.147309303,24736.000000000,1718100446.327838421
1718100446.328846,,,,15.158216476,15.162815094,24737.000000000,1718100446.328845501
1718100446.329853,,,,15.102298737,15.105237961,24738.000000000,1718100446.329852581
1718100446.330860,,,,14.893410683,14.898056984,24739.000000000,1718100446.330859661
1718100446.331867,,,,14.727843285,14.736936569,24740.000000000,1718100446.331866741
1718100446.332874,,,,14.711832047,14.720661163,24741.000000000,1718100446.332873821
1718100446.333881,,,,14.645960808,14.650319099,24742.000000000,1718100446.333880901
1718100446.334888,,,,14.708322525,14.712944031,24743.000000000,1718100446.334887981
1718100446.335895,,,,14.864008904,14.869905472,24744.000000000,1718100446.335895061
1718100446.336902,,,,15.042149544,15.047564507,24745.000000000,1718100446.336902142
1718100446.337909,,,,15.080637932,15.088072777,24746.000000000,1718100446.337909222
1718100446.338916,,,,15.178026199,15.186230659,24747.000000000,1718100446.338916302
1718100446.339923,,,,15.160549164,15.167383194,24748.000000000,1718100446.339923382
1718100446.340930,,,,14.906536102,14.913851738,24749.000000000,1718100446.340930462
1718100446.341938,,,,14.771140099,14.776219368,24750.000000000,1718100446.341937542
1718100446.342945,,,,14.748253822,14.754678726,24751.000000000,1718100446.342944622
1718100446.343952,,,,15.059819221,15.066724777,24752.000000000,1718100446.343951702
1718100446.344959,,,,15.370567322,15.374828339,24753.000000000,1718100446.344958782
1718100446.345966,,,,15.441871643,15.444690704,24754.000000000,1718100446.345965862
1718100446.346973,,,,15.348810196,15.355403900,24755.000000000,1718100446.346972942
1718100446.347980,,,,15.067440033,15.073408127,24756.000000000,1718100446.347980022
1718100446.348987,,,,14.844535828,14.851393700,24757.000000000,1718100446.348987103
1718100446.349994,,,,14.792560577,14.798192024,24758.000000000,1718100446.349994183
1718100446.351001,,,,14.641561508,14.646063805,24759.000000000,1718100446.351001263
1718100446.352008,,,,14.683993340,14.691308022,24760.000000000,1718100446.352008343
1718100446.353015,,,,14.802584648,14.809900284,24761.000000000,1718100446.353015423
1718100446.354023,,,,14.847180367,14.852716446,24762.000000000,1718100446.354022503
1718100446.355030,,,,14.869393349,14.871371269,24763.000000000,1718100446.355029583
1718100446.355402,286.908416748,4991.000000000,1718100446.355401754,,,,
1718100446.356037,,,,14.887351990,14.890411377,24764.000000000,1718100446.356036663
1718100446.357044,,,,14.945939064,14.952484131,24765.000000000,1718100446.357043743
1718100446.360402,286.523498535,4992.000000000,1718100446.360401869,,,,
1718100446.362079,,,,15.053400040,15.058479309,24770.000000000,1718100446.362079144
1718100446.363086,,,,15.182377815,15.186759949,24771.000000000,1718100446.363086224
1718100446.364093,,,,15.334722519,15.339969635,24772.000000000,1718100446.364093304
1718100446.365100,,,,15.567963600,15.575614929,24773.000000000,1718100446.365100384
1718100446.365402,286.106628418,4993.000000000,1718100446.365401745,,,,
1718100446.366107,,,,15.638113976,15.646150589,24774.000000000,1718100446.366107464
1718100446.367115,,,,15.381240845,15.388218880,24775.000000000,1718100446.367114544
1718100446.368122,,,,15.336357117,15.342181206,24776.000000000,1718100446.368121624
1718100446.369129,,,,15.146365166,15.151996613,24777.000000000,1718100446.369128704
1718100446.370136,,,,14.957766533,14.963831902,24778.000000000,1718100446.370135784
1718100446.370402,285.609527588,4994.000000000,1718100446.370401859,,,,
1718100446.371143,,,,14.984523773,14.990036011,24779.000000000,1718100446.371142864
1718100446.372150,,,,14.959882736,14.965033531,24780.000000000,1718100446.372149944
1718100446.373157,,,,14.966109276,14.974000931,24781.000000000,1718100446.373157024
1718100446.374164,,,,15.229785919,15.236884117,24782.000000000,1718100446.374164104
1718100446.375171,,,,15.320947647,15.325208664,24783.000000000,1718100446.375171185
1718100446.375402,285.208679199,4995.000000000,1718100446.375401735,,,,
1718100446.376178,,,,15.050371170,15.054993629,24784.000000000,1718100446.376178265
1718100446.377185,,,,14.864946365,14.871443748,24785.000000000,1718100446.377185345
1718100446.378192,,,,14.821456909,14.827666283,24786.000000000,1718100446.378192425
1718100446.379200,,,,14.797801018,14.804491043,24787.000000000,1718100446.379199505
1718100446.380207,,,,14.757917404,14.762852669,24788.000000000,1718100446.380206585
1718100446.380402,284.823883057,4996.000000000,1718100446.380401850,,,,
1718100446.381214,,,,14.887207985,14.894906998,24789.000000000,1718100446.381213665
1718100446.382221,,,,15.025080681,15.033525467,24790.000000000,1718100446.382220745
1718100446.383228,,,,15.002482414,15.007272720,24791.000000000,1718100446.383227825
1718100446.384235,,,,14.989789009,14.993906021,24792.000000000,1718100446.384234905
1718100446.385242,,,,14.954040527,14.959023476,24793.000000000,1718100446.385241985
1718100446.385402,284.535247803,4997.000000000,1718100446.385401726,,,,
1718100446.386249,,,,14.778448105,14.782854080,24794.000000000,1718100446.386249065
1718100446.387256,,,,14.773808479,14.781051636,24795.000000000,1718100446.387256145
1718100446.388263,,,,14.950001717,14.956066132,24796.000000000,1718100446.388263226
1718100446.389270,,,,15.061982155,15.067494392,24797.000000000,1718100446.389270306
1718100446.390277,,,,14.999116898,15.003402710,24798.000000000,1718100446.390277386
1718100446.390402,284.326843262,4998.000000000,1718100446.390401840,,,,
1718100446.391284,,,,15.137108803,15.140457153,24799.000000000,1718100446.391284466
1718100446.392292,,,,15.092947006,15.096847534,24800.000000000,1718100446.392291546
1718100446.393299,,,,14.934687614,14.940272331,24801.000000000,1718100446.393298626
1718100446.394306,,,,14.915287018,14.921640396,24802.000000000,1718100446.394305706
1718100446.395313,,,,14.960219383,14.965250015,24803.000000000,1718100446.395312786
1718100446.395402,284.166534424,4999.000000000,1718100446.395401716,,,,
1718100446.396320,,,,15.029936790,15.033500671,24804.000000000,1718100446.396319866
1718100446.397327,,,,14.952477455,14.956522942,24805.000000000,1718100446.397326946
1718100446.398334,,,,14.863311768,14.867669106,24806.000000000,1718100446.398334026
1718100446.398963,284.054290771,5001.000000000,1718100446.398962975,,,,
1718100446.399341,,,,14.880211830,14.887142181,24807.000000000,1718100446.399341106
1718100446.400348,,,,14.962285995,14.970009804,24808.000000000,1718100446.400348186
1718100446.400402,284.086364746,5000.000000000,1718100446.400401831,,,,
1718100446.401355,,,,15.065035820,15.072422981,24809.000000000,1718100446.401355267
1718100446.402362,,,,15.137638092,15.142644882,24810.000000000,1718100446.402362347
1718100446.403369,,,,15.197883606,15.204189301,24811.000000000,1718100446.403369427
1718100446.403963,284.022216797,5002.000000000,1718100446.403963089,,,,
1718100446.404377,,,,15.214688301,15.219094276,24812.000000000,1718100446.404376507
1718100446.405384,,,,15.152519226,15.160940170,24813.000000000,1718100446.405383587
1718100446.406391,,,,14.973464966,14.979818344,24814.000000000,1718100446.406390667
1718100446.407398,,,,14.712385178,14.716550827,24815.000000000,1718100446.407397747
1718100446.408405,,,,14.598961830,14.602598190,24816.000000000,1718100446.408404827
1718100446.408963,284.038238525,5003.000000000,1718100446.408962965,,,,
1718100446.409412,,,,14.575473785,14.580312729,24817.000000000,1718100446.409411907
1718100446.410419,,,,14.599009514,14.605315208,24818.000000000,1718100446.410418987
1718100446.411426,,,,14.676323891,14.685441971,24819.000000000,1718100446.411426067
1718100446.412433,,,,14.794051170,14.803721428,24820.000000000,1718100446.412433147
1718100446.413440,,,,14.780611992,14.787855148,24821.000000000,1718100446.413440228
1718100446.413963,283.974090576,5004.000000000,1718100446.413963079,,,,
1718100446.414447,,,,14.734189987,14.742298126,24822.000000000,1718100446.414447308
1718100446.415454,,,,14.845016479,14.850841522,24823.000000000,1718100446.415454388
1718100446.416461,,,,15.094388962,15.099852562,24824.000000000,1718100446.416461468
1718100446.417469,,,,15.303253174,15.310447693,24825.000000000,1718100446.417468548
1718100446.418476,,,,15.185911179,15.190052986,24826.000000000,1718100446.418475628
1718100446.419483,,,,15.037148476,15.042371750,24827.000000000,1718100446.419482708
1718100446.420490,,,,14.904156685,14.911711693,24828.000000000,1718100446.420489788
1718100446.421497,,,,14.704379082,14.708881378,24829.000000000,1718100446.421496868
1718100446.422504,,,,14.766884804,14.771675110,24830.000000000,1718100446.422503948
1718100446.423511,,,,15.067944527,15.075932503,24831.000000000,1718100446.423511028
1718100446.424518,,,,15.231107712,15.235730171,24832.000000000,1718100446.424518108
1718100446.425525,,,,15.122877121,15.124350548,24833.000000000,1718100446.425525188
1718100446.426532,,,,14.869970322,14.874929428,24834.000000000,1718100446.426532269
1718100446.427539,,,,14.745248795,14.752323151,24835.000000000,1718100446.427539349
1718100446.428546,,,,14.765009880,14.772324562,24836.000000000,1718100446.428546429
1718100446.429554,,,,14.810518265,14.816174507,24837.000000000,1718100446.429553509
1718100446.430561,,,,14.893530846,14.899522781,24838.000000000,1718100446.430560589
1718100446.431568,,,,15.003684044,15.010758400,24839.000000000,1718100446.431567669
1718100446.432575,,,,15.048928261,15.057156563,24840.000000000,1718100446.432574749
1718100446.433582,,,,15.020055771,15.028813362,24841.000000000,1718100446.433581829
1718100446.434589,,,,15.029479980,15.038789749,24842.000000000,1718100446.434588909
1718100446.435596,,,,15.083691597,15.088313103,24843.000000000,1718100446.435595989
1718100446.436603,,,,15.137421608,15.142621040,24844.000000000,1718100446.436603069
1718100446.437610,,,,15.035730362,15.041963577,24845.000000000,1718100446.437610149
1718100446.438617,,,,15.062775612,15.067157745,24846.000000000,1718100446.438617229
1718100446.439624,,,,15.191633224,15.195654869,24847.000000000,1718100446.439624310
1718100446.440631,,,,15.400377274,15.403629303,24848.000000000,1718100446.440631390
1718100446.441638,,,,15.595586777,15.601698875,24849.000000000,1718100446.441638470
1718100446.442646,,,,15.524042130,15.531308174,24850.000000000,1718100446.442645550
1718100446.443653,,,,15.352464676,15.358985901,24851.000000000,1718100446.443652630
1718100446.444660,,,,15.278779984,15.285446167,24852.000000000,1718100446.444659710
1718100446.445667,,,,15.213846207,15.221906662,24853.000000000,1718100446.445666790
1718100446.446674,,,,15.022747993,15.029991150,24854.000000000,1718100446.446673870
1718100446.447681,,,,14.960050583,14.967028618,24855.000000000,1718100446.447680950
1718100446.448688,,,,14.618795395,14.626374245,24856.000000000,1718100446.448688030
1718100446.448963,282.002258301,5011.000000000,1718100446.448962927,,,,
1718100446.449695,,,,14.325933456,14.332166672,24857.000000000,1718100446.449695110
1718100446.450702,,,,14.464334488,14.467923164,24858.000000000,1718100446.450702190
1718100446.451709,,,,14.648341179,14.656352997,24859.000000000,1718100446.451709270
1718100446.452716,,,,14.624492645,14.631062508,24860.000000000,1718100446.452716351
1718100446.453723,,,,14.608890533,14.616133690,24861.000000000,1718100446.453723431
1718100446.453963,281.633575439,5012.000000000,1718100446.453963041,,,,
1718100446.454731,,,,14.822250366,14.827449799,24862.000000000,1718100446.454730511
1718100446.455738,,,,15.301137924,15.305279732,24863.000000000,1718100446.455737591
1718100446.456745,,,,15.355229378,15.359178543,24864.000000000,1718100446.456744671
1718100446.457752,,,,15.263682365,15.268521309,24865.000000000,1718100446.457751751
1718100446.458759,,,,15.278059006,15.286696434,24866.000000000,1718100446.458758831
1718100446.458963,281.409149170,5013.000000000,1718100446.458962917,,,,
1718100446.459766,,,,15.025585175,15.031578064,24867.000000000,1718100446.459765911
1718100446.460773,,,,14.687262535,14.692197800,24868.000000000,1718100446.460772991
1718100446.461780,,,,14.603457451,14.606733322,24869.000000000,1718100446.461780071
1718100446.462787,,,,14.852156639,14.855384827,24870.000000000,1718100446.462787151
1718100446.463794,,,,15.118718147,15.124831200,24871.000000000,1718100446.463794231
1718100446.463963,281.280914307,5014.000000000,1718100446.463963032,,,,
1718100446.464801,,,,15.233872414,15.238447189,24872.000000000,1718100446.464801311
1718100446.465808,,,,15.288372040,15.292898178,24873.000000000,1718100446.465808392
1718100446.466815,,,,15.139825821,15.143895149,24874.000000000,1718100446.466815472
1718100446.467823,,,,14.928365707,14.933732986,24875.000000000,1718100446.467822552
1718100446.468830,,,,14.815013885,14.819083214,24876.000000000,1718100446.468829632
1718100446.468963,281.232818604,5015.000000000,1718100446.468962908,,,,
1718100446.469837,,,,14.799219131,14.804899216,24877.000000000,1718100446.469836712
1718100446.470844,,,,14.915166855,14.921688080,24878.000000000,1718100446.470843792
1718100446.471851,,,,15.001809120,15.007898331,24879.000000000,1718100446.471850872
1718100446.472858,,,,15.026234627,15.031938553,24880.000000000,1718100446.472857952
1718100446.473865,,,,14.943871498,14.949191093,24881.000000000,1718100446.473865032
1718100446.473963,281.152709961,5016.000000000,1718100446.473963022,,,,
1718100446.474872,,,,14.849224091,14.854928017,24882.000000000,1718100446.474872112
1718100446.475879,,,,14.924711227,14.931088448,24883.000000000,1718100446.475879192
1718100446.476886,,,,15.044793129,15.050978661,24884.000000000,1718100446.476886272
1718100446.477893,,,,15.220866203,15.228830338,24885.000000000,1718100446.477893353
1718100446.478900,,,,15.325803757,15.333815575,24886.000000000,1718100446.478900433
1718100446.478963,281.152709961,5017.000000000,1718100446.478962898,,,,
1718100446.479908,,,,15.379389763,15.384348869,24887.000000000,1718100446.479907513
1718100446.480915,,,,15.385760307,15.393340111,24888.000000000,1718100446.480914593
1718100446.481922,,,,15.191392899,15.197842598,24889.000000000,1718100446.481921673
1718100446.482929,,,,14.939399719,14.945079803,24890.000000000,1718100446.482928753
1718100446.483936,,,,14.766620636,14.771219254,24891.000000000,1718100446.483935833
1718100446.483963,281.152709961,5018.000000000,1718100446.483963013,,,,
1718100446.484943,,,,14.348291397,14.352240562,24892.000000000,1718100446.484942913
1718100446.485950,,,,14.429307938,14.433424950,24893.000000000,1718100446.485949993
1718100446.486957,,,,14.766524315,14.771579742,24894.000000000,1718100446.486957073
1718100446.487964,,,,14.819798470,14.823602676,24895.000000000,1718100446.487964153
1718100446.488963,281.104583740,5019.000000000,1718100446.488962889,,,,
1718100446.488971,,,,14.851026535,14.858389854,24896.000000000,1718100446.488971233
1718100446.489978,,,,14.885885239,14.891493797,24897.000000000,1718100446.489978313
1718100446.490985,,,,14.928990364,14.935896873,24898.000000000,1718100446.490985394
1718100446.491992,,,,14.921129227,14.926689148,24899.000000000,1718100446.491992474
1718100446.493000,,,,14.786790848,14.792518616,24900.000000000,1718100446.492999554
1718100446.493963,281.120574951,5020.000000000,1718100446.493963003,,,,
1718100446.494007,,,,14.673631668,14.681018829,24901.000000000,1718100446.494006634
1718100446.495014,,,,14.525422096,14.530693054,24902.000000000,1718100446.495013714
1718100446.496021,,,,14.700917244,14.707270622,24903.000000000,1718100446.496020794
1718100446.497028,,,,14.960891724,14.967365265,24904.000000000,1718100446.497027874
1718100446.498035,,,,15.019238472,15.027419090,24905.000000000,1718100446.498034954
1718100446.499042,,,,15.094244957,15.103219032,24906.000000000,1718100446.499042034
1718100446.500049,,,,15.119535446,15.124013901,24907.000000000,1718100446.500049114
1718100446.501056,,,,15.076238632,15.078553200,24908.000000000,1718100446.501056194
1718100446.502063,,,,14.989212036,14.994194984,24909.000000000,1718100446.502063274
1718100446.503070,,,,14.896823883,14.902407646,24910.000000000,1718100446.503070354
1718100446.503142,280.992340088,5021.000000000,1718100446.503142118,,,,
1718100446.504077,,,,14.930191994,14.937868118,24911.000000000,1718100446.504077435
1718100446.505085,,,,14.938798904,14.947171211,24912.000000000,1718100446.505084515
1718100446.506092,,,,15.105567932,15.114373207,24913.000000000,1718100446.506091595
1718100446.507099,,,,15.043398857,15.049295425,24914.000000000,1718100446.507098675
1718100446.508106,,,,14.938654900,14.942483902,24915.000000000,1718100446.508105755
1718100446.508142,280.816070557,5022.000000000,1718100446.508142233,,,,
1718100446.509113,,,,15.013059616,15.017514229,24916.000000000,1718100446.509112835
1718100446.510120,,,,15.054842949,15.060859680,24917.000000000,1718100446.510119915
1718100446.511127,,,,15.029167175,15.036314011,24918.000000000,1718100446.511126995
1718100446.512134,,,,14.953391075,14.958783150,24919.000000000,1718100446.512134075
1718100446.513141,,,,14.889203072,14.896566391,24920.000000000,1718100446.513141155
1718100446.513142,280.575622559,5023.000000000,1718100446.513142109,,,,
1718100446.514148,,,,15.043711662,15.050112724,24921.000000000,1718100446.514148235
1718100446.515155,,,,14.922691345,14.928034782,24922.000000000,1718100446.515155315
1718100446.516162,,,,14.829558372,14.837185860,24923.000000000,1718100446.516162395
1718100446.517169,,,,14.765297890,14.769392014,24924.000000000,1718100446.517169476
1718100446.518142,280.271057129,5024.000000000,1718100446.518142223,,,,
1718100446.518177,,,,14.697527885,14.703737259,24925.000000000,1718100446.518176556
1718100446.519184,,,,14.716760635,14.721262932,24926.000000000,1718100446.519183636
1718100446.520191,,,,14.887977600,14.893777847,24927.000000000,1718100446.520190716
1718100446.521198,,,,15.183146477,15.188466072,24928.000000000,1718100446.521197796
1718100446.522205,,,,15.315634727,15.319824219,24929.000000000,1718100446.522204876
1718100446.523142,279.950500488,5025.000000000,1718100446.523142099,,,,
1718100446.523212,,,,15.285535812,15.289412498,24930.000000000,1718100446.523211956
1718100446.524219,,,,15.208317757,15.213300705,24931.000000000,1718100446.524219036
1718100446.525226,,,,15.219495773,15.226114273,24932.000000000,1718100446.525226116
1718100446.526233,,,,15.119151115,15.123749733,24933.000000000,1718100446.526233196
1718100446.527240,,,,14.985653877,14.990804672,24934.000000000,1718100446.527240276
1718100446.528142,279.645935059,5026.000000000,1718100446.528142214,,,,
1718100446.528247,,,,14.915647507,14.922986984,24935.000000000,1718100446.528247356
1718100446.529254,,,,14.968825340,14.974337578,24936.000000000,1718100446.529254436
1718100446.530262,,,,15.213991165,15.217891693,24937.000000000,1718100446.530261517
1718100446.531269,,,,15.019719124,15.024822235,24938.000000000,1718100446.531268597
1718100446.532276,,,,14.771092415,14.777300835,24939.000000000,1718100446.532275677
1718100446.533283,,,,14.743205070,14.748788834,24940.000000000,1718100446.533282757
1718100446.534290,,,,14.776188850,14.780138016,24941.000000000,1718100446.534289837
1718100446.535297,,,,14.861965179,14.867693901,24942.000000000,1718100446.535296917
1718100446.536304,,,,14.978225708,14.985034943,24943.000000000,1718100446.536303997
1718100446.537311,,,,14.991736412,15.000036240,24944.000000000,1718100446.537311077
1718100446.538318,,,,14.884971619,14.890243530,24945.000000000,1718100446.538318157
1718100446.539325,,,,14.868264198,14.874953270,24946.000000000,1718100446.539325237
1718100446.540332,,,,15.045923233,15.051819801,24947.000000000,1718100446.540332317
1718100446.541339,,,,15.163914680,15.168897629,24948.000000000,1718100446.541339397
1718100446.542346,,,,15.173891068,15.179980278,24949.000000000,1718100446.542346478
1718100446.543354,,,,15.100615501,15.105358124,24950.000000000,1718100446.543353558
1718100446.544361,,,,15.171222687,15.174811363,24951.000000000,1718100446.544360638
1718100446.545368,,,,15.091864586,15.096463203,24952.000000000,1718100446.545367718
1718100446.546375,,,,14.879201889,14.887190819,24953.000000000,1718100446.546374798
1718100446.547382,,,,14.906512260,14.913082123,24954.000000000,1718100446.547381878
1718100446.548389,,,,15.026018143,15.032635689,24955.000000000,1718100446.548388958
1718100446.549396,,,,15.093163490,15.102160454,24956.000000000,1718100446.549396038
1718100446.550403,,,,15.049962044,15.057397842,24957.000000000,1718100446.550403118
1718100446.551410,,,,15.019070625,15.024942398,24958.000000000,1718100446.551410198
1718100446.552417,,,,14.938365936,14.941930771,24959.000000000,1718100446.552417278
1718100446.553142,278.924713135,5031.000000000,1718100446.553142071,,,,
1718100446.553424,,,,14.822418213,14.827593803,24960.000000000,1718100446.553424358
1718100446.554431,,,,14.695172310,14.700876236,24961.000000000,1718100446.554431438
1718100446.555439,,,,14.673247337,14.679552078,24962.000000000,1718100446.555438519
1718100446.556446,,,,14.894419670,14.900676727,24963.000000000,1718100446.556445599
1718100446.557453,,,,15.008973122,15.015302658,24964.000000000,1718100446.557452679
1718100446.558142,278.956756592,5032.000000000,1718100446.558142185,,,,
1718100446.558460,,,,14.888962746,14.896085739,24965.000000000,1718100446.558459759
1718100446.559467,,,,14.991880417,14.996310234,24966.000000000,1718100446.559466839
1718100446.560474,,,,15.118862152,15.122066498,24967.000000000,1718100446.560473919
1718100446.561481,,,,15.157639503,15.163007736,24968.000000000,1718100446.561480999
1718100446.562488,,,,15.222501755,15.225753784,24969.000000000,1718100446.562488079
1718100446.563142,278.972747803,5033.000000000,1718100446.563142061,,,,
1718100446.563495,,,,15.147013664,15.151324272,24970.000000000,1718100446.563495159
1718100446.564502,,,,14.930841446,14.933709145,24971.000000000,1718100446.564502239
1718100446.565509,,,,14.823524475,14.828170776,24972.000000000,1718100446.565509319
1718100446.566516,,,,15.087417603,15.094564438,24973.000000000,1718100446.566516399
1718100446.567523,,,,15.226612091,15.231474876,24974.000000000,1718100446.567523479
1718100446.568142,279.100952148,5034.000000000,1718100446.568142176,,,,
1718100446.568531,,,,15.098957062,15.106584549,24975.000000000,1718100446.568530560
1718100446.569538,,,,15.056261063,15.063912392,24976.000000000,1718100446.569537640
1718100446.570545,,,,14.780539513,14.783310890,24977.000000000,1718100446.570544720
1718100446.571552,,,,14.536768913,14.539443970,24978.000000000,1718100446.571551800
1718100446.572559,,,,14.516815186,14.524033546,24979.000000000,1718100446.572558880
1718100446.573142,279.197174072,5035.000000000,1718100446.573142052,,,,
1718100446.573566,,,,14.533474922,14.540429115,24980.000000000,1718100446.573565960
1718100446.574573,,,,14.790252686,14.796677589,24981.000000000,1718100446.574573040
1718100446.575580,,,,15.091913223,15.098554611,24982.000000000,1718100446.575580120
1718100446.576587,,,,15.185743332,15.191062927,24983.000000000,1718100446.576587200
1718100446.577594,,,,15.169323921,15.176518440,24984.000000000,1718100446.577594280
1718100446.578142,279.437561035,5036.000000000,1718100446.578142166,,,,
1718100446.578601,,,,15.019165993,15.024004936,24985.000000000,1718100446.578601360
1718100446.579608,,,,14.874490738,14.879401207,24986.000000000,1718100446.579608440
1718100446.580616,,,,14.692912102,14.698832512,24987.000000000,1718100446.580615520
1718100446.581623,,,,14.690147400,14.697101593,24988.000000000,1718100446.581622601
1718100446.582630,,,,14.842348099,14.846586227,24989.000000000,1718100446.582629681
1718100446.583142,279.565795898,5037.000000000,1718100446.583142042,,,,
1718100446.583637,,,,14.931442261,14.936305046,24990.000000000,1718100446.583636761
1718100446.584644,,,,15.006857872,15.012825966,24991.000000000,1718100446.584643841
1718100446.585651,,,,15.031835556,15.038765907,24992.000000000,1718100446.585650921
1718100446.586658,,,,15.023060799,15.030784607,24993.000000000,1718100446.586658001
1718100446.587665,,,,15.010463715,15.017994881,24994.000000000,1718100446.587665081
1718100446.588142,279.742126465,5038.000000000,1718100446.588142157,,,,
1718100446.588672,,,,14.964426041,14.973567963,24995.000000000,1718100446.588672161
1718100446.589679,,,,14.777583122,14.783816338,24996.000000000,1718100446.589679241
1718100446.590686,,,,14.816697121,14.821751595,24997.000000000,1718100446.590686321
1718100446.591693,,,,14.835496902,14.840816498,24998.000000000,1718100446.591693401
1718100446.592700,,,,14.723611832,14.728547096,24999.000000000,1718100446.592700481
1718100446.593142,279.758178711,5039.000000000,1718100446.593142033,,,,
1718100446.593708,,,,14.784603119,14.787830353,25000.000000000,1718100446.593707561
1718100446.594715,,,,14.882399559,14.886734009,25001.000000000,1718100446.594714642
1718100446.595722,,,,14.829318047,14.832882881,25002.000000000,1718100446.595721722
1718100446.596729,,,,14.820446968,14.825886726,25003.000000000,1718100446.596728802
1718100446.597736,,,,14.976061821,14.981285095,25004.000000000,1718100446.597735882
1718100446.598142,279.790222168,5040.000000000,1718100446.598142147,,,,
1718100446.598743,,,,15.082994461,15.090669632,25005.000000000,1718100446.598742962
1718100446.599750,,,,15.132037163,15.138414383,25006.000000000,1718100446.599750042
1718100446.600757,,,,15.087513924,15.093121529,25007.000000000,1718100446.600757122
1718100446.601764,,,,14.981158257,14.986790657,25008.000000000,1718100446.601764202
1718100446.602771,,,,14.905863762,14.913105965,25009.000000000,1718100446.602771282
1718100446.603778,,,,14.820591927,14.828098297,25010.000000000,1718100446.603778362
1718100446.604785,,,,14.785997391,14.792181969,25011.000000000,1718100446.604785442
1718100446.605793,,,,14.831361771,14.836969376,25012.000000000,1718100446.605792522
1718100446.606800,,,,14.886847496,14.891277313,25013.000000000,1718100446.606799603
1718100446.607807,,,,15.145114899,15.151684761,25014.000000000,1718100446.607806683
1718100446.608814,,,,15.194662094,15.200871468,25015.000000000,1718100446.608813763
1718100446.609821,,,,15.068785667,15.073673248,25016.000000000,1718100446.609820843
1718100446.610828,,,,14.885813713,14.892070770,25017.000000000,1718100446.610827923
1718100446.611835,,,,14.804556847,14.808842659,25018.000000000,1718100446.611835003
1718100446.612842,,,,14.785924911,14.792302132,25019.000000000,1718100446.612842083
1718100446.613849,,,,14.932019234,14.939766884,25020.000000000,1718100446.613849163
1718100446.614856,,,,15.072031975,15.080957413,25021.000000000,1718100446.614856243
1718100446.615863,,,,15.020031929,15.026048660,25022.000000000,1718100446.615863323
1718100446.616870,,,,14.822226524,14.828290939,25023.000000000,1718100446.616870403
1718100446.617877,,,,14.662716866,14.668252945,25024.000000000,1718100446.617877483
