__time,/gdx/grip_force_stream/grip_force,/gdx/grip_force_stream/header/seq,/gdx/grip_force_stream/header/stamp,/shimmer0/emg_stream/emg_ch1,/shimmer0/emg_stream/emg_ch2,/shimmer0/emg_stream/header/seq,/shimmer0/emg_stream/header/stamp
1718093277.199890,,,,-0.744819403,-0.744983494,70791.000000000,1718093277.199890137
1718093277.200897,,,,-0.750444889,-0.751330197,70792.000000000,1718093277.200897217
1718093277.201904,,,,-0.758426309,-0.759816527,70793.000000000,1718093277.201904297
1718093277.202911,,,,-0.766744375,-0.765994906,70794.000000000,1718093277.202911377
1718093277.203918,,,,-0.768908024,-0.770490527,70795.000000000,1718093277.203918457
1718093277.204926,,,,-0.774461389,-0.776188135,70796.000000000,1718093277.204925537
1718093277.205709,1.097342372,19356.000000000,1718093277.205709219,,,,
1718093277.205933,,,,-0.778716564,-0.778303683,70797.000000000,1718093277.205932617
1718093277.206940,,,,-0.778428078,-0.780202866,70798.000000000,1718093277.206939697
1718093277.207947,,,,-0.775471091,-0.778471947,70799.000000000,1718093277.207946777
1718093277.208954,,,,-0.775543213,-0.776837230,70800.000000000,1718093277.208953857
1718093277.209961,,,,-0.774437308,-0.772245467,70801.000000000,1718093277.209960938
1718093277.210709,1.115011573,19357.000000000,1718093277.210709095,,,,
1718093277.210968,,,,-0.765542328,-0.764480352,70802.000000000,1718093277.210968018
1718093277.211975,,,,-0.757969558,-0.757628798,70803.000000000,1718093277.211975098
1718093277.212982,,,,-0.755277038,-0.756090224,70804.000000000,1718093277.212982178
1718093277.213989,,,,-0.752127707,-0.752772629,70805.000000000,1718093277.213989258
1718093277.214996,,,,-0.746141613,-0.746449947,70806.000000000,1718093277.214996338
1718093277.215709,1.132680655,19358.000000000,1718093277.215709209,,,,
1718093277.216003,,,,-0.744074106,-0.744574785,70807.000000000,1718093277.216003418
1718093277.217010,,,,-0.744651079,-0.745151758,70808.000000000,1718093277.217010498
1718093277.218018,,,,-0.744458795,-0.744214177,70809.000000000,1718093277.218017578
1718093277.219025,,,,-0.746862829,-0.745464325,70810.000000000,1718093277.219024658
1718093277.220032,,,,-0.748713970,-0.747531772,70811.000000000,1718093277.220031738
1718093277.220709,1.203355551,19359.000000000,1718093277.220709085,,,,
1718093277.221039,,,,-0.750613153,-0.750705123,70812.000000000,1718093277.221038818
1718093277.222046,,,,-0.757080078,-0.753902555,70813.000000000,1718093277.222045898
1718093277.223053,,,,-0.763258457,-0.761643589,70814.000000000,1718093277.223052979
1718093277.224060,,,,-0.770614862,-0.770514548,70815.000000000,1718093277.224060059
1718093277.225067,,,,-0.775807619,-0.774505258,70816.000000000,1718093277.225067139
1718093277.225709,1.185687065,19360.000000000,1718093277.225709200,,,,
1718093277.226074,,,,-0.779678166,-0.779097021,70817.000000000,1718093277.226074219
1718093277.227081,,,,-0.779197335,-0.780371189,70818.000000000,1718093277.227081299
1718093277.228088,,,,-0.776961565,-0.777894974,70819.000000000,1718093277.228088379
1718093277.229095,,,,-0.775879741,-0.773880243,70820.000000000,1718093277.229095459
1718093277.230103,,,,-0.771913052,-0.771091521,70821.000000000,1718093277.230102539
1718093277.231110,,,,-0.770037889,-0.768735528,70822.000000000,1718093277.231109619
1718093277.232117,,,,-0.765349984,-0.761307001,70823.000000000,1718093277.232116699
1718093277.233124,,,,-0.759075403,-0.754383326,70824.000000000,1718093277.233123779
1718093277.234131,,,,-0.753281653,-0.753998697,70825.000000000,1718093277.234130859
1718093277.235138,,,,-0.747560024,-0.749286771,70826.000000000,1718093277.235137939
1718093277.236145,,,,-0.744554937,-0.746017218,70827.000000000,1718093277.236145020
1718093277.237152,,,,-0.741069078,-0.742795825,70828.000000000,1718093277.237152100
1718093277.238159,,,,-0.741069078,-0.739646494,70829.000000000,1718093277.238159180
1718093277.239166,,,,-0.745540619,-0.743060231,70830.000000000,1718093277.239166260
1718093277.240173,,,,-0.747151315,-0.746281683,70831.000000000,1718093277.240173340
1718093277.241180,,,,-0.752079606,-0.750464737,70832.000000000,1718093277.241180420
1718093277.242188,,,,-0.755301058,-0.753301501,70833.000000000,1718093277.242187500
1718093277.243195,,,,-0.757849336,-0.759239554,70834.000000000,1718093277.243194580
1718093277.244202,,,,-0.767802119,-0.768158555,70835.000000000,1718093277.244201660
1718093277.245209,,,,-0.774918139,-0.776019812,70836.000000000,1718093277.245208740
1718093277.246216,,,,-0.776288450,-0.778616190,70837.000000000,1718093277.246215820
1718093277.247223,,,,-0.782851517,-0.781477034,70838.000000000,1718093277.247222900
1718093277.248230,,,,-0.784967065,-0.783760905,70839.000000000,1718093277.248229980
1718093277.249237,,,,-0.784486294,-0.786621690,70840.000000000,1718093277.249237061
1718093277.250244,,,,-0.778524220,-0.779097021,70841.000000000,1718093277.250244141
1718093277.251251,,,,-0.770013869,-0.770899177,70842.000000000,1718093277.251251221
1718093277.252258,,,,-0.765542328,-0.763638973,70843.000000000,1718093277.252258301
1718093277.253265,,,,-0.759243727,-0.758109629,70844.000000000,1718093277.253265381
1718093277.254272,,,,-0.751118004,-0.751498461,70845.000000000,1718093277.254272461
1718093277.255280,,,,-0.744218349,-0.744887352,70846.000000000,1718093277.255279541
1718093277.256287,,,,-0.739770889,-0.742723703,70847.000000000,1718093277.256286621
1718093277.257294,,,,-0.738689065,-0.743444920,70848.000000000,1718093277.257293701
1718093277.258301,,,,-0.741429687,-0.744502664,70849.000000000,1718093277.258300781
1718093277.259308,,,,-0.744554937,-0.745416224,70850.000000000,1718093277.259307861
1718093277.260315,,,,-0.747824430,-0.749695420,70851.000000000,1718093277.260314941
1718093277.261322,,,,-0.755974174,-0.760946393,70852.000000000,1718093277.261322021
1718093277.262329,,,,-0.766936660,-0.768975973,70853.000000000,1718093277.262329102
1718093277.263336,,,,-0.772754490,-0.773447514,70854.000000000,1718093277.263336182
1718093277.264343,,,,-0.779149294,-0.781453013,70855.000000000,1718093277.264343262
1718093277.265350,,,,-0.790015578,-0.789290190,70856.000000000,1718093277.265350342
1718093277.266357,,,,-0.789366484,-0.786717892,70857.000000000,1718093277.266357422
1718093277.267365,,,,-0.778548241,-0.778904676,70858.000000000,1718093277.267364502
1718093277.268372,,,,-0.774317145,-0.774120629,70859.000000000,1718093277.268371582
1718093277.269379,,,,-0.771215916,-0.770418406,70860.000000000,1718093277.269378662
1718093277.270386,,,,-0.767225146,-0.768086433,70861.000000000,1718093277.270385742
1718093277.271393,,,,-0.766239524,-0.766067028,70862.000000000,1718093277.271392822
1718093277.272400,,,,-0.763835430,-0.763807237,70863.000000000,1718093277.272399902
1718093277.273407,,,,-0.765494227,-0.762677312,70864.000000000,1718093277.273406982
1718093277.274414,,,,-0.767994463,-0.766956568,70865.000000000,1718093277.274414063
1718093277.275421,,,,-0.761215031,-0.761114717,70866.000000000,1718093277.275421143
1718093277.276428,,,,-0.758762896,-0.757628798,70867.000000000,1718093277.276428223
1718093277.277435,,,,-0.757080078,-0.756066203,70868.000000000,1718093277.277435303
1718093277.278442,,,,-0.756527126,-0.754335284,70869.000000000,1718093277.278442383
1718093277.279449,,,,-0.755469322,-0.755994081,70870.000000000,1718093277.279449463
1718093277.280457,,,,-0.753065288,-0.754503548,70871.000000000,1718093277.280456543
1718093277.281464,,,,-0.755036592,-0.755417109,70872.000000000,1718093277.281463623
1718093277.282471,,,,-0.760974646,-0.762220562,70873.000000000,1718093277.282470703
1718093277.283478,,,,-0.759171605,-0.761595488,70874.000000000,1718093277.283477783
1718093277.284485,,,,-0.755445302,-0.760249257,70875.000000000,1718093277.284484863
1718093277.285492,,,,-0.758282065,-0.762244582,70876.000000000,1718093277.285491943
1718093277.285983,1.468382001,19371.000000000,1718093277.285983086,,,,
1718093277.286499,,,,-0.766984761,-0.766836345,70877.000000000,1718093277.286499023
1718093277.287506,,,,-0.772802591,-0.770682812,70878.000000000,1718093277.287506104
1718093277.288513,,,,-0.765542328,-0.767509460,70879.000000000,1718093277.288513184
1718093277.289520,,,,-0.760133207,-0.763470650,70880.000000000,1718093277.289520264
1718093277.290527,,,,-0.761166930,-0.762797534,70881.000000000,1718093277.290527344
1718093277.290983,1.539054155,19372.000000000,1718093277.290983200,,,,
1718093277.291534,,,,-0.764580727,-0.763326406,70882.000000000,1718093277.291534424
1718093277.292542,,,,-0.754627943,-0.754768014,70883.000000000,1718093277.292541504
1718093277.293549,,,,-0.747007072,-0.748805940,70884.000000000,1718093277.293548584
1718093277.294556,,,,-0.739602566,-0.743637204,70885.000000000,1718093277.294555664
1718093277.295563,,,,-0.731428802,-0.735102832,70886.000000000,1718093277.295562744
1718093277.295983,1.609715819,19373.000000000,1718093277.295983076,,,,
1718093277.296570,,,,-0.727293789,-0.730270684,70887.000000000,1718093277.296569824
1718093277.297577,,,,-0.723952174,-0.727337718,70888.000000000,1718093277.297576904
1718093277.298584,,,,-0.724913776,-0.726135731,70889.000000000,1718093277.298583984
1718093277.299591,,,,-0.736741722,-0.737795353,70890.000000000,1718093277.299591064
1718093277.300598,,,,-0.741117120,-0.742843866,70891.000000000,1718093277.300598145
1718093277.300983,1.698047757,19374.000000000,1718093277.300983191,,,,
1718093277.301605,,,,-0.743593335,-0.742363095,70892.000000000,1718093277.301605225
1718093277.302612,,,,-0.747704268,-0.748829961,70893.000000000,1718093277.302612305
1718093277.303619,,,,-0.753930748,-0.753541946,70894.000000000,1718093277.303619385
1718093277.304626,,,,-0.760037065,-0.762557149,70895.000000000,1718093277.304626465
1718093277.305634,,,,-0.772441983,-0.774817824,70896.000000000,1718093277.305633545
1718093277.305983,1.768712401,19375.000000000,1718093277.305983067,,,,
1718093277.306641,,,,-0.782683253,-0.784361899,70897.000000000,1718093277.306640625
1718093277.307648,,,,-0.790424287,-0.790588379,70898.000000000,1718093277.307647705
1718093277.308655,,,,-0.791914821,-0.789674878,70899.000000000,1718093277.308654785
1718093277.309662,,,,-0.780615747,-0.779024899,70900.000000000,1718093277.309661865
1718093277.310669,,,,-0.779557943,-0.778664291,70901.000000000,1718093277.310668945
1718093277.310983,1.874692798,19376.000000000,1718093277.310983181,,,,
1718093277.311676,,,,-0.773163199,-0.772533953,70902.000000000,1718093277.311676025
1718093277.312683,,,,-0.768499315,-0.767749906,70903.000000000,1718093277.312683105
1718093277.313690,,,,-0.762368977,-0.761427224,70904.000000000,1718093277.313690186
1718093277.314697,,,,-0.755805910,-0.755897880,70905.000000000,1718093277.314697266
1718093277.315704,,,,-0.748521626,-0.748661697,70906.000000000,1718093277.315704346
1718093277.315983,2.086654425,19377.000000000,1718093277.315983057,,,,
1718093277.316711,,,,-0.744218349,-0.744959474,70907.000000000,1718093277.316711426
1718093277.317719,,,,-0.745949268,-0.748757839,70908.000000000,1718093277.317718506
1718093277.318726,,,,-0.749002457,-0.751907170,70909.000000000,1718093277.318725586
1718093277.319733,,,,-0.759291768,-0.761427224,70910.000000000,1718093277.319732666
1718093277.320740,,,,-0.764797091,-0.764600575,70911.000000000,1718093277.320739746
1718093277.320983,2.280927658,19378.000000000,1718093277.320983171,,,,
1718093277.321747,,,,-0.768186808,-0.768014312,70912.000000000,1718093277.321746826
1718093277.322754,,,,-0.773980558,-0.771981001,70913.000000000,1718093277.322753906
1718093277.323761,,,,-0.786121011,-0.784650385,70914.000000000,1718093277.323760986
1718093277.324768,,,,-0.791698456,-0.792054892,70915.000000000,1718093277.324768066
1718093277.325775,,,,-0.797997057,-0.798738122,70916.000000000,1718093277.325775146
1718093277.325983,2.492849827,19379.000000000,1718093277.325983047,,,,
1718093277.326782,,,,-0.801651239,-0.801358581,70917.000000000,1718093277.326782227
1718093277.327789,,,,-0.807252645,-0.805349290,70918.000000000,1718093277.327789307
1718093277.328796,,,,-0.810065389,-0.810518026,70919.000000000,1718093277.328796387
1718093277.329803,,,,-0.809680760,-0.808186054,70920.000000000,1718093277.329803467
1718093277.330628,3.004902601,19381.000000000,1718093277.330628395,,,,
1718093277.330811,,,,-0.801170409,-0.802608669,70921.000000000,1718093277.330810547
1718093277.330983,2.722399235,19380.000000000,1718093277.330983162,,,,
1718093277.331818,,,,-0.788621247,-0.788833439,70922.000000000,1718093277.331817627
1718093277.332825,,,,-0.775110483,-0.777053595,70923.000000000,1718093277.332824707
1718093277.333832,,,,-0.773908436,-0.775707304,70924.000000000,1718093277.333831787
1718093277.334839,,,,-0.776649058,-0.777750731,70925.000000000,1718093277.334838867
1718093277.335846,,,,-0.775711477,-0.774577379,70926.000000000,1718093277.335845947
1718093277.336853,,,,-0.780399382,-0.781669378,70927.000000000,1718093277.336853027
1718093277.337860,,,,-0.779365659,-0.780539453,70928.000000000,1718093277.337860107
1718093277.338867,,,,-0.765782714,-0.768807650,70929.000000000,1718093277.338867188
1718093277.339874,,,,-0.753041267,-0.755032420,70930.000000000,1718093277.339874268
1718093277.340881,,,,-0.745781004,-0.746570170,70931.000000000,1718093277.340881348
1718093277.341888,,,,-0.748040795,-0.746714413,70932.000000000,1718093277.341888428
1718093277.342896,,,,-0.762537241,-0.762557149,70933.000000000,1718093277.342895508
1718093277.343903,,,,-0.781000376,-0.779577851,70934.000000000,1718093277.343902588
1718093277.344910,,,,-0.788789511,-0.787679493,70935.000000000,1718093277.344909668
1718093277.345917,,,,-0.786938429,-0.789482534,70936.000000000,1718093277.345916748
1718093277.346924,,,,-0.790183902,-0.791477919,70937.000000000,1718093277.346923828
1718093277.347931,,,,-0.817085266,-0.816407919,70938.000000000,1718093277.347930908
1718093277.348938,,,,-0.837832212,-0.838813722,70939.000000000,1718093277.348937988
1718093277.349945,,,,-0.832182705,-0.835111499,70940.000000000,1718093277.349945068
1718093277.350952,,,,-0.825066686,-0.826721370,70941.000000000,1718093277.350952148
1718093277.351959,,,,-0.805930436,-0.808859229,70942.000000000,1718093277.351959229
1718093277.352966,,,,-0.786505699,-0.787631392,70943.000000000,1718093277.352966309
1718093277.353973,,,,-0.770903349,-0.771019399,70944.000000000,1718093277.353973389
1718093277.354980,,,,-0.753930748,-0.756066203,70945.000000000,1718093277.354980469
1718093277.355988,,,,-0.745949268,-0.746257663,70946.000000000,1718093277.355987549
1718093277.356995,,,,-0.747439802,-0.743324697,70947.000000000,1718093277.356994629
1718093277.358002,,,,-0.741165221,-0.741257191,70948.000000000,1718093277.358001709
1718093277.359009,,,,-0.735611856,-0.737002015,70949.000000000,1718093277.359008789
1718093277.360016,,,,-0.738713086,-0.737843454,70950.000000000,1718093277.360015869
1718093277.361023,,,,-0.752945065,-0.752988994,70951.000000000,1718093277.361022949
1718093277.362030,,,,-0.778379977,-0.778015196,70952.000000000,1718093277.362030029
1718093277.363037,,,,-0.784846902,-0.781477034,70953.000000000,1718093277.363037109
1718093277.364044,,,,-0.791674376,-0.791862547,70954.000000000,1718093277.364044189
1718093277.365051,,,,-0.798982739,-0.802488446,70955.000000000,1718093277.365051270
1718093277.365628,6.286216259,19388.000000000,1718093277.365628481,,,,
1718093277.366058,,,,-0.778620362,-0.779818237,70956.000000000,1718093277.366058350
1718093277.367065,,,,-0.753954768,-0.756354690,70957.000000000,1718093277.367065430
1718093277.368073,,,,-0.746478200,-0.750224352,70958.000000000,1718093277.368072510
1718093277.369080,,,,-0.741261363,-0.744719028,70959.000000000,1718093277.369079590
1718093277.370087,,,,-0.743977964,-0.742867947,70960.000000000,1718093277.370086670
1718093277.370628,7.096956730,19389.000000000,1718093277.370628357,,,,
1718093277.371094,,,,-0.742198944,-0.742339015,70961.000000000,1718093277.371093750
1718093277.372101,,,,-0.748161018,-0.747700095,70962.000000000,1718093277.372100830
1718093277.373108,,,,-0.765037477,-0.762797534,70963.000000000,1718093277.373107910
1718093277.374115,,,,-0.776649058,-0.775539041,70964.000000000,1718093277.374114990
1718093277.375122,,,,-0.778932929,-0.781092405,70965.000000000,1718093277.375122070
1718093277.375628,8.013072014,19390.000000000,1718093277.375628471,,,,
1718093277.376129,,,,-0.783500612,-0.787487149,70966.000000000,1718093277.376129150
1718093277.377136,,,,-0.776384592,-0.780250967,70967.000000000,1718093277.377136230
1718093277.378143,,,,-0.775326848,-0.776668906,70968.000000000,1718093277.378143311
1718093277.379150,,,,-0.778596342,-0.780659676,70969.000000000,1718093277.379150391
1718093277.380157,,,,-0.792804301,-0.793761730,70970.000000000,1718093277.380157471
1718093277.380628,9.052048683,19391.000000000,1718093277.380628347,,,,
1718093277.381165,,,,-0.798550010,-0.800973892,70971.000000000,1718093277.381164551
1718093277.382172,,,,-0.798838496,-0.798329473,70972.000000000,1718093277.382171631
1718093277.383179,,,,-0.793958247,-0.791598082,70973.000000000,1718093277.383178711
1718093277.384186,,,,-0.781986058,-0.780707717,70974.000000000,1718093277.384185791
1718093277.385193,,,,-0.776144207,-0.775010109,70975.000000000,1718093277.385192871
1718093277.385628,10.248888016,19392.000000000,1718093277.385628462,,,,
1718093277.386200,,,,-0.776168227,-0.775226474,70976.000000000,1718093277.386199951
1718093277.387207,,,,-0.776072085,-0.777053595,70977.000000000,1718093277.387207031
1718093277.388214,,,,-0.768499315,-0.768278778,70978.000000000,1718093277.388214111
1718093277.389221,,,,-0.761215031,-0.756571054,70979.000000000,1718093277.389221191
1718093277.390228,,,,-0.754675984,-0.754936278,70980.000000000,1718093277.390228271
1718093277.390628,11.550565720,19393.000000000,1718093277.390628338,,,,
1718093277.391235,,,,-0.738256335,-0.739550352,70981.000000000,1718093277.391235352
1718093277.392242,,,,-0.735491633,-0.735174954,70982.000000000,1718093277.392242432
1718093277.393250,,,,-0.740516126,-0.740800440,70983.000000000,1718093277.393249512
1718093277.394257,,,,-0.745396376,-0.744959474,70984.000000000,1718093277.394256592
1718093277.395264,,,,-0.747223437,-0.747892380,70985.000000000,1718093277.395263672
1718093277.395628,13.027193069,19394.000000000,1718093277.395628452,,,,
1718093277.396271,,,,-0.756334782,-0.758422136,70986.000000000,1718093277.396270752
1718093277.397278,,,,-0.770855308,-0.771307886,70987.000000000,1718093277.397277832
1718093277.398285,,,,-0.794799685,-0.795132041,70988.000000000,1718093277.398284912
1718093277.399292,,,,-0.811195314,-0.809436202,70989.000000000,1718093277.399291992
1718093277.400299,,,,-0.820114374,-0.820086181,70990.000000000,1718093277.400299072
1718093277.400628,14.625721931,19395.000000000,1718093277.400628328,,,,
1718093277.401306,,,,-0.829538226,-0.829582155,70991.000000000,1718093277.401306152
1718093277.402313,,,,-0.813142598,-0.814652979,70992.000000000,1718093277.402313232
1718093277.403320,,,,-0.813214719,-0.813042283,70993.000000000,1718093277.403320313
1718093277.404327,,,,-0.826821685,-0.827466607,70994.000000000,1718093277.404327393
1718093277.405334,,,,-0.839635253,-0.838813722,70995.000000000,1718093277.405334473
1718093277.405628,16.293231964,19396.000000000,1718093277.405628443,,,,
1718093277.406342,,,,-0.826172590,-0.829149425,70996.000000000,1718093277.406341553
1718093277.407349,,,,-0.807781577,-0.810710311,70997.000000000,1718093277.407348633
1718093277.408356,,,,-0.797876835,-0.801286459,70998.000000000,1718093277.408355713
1718093277.409363,,,,-0.794030368,-0.796382189,70999.000000000,1718093277.409362793
1718093277.410370,,,,-0.772802591,-0.773687899,71000.000000000,1718093277.410369873
1718093277.410628,18.257465363,19397.000000000,1718093277.410628319,,,,
1718093277.411377,,,,-0.743977964,-0.743444920,71001.000000000,1718093277.411376953
1718093277.412384,,,,-0.712725222,-0.713947177,71002.000000000,1718093277.412384033
1718093277.413391,,,,-0.682818830,-0.683319509,71003.000000000,1718093277.413391113
1718093277.414398,,,,-0.661494851,-0.662404239,71004.000000000,1718093277.414398193
1718093277.415405,,,,-0.649859250,-0.652114868,71005.000000000,1718093277.415405273
1718093277.415628,20.254903793,19398.000000000,1718093277.415628433,,,,
1718093277.416412,,,,-0.657071412,-0.656562388,71006.000000000,1718093277.416412354
1718093277.417419,,,,-0.654595196,-0.655288219,71007.000000000,1718093277.417419434
1718093277.418427,,,,-0.656542480,-0.657163382,71008.000000000,1718093277.418426514
1718093277.419434,,,,-0.647334993,-0.648316443,71009.000000000,1718093277.419433594
1718093277.420441,,,,-0.620265305,-0.621992052,71010.000000000,1718093277.420440674
1718093277.420628,22.407911301,19399.000000000,1718093277.420628309,,,,
1718093277.421448,,,,-0.632237494,-0.635430753,71011.000000000,1718093277.421447754
1718093277.422455,,,,-0.666783750,-0.666274786,71012.000000000,1718093277.422454834
1718093277.423462,,,,-0.693252385,-0.690363407,71013.000000000,1718093277.423461914
1718093277.424469,,,,-0.705248654,-0.705581069,71014.000000000,1718093277.424468994
1718093277.425476,,,,-0.734722316,-0.736352921,71015.000000000,1718093277.425476074
1718093277.425628,24.663591385,19400.000000000,1718093277.425628424,,,,
1718093277.426483,,,,-0.785904646,-0.786140919,71016.000000000,1718093277.426483154
1718093277.427490,,,,-0.845909834,-0.845929742,71017.000000000,1718093277.427490234
1718093277.428497,,,,-0.898654819,-0.899227619,71018.000000000,1718093277.428497314
1718093277.429504,,,,-0.922358811,-0.923676848,71019.000000000,1718093277.429504395
1718093277.430511,,,,-0.943250000,-0.944303632,71020.000000000,1718093277.430511475
1718093277.431519,,,,-0.961160243,-0.961252213,71021.000000000,1718093277.431518555
1718093277.432526,,,,-0.966449142,-0.967214286,71022.000000000,1718093277.432525635
1718093277.433533,,,,-0.961568892,-0.963103354,71023.000000000,1718093277.433532715
1718093277.434540,,,,-0.955967486,-0.956732571,71024.000000000,1718093277.434539795
1718093277.435547,,,,-0.944860756,-0.944135368,71025.000000000,1718093277.435546875
1718093277.436554,,,,-0.920796156,-0.920503497,71026.000000000,1718093277.436553955
1718093277.437561,,,,-0.909184575,-0.907233119,71027.000000000,1718093277.437561035
1718093277.438568,,,,-0.896034360,-0.896559119,71028.000000000,1718093277.438568115
1718093277.439575,,,,-0.887307644,-0.889635444,71029.000000000,1718093277.439575195
1718093277.440582,,,,-0.870695651,-0.873167694,71030.000000000,1718093277.440582275
1718093277.441589,,,,-0.851895928,-0.853430390,71031.000000000,1718093277.441589355
1718093277.442596,,,,-0.847039759,-0.846049964,71032.000000000,1718093277.442596436
1718093277.443604,,,,-0.838216901,-0.836698174,71033.000000000,1718093277.443603516
1718093277.444611,,,,-0.817878604,-0.818571568,71034.000000000,1718093277.444610596
1718093277.445618,,,,-0.796145916,-0.796141744,71035.000000000,1718093277.445617676
1718093277.446625,,,,-0.773788214,-0.770851135,71036.000000000,1718093277.446624756
1718093277.447632,,,,-0.774797916,-0.771428108,71037.000000000,1718093277.447631836
1718093277.448639,,,,-0.783692956,-0.781645298,71038.000000000,1718093277.448638916
1718093277.449646,,,,-0.773668051,-0.772485852,71039.000000000,1718093277.449645996
1718093277.450653,,,,-0.780086875,-0.779625893,71040.000000000,1718093277.450653076
1718093277.451660,,,,-0.792203307,-0.792343378,71041.000000000,1718093277.451660156
1718093277.452667,,,,-0.778067470,-0.779313385,71042.000000000,1718093277.452667236
1718093277.453674,,,,-0.770855308,-0.769793332,71043.000000000,1718093277.453674316
1718093277.454681,,,,-0.753906727,-0.753229380,71044.000000000,1718093277.454681396
1718093277.455688,,,,-0.723351181,-0.722409427,71045.000000000,1718093277.455688477
1718093277.456696,,,,-0.709888458,-0.709139049,71046.000000000,1718093277.456695557
1718093277.457703,,,,-0.695993006,-0.694426239,71047.000000000,1718093277.457702637
1718093277.458710,,,,-0.694262087,-0.691493273,71048.000000000,1718093277.458709717
1718093277.459717,,,,-0.686689317,-0.685146570,71049.000000000,1718093277.459716797
1718093277.460724,,,,-0.695512235,-0.697287083,71050.000000000,1718093277.460723877
1718093277.461731,,,,-0.728279471,-0.729044616,71051.000000000,1718093277.461730957
1718093277.462738,,,,-0.745348275,-0.743565083,71052.000000000,1718093277.462738037
1718093277.463745,,,,-0.754772186,-0.754719913,71053.000000000,1718093277.463745117
1718093277.464752,,,,-0.776240349,-0.776500642,71054.000000000,1718093277.464752197
1718093277.465759,,,,-0.795160294,-0.797247648,71055.000000000,1718093277.465759277
1718093277.466766,,,,-0.820667267,-0.819701493,71056.000000000,1718093277.466766357
1718093277.467773,,,,-0.853314340,-0.850617647,71057.000000000,1718093277.467773438
1718093277.468781,,,,-0.874253631,-0.872109890,71058.000000000,1718093277.468780518
1718093277.469788,,,,-0.872666955,-0.871749282,71059.000000000,1718093277.469787598
1718093277.470795,,,,-0.868868589,-0.868912518,71060.000000000,1718093277.470794678
1718093277.471802,,,,-0.848193705,-0.847997248,71061.000000000,1718093277.471801758
1718093277.472809,,,,-0.784510314,-0.785972595,71062.000000000,1718093277.472808838
1718093277.473816,,,,-0.703806221,-0.705268502,71063.000000000,1718093277.473815918
1718093277.474823,,,,-0.676544249,-0.674448550,71064.000000000,1718093277.474822998
1718093277.475830,,,,-0.697483540,-0.693296313,71065.000000000,1718093277.475830078
1718093277.476837,,,,-0.697098911,-0.697359204,71066.000000000,1718093277.476837158
1718093277.477844,,,,-0.682770729,-0.682502151,71067.000000000,1718093277.477844238
1718093277.478851,,,,-0.704815924,-0.702239394,71068.000000000,1718093277.478851318
1718093277.479858,,,,-0.709047019,-0.710100651,71069.000000000,1718093277.479858398
1718093277.480865,,,,-0.727077425,-0.727385819,71070.000000000,1718093277.480865479
1718093277.481873,,,,-0.770470619,-0.769961596,71071.000000000,1718093277.481872559
1718093277.482880,,,,-0.830187321,-0.828452289,71072.000000000,1718093277.482879639
1718093277.483887,,,,-0.890745461,-0.889274836,71073.000000000,1718093277.483886719
1718093277.484894,,,,-1.007197857,-1.012362361,71074.000000000,1718093277.484893799
1718093277.485191,54.060352325,19411.000000000,1718093277.485191345,,,,
1718093277.485901,,,,-1.038258195,-1.040321589,71075.000000000,1718093277.485900879
1718093277.486908,,,,-1.015636086,-1.015271306,71076.000000000,1718093277.486907959
1718093277.487915,,,,-0.988326013,-0.985557199,71077.000000000,1718093277.487915039
1718093277.488922,,,,-0.977603972,-0.976566017,71078.000000000,1718093277.488922119
1718093277.489929,,,,-0.965247095,-0.964209199,71079.000000000,1718093277.489929199
1718093277.490191,56.901458740,19412.000000000,1718093277.490191460,,,,
1718093277.490936,,,,-0.953611493,-0.953030348,71080.000000000,1718093277.490936279
1718093277.491943,,,,-0.965968311,-0.966468990,71081.000000000,1718093277.491943359
1718093277.492950,,,,-0.945846379,-0.945337355,71082.000000000,1718093277.492950439
1718093277.493958,,,,-0.923440635,-0.923484504,71083.000000000,1718093277.493957520
1718093277.494965,,,,-0.907429636,-0.908435166,71084.000000000,1718093277.494964600
1718093277.495191,59.824565887,19413.000000000,1718093277.495191336,,,,
1718093277.495972,,,,-0.872017860,-0.873287857,71085.000000000,1718093277.495971680
1718093277.496979,,,,-0.845308840,-0.847396195,71086.000000000,1718093277.496978760
1718093277.497986,,,,-0.817253530,-0.820206344,71087.000000000,1718093277.497985840
1718093277.498993,,,,-0.779726267,-0.782510757,71088.000000000,1718093277.498992920
1718093277.500000,,,,-0.736958146,-0.736088514,71089.000000000,1718093277.500000000
1718093277.500191,62.657741547,19414.000000000,1718093277.500191450,,,,
1718093277.501007,,,,-0.705849648,-0.706662893,71090.000000000,1718093277.501007080
1718093277.502014,,,,-0.706498742,-0.704835773,71091.000000000,1718093277.502014160
1718093277.503021,,,,-0.729241073,-0.729212880,71092.000000000,1718093277.503021240
1718093277.504028,,,,-0.772441983,-0.774577379,71093.000000000,1718093277.504028320
1718093277.505035,,,,-0.809584618,-0.811551750,71094.000000000,1718093277.505035400
1718093277.505191,65.452751160,19415.000000000,1718093277.505191326,,,,
1718093277.506042,,,,-0.846102178,-0.844968140,71095.000000000,1718093277.506042480
1718093277.507050,,,,-0.887908697,-0.887760282,71096.000000000,1718093277.507049561
1718093277.508057,,,,-0.895337224,-0.895573437,71097.000000000,1718093277.508056641
1718093277.509064,,,,-0.872811198,-0.873456180,71098.000000000,1718093277.509063721
1718093277.510071,,,,-0.878076077,-0.878432572,71099.000000000,1718093277.510070801
1718093277.510191,68.243949890,19416.000000000,1718093277.510191441,,,,
1718093277.511078,,,,-0.914786041,-0.915767491,71100.000000000,1718093277.511077881
1718093277.512085,,,,-0.933177054,-0.930432260,71101.000000000,1718093277.512084961
1718093277.513092,,,,-0.917646825,-0.918652356,71102.000000000,1718093277.513092041
1718093277.514099,,,,-0.900265515,-0.903891504,71103.000000000,1718093277.514099121
1718093277.515106,,,,-0.884302616,-0.885933220,71104.000000000,1718093277.515106201
1718093277.515191,70.945930481,19417.000000000,1718093277.515191317,,,,
1718093277.516113,,,,-0.859252334,-0.859969437,71105.000000000,1718093277.516113281
1718093277.517120,,,,-0.841943145,-0.843261242,71106.000000000,1718093277.517120361
1718093277.518127,,,,-0.834129989,-0.834606647,71107.000000000,1718093277.518127441
1718093277.519135,,,,-0.802372456,-0.803305864,71108.000000000,1718093277.519134521
1718093277.520142,,,,-0.745925248,-0.748854041,71109.000000000,1718093277.520141602
1718093277.520191,73.644393921,19418.000000000,1718093277.520191431,,,,
1718093277.521149,,,,-0.680751324,-0.681131840,71110.000000000,1718093277.521148682
1718093277.522156,,,,-0.627405345,-0.626800179,71111.000000000,1718093277.522155762
1718093277.523163,,,,-0.588676035,-0.589417160,71112.000000000,1718093277.523162842
1718093277.524170,,,,-0.592618704,-0.593672335,71113.000000000,1718093277.524169922
1718093277.525177,,,,-0.620457649,-0.621535301,71114.000000000,1718093277.525177002
1718093277.525191,76.322265625,19419.000000000,1718093277.525191307,,,,
1718093277.526184,,,,-0.637862980,-0.637378037,71115.000000000,1718093277.526184082
1718093277.527191,,,,-0.681953371,-0.682285786,71116.000000000,1718093277.527191162
1718093277.528198,,,,-0.730034411,-0.729260981,71117.000000000,1718093277.528198242
1718093277.529205,,,,-0.762561321,-0.761090636,71118.000000000,1718093277.529205322
1718093277.530191,78.860481262,19420.000000000,1718093277.530191422,,,,
1718093277.530212,,,,-0.811988652,-0.812465310,71119.000000000,1718093277.530212402
1718093277.531219,,,,-0.877643347,-0.879057586,71120.000000000,1718093277.531219482
1718093277.532227,,,,-0.940365136,-0.940577328,71121.000000000,1718093277.532226563
1718093277.533234,,,,-0.953587472,-0.954088151,71122.000000000,1718093277.533233643
1718093277.534241,,,,-0.948899567,-0.950097382,71123.000000000,1718093277.534240723
1718093277.535248,,,,-0.926926494,-0.927451193,71124.000000000,1718093277.535247803
1718093277.536255,,,,-0.916709244,-0.913411558,71125.000000000,1718093277.536254883
1718093277.537262,,,,-0.897524893,-0.899035275,71126.000000000,1718093277.537261963
1718093277.538269,,,,-0.897476792,-0.898386180,71127.000000000,1718093277.538269043
1718093277.539276,,,,-0.906612217,-0.906079173,71128.000000000,1718093277.539276123
1718093277.540283,,,,-0.905073643,-0.906463802,71129.000000000,1718093277.540283203
1718093277.541290,,,,-0.920555770,-0.923989356,71130.000000000,1718093277.541290283
1718093277.542297,,,,-0.935316622,-0.937283814,71131.000000000,1718093277.542297363
1718093277.543304,,,,-0.937792838,-0.938846409,71132.000000000,1718093277.543304443
1718093277.544312,,,,-0.914593697,-0.916392565,71133.000000000,1718093277.544311523
1718093277.545319,,,,-0.875792265,-0.875788093,71134.000000000,1718093277.545318604
1718093277.546326,,,,-0.831870198,-0.832322776,71135.000000000,1718093277.546325684
1718093277.547333,,,,-0.815065861,-0.815181851,71136.000000000,1718093277.547332764
1718093277.548340,,,,-0.797516227,-0.797584176,71137.000000000,1718093277.548339844
1718093277.549347,,,,-0.760133207,-0.759023190,71138.000000000,1718093277.549346924
1718093277.550354,,,,-0.727221668,-0.728780150,71139.000000000,1718093277.550354004
1718093277.551361,,,,-0.716355383,-0.714427948,71140.000000000,1718093277.551361084
1718093277.552368,,,,-0.709239364,-0.708682299,71141.000000000,1718093277.552368164
1718093277.553375,,,,-0.720346093,-0.720846772,71142.000000000,1718093277.553375244
1718093277.554382,,,,-0.749050498,-0.751907170,71143.000000000,1718093277.554382324
1718093277.555389,,,,-0.792515814,-0.795660973,71144.000000000,1718093277.555389404
1718093277.556396,,,,-0.844683766,-0.844968140,71145.000000000,1718093277.556396484
1718093277.557404,,,,-0.881249428,-0.880379856,71146.000000000,1718093277.557403564
1718093277.558411,,,,-0.885696948,-0.885043681,71147.000000000,1718093277.558410645
1718093277.559418,,,,-0.883196712,-0.882783890,71148.000000000,1718093277.559417725
1718093277.560425,,,,-0.889615536,-0.891342342,71149.000000000,1718093277.560424805
1718093277.561432,,,,-0.867931008,-0.868143201,71150.000000000,1718093277.561431885
1718093277.562439,,,,-0.858314753,-0.859849215,71151.000000000,1718093277.562438965
1718093277.563446,,,,-0.855862617,-0.855065167,71152.000000000,1718093277.563446045
1718093277.564453,,,,-0.853771091,-0.851939857,71153.000000000,1718093277.564453125
1718093277.565460,,,,-0.837375462,-0.838982046,71154.000000000,1718093277.565460205
1718093277.566467,,,,-0.834418476,-0.834967256,71155.000000000,1718093277.566467285
1718093277.567474,,,,-0.855189502,-0.857397079,71156.000000000,1718093277.567474365
1718093277.568481,,,,-0.881658137,-0.883000255,71157.000000000,1718093277.568481445
1718093277.569489,,,,-0.893293738,-0.893770397,71158.000000000,1718093277.569488525
1718093277.570496,,,,-0.881826401,-0.881581843,71159.000000000,1718093277.570495605
1718093277.571503,,,,-0.800353050,-0.800733507,71160.000000000,1718093277.571502686
1718093277.572510,,,,-0.736429214,-0.737290502,71161.000000000,1718093277.572509766
1718093277.573517,,,,-0.716860235,-0.716423333,71162.000000000,1718093277.573516846
1718093277.574524,,,,-0.691016614,-0.690940380,71163.000000000,1718093277.574523926
1718093277.575531,,,,-0.714143634,-0.714283705,71164.000000000,1718093277.575531006
1718093277.576538,,,,-0.753089309,-0.754215062,71165.000000000,1718093277.576538086
1718093277.577545,,,,-0.769076288,-0.767052710,71166.000000000,1718093277.577545166
1718093277.578552,,,,-0.730515242,-0.729597569,71167.000000000,1718093277.578552246
1718093277.579410,103.064582825,19431.000000000,1718093277.579409599,,,,
1718093277.579559,,,,-0.718591154,-0.718923569,71168.000000000,1718093277.579559326
1718093277.580566,,,,-0.722629964,-0.721255481,71169.000000000,1718093277.580566406
1718093277.581573,,,,-0.722365499,-0.722000718,71170.000000000,1718093277.581573486
1718093277.582581,,,,-0.720706701,-0.723659515,71171.000000000,1718093277.582580566
1718093277.583588,,,,-0.708734512,-0.710413218,71172.000000000,1718093277.583587646
1718093277.584410,104.881332397,19432.000000000,1718093277.584409714,,,,
1718093277.584595,,,,-0.716932356,-0.717433035,71173.000000000,1718093277.584594727
1718093277.585602,,,,-0.747487903,-0.746690392,71174.000000000,1718093277.585601807
1718093277.586609,,,,-0.781889915,-0.783424318,71175.000000000,1718093277.586608887
1718093277.587616,,,,-0.852136374,-0.852228343,71176.000000000,1718093277.587615967
1718093277.588623,,,,-0.890192509,-0.889827788,71177.000000000,1718093277.588623047
1718093277.589410,106.696540833,19433.000000000,1718093277.589409590,,,,
1718093277.589630,,,,-0.902164698,-0.904756963,71178.000000000,1718093277.589630127
1718093277.590637,,,,-0.920483649,-0.920551598,71179.000000000,1718093277.590637207
1718093277.591644,,,,-0.892115772,-0.892856896,71180.000000000,1718093277.591644287
1718093277.592651,,,,-0.861007333,-0.865210235,71181.000000000,1718093277.592651367
1718093277.593658,,,,-0.868339658,-0.871532917,71182.000000000,1718093277.593658447
1718093277.594410,108.543785095,19434.000000000,1718093277.594409704,,,,
1718093277.594666,,,,-0.880888820,-0.882519424,71183.000000000,1718093277.594665527
1718093277.595673,,,,-0.887524009,-0.888168991,71184.000000000,1718093277.595672607
1718093277.596680,,,,-0.918680608,-0.919974625,71185.000000000,1718093277.596679688
1718093277.597687,,,,-0.946591675,-0.945000827,71186.000000000,1718093277.597686768
1718093277.598694,,,,-0.961112142,-0.960579097,71187.000000000,1718093277.598693848
1718093277.599410,110.439750671,19435.000000000,1718093277.599409580,,,,
1718093277.599701,,,,-0.949692905,-0.948799193,71188.000000000,1718093277.599700928
1718093277.600708,,,,-0.898774981,-0.896943748,71189.000000000,1718093277.600708008
1718093277.601715,,,,-0.846078157,-0.845304668,71190.000000000,1718093277.601715088
1718093277.602722,,,,-0.826629341,-0.826841533,71191.000000000,1718093277.602722168
1718093277.603729,,,,-0.844707847,-0.845424891,71192.000000000,1718093277.603729248
1718093277.604410,112.317298889,19436.000000000,1718093277.604409695,,,,
1718093277.604736,,,,-0.803117692,-0.805060804,71193.000000000,1718093277.604736328
1718093277.605743,,,,-0.714864850,-0.715221286,71194.000000000,1718093277.605743408
1718093277.606750,,,,-0.648993790,-0.648124158,71195.000000000,1718093277.606750488
1718093277.607758,,,,-0.585887372,-0.587590039,71196.000000000,1718093277.607757568
1718093277.608765,,,,-0.553504705,-0.554654539,71197.000000000,1718093277.608764648
1718093277.609410,114.260192871,19437.000000000,1718093277.609409571,,,,
1718093277.609772,,,,-0.561197698,-0.563020647,71198.000000000,1718093277.609771729
1718093277.610779,,,,-0.561149597,-0.561289728,71199.000000000,1718093277.610778809
1718093277.611786,,,,-0.650291979,-0.650912821,71200.000000000,1718093277.611785889
1718093277.612793,,,,-0.743569255,-0.743733406,71201.000000000,1718093277.612792969
1718093277.613800,,,,-0.774846017,-0.774168730,71202.000000000,1718093277.613800049
1718093277.614410,116.284988403,19438.000000000,1718093277.614409685,,,,
1718093277.614807,,,,-0.821628928,-0.822610438,71203.000000000,1718093277.614807129
1718093277.615814,,,,-0.816580415,-0.816696405,71204.000000000,1718093277.615814209
1718093277.616821,,,,-0.831437469,-0.829077303,71205.000000000,1718093277.616821289
1718093277.617828,,,,-0.880311847,-0.879610538,71206.000000000,1718093277.617828369
1718093277.618835,,,,-0.879254103,-0.878120005,71207.000000000,1718093277.618835449
1718093277.619410,118.257759094,19439.000000000,1718093277.619409561,,,,
1718093277.619843,,,,-0.802997470,-0.801743209,71208.000000000,1718093277.619842529
1718093277.620850,,,,-0.717893958,-0.719764948,71209.000000000,1718093277.620849609
1718093277.621857,,,,-0.632069230,-0.633988321,71210.000000000,1718093277.621856689
1718093277.622737,122.181350708,19441.000000000,1718093277.622737408,,,,
1718093277.622864,,,,-0.599374115,-0.600620031,71211.000000000,1718093277.622863770
1718093277.623871,,,,-0.591368616,-0.591941416,71212.000000000,1718093277.623870850
1718093277.624410,120.178688049,19440.000000000,1718093277.624409676,,,,
1718093277.624878,,,,-0.583146751,-0.582204998,71213.000000000,1718093277.624877930
1718093277.625885,,,,-0.572088063,-0.570665538,71214.000000000,1718093277.625885010
1718093277.626892,,,,-0.593772650,-0.594946444,71215.000000000,1718093277.626892090
1718093277.627738,124.148857117,19442.000000000,1718093277.627737522,,,,
1718093277.627899,,,,-0.633247197,-0.636151969,71216.000000000,1718093277.627899170
1718093277.628906,,,,-0.681520641,-0.681973219,71217.000000000,1718093277.628906250
1718093277.629913,,,,-0.731717288,-0.730342805,71218.000000000,1718093277.629913330
1718093277.630920,,,,-0.857930124,-0.858551025,71219.000000000,1718093277.630920410
1718093277.631927,,,,-0.998062432,-0.999428630,71220.000000000,1718093277.631927490
1718093277.632737,126.164604187,19443.000000000,1718093277.632737398,,,,
1718093277.632935,,,,-1.057923436,-1.060299277,71221.000000000,1718093277.632934570
1718093277.633942,,,,-1.089128017,-1.091431737,71222.000000000,1718093277.633941650
1718093277.634949,,,,-1.083286166,-1.083113790,71223.000000000,1718093277.634948730
1718093277.635956,,,,-1.085569978,-1.085325480,71224.000000000,1718093277.635955811
1718093277.636963,,,,-1.098119140,-1.097393870,71225.000000000,1718093277.636962891
1718093277.637738,128.128631592,19444.000000000,1718093277.637737513,,,,
1718093277.637970,,,,-1.087637544,-1.088282466,71226.000000000,1718093277.637969971
1718093277.638977,,,,-1.004962087,-1.004525185,71227.000000000,1718093277.638977051
1718093277.639984,,,,-0.907357514,-0.907978356,71228.000000000,1718093277.639984131
1718093277.640991,,,,-0.865863502,-0.864224613,71229.000000000,1718093277.640991211
1718093277.641998,,,,-0.832567334,-0.833596945,71230.000000000,1718093277.641998291
1718093277.642737,130.074310303,19445.000000000,1718093277.642737389,,,,
1718093277.643005,,,,-0.806459308,-0.809171736,71231.000000000,1718093277.643005371
1718093277.644012,,,,-0.785544038,-0.786501527,71232.000000000,1718093277.644012451
1718093277.645020,,,,-0.778355956,-0.781164527,71233.000000000,1718093277.645019531
1718093277.646027,,,,-0.784293950,-0.784506142,71234.000000000,1718093277.646026611
1718093277.647034,,,,-0.801122308,-0.799387217,71235.000000000,1718093277.647033691
1718093277.647738,132.101364136,19446.000000000,1718093277.647737503,,,,
1718093277.648041,,,,-0.821003854,-0.821985364,71236.000000000,1718093277.648040771
1718093277.649048,,,,-0.834057868,-0.835375965,71237.000000000,1718093277.649047852
1718093277.650055,,,,-0.908631623,-0.911103666,71238.000000000,1718093277.650054932
1718093277.651062,,,,-0.963203669,-0.964064956,71239.000000000,1718093277.651062012
1718093277.652069,,,,-0.922118366,-0.923147976,71240.000000000,1718093277.652069092
1718093277.652737,134.159820557,19447.000000000,1718093277.652737379,,,,
1718093277.653076,,,,-0.885047853,-0.886774600,71241.000000000,1718093277.653076172
1718093277.654083,,,,-0.884062171,-0.885019660,71242.000000000,1718093277.654083252
1718093277.655090,,,,-0.860430360,-0.858671248,71243.000000000,1718093277.655090332
1718093277.656097,,,,-0.815306246,-0.816792607,71244.000000000,1718093277.656097412
1718093277.657104,,,,-0.782178402,-0.781909764,71245.000000000,1718093277.657104492
1718093277.657737,136.216430664,19448.000000000,1718093277.657737494,,,,
1718093277.658112,,,,-0.766864538,-0.769288480,71246.000000000,1718093277.658111572
1718093277.659119,,,,-0.843000948,-0.840424478,71247.000000000,1718093277.659118652
1718093277.660126,,,,-0.858987927,-0.858238518,71248.000000000,1718093277.660125732
1718093277.661133,,,,-0.865454793,-0.866796911,71249.000000000,1718093277.661132813
1718093277.662140,,,,-0.856655955,-0.858887613,71250.000000000,1718093277.662139893
1718093277.662737,138.453414917,19449.000000000,1718093277.662737370,,,,
1718093277.663147,,,,-0.870767772,-0.871460795,71251.000000000,1718093277.663146973
1718093277.664154,,,,-0.853626847,-0.853911221,71252.000000000,1718093277.664154053
1718093277.665161,,,,-0.814104199,-0.816191554,71253.000000000,1718093277.665161133
1718093277.666168,,,,-0.786746085,-0.787607372,71254.000000000,1718093277.666168213
1718093277.667175,,,,-0.757921457,-0.755441129,71255.000000000,1718093277.667175293
1718093277.668182,,,,-0.723495424,-0.718034029,71256.000000000,1718093277.668182373
1718093277.669189,,,,-0.715537965,-0.711230576,71257.000000000,1718093277.669189453
1718093277.670197,,,,-0.659114838,-0.657692313,71258.000000000,1718093277.670196533
1718093277.671204,,,,-0.631588399,-0.631824672,71259.000000000,1718093277.671203613
1718093277.672211,,,,-0.669332087,-0.669544280,71260.000000000,1718093277.672210693
1718093277.672737,142.954025269,19451.000000000,1718093277.672737360,,,,
1718093277.673218,,,,-0.712196350,-0.712793231,71261.000000000,1718093277.673217773
1718093277.674225,,,,-0.777899146,-0.775971770,71262.000000000,1718093277.674224854
1718093277.675232,,,,-0.804920733,-0.802752912,71263.000000000,1718093277.675231934
1718093277.676239,,,,-0.824874401,-0.825759709,71264.000000000,1718093277.676239014
1718093277.677246,,,,-0.812830091,-0.812633574,71265.000000000,1718093277.677246094
1718093277.677737,145.184616089,19452.000000000,1718093277.677737474,,,,
1718093277.678253,,,,-0.720394194,-0.722096920,71266.000000000,1718093277.678253174
1718093277.679260,,,,-0.617837250,-0.617616713,71267.000000000,1718093277.679260254
1718093277.680267,,,,-0.589084744,-0.587493896,71268.000000000,1718093277.680267334
1718093277.681274,,,,-0.588339508,-0.588142991,71269.000000000,1718093277.681274414
1718093277.682281,,,,-0.467680007,-0.467940271,71270.000000000,1718093277.682281494
1718093277.682737,147.479125977,19453.000000000,1718093277.682737350,,,,
1718093277.683289,,,,-0.311416477,-0.311869085,71271.000000000,1718093277.683288574
1718093277.684296,,,,-0.198714405,-0.200825810,71272.000000000,1718093277.684295654
1718093277.685303,,,,-0.222514540,-0.225154832,71273.000000000,1718093277.685302734
1718093277.686310,,,,-0.280836910,-0.282707900,71274.000000000,1718093277.686309814
1718093277.687317,,,,-0.452846974,-0.453564048,71275.000000000,1718093277.687316895
1718093277.687737,149.672561646,19454.000000000,1718093277.687737465,,,,
1718093277.688324,,,,-0.664307594,-0.665385246,71276.000000000,1718093277.688323975
1718093277.689331,,,,-0.852016151,-0.853766978,71277.000000000,1718093277.689331055
1718093277.690338,,,,-0.957001209,-0.955602705,71278.000000000,1718093277.690338135
1718093277.691345,,,,-1.022151113,-1.021305442,71279.000000000,1718093277.691345215
1718093277.692352,,,,-1.112519503,-1.113116384,71280.000000000,1718093277.692352295
1718093277.692737,151.913452148,19455.000000000,1718093277.692737341,,,,
1718093277.693359,,,,-1.127352476,-1.126074195,71281.000000000,1718093277.693359375
1718093277.694366,,,,-1.068885922,-1.067799926,71282.000000000,1718093277.694366455
1718093277.695374,,,,-1.029267073,-1.029671550,71283.000000000,1718093277.695373535
1718093277.696381,,,,-1.018689275,-1.021233320,71284.000000000,1718093277.696380615
1718093277.697388,,,,-0.978012621,-0.981999218,71285.000000000,1718093277.697387695
1718093277.697737,154.086471558,19456.000000000,1718093277.697737455,,,,
1718093277.698395,,,,-0.957890689,-0.959761679,71286.000000000,1718093277.698394775
1718093277.699402,,,,-0.935749352,-0.937163591,71287.000000000,1718093277.699401855
1718093277.700409,,,,-0.906251609,-0.908435166,71288.000000000,1718093277.700408936
1718093277.701416,,,,-0.883004427,-0.883769572,71289.000000000,1718093277.701416016
1718093277.702423,,,,-0.905049622,-0.901775897,71290.000000000,1718093277.702423096
1718093277.702737,156.158950806,19457.000000000,1718093277.702737331,,,,
1718093277.703430,,,,-0.935148358,-0.931562126,71291.000000000,1718093277.703430176
1718093277.704437,,,,-0.962722838,-0.961564720,71292.000000000,1718093277.704437256
1718093277.705444,,,,-1.018112302,-1.019718766,71293.000000000,1718093277.705444336
1718093277.706451,,,,-1.066842437,-1.067511439,71294.000000000,1718093277.706451416
1718093277.707458,,,,-1.088647246,-1.090590358,71295.000000000,1718093277.707458496
1718093277.707737,158.246185303,19458.000000000,1718093277.707737446,,,,
1718093277.708466,,,,-1.135093570,-1.137301087,71296.000000000,1718093277.708465576
1718093277.709473,,,,-1.145382881,-1.144056559,71297.000000000,1718093277.709472656
1718093277.710480,,,,-1.073333383,-1.072439790,71298.000000000,1718093277.710479736
1718093277.711487,,,,-1.011717439,-1.013227820,71299.000000000,1718093277.711486816
1718093277.712494,,,,-0.993062019,-0.996231198,71300.000000000,1718093277.712493896
1718093277.712737,160.216766357,19459.000000000,1718093277.712737322,,,,
1718093277.713501,,,,-0.990730107,-0.992384732,71301.000000000,1718093277.713500977
1718093277.714508,,,,-0.939547777,-0.939399362,71302.000000000,1718093277.714508057
1718093277.715515,,,,-0.875864387,-0.874826491,71303.000000000,1718093277.715515137
1718093277.716522,,,,-0.795641065,-0.796069622,71304.000000000,1718093277.716522217
1718093277.717529,,,,-0.766792417,-0.768639386,71305.000000000,1718093277.717529297
1718093277.717737,162.185867310,19460.000000000,1718093277.717737436,,,,
1718093277.718536,,,,-0.811964631,-0.812008500,71306.000000000,1718093277.718536377
1718093277.719543,,,,-0.806026578,-0.807080209,71307.000000000,1718093277.719543457
1718093277.720551,,,,-0.751021862,-0.751330197,71308.000000000,1718093277.720550537
1718093277.721558,,,,-0.698276877,-0.698969901,71309.000000000,1718093277.721557617
1718093277.722565,,,,-0.689814627,-0.690122962,71310.000000000,1718093277.722564697
1718093277.723572,,,,-0.662336290,-0.662524462,71311.000000000,1718093277.723571777
1718093277.724579,,,,-0.632453859,-0.633747876,71312.000000000,1718093277.724578857
1718093277.725586,,,,-0.643488467,-0.643075645,71313.000000000,1718093277.725585938
1718093277.726593,,,,-0.645628095,-0.644566119,71314.000000000,1718093277.726593018
1718093277.727600,,,,-0.671087027,-0.671587706,71315.000000000,1718093277.727600098
1718093277.728607,,,,-0.774365187,-0.774505258,71316.000000000,1718093277.728607178
1718093277.729614,,,,-0.829802692,-0.830471694,71317.000000000,1718093277.729614258
1718093277.730621,,,,-0.846030056,-0.846434593,71318.000000000,1718093277.730621338
1718093277.731628,,,,-0.877475083,-0.877182424,71319.000000000,1718093277.731628418
1718093277.732635,,,,-0.858555198,-0.861508012,71320.000000000,1718093277.732635498
1718093277.733643,,,,-0.877931833,-0.881629944,71321.000000000,1718093277.733642578
1718093277.734650,,,,-0.894976616,-0.897616923,71322.000000000,1718093277.734649658
1718093277.735657,,,,-0.889495373,-0.889515221,71323.000000000,1718093277.735656738
1718093277.736664,,,,-0.902693629,-0.903795302,71324.000000000,1718093277.736663818
1718093277.737671,,,,-0.907766163,-0.908050478,71325.000000000,1718093277.737670898
1718093277.738678,,,,-0.899736643,-0.900597930,71326.000000000,1718093277.738677979
1718093277.739685,,,,-0.861896813,-0.862998545,71327.000000000,1718093277.739685059
1718093277.740692,,,,-0.858026266,-0.858022153,71328.000000000,1718093277.740692139
1718093277.741699,,,,-0.797107577,-0.797512054,71329.000000000,1718093277.741699219
1718093277.742706,,,,-0.742343187,-0.740560055,71330.000000000,1718093277.742706299
1718093277.743713,,,,-0.729938269,-0.726400137,71331.000000000,1718093277.743713379
1718093277.744720,,,,-0.690487742,-0.687262177,71332.000000000,1718093277.744720459
1718093277.745728,,,,-0.647671521,-0.646248996,71333.000000000,1718093277.745727539
1718093277.746735,,,,-0.514607131,-0.515780985,71334.000000000,1718093277.746734619
1718093277.747742,,,,-0.450034231,-0.450823426,71335.000000000,1718093277.747741699
1718093277.748749,,,,-0.450539082,-0.449861795,71336.000000000,1718093277.748748779
1718093277.749756,,,,-0.481623501,-0.482797325,71337.000000000,1718093277.749755859
1718093277.750763,,,,-0.624736845,-0.624756753,71338.000000000,1718093277.750762939
1718093277.751770,,,,-0.740371883,-0.739430130,71339.000000000,1718093277.751770020
1718093277.752777,,,,-0.822638631,-0.822057486,71340.000000000,1718093277.752777100
1718093277.753784,,,,-0.920315325,-0.921945930,71341.000000000,1718093277.753784180
1718093277.754791,,,,-0.975464344,-0.978946030,71342.000000000,1718093277.754791260
1718093277.755798,,,,-0.996836364,-0.998947799,71343.000000000,1718093277.755798340
1718093277.756805,,,,-1.020131707,-1.018276334,71344.000000000,1718093277.756805420
1718093277.757813,,,,-1.060688019,-1.059169292,71345.000000000,1718093277.757812500
1718093277.758820,,,,-1.068693519,-1.070348263,71346.000000000,1718093277.758819580
1718093277.759827,,,,-1.034027100,-1.036691427,71347.000000000,1718093277.759826660
1718093277.760834,,,,-0.995658398,-0.995942712,71348.000000000,1718093277.760833740
1718093277.761841,,,,-0.954669297,-0.954809368,71349.000000000,1718093277.761840820
1718093277.762848,,,,-0.933152974,-0.934471071,71350.000000000,1718093277.762847900
1718093277.763855,,,,-0.986210465,-0.987985313,71351.000000000,1718093277.763854980
1718093277.764862,,,,-1.061505437,-1.062198400,71352.000000000,1718093277.764862061
1718093277.765869,,,,-1.105788112,-1.105952263,71353.000000000,1718093277.765869141
1718093277.766876,,,,-1.060135126,-1.059409738,71354.000000000,1718093277.766876221
1718093277.767883,,,,-1.010323167,-1.007458091,71355.000000000,1718093277.767883301
1718093277.768890,,,,-0.946134865,-0.944856584,71356.000000000,1718093277.768890381
1718093277.769897,,,,-0.875912428,-0.875018775,71357.000000000,1718093277.769897461
1718093277.770905,,,,-0.826725483,-0.826480925,71358.000000000,1718093277.770904541
1718093277.771912,,,,-0.769220531,-0.768999994,71359.000000000,1718093277.771911621
1718093277.772919,,,,-0.726187944,-0.723395109,71360.000000000,1718093277.772918701
1718093277.773926,,,,-0.694214046,-0.692935705,71361.000000000,1718093277.773925781
1718093277.774933,,,,-0.648585081,-0.650095463,71362.000000000,1718093277.774932861
1718093277.775940,,,,-0.649378419,-0.653821766,71363.000000000,1718093277.775939941
1718093277.776947,,,,-0.727269769,-0.730054319,71364.000000000,1718093277.776947021
1718093277.777954,,,,-0.827062070,-0.826577127,71365.000000000,1718093277.777954102
1718093277.778961,,,,-0.830043077,-0.829221547,71366.000000000,1718093277.778961182
1718093277.779968,,,,-0.813527226,-0.814076006,71367.000000000,1718093277.779968262
1718093277.780975,,,,-0.820907712,-0.820735276,71368.000000000,1718093277.780975342
1718093277.781982,,,,-0.755252957,-0.755248785,71369.000000000,1718093277.781982422
1718093277.782990,,,,-0.729241073,-0.727385819,71370.000000000,1718093277.782989502
1718093277.783997,,,,-0.754147112,-0.756667197,71371.000000000,1718093277.783996582
1718093277.785004,,,,-0.763859510,-0.765826643,71372.000000000,1718093277.785003662
1718093277.786011,,,,-0.765470207,-0.766427636,71373.000000000,1718093277.786010742
1718093277.787018,,,,-0.741549850,-0.741257191,71374.000000000,1718093277.787017822
1718093277.788025,,,,-0.701233864,-0.702407718,71375.000000000,1718093277.788024902
1718093277.788383,180.967483521,19471.000000000,1718093277.788382769,,,,
1718093277.789032,,,,-0.672697723,-0.672429144,71376.000000000,1718093277.789031982
1718093277.790039,,,,-0.678948283,-0.676948786,71377.000000000,1718093277.790039063
1718093277.791046,,,,-0.693877459,-0.694161773,71378.000000000,1718093277.791046143
1718093277.792053,,,,-0.640387237,-0.642041862,71379.000000000,1718093277.792053223
1718093277.793060,,,,-0.596849859,-0.599754572,71380.000000000,1718093277.793060303
1718093277.793383,182.612487793,19472.000000000,1718093277.793382883,,,,
1718093277.794067,,,,-0.623126149,-0.627401173,71381.000000000,1718093277.794067383
1718093277.795074,,,,-0.669187844,-0.675169766,71382.000000000,1718093277.795074463
1718093277.796082,,,,-0.716066897,-0.717625380,71383.000000000,1718093277.796081543
1718093277.797089,,,,-0.663129628,-0.660841584,71384.000000000,1718093277.797088623
1718093277.798096,,,,-0.636757135,-0.638315618,71385.000000000,1718093277.798095703
1718093277.798383,184.207778931,19473.000000000,1718093277.798382759,,,,
1718093277.799103,,,,-0.660220683,-0.660312712,71386.000000000,1718093277.799102783
1718093277.800110,,,,-0.694791019,-0.692959785,71387.000000000,1718093277.800109863
1718093277.801117,,,,-0.698613465,-0.694618583,71388.000000000,1718093277.801116943
1718093277.802124,,,,-0.713542640,-0.712600887,71389.000000000,1718093277.802124023
1718093277.803131,,,,-0.791890740,-0.792896271,71390.000000000,1718093277.803131104
1718093277.803383,185.704635620,19474.000000000,1718093277.803382874,,,,
1718093277.804138,,,,-0.910554886,-0.912257612,71391.000000000,1718093277.804138184
1718093277.805145,,,,-1.016116858,-1.018228292,71392.000000000,1718093277.805145264
1718093277.806152,,,,-1.082036018,-1.085782290,71393.000000000,1718093277.806152344
1718093277.807159,,,,-1.158052325,-1.157062411,71394.000000000,1718093277.807159424
1718093277.808167,,,,-1.221663594,-1.221779585,71395.000000000,1718093277.808166504
1718093277.808383,187.168228149,19475.000000000,1718093277.808382750,,,,
1718093277.809174,,,,-1.236256123,-1.236588597,71396.000000000,1718093277.809173584
1718093277.810181,,,,-1.202551365,-1.203701138,71397.000000000,1718093277.810180664
1718093277.811188,,,,-1.119371057,-1.122516155,71398.000000000,1718093277.811187744
1718093277.812195,,,,-1.020588398,-1.023853779,71399.000000000,1718093277.812194824
1718093277.813202,,,,-0.926782250,-0.929470599,71400.000000000,1718093277.813201904
1718093277.813383,188.614868164,19476.000000000,1718093277.813382864,,,,
1718093277.814209,,,,-0.877523184,-0.879057586,71401.000000000,1718093277.814208984
1718093277.815216,,,,-0.853146076,-0.853286147,71402.000000000,1718093277.815216064
1718093277.816223,,,,-0.834105968,-0.835472107,71403.000000000,1718093277.816223145
1718093277.817230,,,,-0.820378780,-0.819004297,71404.000000000,1718093277.817230225
1718093277.818237,,,,-0.754002869,-0.754335284,71405.000000000,1718093277.818237305
1718093277.818383,190.093353271,19477.000000000,1718093277.818382740,,,,
1718093277.819244,,,,-0.699406803,-0.701013327,71406.000000000,1718093277.819244385
1718093277.820251,,,,-0.655845344,-0.656490266,71407.000000000,1718093277.820251465
1718093277.821259,,,,-0.593171656,-0.592181802,71408.000000000,1718093277.821258545
1718093277.822266,,,,-0.526483178,-0.527320445,71409.000000000,1718093277.822265625
1718093277.823273,,,,-0.496384412,-0.495731145,71410.000000000,1718093277.823272705
1718093277.823383,191.603622437,19478.000000000,1718093277.823382854,,,,
1718093277.824280,,,,-0.540835381,-0.541191816,71411.000000000,1718093277.824279785
1718093277.825287,,,,-0.630722940,-0.630526483,71412.000000000,1718093277.825286865
1718093277.826294,,,,-0.680751324,-0.678823948,71413.000000000,1718093277.826293945
1718093277.827301,,,,-0.758618653,-0.756715298,71414.000000000,1718093277.827301025
1718093277.828308,,,,-0.895144880,-0.896342754,71415.000000000,1718093277.828308105
1718093277.828383,193.015823364,19479.000000000,1718093277.828382730,,,,
1718093277.829315,,,,-0.983710229,-0.985076368,71416.000000000,1718093277.829315186
1718093277.830322,,,,-1.046407938,-1.047677994,71417.000000000,1718093277.830322266
1718093277.831329,,,,-1.071866870,-1.073257089,71418.000000000,1718093277.831329346
1718093277.832336,,,,-1.116077423,-1.116001248,71419.000000000,1718093277.832336426
1718093277.832506,195.951904297,19481.000000000,1718093277.832506418,,,,
1718093277.833344,,,,-1.131799936,-1.132853627,71420.000000000,1718093277.833343506
1718093277.833383,194.508514404,19480.000000000,1718093277.833382845,,,,
1718093277.834351,,,,-1.062515140,-1.062559009,71421.000000000,1718093277.834350586
1718093277.835358,,,,-0.997293174,-0.999548793,71422.000000000,1718093277.835357666
1718093277.836365,,,,-0.941999912,-0.944495976,71423.000000000,1718093277.836364746
1718093277.837372,,,,-0.901731968,-0.902328849,71424.000000000,1718093277.837371826
1718093277.837507,197.427093506,19482.000000000,1718093277.837506533,,,,
1718093277.838379,,,,-0.879350245,-0.879947126,71425.000000000,1718093277.838378906
1718093277.839386,,,,-0.856535792,-0.857204735,71426.000000000,1718093277.839385986
1718093277.840393,,,,-0.780303240,-0.780635595,71427.000000000,1718093277.840393066
1718093277.841400,,,,-0.594181359,-0.596052349,71428.000000000,1718093277.841400146
1718093277.842407,,,,-0.370988935,-0.370335668,71429.000000000,1718093277.842407227
1718093277.842506,198.820648193,19483.000000000,1718093277.842506409,,,,
1718093277.843414,,,,-0.275547981,-0.275063008,71430.000000000,1718093277.843414307
1718093277.844421,,,,-0.304540873,-0.306748450,71431.000000000,1718093277.844421387
1718093277.845428,,,,-0.354328841,-0.355430543,71432.000000000,1718093277.845428467
1718093277.846436,,,,-0.438422650,-0.437480897,71433.000000000,1718093277.846435547
1718093277.847443,,,,-0.542037368,-0.541263938,71434.000000000,1718093277.847442627
1718093277.848450,,,,-0.701233864,-0.698513150,71435.000000000,1718093277.848449707
1718093277.849457,,,,-0.926301420,-0.926225126,71436.000000000,1718093277.849456787
1718093277.850464,,,,-0.962386310,-0.963752449,71437.000000000,1718093277.850463867
1718093277.851471,,,,-0.922719419,-0.921945930,71438.000000000,1718093277.851470947
1718093277.852478,,,,-0.922647297,-0.921561301,71439.000000000,1718093277.852478027
1718093277.853485,,,,-0.911949217,-0.912257612,71440.000000000,1718093277.853485107
1718093277.854492,,,,-0.992797554,-0.994908988,71441.000000000,1718093277.854492188
1718093277.855499,,,,-1.118577719,-1.118116736,71442.000000000,1718093277.855499268
1718093277.856506,,,,-1.141368151,-1.140522599,71443.000000000,1718093277.856506348
1718093277.857513,,,,-1.121174097,-1.122395992,71444.000000000,1718093277.857513428
1718093277.858521,,,,-1.101797342,-1.103355885,71445.000000000,1718093277.858520508
1718093277.859528,,,,-1.074847937,-1.077199817,71446.000000000,1718093277.859527588
1718093277.860535,,,,-1.072299600,-1.074483156,71447.000000000,1718093277.860534668
1718093277.861542,,,,-1.046456099,-1.046788454,71448.000000000,1718093277.861541748
1718093277.862549,,,,-1.025059938,-1.023012400,71449.000000000,1718093277.862548828
1718093277.863556,,,,-1.002125263,-1.002577901,71450.000000000,1718093277.863555908
1718093277.864563,,,,-0.986114323,-0.986590981,71451.000000000,1718093277.864562988
1718093277.865570,,,,-0.987027824,-0.987023711,71452.000000000,1718093277.865570068
1718093277.866577,,,,-0.920579791,-0.922859490,71453.000000000,1718093277.866577148
1718093277.867584,,,,-0.814729273,-0.816215634,71454.000000000,1718093277.867584229
1718093277.869598,,,,-0.701955080,-0.700460434,71456.000000000,1718093277.869598389
1718093277.870605,,,,-0.748689890,-0.749334812,71457.000000000,1718093277.870605469
1718093277.871613,,,,-0.676207662,-0.676900685,71458.000000000,1718093277.871612549
1718093277.872620,,,,-0.619640291,-0.619275510,71459.000000000,1718093277.872619629
1718093277.873627,,,,-0.646253169,-0.644902706,71460.000000000,1718093277.873626709
1718093277.874634,,,,-0.665485561,-0.665769935,71461.000000000,1718093277.874633789
1718093277.875641,,,,-0.712580979,-0.712937474,71462.000000000,1718093277.875640869
1718093277.876648,,,,-0.777514517,-0.775707304,71463.000000000,1718093277.876647949
1718093277.877655,,,,-0.798646152,-0.796814919,71464.000000000,1718093277.877655029
1718093277.878662,,,,-0.828167915,-0.830279350,71465.000000000,1718093277.878662109
1718093277.879669,,,,-0.929667115,-0.930768788,71466.000000000,1718093277.879669189
1718093277.880676,,,,-0.983397722,-0.984259009,71467.000000000,1718093277.880676270
1718093277.881683,,,,-0.940341115,-0.938053071,71468.000000000,1718093277.881683350
1718093277.882506,208.285659790,19491.000000000,1718093277.882506371,,,,
1718093277.882690,,,,-0.884254515,-0.881653965,71469.000000000,1718093277.882690430
1718093277.883698,,,,-0.852929711,-0.853021681,71470.000000000,1718093277.883697510
1718093277.884705,,,,-0.763979673,-0.762268662,71471.000000000,1718093277.884704590
1718093277.885712,,,,-0.657287776,-0.657259583,71472.000000000,1718093277.885711670
1718093277.886719,,,,-0.572544873,-0.569968343,71473.000000000,1718093277.886718750
1718093277.887506,209.335861206,19492.000000000,1718093277.887506485,,,,
1718093277.887726,,,,-0.501505017,-0.499577641,71474.000000000,1718093277.887725830
1718093277.888733,,,,-0.496168047,-0.496428311,71475.000000000,1718093277.888732910
1718093277.889740,,,,-0.560043752,-0.559606850,71476.000000000,1718093277.889739990
1718093277.890747,,,,-0.650195777,-0.649254024,71477.000000000,1718093277.890747070
1718093277.891754,,,,-0.792611957,-0.793208838,71478.000000000,1718093277.891754150
1718093277.892506,210.466522217,19493.000000000,1718093277.892506361,,,,
1718093277.892761,,,,-0.912357926,-0.913531721,71479.000000000,1718093277.892761230
1718093277.893768,,,,-0.947817743,-0.947116375,71480.000000000,1718093277.893768311
1718093277.894775,,,,-1.028041005,-1.026209712,71481.000000000,1718093277.894775391
1718093277.895782,,,,-1.022535682,-1.023517251,71482.000000000,1718093277.895782471
1718093277.896790,,,,-0.942504764,-0.944856584,71483.000000000,1718093277.896789551
1718093277.897506,211.548431396,19494.000000000,1718093277.897506475,,,,
1718093277.897797,,,,-0.810425997,-0.812080622,71484.000000000,1718093277.897796631
1718093277.898804,,,,-0.667480946,-0.666947901,71485.000000000,1718093277.898803711
1718093277.899811,,,,-0.537758172,-0.537008762,71486.000000000,1718093277.899810791
1718093277.900818,,,,-0.410968363,-0.411757529,71487.000000000,1718093277.900817871
1718093277.901825,,,,-0.304612994,-0.303671241,71488.000000000,1718093277.901824951
1718093277.902506,212.759216309,19495.000000000,1718093277.902506351,,,,
1718093277.902832,,,,-0.308171004,-0.309440970,71489.000000000,1718093277.902832031
1718093277.903839,,,,-0.464867264,-0.467363298,71490.000000000,1718093277.903839111
1718093277.904846,,,,-0.626948595,-0.628194511,71491.000000000,1718093277.904846191
1718093277.905853,,,,-0.744050086,-0.743853569,71492.000000000,1718093277.905853271
1718093277.906860,,,,-0.834178090,-0.833068073,71493.000000000,1718093277.906860352
1718093277.907506,213.888931274,19496.000000000,1718093277.907506466,,,,
1718093277.907867,,,,-0.881201386,-0.879658639,71494.000000000,1718093277.907867432
1718093277.908875,,,,-0.916637123,-0.917209923,71495.000000000,1718093277.908874512
1718093277.909882,,,,-0.945750237,-0.942692935,71496.000000000,1718093277.909881592
1718093277.910889,,,,-1.080184937,-1.081815600,71497.000000000,1718093277.910888672
1718093277.911896,,,,-1.190699339,-1.190767288,71498.000000000,1718093277.911895752
1718093277.912506,214.953811646,19497.000000000,1718093277.912506342,,,,
1718093277.912903,,,,-1.240126729,-1.239569545,71499.000000000,1718093277.912902832
1718093277.913910,,,,-1.236496568,-1.237550139,71500.000000000,1718093277.913909912
1718093277.914917,,,,-1.164903879,-1.164202452,71501.000000000,1718093277.914916992
1718093277.915924,,,,-1.092469692,-1.090349913,71502.000000000,1718093277.915924072
1718093277.916931,,,,-1.105643868,-1.106529236,71503.000000000,1718093277.916931152
1718093277.917506,216.018447876,19498.000000000,1718093277.917506456,,,,
1718093277.917938,,,,-1.128506422,-1.129944682,71504.000000000,1718093277.917938232
1718093277.918945,,,,-1.088214517,-1.087801695,71505.000000000,1718093277.918945313
1718093277.919952,,,,-1.049653411,-1.048952103,71506.000000000,1718093277.919952393
1718093277.920959,,,,-1.025805235,-1.026161671,71507.000000000,1718093277.920959473
1718093277.921967,,,,-1.086074829,-1.086912155,71508.000000000,1718093277.921966553
1718093277.922506,216.986068726,19499.000000000,1718093277.922506332,,,,
1718093277.922974,,,,-1.025180221,-1.026209712,71509.000000000,1718093277.922973633
1718093277.923981,,,,-0.985032499,-0.986086130,71510.000000000,1718093277.923980713
1718093277.924988,,,,-0.925411940,-0.928100288,71511.000000000,1718093277.924987793
1718093277.925995,,,,-0.869589806,-0.869777977,71512.000000000,1718093277.925994873
1718093277.927002,,,,-0.844924212,-0.845905721,71513.000000000,1718093277.927001953
1718093277.927506,217.840621948,19500.000000000,1718093277.927506447,,,,
1718093277.928009,,,,-0.837014854,-0.836289465,71514.000000000,1718093277.928009033
1718093277.929016,,,,-0.808839321,-0.808113933,71515.000000000,1718093277.929016113
1718093277.930023,,,,-0.772345781,-0.774457216,71516.000000000,1718093277.930023193
1718093277.931030,,,,-0.777634740,-0.779024899,71517.000000000,1718093277.931030273
1718093277.932037,,,,-0.799319267,-0.800829649,71518.000000000,1718093277.932037354
1718093277.933044,,,,-0.797876835,-0.799146831,71519.000000000,1718093277.933044434
1718093277.934052,,,,-0.785784483,-0.785227358,71520.000000000,1718093277.934051514
1718093277.935059,,,,-0.737847626,-0.740079224,71521.000000000,1718093277.935058594
1718093277.936066,,,,-0.710705817,-0.710413218,71522.000000000,1718093277.936065674
1718093277.937073,,,,-0.709071100,-0.710701704,71523.000000000,1718093277.937072754
1718093277.938080,,,,-0.778740585,-0.777678609,71524.000000000,1718093277.938079834
1718093277.939087,,,,-0.883340955,-0.885115802,71525.000000000,1718093277.939086914
1718093277.940094,,,,-0.975704730,-0.976277530,71526.000000000,1718093277.940093994
1718093277.941101,,,,-0.997773945,-0.999140143,71527.000000000,1718093277.941101074
1718093277.942108,,,,-0.935869575,-0.936995327,71528.000000000,1718093277.942108154
1718093277.943115,,,,-0.873748779,-0.875259221,71529.000000000,1718093277.943115234
1718093277.944122,,,,-0.889928102,-0.890813410,71530.000000000,1718093277.944122314
1718093277.945129,,,,-0.902909994,-0.901319146,71531.000000000,1718093277.945129395
1718093277.946136,,,,-0.882619739,-0.881101072,71532.000000000,1718093277.946136475
1718093277.947144,,,,-0.860959232,-0.860498309,71533.000000000,1718093277.947143555
1718093277.948151,,,,-0.817830503,-0.815253973,71534.000000000,1718093277.948150635
1718093277.949158,,,,-0.764268160,-0.760153055,71535.000000000,1718093277.949157715
1718093277.950165,,,,-0.673154533,-0.672333002,71536.000000000,1718093277.950164795
1718093277.951172,,,,-0.562447786,-0.563934147,71537.000000000,1718093277.951171875
1718093277.952179,,,,-0.467487663,-0.468012393,71538.000000000,1718093277.952178955
1718093277.953186,,,,-0.395870894,-0.392332762,71539.000000000,1718093277.953186035
1718093277.954193,,,,-0.378922313,-0.377042979,71540.000000000,1718093277.954193115
1718093277.955200,,,,-0.349953443,-0.350261807,71541.000000000,1718093277.955200195
1718093277.956207,,,,-0.294636160,-0.294055045,71542.000000000,1718093277.956207275
1718093277.957214,,,,-0.342188358,-0.340837926,71543.000000000,1718093277.957214355
1718093277.958221,,,,-0.495206416,-0.493495375,71544.000000000,1718093277.958221436
1718093277.959229,,,,-0.592209995,-0.589417160,71545.000000000,1718093277.959228516
1718093277.960236,,,,-0.682530344,-0.684425354,71546.000000000,1718093277.960235596
1718093277.961243,,,,-0.734073222,-0.733660400,71547.000000000,1718093277.961242676
1718093277.962250,,,,-0.926565886,-0.924806774,71548.000000000,1718093277.962249756
1718093277.963257,,,,-0.994456351,-0.992504954,71549.000000000,1718093277.963256836
1718093277.964264,,,,-0.990874350,-0.991927981,71550.000000000,1718093277.964263916
1718093277.965271,,,,-1.008279681,-1.008059144,71551.000000000,1718093277.965270996
1718093277.966278,,,,-1.025492668,-1.024238467,71552.000000000,1718093277.966278076
1718093277.967285,,,,-1.103768706,-1.105014682,71553.000000000,1718093277.967285156
1718093277.968292,,,,-1.168894529,-1.169443369,71554.000000000,1718093277.968292236
1718093277.969299,,,,-1.114611030,-1.116674304,71555.000000000,1718093277.969299316
1718093277.970306,,,,-1.035830140,-1.035801888,71556.000000000,1718093277.970306396
1718093277.971313,,,,-0.929522872,-0.928436875,71557.000000000,1718093277.971313477
1718093277.972321,,,,-0.828817010,-0.829630256,71558.000000000,1718093277.972320557
1718093277.973328,,,,-0.684141040,-0.685675502,71559.000000000,1718093277.973327637
1718093277.974335,,,,-0.568602204,-0.569271147,71560.000000000,1718093277.974334717
1718093277.975342,,,,-0.576391339,-0.577324748,71561.000000000,1718093277.975341797
1718093277.976060,225.862564087,19511.000000000,1718093277.976059914,,,,
1718093277.976349,,,,-0.537157178,-0.537128985,71562.000000000,1718093277.976348877
1718093277.977356,,,,-0.444480866,-0.443707407,71563.000000000,1718093277.977355957
1718093277.978363,,,,-0.388875097,-0.390289336,71564.000000000,1718093277.978363037
1718093277.979370,,,,-0.462775737,-0.465295821,71565.000000000,1718093277.979370117
1718093277.980377,,,,-0.567856908,-0.566506505,71566.000000000,1718093277.980377197
1718093277.981060,226.425872803,19512.000000000,1718093277.981060028,,,,
1718093277.981384,,,,-0.650316000,-0.650888801,71567.000000000,1718093277.981384277
1718093277.982391,,,,-0.688516438,-0.688031435,71568.000000000,1718093277.982391357
1718093277.983398,,,,-0.739434302,-0.739862859,71569.000000000,1718093277.983398438
1718093277.984406,,,,-0.826917827,-0.828091681,71570.000000000,1718093277.984405518
1718093277.985413,,,,-0.874037266,-0.874465883,71571.000000000,1718093277.985412598
1718093277.986060,226.940826416,19513.000000000,1718093277.986059904,,,,
1718093277.986420,,,,-0.910699129,-0.910430491,71572.000000000,1718093277.986419678
1718093277.987427,,,,-0.991427243,-0.993057847,71573.000000000,1718093277.987426758
1718093277.988434,,,,-1.127929449,-1.128718615,71574.000000000,1718093277.988433838
1718093277.989441,,,,-1.238131285,-1.238559842,71575.000000000,1718093277.989440918
1718093277.990448,,,,-1.217817068,-1.218293667,71576.000000000,1718093277.990447998
1718093277.991060,227.391387939,19514.000000000,1718093277.991060019,,,,
1718093277.991455,,,,-1.175121069,-1.174491882,71577.000000000,1718093277.991455078
1718093277.992462,,,,-1.119130611,-1.118717790,71578.000000000,1718093277.992462158
1718093277.993469,,,,-1.023329020,-1.025224090,71579.000000000,1718093277.993469238
1718093277.994476,,,,-1.010828018,-1.012891293,71580.000000000,1718093277.994476318
1718093277.995483,,,,-1.067876220,-1.068112373,71581.000000000,1718093277.995483398
1718093277.996060,227.777557373,19515.000000000,1718093277.996059895,,,,
1718093277.996490,,,,-1.081843734,-1.080156803,71582.000000000,1718093277.996490479
1718093277.997498,,,,-1.073766112,-1.073978305,71583.000000000,1718093277.997497559
1718093277.998505,,,,-1.071193814,-1.070516467,71584.000000000,1718093277.998504639
1718093277.999512,,,,-1.028185248,-1.027604103,71585.000000000,1718093277.999511719
1718093278.000519,,,,-0.963997006,-0.964401543,71586.000000000,1718093278.000518799
1718093278.001060,228.276306152,19516.000000000,1718093278.001060009,,,,
1718093278.001526,,,,-0.927455366,-0.926465571,71587.000000000,1718093278.001525879
1718093278.002533,,,,-0.946759939,-0.947332740,71588.000000000,1718093278.002532959
1718093278.003540,,,,-0.981234074,-0.982095361,71589.000000000,1718093278.003540039
1718093278.004547,,,,-0.988566458,-0.990509570,71590.000000000,1718093278.004547119
1718093278.005554,,,,-0.946062744,-0.946779788,71591.000000000,1718093278.005554199
1718093278.006060,228.710662842,19517.000000000,1718093278.006059885,,,,
1718093278.006561,,,,-0.854203820,-0.855113208,71592.000000000,1718093278.006561279
1718093278.007568,,,,-0.835091591,-0.837659776,71593.000000000,1718093278.007568359
1718093278.008575,,,,-0.828095794,-0.827274263,71594.000000000,1718093278.008575439
1718093278.009583,,,,-0.695512235,-0.698056340,71595.000000000,1718093278.009582520
1718093278.010590,,,,-0.594926596,-0.594633937,71596.000000000,1718093278.010589600
1718093278.011060,229.209320068,19518.000000000,1718093278.011059999,,,,
1718093278.011597,,,,-0.462583393,-0.463204294,71597.000000000,1718093278.011596680
1718093278.012604,,,,-0.383297682,-0.383101195,71598.000000000,1718093278.012603760
1718093278.013611,,,,-0.309565336,-0.308190882,71599.000000000,1718093278.013610840
1718093278.014618,,,,-0.258094549,-0.256407529,71600.000000000,1718093278.014617920
1718093278.015625,,,,-0.261412144,-0.259436637,71601.000000000,1718093278.015625000
1718093278.016060,229.707946777,19519.000000000,1718093278.016059875,,,,
1718093278.016632,,,,-0.220831707,-0.222967148,71602.000000000,1718093278.016632080
1718093278.017639,,,,-0.214268625,-0.215250134,71603.000000000,1718093278.017639160
1718093278.018646,,,,-0.347501308,-0.349540591,71604.000000000,1718093278.018646240
1718093278.019653,,,,-0.586344123,-0.586123586,71605.000000000,1718093278.019653320
1718093278.020660,,,,-0.754026890,-0.754792035,71606.000000000,1718093278.020660400
1718093278.021060,230.190444946,19520.000000000,1718093278.021059990,,,,
1718093278.021667,,,,-0.945245385,-0.946900010,71607.000000000,1718093278.021667480
1718093278.022675,,,,-1.069318652,-1.067535400,71608.000000000,1718093278.022674561
1718093278.023682,,,,-1.070568681,-1.071189642,71609.000000000,1718093278.023681641
1718093278.024689,,,,-1.094489098,-1.094509006,71610.000000000,1718093278.024688721
1718093278.025696,,,,-1.066674113,-1.069194198,71611.000000000,1718093278.025695801
1718093278.026703,,,,-1.015708208,-1.014309645,71612.000000000,1718093278.026702881
1718093278.027710,,,,-0.913391650,-0.914084673,71613.000000000,1718093278.027709961
1718093278.028717,,,,-0.799607754,-0.801502824,71614.000000000,1718093278.028717041
1718093278.029724,,,,-0.747463822,-0.748661697,71615.000000000,1718093278.029724121
1718093278.030731,,,,-0.708494127,-0.708946705,71616.000000000,1718093278.030731201
1718093278.031738,,,,-0.704118729,-0.705172360,71617.000000000,1718093278.031738281
1718093278.032745,,,,-0.611370325,-0.611630619,71618.000000000,1718093278.032745361
1718093278.033752,,,,-0.562592030,-0.563429296,71619.000000000,1718093278.033752441
1718093278.034760,,,,-0.656398237,-0.657067239,71620.000000000,1718093278.034759521
1718093278.035767,,,,-0.828624725,-0.829510033,71621.000000000,1718093278.035766602
1718093278.036774,,,,-1.092085004,-1.094028115,71622.000000000,1718093278.036773682
1718093278.037781,,,,-1.256402135,-1.256253719,71623.000000000,1718093278.037780762
1718093278.038788,,,,-1.304170728,-1.304671407,71624.000000000,1718093278.038787842
1718093278.039795,,,,-1.285827756,-1.284741759,71625.000000000,1718093278.039794922
1718093278.040802,,,,-1.232770324,-1.231804490,71626.000000000,1718093278.040802002
1718093278.041809,,,,-1.206734419,-1.207523584,71627.000000000,1718093278.041809082
1718093278.042816,,,,-1.164687514,-1.163697600,71628.000000000,1718093278.042816162
1718093278.043823,,,,-1.137617826,-1.136916518,71629.000000000,1718093278.043823242
1718093278.044830,,,,-1.087517262,-1.085710168,71630.000000000,1718093278.044830322
1718093278.045837,,,,-1.024747491,-1.024478793,71631.000000000,1718093278.045837402
1718093278.046844,,,,-0.920123041,-0.921513200,71632.000000000,1718093278.046844482
1718093278.047852,,,,-0.771360159,-0.768038392,71633.000000000,1718093278.047851563
1718093278.048859,,,,-0.734433830,-0.731761217,71634.000000000,1718093278.048858643
1718093278.049866,,,,-0.642767251,-0.640671551,71635.000000000,1718093278.049865723
1718093278.050873,,,,-0.459914893,-0.456328690,71636.000000000,1718093278.050872803
1718093278.051880,,,,-0.263527691,-0.263475448,71637.000000000,1718093278.051879883
1718093278.052887,,,,-0.202080071,-0.202436522,71638.000000000,1718093278.052886963
1718093278.053894,,,,-0.290380985,-0.292227954,71639.000000000,1718093278.053894043
1718093278.054901,,,,-0.421762556,-0.423946083,71640.000000000,1718093278.054901123
1718093278.055908,,,,-0.495615095,-0.495274365,71641.000000000,1718093278.055908203
1718093278.056915,,,,-0.588002920,-0.587734282,71642.000000000,1718093278.056915283
1718093278.057922,,,,-0.758907139,-0.761835933,71643.000000000,1718093278.057922363
1718093278.058929,,,,-0.904592812,-0.906103194,71644.000000000,1718093278.058929443
1718093278.059937,,,,-1.049701571,-1.050634980,71645.000000000,1718093278.059936523
1718093278.060944,,,,-1.193343759,-1.193555951,71646.000000000,1718093278.060943604
1718093278.061951,,,,-1.304795742,-1.305825353,71647.000000000,1718093278.061950684
1718093278.062958,,,,-1.356579065,-1.357007623,71648.000000000,1718093278.062957764
1718093278.063965,,,,-1.314916849,-1.315585732,71649.000000000,1718093278.063964844
1718093278.064972,,,,-1.200724244,-1.199566126,71650.000000000,1718093278.064971924
1718093278.065979,,,,-1.086723924,-1.084820628,71651.000000000,1718093278.065979004
1718093278.066986,,,,-1.052466154,-1.051596522,71652.000000000,1718093278.066986084
1718093278.067993,,,,-1.031550884,-1.031330347,71653.000000000,1718093278.067993164
1718093278.069000,,,,-1.014385939,-1.013828874,71654.000000000,1718093278.069000244
1718093278.070007,,,,-0.988157749,-0.986062050,71655.000000000,1718093278.070007324
1718093278.071014,,,,-0.942072034,-0.939856112,71656.000000000,1718093278.071014404
1718093278.072021,,,,-0.873364151,-0.871821404,71657.000000000,1718093278.072021484
1718093278.073029,,,,-0.821268320,-0.817513824,71658.000000000,1718093278.073028564
1718093278.074036,,,,-0.784390092,-0.784602284,71659.000000000,1718093278.074035645
1718093278.075043,,,,-0.772225618,-0.772606075,71660.000000000,1718093278.075042725
1718093278.076050,,,,-0.773499727,-0.772966683,71661.000000000,1718093278.076049805
1718093278.077057,,,,-0.797684550,-0.792535663,71662.000000000,1718093278.077056885
1718093278.078064,,,,-0.832711577,-0.830928445,71663.000000000,1718093278.078063965
1718093278.079071,,,,-0.898630738,-0.897881329,71664.000000000,1718093278.079071045
1718093278.079937,233.470306396,19531.000000000,1718093278.079937458,,,,
1718093278.080078,,,,-0.957818568,-0.958102882,71665.000000000,1718093278.080078125
1718093278.081085,,,,-0.974767148,-0.975484192,71666.000000000,1718093278.081085205
1718093278.082092,,,,-0.959068716,-0.957213402,71667.000000000,1718093278.082092285
1718093278.083099,,,,-0.943514466,-0.942524612,71668.000000000,1718093278.083099365
1718093278.084106,,,,-0.942721128,-0.942981422,71669.000000000,1718093278.084106445
1718093278.084938,233.261352539,19532.000000000,1718093278.084937572,,,,
1718093278.085114,,,,-0.854901016,-0.856315255,71670.000000000,1718093278.085113525
1718093278.086121,,,,-0.838216901,-0.838741601,71671.000000000,1718093278.086120605
1718093278.087128,,,,-0.869349360,-0.870090485,71672.000000000,1718093278.087127686
1718093278.088135,,,,-0.869108975,-0.871244431,71673.000000000,1718093278.088134766
1718093278.089142,,,,-0.905193865,-0.905430079,71674.000000000,1718093278.089141846
1718093278.089937,232.923782349,19533.000000000,1718093278.089937449,,,,
1718093278.090149,,,,-0.890649319,-0.891967356,71675.000000000,1718093278.090148926
1718093278.091156,,,,-0.827326536,-0.826553047,71676.000000000,1718093278.091156006
1718093278.092163,,,,-0.784245849,-0.785443723,71677.000000000,1718093278.092163086
1718093278.093170,,,,-0.712845445,-0.715004921,71678.000000000,1718093278.093170166
1718093278.094177,,,,-0.705993891,-0.705677211,71679.000000000,1718093278.094177246
1718093278.094938,232.666595459,19534.000000000,1718093278.094937563,,,,
1718093278.095184,,,,-0.741814315,-0.741233170,71680.000000000,1718093278.095184326
1718093278.096191,,,,-0.766984761,-0.768134534,71681.000000000,1718093278.096191406
1718093278.097198,,,,-0.868748367,-0.868720174,71682.000000000,1718093278.097198486
1718093278.098206,,,,-0.965751946,-0.964665949,71683.000000000,1718093278.098205566
1718093278.099213,,,,-0.991571486,-0.990269184,71684.000000000,1718093278.099212646
1718093278.099937,232.361145020,19535.000000000,1718093278.099937439,,,,
1718093278.100220,,,,-1.007197857,-1.005775332,71685.000000000,1718093278.100219727
1718093278.101227,,,,-0.974142134,-0.973729253,71686.000000000,1718093278.101226807
1718093278.102234,,,,-0.951303601,-0.951323450,71687.000000000,1718093278.102233887
1718093278.103241,,,,-0.886418164,-0.885812998,71688.000000000,1718093278.103240967
1718093278.104248,,,,-0.742535532,-0.741521657,71689.000000000,1718093278.104248047
1718093278.104938,232.216461182,19536.000000000,1718093278.104937553,,,,
1718093278.105255,,,,-0.650075614,-0.648556888,71690.000000000,1718093278.105255127
1718093278.106262,,,,-0.653489351,-0.657307625,71691.000000000,1718093278.106262207
1718093278.107269,,,,-0.645267487,-0.648244321,71692.000000000,1718093278.107269287
1718093278.108276,,,,-0.625818670,-0.626848280,71693.000000000,1718093278.108276367
1718093278.109283,,,,-0.593484163,-0.592734754,71694.000000000,1718093278.109283447
1718093278.109937,232.216461182,19537.000000000,1718093278.109937429,,,,
1718093278.110291,,,,-0.526146591,-0.525926054,71695.000000000,1718093278.110290527
1718093278.111298,,,,-0.476983696,-0.476691037,71696.000000000,1718093278.111297607
1718093278.112305,,,,-0.484484345,-0.485778362,71697.000000000,1718093278.112304688
1718093278.113312,,,,-0.550139070,-0.548908830,71698.000000000,1718093278.113311768
1718093278.114319,,,,-0.590839684,-0.589946032,71699.000000000,1718093278.114318848
1718093278.114938,232.248611450,19538.000000000,1718093278.114937544,,,,
1718093278.115326,,,,-0.537517786,-0.539484918,71700.000000000,1718093278.115325928
1718093278.116333,,,,-0.400198191,-0.401900917,71701.000000000,1718093278.116333008
1718093278.117340,,,,-0.396880597,-0.395482093,71702.000000000,1718093278.117340088
1718093278.118347,,,,-0.498259574,-0.496837020,71703.000000000,1718093278.118347168
1718093278.119354,,,,-0.637526453,-0.638724267,71704.000000000,1718093278.119354248
1718093278.119937,232.264678955,19539.000000000,1718093278.119937420,,,,
1718093278.120361,,,,-0.742583632,-0.741834164,71705.000000000,1718093278.120361328
1718093278.121368,,,,-0.799776077,-0.797488034,71706.000000000,1718093278.121368408
1718093278.122375,,,,-0.696257472,-0.693200171,71707.000000000,1718093278.122375488
1718093278.123383,,,,-0.573338211,-0.572348356,71708.000000000,1718093278.123382568
1718093278.124390,,,,-0.567039549,-0.567347944,71709.000000000,1718093278.124389648
1718093278.124938,232.489746094,19540.000000000,1718093278.124937534,,,,
1718093278.125397,,,,-0.568145394,-0.569535613,71710.000000000,1718093278.125396729
1718093278.126404,,,,-0.663057506,-0.660024226,71711.000000000,1718093278.126403809
1718093278.127411,,,,-0.837014854,-0.837154925,71712.000000000,1718093278.127410889
1718093278.128418,,,,-1.039556384,-1.041379333,71713.000000000,1718093278.128417969
1718093278.129425,,,,-1.099946260,-1.097754478,71714.000000000,1718093278.129425049
1718093278.130432,,,,-1.081074476,-1.081190467,71715.000000000,1718093278.130432129
1718093278.131439,,,,-1.108648896,-1.109774709,71716.000000000,1718093278.131439209
1718093278.132446,,,,-1.093311071,-1.096937060,71717.000000000,1718093278.132446289
1718093278.133453,,,,-1.035036802,-1.037917495,71718.000000000,1718093278.133453369
1718093278.134460,,,,-1.103095531,-1.104606032,71719.000000000,1718093278.134460449
1718093278.135468,,,,-1.084488153,-1.086912155,71720.000000000,1718093278.135467529
1718093278.135711,232.698745728,19541.000000000,1718093278.135711193,,,,
1718093278.136475,,,,-0.967386723,-0.966757476,71721.000000000,1718093278.136474609
1718093278.137482,,,,-0.957457960,-0.956492186,71722.000000000,1718093278.137481689
1718093278.138489,,,,-1.058788896,-1.059073210,71723.000000000,1718093278.138488770
1718093278.139496,,,,-1.054149032,-1.054313183,71724.000000000,1718093278.139495850
1718093278.140503,,,,-0.960727513,-0.963824570,71725.000000000,1718093278.140502930
1718093278.140711,232.875564575,19542.000000000,1718093278.140711308,,,,
1718093278.141510,,,,-0.889038563,-0.887808383,71726.000000000,1718093278.141510010
1718093278.142517,,,,-0.849996746,-0.849944532,71727.000000000,1718093278.142517090
1718093278.143524,,,,-0.907694042,-0.907665849,71728.000000000,1718093278.143524170
1718093278.144531,,,,-0.908944190,-0.907882214,71729.000000000,1718093278.144531250
1718093278.145538,,,,-0.902260900,-0.903170288,71730.000000000,1718093278.145538330
1718093278.145711,233.245285034,19543.000000000,1718093278.145711184,,,,
1718093278.146545,,,,-0.870743752,-0.873696566,71731.000000000,1718093278.146545410
1718093278.147552,,,,-0.824682057,-0.823932648,71732.000000000,1718093278.147552490
1718093278.148560,,,,-0.808550835,-0.805661798,71733.000000000,1718093278.148559570
1718093278.149567,,,,-0.834538698,-0.833669066,71734.000000000,1718093278.149566650
1718093278.150574,,,,-0.871609211,-0.872350276,71735.000000000,1718093278.150573730
1718093278.150711,233.454223633,19544.000000000,1718093278.150711298,,,,
1718093278.151581,,,,-0.862906516,-0.865570843,71736.000000000,1718093278.151580811
1718093278.152588,,,,-0.877883792,-0.879586518,71737.000000000,1718093278.152587891
1718093278.153595,,,,-0.944403946,-0.943894923,71738.000000000,1718093278.153594971
1718093278.154602,,,,-0.995562255,-0.994788766,71739.000000000,1718093278.154602051
1718093278.155609,,,,-0.993278384,-0.992745340,71740.000000000,1718093278.155609131
1718093278.156616,,,,-1.009986520,-1.011352658,71741.000000000,1718093278.156616211
1718093278.157623,,,,-1.053307652,-1.055659413,71742.000000000,1718093278.157623291
1718093278.158630,,,,-1.057947397,-1.062030196,71743.000000000,1718093278.158630371
1718093278.159637,,,,-1.023016572,-1.023396969,71744.000000000,1718093278.159637451
1718093278.160645,,,,-0.923007905,-0.925696254,71745.000000000,1718093278.160644531
1718093278.161652,,,,-0.822302043,-0.825855911,71746.000000000,1718093278.161651611
1718093278.162659,,,,-0.720177829,-0.720630407,71747.000000000,1718093278.162658691
1718093278.163666,,,,-0.679356992,-0.680987597,71748.000000000,1718093278.163665771
1718093278.164673,,,,-0.735948384,-0.735631704,71749.000000000,1718093278.164672852
1718093278.165680,,,,-0.758738875,-0.756450832,71750.000000000,1718093278.165679932
1718093278.166687,,,,-0.699382722,-0.697695732,71751.000000000,1718093278.166687012
1718093278.167694,,,,-0.662095845,-0.664880395,71752.000000000,1718093278.167694092
1718093278.168701,,,,-0.671832263,-0.672597408,71753.000000000,1718093278.168701172
1718093278.169708,,,,-0.707292080,-0.708562076,71754.000000000,1718093278.169708252
1718093278.170715,,,,-0.772826612,-0.774312973,71755.000000000,1718093278.170715332
1718093278.171722,,,,-0.781024456,-0.781933784,71756.000000000,1718093278.171722412
1718093278.172729,,,,-0.868724346,-0.869249046,71757.000000000,1718093278.172729492
1718093278.173737,,,,-1.007558465,-1.010006428,71758.000000000,1718093278.173736572
1718093278.174744,,,,-1.058163762,-1.058279872,71759.000000000,1718093278.174743652
1718093278.175751,,,,-1.080473423,-1.081238627,71760.000000000,1718093278.175750732
1718093278.176758,,,,-1.121510625,-1.123357654,71761.000000000,1718093278.176757813
1718093278.177765,,,,-1.132569313,-1.132204533,71762.000000000,1718093278.177764893
1718093278.178772,,,,-1.072948694,-1.072704196,71763.000000000,1718093278.178771973
1718093278.179779,,,,-1.016165018,-1.018156171,71764.000000000,1718093278.179779053
1718093278.180786,,,,-0.967170358,-0.968608618,71765.000000000,1718093278.180786133
1718093278.181793,,,,-0.954957783,-0.958848178,71766.000000000,1718093278.181793213
1718093278.182800,,,,-0.930556595,-0.932956517,71767.000000000,1718093278.182800293
1718093278.183807,,,,-0.847111881,-0.846218228,71768.000000000,1718093278.183807373
1718093278.184814,,,,-0.735852242,-0.735030711,71769.000000000,1718093278.184814453
1718093278.185711,234.482849121,19551.000000000,1718093278.185711145,,,,
1718093278.185822,,,,-0.703878343,-0.704186678,71770.000000000,1718093278.185821533
1718093278.186829,,,,-0.658634007,-0.659711719,71771.000000000,1718093278.186828613
1718093278.187836,,,,-0.588243306,-0.589200795,71772.000000000,1718093278.187835693
1718093278.188843,,,,-0.545859814,-0.546504796,71773.000000000,1718093278.188842773
1718093278.189850,,,,-0.568890691,-0.569271147,71774.000000000,1718093278.189849854
1718093278.190711,234.531051636,19552.000000000,1718093278.190711260,,,,
1718093278.190857,,,,-0.572448671,-0.572204113,71775.000000000,1718093278.190856934
1718093278.191864,,,,-0.630747020,-0.631488085,71776.000000000,1718093278.191864014
1718093278.192871,,,,-0.650796831,-0.651393652,71777.000000000,1718093278.192871094
1718093278.193878,,,,-0.740011275,-0.739886880,71778.000000000,1718093278.193878174
1718093278.194885,,,,-0.788332760,-0.787030399,71779.000000000,1718093278.194885254
1718093278.195711,234.627502441,19553.000000000,1718093278.195711136,,,,
1718093278.195892,,,,-0.805738091,-0.805806041,71780.000000000,1718093278.195892334
1718093278.196899,,,,-0.762753606,-0.761162758,71781.000000000,1718093278.196899414
1718093278.197906,,,,-0.841654658,-0.841169715,71782.000000000,1718093278.197906494
1718093278.198914,,,,-0.903991818,-0.905165613,71783.000000000,1718093278.198913574
1718093278.199921,,,,-0.887187481,-0.885812998,71784.000000000,1718093278.199920654
1718093278.200711,234.756057739,19554.000000000,1718093278.200711250,,,,
1718093278.200928,,,,-0.822109699,-0.821696877,71785.000000000,1718093278.200927734
1718093278.201935,,,,-0.793453395,-0.791670203,71786.000000000,1718093278.201934814
1718093278.202942,,,,-0.840476692,-0.837852120,71787.000000000,1718093278.202941895
1718093278.203949,,,,-0.799487591,-0.799026608,71788.000000000,1718093278.203948975
1718093278.204956,,,,-0.773692071,-0.771115541,71789.000000000,1718093278.204956055
1718093278.205711,234.852462769,19555.000000000,1718093278.205711126,,,,
1718093278.205963,,,,-0.756334782,-0.756474853,71790.000000000,1718093278.205963135
1718093278.206970,,,,-0.792900443,-0.792367399,71791.000000000,1718093278.206970215
1718093278.207977,,,,-0.819633543,-0.820783317,71792.000000000,1718093278.207977295
1718093278.208984,,,,-0.765902936,-0.768206656,71793.000000000,1718093278.208984375
1718093278.209991,,,,-0.671856344,-0.675866961,71794.000000000,1718093278.209991455
1718093278.210711,234.964950562,19556.000000000,1718093278.210711241,,,,
1718093278.210999,,,,-0.624352217,-0.625045240,71795.000000000,1718093278.210998535
1718093278.212006,,,,-0.594349623,-0.594994545,71796.000000000,1718093278.212005615
1718093278.213013,,,,-0.533791482,-0.535301864,71797.000000000,1718093278.213012695
1718093278.214020,,,,-0.545811772,-0.546985567,71798.000000000,1718093278.214019775
1718093278.215027,,,,-0.627934277,-0.627040565,71799.000000000,1718093278.215026855
1718093278.215711,235.029220581,19557.000000000,1718093278.215711117,,,,
1718093278.216034,,,,-0.804728389,-0.805589676,71800.000000000,1718093278.216033936
1718093278.217041,,,,-0.912381947,-0.914661646,71801.000000000,1718093278.217041016
1718093278.218048,,,,-1.024459004,-1.025248170,71802.000000000,1718093278.218048096
1718093278.219055,,,,-1.138411164,-1.140931249,71803.000000000,1718093278.219055176
1718093278.220062,,,,-1.238035202,-1.238006949,71804.000000000,1718093278.220062256
1718093278.220711,235.189941406,19558.000000000,1718093278.220711231,,,,
1718093278.221069,,,,-1.252699852,-1.252960205,71805.000000000,1718093278.221069336
1718093278.222076,,,,-1.188511610,-1.188411355,71806.000000000,1718093278.222076416
1718093278.223083,,,,-1.105187058,-1.100639343,71807.000000000,1718093278.223083496
1718093278.224091,,,,-1.055110693,-1.052558184,71808.000000000,1718093278.224090576
1718093278.225098,,,,-1.033666492,-1.031859279,71809.000000000,1718093278.225097656
1718093278.225711,235.254211426,19559.000000000,1718093278.225711107,,,,
1718093278.226105,,,,-1.033161640,-1.032652617,71810.000000000,1718093278.226104736
1718093278.227112,,,,-1.029844046,-1.031570792,71811.000000000,1718093278.227111816
1718093278.228119,,,,-1.053668261,-1.052101374,71812.000000000,1718093278.228118896
1718093278.229126,,,,-1.055327058,-1.054289103,71813.000000000,1718093278.229125977
1718093278.230072,235.848724365,19561.000000000,1718093278.230071783,,,,
1718093278.230133,,,,-1.030252695,-1.030753374,71814.000000000,1718093278.230133057
1718093278.230711,235.511291504,19560.000000000,1718093278.230711222,,,,
1718093278.231140,,,,-0.966521263,-0.968488395,71815.000000000,1718093278.231140137
1718093278.232147,,,,-0.906347811,-0.907713950,71816.000000000,1718093278.232147217
1718093278.233154,,,,-0.896274805,-0.896511018,71817.000000000,1718093278.233154297
1718093278.234161,,,,-0.776961565,-0.777510345,71818.000000000,1718093278.234161377
1718093278.235072,236.089752197,19562.000000000,1718093278.235071898,,,,
1718093278.235168,,,,-0.546941638,-0.545687377,71819.000000000,1718093278.235168457
1718093278.236176,,,,-0.279971451,-0.283549309,71820.000000000,1718093278.236175537
1718093278.237183,,,,-0.064832620,-0.067593120,71821.000000000,1718093278.237182617
1718093278.238190,,,,-0.047571506,-0.045860466,71822.000000000,1718093278.238189697
1718093278.239197,,,,-0.049687076,-0.048913617,71823.000000000,1718093278.239196777
1718093278.240072,236.411056519,19563.000000000,1718093278.240071774,,,,
1718093278.240204,,,,0.016953310,0.015178472,71824.000000000,1718093278.240203857
1718093278.241211,,,,-0.003625395,-0.004847300,71825.000000000,1718093278.241210938
1718093278.242218,,,,-0.239030391,-0.240588859,71826.000000000,1718093278.242218018
1718093278.243225,,,,-0.630170047,-0.631992936,71827.000000000,1718093278.243225098
1718093278.245072,236.652053833,19564.000000000,1718093278.245071888,,,,
1718093278.249268,,,,-1.475267172,-1.475239038,71833.000000000,1718093278.249267578
1718093278.250072,236.941207886,19565.000000000,1718093278.250071764,,,,
1718093278.250275,,,,-1.339798808,-1.339650393,71834.000000000,1718093278.250274658
1718093278.251282,,,,-1.239886284,-1.241084099,71835.000000000,1718093278.251281738
1718093278.252289,,,,-1.197719216,-1.196200490,71836.000000000,1718093278.252288818
1718093278.253296,,,,-1.240198851,-1.238054991,71837.000000000,1718093278.253295898
1718093278.254303,,,,-1.241328716,-1.241228342,71838.000000000,1718093278.254302979
1718093278.255072,237.294631958,19566.000000000,1718093278.255071878,,,,
1718093278.255310,,,,-1.187838554,-1.187786222,71839.000000000,1718093278.255310059
1718093278.256317,,,,-1.123554111,-1.122924924,71840.000000000,1718093278.256317139
1718093278.257324,,,,-1.094489098,-1.095446587,71841.000000000,1718093278.257324219
1718093278.258331,,,,-1.107903719,-1.106649399,71842.000000000,1718093278.258331299
1718093278.259338,,,,-1.089584827,-1.086936235,71843.000000000,1718093278.259338379
1718093278.260072,237.631973267,19567.000000000,1718093278.260071754,,,,
1718093278.260345,,,,-0.951616108,-0.951275408,71844.000000000,1718093278.260345459
1718093278.261353,,,,-0.735467613,-0.734982610,71845.000000000,1718093278.261352539
1718093278.262360,,,,-0.532036543,-0.529772580,71846.000000000,1718093278.262359619
1718093278.263367,,,,-0.437917799,-0.437216461,71847.000000000,1718093278.263366699
1718093278.264374,,,,-0.527901530,-0.527007878,71848.000000000,1718093278.264373779
1718093278.265072,237.888961792,19568.000000000,1718093278.265071869,,,,
1718093278.265381,,,,-0.612548292,-0.613385558,71849.000000000,1718093278.265380859
1718093278.266388,,,,-0.661999702,-0.664279401,71850.000000000,1718093278.266387939
1718093278.267395,,,,-0.742030680,-0.743901670,71851.000000000,1718093278.267395020
1718093278.268402,,,,-0.868075252,-0.869585633,71852.000000000,1718093278.268402100
1718093278.269409,,,,-1.062394977,-1.065035224,71853.000000000,1718093278.269409180
1718093278.270072,238.162033081,19569.000000000,1718093278.270071745,,,,
1718093278.270416,,,,-1.192021608,-1.192642450,71854.000000000,1718093278.270416260
1718093278.271423,,,,-1.161201596,-1.162110925,71855.000000000,1718093278.271423340
1718093278.272430,,,,-1.013280153,-1.011785388,71856.000000000,1718093278.272430420
1718093278.273438,,,,-0.835452199,-0.833957553,71857.000000000,1718093278.273437500
1718093278.274445,,,,-0.705176532,-0.703345299,71858.000000000,1718093278.274444580
1718093278.275072,238.467193604,19570.000000000,1718093278.275071859,,,,
1718093278.275452,,,,-0.656710804,-0.656177759,71859.000000000,1718093278.275451660
1718093278.276459,,,,-0.651253581,-0.650095463,71860.000000000,1718093278.276458740
1718093278.277466,,,,-0.678563654,-0.679376841,71861.000000000,1718093278.277465820
1718093278.278473,,,,-0.740612268,-0.741858244,71862.000000000,1718093278.278472900
1718093278.279480,,,,-0.773379564,-0.775587082,71863.000000000,1718093278.279479980
1718093278.280072,238.884765625,19571.000000000,1718093278.280071735,,,,
1718093278.280487,,,,-0.779654145,-0.780515432,71864.000000000,1718093278.280487061
1718093278.281494,,,,-0.849443793,-0.851026356,71865.000000000,1718093278.281494141
1718093278.282501,,,,-1.044989586,-1.045321941,71866.000000000,1718093278.282501221
1718093278.283508,,,,-1.255728960,-1.256061435,71867.000000000,1718093278.283508301
1718093278.284515,,,,-1.253084540,-1.253537178,71868.000000000,1718093278.284515381
1718093278.285072,239.350509644,19572.000000000,1718093278.285071850,,,,
1718093278.285522,,,,-1.184689164,-1.182785869,71869.000000000,1718093278.285522461
1718093278.286530,,,,-1.148051381,-1.147398114,71870.000000000,1718093278.286529541
1718093278.287537,,,,-1.117135286,-1.118285060,71871.000000000,1718093278.287536621
1718093278.288544,,,,-1.028305411,-1.029094577,71872.000000000,1718093278.288543701
1718093278.289551,,,,-0.943057716,-0.943005443,71873.000000000,1718093278.289550781
1718093278.290072,239.719863892,19573.000000000,1718093278.290071726,,,,
1718093278.290558,,,,-0.914882183,-0.916753173,71874.000000000,1718093278.290557861
1718093278.291565,,,,-0.934907973,-0.935889423,71875.000000000,1718093278.291564941
1718093278.292572,,,,-0.906107366,-0.909396768,71876.000000000,1718093278.292572021
1718093278.293579,,,,-0.846631050,-0.845400870,71877.000000000,1718093278.293579102
1718093278.294586,,,,-0.720826924,-0.719284177,71878.000000000,1718093278.294586182
1718093278.295072,240.169494629,19574.000000000,1718093278.295071840,,,,
1718093278.295593,,,,-0.558288813,-0.554798782,71879.000000000,1718093278.295593262
1718093278.296600,,,,-0.373489141,-0.372499317,71880.000000000,1718093278.296600342
1718093278.297607,,,,-0.151811302,-0.151254207,71881.000000000,1718093278.297607422
1718093278.298615,,,,-0.017833356,-0.017757071,71882.000000000,1718093278.298614502
1718093278.299622,,,,0.058615569,0.059148625,71883.000000000,1718093278.299621582
1718093278.300072,240.619079590,19575.000000000,1718093278.300071716,,,,
1718093278.300629,,,,0.011976917,0.014433215,71884.000000000,1718093278.300628662
1718093278.301636,,,,-0.175010428,-0.174429297,71885.000000000,1718093278.301635742
1718093278.302643,,,,-0.457342565,-0.457338393,71886.000000000,1718093278.302642822
1718093278.303650,,,,-0.666663587,-0.668197989,71887.000000000,1718093278.303649902
1718093278.304657,,,,-0.930436432,-0.932018936,71888.000000000,1718093278.304656982
1718093278.305072,241.004409790,19576.000000000,1718093278.305071831,,,,
1718093278.305664,,,,-1.130573869,-1.128814816,71889.000000000,1718093278.305664063
1718093278.306671,,,,-1.241953731,-1.241564989,71890.000000000,1718093278.306671143
1718093278.307678,,,,-1.366748214,-1.366503596,71891.000000000,1718093278.307678223
1718093278.308685,,,,-1.454231739,-1.452689052,71892.000000000,1718093278.308685303
1718093278.309692,,,,-1.419781685,-1.420114040,71893.000000000,1718093278.309692383
1718093278.310072,241.325515747,19577.000000000,1718093278.310071707,,,,
1718093278.310699,,,,-1.343284607,-1.343857408,71894.000000000,1718093278.310699463
1718093278.311707,,,,-1.261186242,-1.262191772,71895.000000000,1718093278.311706543
1718093278.312714,,,,-1.217408419,-1.216658950,71896.000000000,1718093278.312713623
1718093278.313721,,,,-1.200555921,-1.198917031,71897.000000000,1718093278.313720703
1718093278.314728,,,,-1.100234747,-1.101216316,71898.000000000,1718093278.314727783
1718093278.315072,241.598464966,19578.000000000,1718093278.315071821,,,,
1718093278.315735,,,,-1.057226181,-1.058664441,71899.000000000,1718093278.315734863
1718093278.316742,,,,-1.061192870,-1.061092615,71900.000000000,1718093278.316741943
1718093278.317749,,,,-1.072612166,-1.072127223,71901.000000000,1718093278.317749023
1718093278.318756,,,,-1.081459045,-1.083017588,71902.000000000,1718093278.318756104
1718093278.319763,,,,-1.090426207,-1.093234777,71903.000000000,1718093278.319763184
1718093278.320072,241.791107178,19579.000000000,1718093278.320071697,,,,
1718093278.320770,,,,-1.106629491,-1.110183358,71904.000000000,1718093278.320770264
1718093278.321777,,,,-1.118457437,-1.118573546,71905.000000000,1718093278.321777344
1718093278.322784,,,,-1.083670855,-1.080084682,71906.000000000,1718093278.322784424
1718093278.323792,,,,-1.036286950,-1.034455657,71907.000000000,1718093278.323791504
1718093278.324799,,,,-0.985585392,-0.985893786,71908.000000000,1718093278.324798584
1718093278.325072,241.903472900,19580.000000000,1718093278.325071812,,,,
1718093278.325806,,,,-0.897380650,-0.898915112,71909.000000000,1718093278.325805664
1718093278.326813,,,,-0.842231631,-0.841362059,71910.000000000,1718093278.326812744
1718093278.327820,,,,-0.793453395,-0.792920351,71911.000000000,1718093278.327819824
1718093278.328827,,,,-0.770278335,-0.769745231,71912.000000000,1718093278.328826904
1718093278.329834,,,,-0.773884416,-0.771235764,71913.000000000,1718093278.329833984
1718093278.330841,,,,-0.767705977,-0.767004609,71914.000000000,1718093278.330841064
1718093278.331848,,,,-0.748762012,-0.749094427,71915.000000000,1718093278.331848145
1718093278.332855,,,,-0.687963486,-0.688127637,71916.000000000,1718093278.332855225
1718093278.333862,,,,-0.611875176,-0.610091984,71917.000000000,1718093278.333862305
1718093278.334869,,,,-0.522564530,-0.521310270,71918.000000000,1718093278.334869385
1718093278.335876,,,,-0.449817866,-0.449356943,71919.000000000,1718093278.335876465
1718093278.336884,,,,-0.448086947,-0.447169244,71920.000000000,1718093278.336883545
1718093278.337891,,,,-0.536171496,-0.538667560,71921.000000000,1718093278.337890625
1718093278.338898,,,,-0.677145243,-0.680578887,71922.000000000,1718093278.338897705
1718093278.339905,,,,-0.753281653,-0.755296886,71923.000000000,1718093278.339904785
1718093278.340912,,,,-0.823167503,-0.823091209,71924.000000000,1718093278.340911865
1718093278.341919,,,,-0.939066947,-0.940697551,71925.000000000,1718093278.341918945
1718093278.342926,,,,-1.048235059,-1.048519373,71926.000000000,1718093278.342926025
1718093278.343933,,,,-1.107879639,-1.109366059,71927.000000000,1718093278.343933105
1718093278.344940,,,,-1.114274383,-1.114703059,71928.000000000,1718093278.344940186
1718093278.345947,,,,-1.103071570,-1.104413629,71929.000000000,1718093278.345947266
1718093278.346954,,,,-1.037488937,-1.039960980,71930.000000000,1718093278.346954346
1718093278.347961,,,,-0.962482452,-0.966853678,71931.000000000,1718093278.347961426
1718093278.348969,,,,-0.859877408,-0.863455296,71932.000000000,1718093278.348968506
1718093278.349976,,,,-0.723952174,-0.725005805,71933.000000000,1718093278.349975586
1718093278.350983,,,,-0.672313094,-0.672044516,71934.000000000,1718093278.350982666
1718093278.351990,,,,-0.636973500,-0.635454774,71935.000000000,1718093278.351989746
1718093278.352997,,,,-0.511121273,-0.510323763,71936.000000000,1718093278.352996826
1718093278.354004,,,,-0.296006471,-0.297420710,71937.000000000,1718093278.354003906
1718093278.355011,,,,-0.123587705,-0.122766167,71938.000000000,1718093278.355010986
1718093278.356018,,,,-0.032642331,-0.031652506,71939.000000000,1718093278.356018066
1718093278.357025,,,,-0.076925009,-0.077810347,71940.000000000,1718093278.357025146
1718093278.358032,,,,-0.249007210,-0.250229120,71941.000000000,1718093278.358032227
1718093278.359039,,,,-0.543215394,-0.539821506,71942.000000000,1718093278.359039307
1718093278.360046,,,,-0.898005724,-0.895501316,71943.000000000,1718093278.360046387
1718093278.361053,,,,-0.820306659,-0.819629371,71944.000000000,1718093278.361053467
1718093278.362061,,,,-0.719264269,-0.720366001,71945.000000000,1718093278.362060547
1718093278.363068,,,,-0.819152713,-0.819821715,71946.000000000,1718093278.363067627
1718093278.364075,,,,-0.916661203,-0.917666733,71947.000000000,1718093278.364074707
1718093278.365082,,,,-0.926445663,-0.924422085,71948.000000000,1718093278.365081787
1718093278.366089,,,,-0.881057143,-0.880956829,71949.000000000,1718093278.366088867
1718093278.367096,,,,-0.835548401,-0.837323248,71950.000000000,1718093278.367095947
1718093278.368103,,,,-0.880311847,-0.880355775,71951.000000000,1718093278.368103027
1718093278.369110,,,,-0.943610609,-0.946996152,71952.000000000,1718093278.369110107
1718093278.370117,,,,-1.138242841,-1.139032006,71953.000000000,1718093278.370117188
1718093278.371124,,,,-1.315349579,-1.316499352,71954.000000000,1718093278.371124268
1718093278.372131,,,,-1.397640347,-1.396770716,71955.000000000,1718093278.372131348
1718093278.373138,,,,-1.420767307,-1.420546770,71956.000000000,1718093278.373138428
1718093278.374146,,,,-1.390187740,-1.389414310,71957.000000000,1718093278.374145508
1718093278.375153,,,,-1.255151987,-1.252551436,71958.000000000,1718093278.375152588
1718093278.376160,,,,-1.135454178,-1.134127736,71959.000000000,1718093278.376159668
1718093278.377167,,,,-1.060904384,-1.060948372,71960.000000000,1718093278.377166748
1718093278.378174,,,,-1.010419250,-1.009934306,71961.000000000,1718093278.378173828
1718093278.379181,,,,-0.989239573,-0.988201678,71962.000000000,1718093278.379180908
1718093278.380188,,,,-0.914545596,-0.912497997,71963.000000000,1718093278.380187988
1718093278.381195,,,,-0.839442968,-0.840520620,71964.000000000,1718093278.381195068
1718093278.382202,,,,-0.880504191,-0.880716383,71965.000000000,1718093278.382202148
1718093278.383209,,,,-0.958179176,-0.957574010,71966.000000000,1718093278.383209229
1718093278.384045,245.129638672,19591.000000000,1718093278.384045124,,,,
1718093278.384216,,,,-1.000033736,-0.998755455,71967.000000000,1718093278.384216309
1718093278.385223,,,,-1.040614247,-1.039456129,71968.000000000,1718093278.385223389
1718093278.386230,,,,-1.068453193,-1.067535400,71969.000000000,1718093278.386230469
1718093278.387238,,,,-1.059678316,-1.059746265,71970.000000000,1718093278.387237549
1718093278.388245,,,,-1.033113599,-1.031330347,71971.000000000,1718093278.388244629
1718093278.389045,245.370330811,19592.000000000,1718093278.389045238,,,,
1718093278.389252,,,,-0.982267797,-0.981903017,71972.000000000,1718093278.389251709
1718093278.390259,,,,-0.912790656,-0.912353754,71973.000000000,1718093278.390258789
1718093278.391266,,,,-0.856030941,-0.855425775,71974.000000000,1718093278.391265869
1718093278.392273,,,,-0.795833409,-0.797608256,71975.000000000,1718093278.392272949
1718093278.393280,,,,-0.827807307,-0.830183208,71976.000000000,1718093278.393280029
1718093278.394045,245.498733521,19593.000000000,1718093278.394045115,,,,
1718093278.394287,,,,-0.928777635,-0.931177497,71977.000000000,1718093278.394287109
1718093278.395294,,,,-0.995033324,-0.995197475,71978.000000000,1718093278.395294189
1718093278.396301,,,,-1.001428127,-1.002962589,71979.000000000,1718093278.396301270
1718093278.397308,,,,-1.005707383,-1.009934306,71980.000000000,1718093278.397308350
1718093278.398315,,,,-1.031743288,-1.031763077,71981.000000000,1718093278.398315430
1718093278.399045,245.723373413,19594.000000000,1718093278.399045229,,,,
1718093278.399323,,,,-1.036936045,-1.039095521,71982.000000000,1718093278.399322510
1718093278.400330,,,,-1.013472438,-1.014093280,71983.000000000,1718093278.400329590
1718093278.401337,,,,-0.978301108,-0.978729665,71984.000000000,1718093278.401336670
1718093278.402344,,,,-0.937913001,-0.937500179,71985.000000000,1718093278.402343750
1718093278.403351,,,,-0.937961102,-0.937764585,71986.000000000,1718093278.403350830
1718093278.404045,245.899871826,19595.000000000,1718093278.404045105,,,,
1718093278.404358,,,,-0.951015115,-0.953270733,71987.000000000,1718093278.404357910
1718093278.405365,,,,-0.942841351,-0.944375753,71988.000000000,1718093278.405364990
1718093278.406372,,,,-0.922166467,-0.921489179,71989.000000000,1718093278.406372070
1718093278.407379,,,,-0.897717237,-0.894467592,71990.000000000,1718093278.407379150
1718093278.408386,,,,-0.846679151,-0.844054580,71991.000000000,1718093278.408386230
1718093278.409045,245.980087280,19596.000000000,1718093278.409045219,,,,
1718093278.409393,,,,-0.824633956,-0.822826803,71992.000000000,1718093278.409393311
1718093278.410400,,,,-0.831028759,-0.827610850,71993.000000000,1718093278.410400391
1718093278.411407,,,,-0.834202111,-0.832683384,71994.000000000,1718093278.411407471
1718093278.412415,,,,-0.875095069,-0.870715559,71995.000000000,1718093278.412414551
1718093278.413422,,,,-0.862281442,-0.858575046,71996.000000000,1718093278.413421631
1718093278.414045,246.156616211,19597.000000000,1718093278.414045095,,,,
1718093278.414429,,,,-0.828143895,-0.828524411,71997.000000000,1718093278.414428711
1718093278.415436,,,,-0.821412563,-0.822971046,71998.000000000,1718093278.415435791
1718093278.416443,,,,-0.840741158,-0.842323661,71999.000000000,1718093278.416442871
1718093278.417450,,,,-0.783308268,-0.783472419,72000.000000000,1718093278.417449951
1718093278.418457,,,,-0.763619065,-0.761643589,72001.000000000,1718093278.418457031
1718093278.419045,246.413330078,19598.000000000,1718093278.419045210,,,,
1718093278.419464,,,,-0.798165321,-0.798281372,72002.000000000,1718093278.419464111
1718093278.420471,,,,-0.772706389,-0.774937987,72003.000000000,1718093278.420471191
1718093278.421478,,,,-0.805858314,-0.807561040,72004.000000000,1718093278.421478271
1718093278.422485,,,,-0.825643659,-0.828139722,72005.000000000,1718093278.422485352
1718093278.423492,,,,-0.835356057,-0.838549316,72006.000000000,1718093278.423492432
1718093278.424045,246.734237671,19599.000000000,1718093278.424045086,,,,
1718093278.424500,,,,-0.869806170,-0.871172309,72007.000000000,1718093278.424499512
1718093278.425507,,,,-0.958275378,-0.957598031,72008.000000000,1718093278.425506592
1718093278.426514,,,,-0.926133156,-0.927523315,72009.000000000,1718093278.426513672
1718093278.427521,,,,-0.809055686,-0.806431115,72010.000000000,1718093278.427520752
1718093278.428357,247.520401001,19601.000000000,1718093278.428357363,,,,
1718093278.428528,,,,-0.652720034,-0.651922524,72011.000000000,1718093278.428527832
1718093278.429045,247.039093018,19600.000000000,1718093278.429045200,,,,
1718093278.429535,,,,-0.494004399,-0.495418608,72012.000000000,1718093278.429534912
1718093278.430542,,,,-0.396063209,-0.395458043,72013.000000000,1718093278.430541992
1718093278.431549,,,,-0.414309978,-0.414690465,72014.000000000,1718093278.431549072
1718093278.432556,,,,-0.486479700,-0.489745051,72015.000000000,1718093278.432556152
1718093278.433357,247.905410767,19602.000000000,1718093278.433357477,,,,
1718093278.433563,,,,-0.588555872,-0.590234518,72016.000000000,1718093278.433563232
1718093278.434570,,,,-0.675149858,-0.676900685,72017.000000000,1718093278.434570313
1718093278.435577,,,,-0.839226604,-0.841362059,72018.000000000,1718093278.435577393
1718093278.436584,,,,-0.942312419,-0.944423854,72019.000000000,1718093278.436584473
1718093278.437592,,,,-0.929883480,-0.931754470,72020.000000000,1718093278.437591553
1718093278.438357,248.402725220,19603.000000000,1718093278.438357353,,,,
1718093278.438599,,,,-0.940677702,-0.940336943,72021.000000000,1718093278.438598633
1718093278.439606,,,,-0.933345318,-0.930528402,72022.000000000,1718093278.439605713
1718093278.440613,,,,-0.984383404,-0.983561814,72023.000000000,1718093278.440612793
1718093278.441620,,,,-1.040325761,-1.040634036,72024.000000000,1718093278.441619873
1718093278.442627,,,,-0.895168900,-0.897689044,72025.000000000,1718093278.442626953
1718093278.443357,248.883956909,19604.000000000,1718093278.443357468,,,,
1718093278.443634,,,,-0.797468185,-0.796862960,72026.000000000,1718093278.443634033
1718093278.444641,,,,-0.795857430,-0.793256879,72027.000000000,1718093278.444641113
1718093278.445648,,,,-0.855598211,-0.851699471,72028.000000000,1718093278.445648193
1718093278.446655,,,,-0.812277138,-0.810469925,72029.000000000,1718093278.446655273
1718093278.447662,,,,-0.671904385,-0.670818448,72030.000000000,1718093278.447662354
1718093278.448357,249.317062378,19605.000000000,1718093278.448357344,,,,
1718093278.448669,,,,-0.532950044,-0.531287134,72031.000000000,1718093278.448669434
1718093278.449677,,,,-0.488547176,-0.487028480,72032.000000000,1718093278.449676514
1718093278.450684,,,,-0.503692746,-0.501476824,72033.000000000,1718093278.450683594
1718093278.451691,,,,-0.541965246,-0.540759087,72034.000000000,1718093278.451690674
1718093278.452698,,,,-0.635362804,-0.635262430,72035.000000000,1718093278.452697754
1718093278.453357,249.686004639,19606.000000000,1718093278.453357458,,,,
1718093278.453705,,,,-0.780615747,-0.780635595,72036.000000000,1718093278.453704834
1718093278.454712,,,,-0.960655391,-0.961131990,72037.000000000,1718093278.454711914
1718093278.455719,,,,-1.137209058,-1.139056087,72038.000000000,1718093278.455718994
1718093278.456726,,,,-1.109851003,-1.111024857,72039.000000000,1718093278.456726074
1718093278.457733,,,,-1.045807004,-1.047677994,72040.000000000,1718093278.457733154
1718093278.458357,250.022842407,19607.000000000,1718093278.458357334,,,,
1718093278.458740,,,,-1.083622694,-1.084147453,72041.000000000,1718093278.458740234
1718093278.459747,,,,-1.083959341,-1.084051371,72042.000000000,1718093278.459747314
1718093278.460754,,,,-1.031839371,-1.030681252,72043.000000000,1718093278.460754395
1718093278.461761,,,,-0.937552392,-0.938149273,72044.000000000,1718093278.461761475
1718093278.462769,,,,-0.916757345,-0.921657443,72045.000000000,1718093278.462768555
1718093278.463776,,,,-0.975656688,-0.978633523,72046.000000000,1718093278.463775635
1718093278.464783,,,,-1.010202885,-1.012506604,72047.000000000,1718093278.464782715
1718093278.465790,,,,-1.004000425,-1.005054116,72048.000000000,1718093278.465789795
1718093278.466797,,,,-1.003014803,-1.002674103,72049.000000000,1718093278.466796875
1718093278.467804,,,,-0.901587725,-0.903603017,72050.000000000,1718093278.467803955
1718093278.468811,,,,-0.766576052,-0.766475737,72051.000000000,1718093278.468811035
1718093278.469818,,,,-0.727726519,-0.726568460,72052.000000000,1718093278.469818115
1718093278.470825,,,,-0.684958398,-0.682526171,72053.000000000,1718093278.470825195
1718093278.471832,,,,-0.593892872,-0.591075957,72054.000000000,1718093278.471832275
1718093278.472839,,,,-0.588002920,-0.588383377,72055.000000000,1718093278.472839355
1718093278.473846,,,,-0.638728440,-0.639421463,72056.000000000,1718093278.473846436
1718093278.474854,,,,-0.618822873,-0.619636118,72057.000000000,1718093278.474853516
1718093278.475861,,,,-0.648032129,-0.649326146,72058.000000000,1718093278.475860596
1718093278.476868,,,,-0.749531329,-0.750849366,72059.000000000,1718093278.476867676
1718093278.477875,,,,-0.863916218,-0.864032269,72060.000000000,1718093278.477874756
1718093278.478357,250.712493896,19611.000000000,1718093278.478357315,,,,
1718093278.478882,,,,-1.002461910,-1.003419280,72061.000000000,1718093278.478881836
1718093278.479889,,,,-1.054341316,-1.056404710,72062.000000000,1718093278.479888916
1718093278.480896,,,,-1.053884625,-1.053471684,72063.000000000,1718093278.480895996
1718093278.481903,,,,-1.155936718,-1.156629682,72064.000000000,1718093278.481903076
1718093278.482910,,,,-1.181275487,-1.185261965,72065.000000000,1718093278.482910156
1718093278.483357,250.840789795,19612.000000000,1718093278.483357430,,,,
1718093278.483917,,,,-1.137810111,-1.138238668,72066.000000000,1718093278.483917236
1718093278.484924,,,,-1.093166828,-1.091119289,72067.000000000,1718093278.484924316
1718093278.485931,,,,-1.011188626,-1.010847807,72068.000000000,1718093278.485931396
1718093278.486938,,,,-0.952794135,-0.954280436,72069.000000000,1718093278.486938477
1718093278.487946,,,,-0.948418736,-0.953222692,72070.000000000,1718093278.487945557
1718093278.488357,250.856826782,19613.000000000,1718093278.488357306,,,,
1718093278.488953,,,,-0.997773945,-1.002433658,72071.000000000,1718093278.488952637
1718093278.489960,,,,-1.090378165,-1.095109940,72072.000000000,1718093278.489959717
1718093278.490967,,,,-1.128963232,-1.131026506,72073.000000000,1718093278.490966797
1718093278.491974,,,,-1.150912166,-1.155740261,72074.000000000,1718093278.491973877
1718093278.492981,,,,-1.064294100,-1.068160534,72075.000000000,1718093278.492980957
1718093278.493357,250.824752808,19614.000000000,1718093278.493357420,,,,
1718093278.493988,,,,-1.067731977,-1.070059776,72076.000000000,1718093278.493988037
1718093278.494995,,,,-1.141464233,-1.143888235,72077.000000000,1718093278.494995117
1718093278.496002,,,,-1.129756570,-1.131699681,72078.000000000,1718093278.496002197
