__time,/gdx/grip_force_stream/grip_force,/gdx/grip_force_stream/header/seq,/gdx/grip_force_stream/header/stamp,/shimmer0/emg_stream/emg_ch1,/shimmer0/emg_stream/emg_ch2,/shimmer0/emg_stream/header/seq,/shimmer0/emg_stream/header/stamp
1718095760.635059,,,,-0.646337330,-0.645429671,86256.000000000,1718095760.635058641
1718095760.636066,,,,-0.638644338,-0.638193429,86257.000000000,1718095760.636065722
1718095760.637073,,,,-0.636408567,-0.631630361,86258.000000000,1718095760.637072802
1718095760.638080,,,,-0.630061865,-0.629995584,86259.000000000,1718095760.638079882
1718095760.639087,,,,-0.626119196,-0.626629949,86260.000000000,1718095760.639086962
1718095760.640094,,,,-0.624003649,-0.622687280,86261.000000000,1718095760.640094042
1718095760.641101,,,,-0.623474777,-0.625259638,86262.000000000,1718095760.641101122
1718095760.642108,,,,-0.623715162,-0.624514341,86263.000000000,1718095760.642108202
1718095760.643115,,,,-0.622777581,-0.623408496,86264.000000000,1718095760.643115282
1718095760.644122,,,,-0.626047075,-0.623961449,86265.000000000,1718095760.644122362
1718095760.645129,,,,-0.635446966,-0.633962333,86266.000000000,1718095760.645129442
1718095760.646137,,,,-0.642731249,-0.645790279,86267.000000000,1718095760.646136522
1718095760.647144,,,,-0.639053047,-0.643698752,86268.000000000,1718095760.647143602
1718095760.648151,,,,-0.637322128,-0.640741765,86269.000000000,1718095760.648150682
1718095760.649158,,,,-0.643861115,-0.644972861,86270.000000000,1718095760.649157763
1718095760.650165,,,,-0.643428385,-0.643626630,86271.000000000,1718095760.650164843
1718095760.651172,,,,-0.640231013,-0.641030252,86272.000000000,1718095760.651171923
1718095760.652179,,,,-0.635951817,-0.634034455,86273.000000000,1718095760.652179003
1718095760.653186,,,,-0.640807986,-0.639491618,86274.000000000,1718095760.653186083
1718095760.654193,,,,-0.648861587,-0.650718570,86275.000000000,1718095760.654193163
1718095760.655200,,,,-0.643981338,-0.646247029,86276.000000000,1718095760.655200243
1718095760.656207,,,,-0.626672149,-0.627759814,86277.000000000,1718095760.656207323
1718095760.657214,,,,-0.610348642,-0.611484408,86278.000000000,1718095760.657214403
1718095760.658221,,,,-0.607800305,-0.610162139,86279.000000000,1718095760.658221483
1718095760.659229,,,,-0.606405973,-0.607373476,86280.000000000,1718095760.659228563
1718095760.660236,,,,-0.603881717,-0.603935659,86281.000000000,1718095760.660235643
1718095760.661243,,,,-0.610997736,-0.611965179,86282.000000000,1718095760.661242723
1718095760.662250,,,,-0.623835385,-0.623793125,86283.000000000,1718095760.662249804
1718095760.663257,,,,-0.624147892,-0.622879624,86284.000000000,1718095760.663256884
1718095760.663769,0.369868755,17431.000000000,1718095760.663768768,,,,
1718095760.664264,,,,-0.623835385,-0.624081612,86285.000000000,1718095760.664263964
1718095760.665271,,,,-0.631239831,-0.631486118,86286.000000000,1718095760.665271044
1718095760.666278,,,,-0.636312425,-0.636558712,86287.000000000,1718095760.666278124
1718095760.667285,,,,-0.632658243,-0.635524929,86288.000000000,1718095760.667285204
1718095760.668292,,,,-0.635687351,-0.639515698,86289.000000000,1718095760.668292284
1718095760.668769,0.440576464,17432.000000000,1718095760.668768883,,,,
1718095760.669299,,,,-0.641481102,-0.645044982,86290.000000000,1718095760.669299364
1718095760.670306,,,,-0.646962404,-0.647545218,86291.000000000,1718095760.670306444
1718095760.671314,,,,-0.650736749,-0.649396360,86292.000000000,1718095760.671313524
1718095760.672321,,,,-0.646794081,-0.647184610,86293.000000000,1718095760.672320604
1718095760.673328,,,,-0.642370641,-0.642015874,86294.000000000,1718095760.673327684
1718095760.673769,0.440576464,17433.000000000,1718095760.673768759,,,,
1718095760.674335,,,,-0.621912122,-0.623216152,86295.000000000,1718095760.674334764
1718095760.675342,,,,-0.606670439,-0.607926369,86296.000000000,1718095760.675341845
1718095760.676349,,,,-0.599314034,-0.601122916,86297.000000000,1718095760.676348925
1718095760.677356,,,,-0.597775400,-0.599295855,86298.000000000,1718095760.677356005
1718095760.678363,,,,-0.594986737,-0.597492814,86299.000000000,1718095760.678363085
1718095760.678769,0.493599653,17434.000000000,1718095760.678768873,,,,
1718095760.679370,,,,-0.595996439,-0.598791003,86300.000000000,1718095760.679370165
1718095760.680377,,,,-0.608834088,-0.611460328,86301.000000000,1718095760.680377245
1718095760.681384,,,,-0.614002764,-0.615018368,86302.000000000,1718095760.681384325
1718095760.682391,,,,-0.607247412,-0.607782125,86303.000000000,1718095760.682391405
1718095760.683398,,,,-0.599915028,-0.598310173,86304.000000000,1718095760.683398485
1718095760.683769,0.528947771,17435.000000000,1718095760.683768749,,,,
1718095760.684406,,,,-0.596837819,-0.594415605,86305.000000000,1718095760.684405565
1718095760.685413,,,,-0.594289541,-0.594535828,86306.000000000,1718095760.685412645
1718095760.686420,,,,-0.601020873,-0.601050794,86307.000000000,1718095760.686419725
1718095760.687427,,,,-0.602030575,-0.600954652,86308.000000000,1718095760.687426805
1718095760.688434,,,,-0.605396271,-0.603551030,86309.000000000,1718095760.688433886
1718095760.688769,0.528947771,17436.000000000,1718095760.688768864,,,,
1718095760.689441,,,,-0.610685170,-0.610691071,86310.000000000,1718095760.689440966
1718095760.690448,,,,-0.614964426,-0.614585638,86311.000000000,1718095760.690448046
1718095760.691455,,,,-0.625061452,-0.625379801,86312.000000000,1718095760.691455126
1718095760.692462,,,,-0.624316156,-0.625860631,86313.000000000,1718095760.692462206
1718095760.693469,,,,-0.630206108,-0.631029367,86314.000000000,1718095760.693469286
1718095760.693769,0.634996653,17437.000000000,1718095760.693768740,,,,
1718095760.694476,,,,-0.645904601,-0.646102786,86315.000000000,1718095760.694476366
1718095760.695483,,,,-0.643692851,-0.645093083,86316.000000000,1718095760.695483446
1718095760.696491,,,,-0.640303135,-0.640477300,86317.000000000,1718095760.696490526
1718095760.697498,,,,-0.635254622,-0.635236442,86318.000000000,1718095760.697497606
1718095760.698505,,,,-0.627393365,-0.629346490,86319.000000000,1718095760.698504686
1718095760.698769,0.581976891,17438.000000000,1718095760.698768854,,,,
1718095760.699512,,,,-0.622152507,-0.621917963,86320.000000000,1718095760.699511766
1718095760.700519,,,,-0.617560804,-0.617374301,86321.000000000,1718095760.700518847
1718095760.701526,,,,-0.618041575,-0.620571733,86322.000000000,1718095760.701525927
1718095760.702533,,,,-0.626600027,-0.627543449,86323.000000000,1718095760.702533007
1718095760.703540,,,,-0.621311128,-0.622879624,86324.000000000,1718095760.703540087
1718095760.703769,0.652669609,17439.000000000,1718095760.703768730,,,,
1718095760.704547,,,,-0.611887217,-0.611580551,86325.000000000,1718095760.704547167
1718095760.705554,,,,-0.609362960,-0.609993875,86326.000000000,1718095760.705554247
1718095760.706561,,,,-0.613978744,-0.613696098,86327.000000000,1718095760.706561327
1718095760.707568,,,,-0.554863036,-0.555085301,86328.000000000,1718095760.707568407
1718095760.708575,,,,-0.485361844,-0.486353368,86329.000000000,1718095760.708575487
1718095760.708769,0.741040409,17440.000000000,1718095760.708768845,,,,
1718095760.709583,,,,-0.447065264,-0.451061845,86330.000000000,1718095760.709582567
1718095760.710590,,,,-0.414033562,-0.416347295,86331.000000000,1718095760.710589647
1718095760.711597,,,,-0.409417778,-0.407620579,86332.000000000,1718095760.711596727
1718095760.712604,,,,-0.412062228,-0.410553545,86333.000000000,1718095760.712603807
1718095760.713611,,,,-0.455743909,-0.453441858,86334.000000000,1718095760.713610888
1718095760.714618,,,,-0.551256955,-0.546863437,86335.000000000,1718095760.714617968
1718095760.715625,,,,-0.596092582,-0.596362889,86336.000000000,1718095760.715625048
1718095760.716632,,,,-0.617608845,-0.617182016,86337.000000000,1718095760.716632128
1718095760.717639,,,,-0.650568485,-0.652545631,86338.000000000,1718095760.717639208
1718095760.718646,,,,-0.642370641,-0.645982563,86339.000000000,1718095760.718646288
1718095760.718699,0.829407632,17441.000000000,1718095760.718698502,,,,
1718095760.719653,,,,-0.634220898,-0.634731591,86340.000000000,1718095760.719653368
1718095760.720660,,,,-0.627946317,-0.628144503,86341.000000000,1718095760.720660448
1718095760.721668,,,,-0.621335149,-0.622711301,86342.000000000,1718095760.721667528
1718095760.722675,,,,-0.633211195,-0.634803712,86343.000000000,1718095760.722674608
1718095760.723682,,,,-0.633667946,-0.636198103,86344.000000000,1718095760.723681688
1718095760.724689,,,,-0.623907506,-0.625379801,86345.000000000,1718095760.724688768
1718095760.725696,,,,-0.615012467,-0.612638354,86346.000000000,1718095760.725695848
1718095760.726703,,,,-0.593784690,-0.594655991,86347.000000000,1718095760.726702929
1718095760.727710,,,,-0.577220738,-0.578620970,86348.000000000,1718095760.727710009
1718095760.728717,,,,-0.571739495,-0.570831835,86349.000000000,1718095760.728717089
1718095760.729724,,,,-0.591404676,-0.589895964,86350.000000000,1718095760.729724169
1718095760.730731,,,,-0.612896919,-0.612253666,86351.000000000,1718095760.730731249
1718095760.731738,,,,-0.581091285,-0.579823017,86352.000000000,1718095760.731738329
1718095760.732745,,,,-0.550583839,-0.553498626,86353.000000000,1718095760.732745409
1718095760.733752,,,,-0.547626853,-0.550613761,86354.000000000,1718095760.733752489
1718095760.734760,,,,-0.520388901,-0.519721627,86355.000000000,1718095760.734759569
1718095760.735767,,,,-0.498920709,-0.500970006,86356.000000000,1718095760.735766649
1718095760.736774,,,,-0.487405300,-0.489430547,86357.000000000,1718095760.736773729
1718095760.737781,,,,-0.447041214,-0.448657811,86358.000000000,1718095760.737780809
1718095760.738788,,,,-0.413480610,-0.416010737,86359.000000000,1718095760.738787889
1718095760.739795,,,,-0.439564615,-0.439282000,86360.000000000,1718095760.739794970
1718095760.740802,,,,-0.425404727,-0.424280703,86361.000000000,1718095760.740802050
1718095760.741809,,,,-0.365904391,-0.366703600,86362.000000000,1718095760.741809130
1718095760.742816,,,,-0.257962346,-0.260131866,86363.000000000,1718095760.742816210
1718095760.743823,,,,-0.203366280,-0.205319420,86364.000000000,1718095760.743823290
1718095760.744830,,,,-0.302797973,-0.302539378,86365.000000000,1718095760.744830370
1718095760.745837,,,,-0.453772575,-0.454523683,86366.000000000,1718095760.745837450
1718095760.746845,,,,-0.618955135,-0.619441807,86367.000000000,1718095760.746844530
1718095760.747852,,,,-0.723892093,-0.725628912,86368.000000000,1718095760.747851610
1718095760.748859,,,,-0.733027518,-0.732937217,86369.000000000,1718095760.748858690
1718095760.749866,,,,-0.674705148,-0.674350441,86370.000000000,1718095760.749865770
1718095760.750873,,,,-0.370856732,-0.369949073,86371.000000000,1718095760.750872850
1718095760.751880,,,,-0.258058518,-0.256141126,86372.000000000,1718095760.751879930
1718095760.752887,,,,-0.179205537,-0.177600682,86373.000000000,1718095760.752887011
1718095760.753894,,,,-0.186465770,-0.186615884,86374.000000000,1718095760.753894091
1718095760.754901,,,,-0.287219703,-0.289389193,86375.000000000,1718095760.754901171
1718095760.755908,,,,-0.419226319,-0.417573363,86376.000000000,1718095760.755908251
1718095760.756915,,,,-0.593015373,-0.591819227,86377.000000000,1718095760.756915331
1718095760.757922,,,,-0.715718329,-0.715387642,86378.000000000,1718095760.757922411
1718095760.758929,,,,-0.720141768,-0.719378352,86379.000000000,1718095760.758929491
1718095760.759937,,,,-0.665810168,-0.666176617,86380.000000000,1718095760.759936571
1718095760.760944,,,,-0.585274339,-0.584270477,86381.000000000,1718095760.760943651
1718095760.761951,,,,-0.576715887,-0.576866031,86382.000000000,1718095760.761950731
1718095760.762958,,,,-0.616166413,-0.613071084,86383.000000000,1718095760.762957811
1718095760.763965,,,,-0.657083452,-0.656440198,86384.000000000,1718095760.763964891
1718095760.764972,,,,-0.689225674,-0.689664245,86385.000000000,1718095760.764971972
1718095760.765979,,,,-0.660280824,-0.659301043,86386.000000000,1718095760.765979052
1718095760.766986,,,,-0.645327628,-0.647232711,86387.000000000,1718095760.766986132
1718095760.767993,,,,-0.635543108,-0.638121307,86388.000000000,1718095760.767993212
1718095760.768698,5.578114033,17451.000000000,1718095760.768698454,,,,
1718095760.769000,,,,-0.618907034,-0.621701598,86389.000000000,1718095760.769000292
1718095760.770007,,,,-0.523610353,-0.522822857,86390.000000000,1718095760.770007372
1718095760.771014,,,,-0.424346954,-0.423246950,86391.000000000,1718095760.771014452
1718095760.772022,,,,-0.387661070,-0.385503292,86392.000000000,1718095760.772021532
1718095760.773029,,,,-0.412879616,-0.411851734,86393.000000000,1718095760.773028612
1718095760.773699,6.812131882,17452.000000000,1718095760.773698568,,,,
1718095760.774036,,,,-0.491756618,-0.493974209,86394.000000000,1718095760.774035692
1718095760.775043,,,,-0.509113908,-0.510874748,86395.000000000,1718095760.775042772
1718095760.776050,,,,-0.470913470,-0.472962797,86396.000000000,1718095760.776049852
1718095760.777057,,,,-0.456585318,-0.455244899,86397.000000000,1718095760.777056932
1718095760.778064,,,,-0.468004584,-0.466688216,86398.000000000,1718095760.778064013
1718095760.778698,8.256802559,17453.000000000,1718095760.778698444,,,,
1718095760.779071,,,,-0.432472646,-0.432093859,86399.000000000,1718095760.779071093
1718095760.780078,,,,-0.442401409,-0.439282000,86400.000000000,1718095760.780078173
1718095760.781085,,,,-0.448050916,-0.445989311,86401.000000000,1718095760.781085253
1718095760.782092,,,,-0.434347808,-0.433271855,86402.000000000,1718095760.782092333
1718095760.783099,,,,-0.532409191,-0.530972600,86403.000000000,1718095760.783099413
1718095760.783699,10.017278671,17454.000000000,1718095760.783698559,,,,
1718095760.784106,,,,-0.585514724,-0.585544646,86404.000000000,1718095760.784106493
1718095760.785114,,,,-0.589409292,-0.589318991,86405.000000000,1718095760.785113573
1718095760.786121,,,,-0.568686366,-0.570976079,86406.000000000,1718095760.786120653
1718095760.787128,,,,-0.526879847,-0.529265761,86407.000000000,1718095760.787127733
1718095760.788135,,,,-0.542289853,-0.543617964,86408.000000000,1718095760.788134813
1718095760.788698,11.881810188,17455.000000000,1718095760.788698435,,,,
1718095760.789142,,,,-0.454998642,-0.453249544,86409.000000000,1718095760.789141893
1718095760.790149,,,,-0.299552500,-0.297298551,86410.000000000,1718095760.790148973
1718095760.791156,,,,-0.273011744,-0.275349528,86411.000000000,1718095760.791156054
1718095760.792163,,,,-0.284262717,-0.285158068,86412.000000000,1718095760.792163134
1718095760.793170,,,,-0.279815197,-0.278306514,86413.000000000,1718095760.793170214
1718095760.793699,14.096020699,17456.000000000,1718095760.793698549,,,,
1718095760.794177,,,,-0.312774777,-0.309487104,86414.000000000,1718095760.794177294
1718095760.795184,,,,-0.372130901,-0.368506640,86415.000000000,1718095760.795184374
1718095760.796191,,,,-0.526831806,-0.528039694,86416.000000000,1718095760.796191454
1718095760.797199,,,,-0.740792632,-0.741231203,86417.000000000,1718095760.797198534
1718095760.798206,,,,-0.690980613,-0.689688265,86418.000000000,1718095760.798205614
1718095760.798698,16.518476486,17457.000000000,1718095760.798698425,,,,
1718095760.799213,,,,-0.510484219,-0.511908472,86419.000000000,1718095760.799212694
1718095760.800220,,,,-0.344508290,-0.345764279,86420.000000000,1718095760.800219774
1718095760.801227,,,,-0.311813176,-0.311242044,86421.000000000,1718095760.801226854
1718095760.802234,,,,-0.346912354,-0.347062469,86422.000000000,1718095760.802233934
1718095760.803241,,,,-0.364582151,-0.363506198,86423.000000000,1718095760.803241014
1718095760.803699,19.218536377,17458.000000000,1718095760.803698540,,,,
1718095760.804248,,,,-0.552555144,-0.554147720,86424.000000000,1718095760.804248095
1718095760.805255,,,,-0.579576731,-0.582251072,86425.000000000,1718095760.805255175
1718095760.806262,,,,-0.407470495,-0.408462018,86426.000000000,1718095760.806262255
1718095760.807269,,,,-0.255125552,-0.253785163,86427.000000000,1718095760.807269335
1718095760.808276,,,,-0.237095162,-0.237413555,86428.000000000,1718095760.808276415
1718095760.808698,22.055147171,17459.000000000,1718095760.808698416,,,,
1718095760.809283,,,,-0.259573072,-0.259651065,86429.000000000,1718095760.809283495
1718095760.810291,,,,-0.373765647,-0.374877363,86430.000000000,1718095760.810290575
1718095760.811298,,,,-0.572220325,-0.574437916,86431.000000000,1718095760.811297655
1718095760.812305,,,,-0.737402916,-0.737553000,86432.000000000,1718095760.812304735
1718095760.813312,,,,-0.897248447,-0.895956159,86433.000000000,1718095760.813311815
1718095760.813699,25.167520523,17460.000000000,1718095760.813698530,,,,
1718095760.814319,,,,-0.924462378,-0.923218131,86434.000000000,1718095760.814318895
1718095760.815326,,,,-0.872174203,-0.873069525,86435.000000000,1718095760.815325975
1718095760.816333,,,,-0.726272106,-0.726374149,86436.000000000,1718095760.816333055
1718095760.817340,,,,-0.422039062,-0.419568747,86437.000000000,1718095760.817340136
1718095760.818347,,,,-0.181681708,-0.180485547,86438.000000000,1718095760.818347216
1718095760.819354,,,,-0.202500820,-0.204598203,86439.000000000,1718095760.819354296
1718095760.820361,,,,-0.201755553,-0.202001825,86440.000000000,1718095760.820361376
1718095760.821368,,,,-0.298110068,-0.297322571,86441.000000000,1718095760.821368456
1718095760.822376,,,,-0.448579818,-0.446133554,86442.000000000,1718095760.822375536
1718095760.823383,,,,-0.562580049,-0.560278058,86443.000000000,1718095760.823382616
1718095760.823934,28.502084732,17461.000000000,1718095760.823933840,,,,
1718095760.824390,,,,-0.613738358,-0.615739584,86444.000000000,1718095760.824389696
1718095760.825397,,,,-0.604338467,-0.604368389,86445.000000000,1718095760.825396776
1718095760.826404,,,,-0.519138813,-0.519120634,86446.000000000,1718095760.826403856
1718095760.827411,,,,-0.401340157,-0.402451873,86447.000000000,1718095760.827410936
1718095760.828418,,,,-0.374078184,-0.374805242,86448.000000000,1718095760.828418016
1718095760.828934,32.005500793,17462.000000000,1718095760.828933954,,,,
1718095760.829425,,,,-0.481563449,-0.479453743,86449.000000000,1718095760.829425097
1718095760.830432,,,,-0.731008112,-0.732191980,86450.000000000,1718095760.830432177
1718095760.831439,,,,-0.876765907,-0.878767133,86451.000000000,1718095760.831439257
1718095760.832446,,,,-0.907994568,-0.907711983,86452.000000000,1718095760.832446337
1718095760.833453,,,,-0.857918143,-0.854918957,86453.000000000,1718095760.833453417
1718095760.833934,35.763813019,17463.000000000,1718095760.833933830,,,,
1718095760.834460,,,,-0.785051227,-0.784191668,86454.000000000,1718095760.834460497
1718095760.835468,,,,-0.749327004,-0.746736467,86455.000000000,1718095760.835467577
1718095760.836475,,,,-0.707640707,-0.704665542,86456.000000000,1718095760.836474657
1718095760.837482,,,,-0.715766430,-0.715315521,86457.000000000,1718095760.837481737
1718095760.838489,,,,-0.513080597,-0.511115134,86458.000000000,1718095760.838488817
1718095760.838934,39.775623322,17464.000000000,1718095760.838933945,,,,
1718095760.839496,,,,0.322905242,0.325303435,86459.000000000,1718095760.839495897
1718095760.840503,,,,1.029913545,1.030989528,86460.000000000,1718095760.840502977
1718095760.841510,,,,1.188629270,1.189007998,86461.000000000,1718095760.841510057
1718095760.842517,,,,1.092587233,1.091643810,86462.000000000,1718095760.842517138
1718095760.843524,,,,0.820424259,0.819048107,86463.000000000,1718095760.843524218
1718095760.843934,43.987476349,17465.000000000,1718095760.843933821,,,,
1718095760.844531,,,,0.298383892,0.298426121,86464.000000000,1718095760.844531298
1718095760.845538,,,,-0.311500639,-0.312179625,86465.000000000,1718095760.845538378
1718095760.846545,,,,-0.802600861,-0.803808749,86466.000000000,1718095760.846545458
1718095760.847553,,,,-0.683960795,-0.683702171,86467.000000000,1718095760.847552538
1718095760.848560,,,,-0.052343585,-0.048262555,86468.000000000,1718095760.848559618
1718095760.848934,48.467220306,17466.000000000,1718095760.848933935,,,,
1718095760.849567,,,,0.446858287,0.449064165,86469.000000000,1718095760.849566698
1718095760.850574,,,,0.599852324,0.600062788,86470.000000000,1718095760.850573778
1718095760.851581,,,,0.380386174,0.380813062,86471.000000000,1718095760.851580858
1718095760.852588,,,,0.023576450,0.022584924,86472.000000000,1718095760.852587938
1718095760.853595,,,,-0.547626853,-0.544459343,86473.000000000,1718095760.853595018
1718095760.853934,53.264793396,17467.000000000,1718095760.853933811,,,,
1718095760.854602,,,,-0.939151108,-0.938051105,86474.000000000,1718095760.854602098
1718095760.855609,,,,-0.873977244,-0.874415815,86475.000000000,1718095760.855609179
1718095760.856616,,,,-0.693216383,-0.693462670,86476.000000000,1718095760.856616259
1718095760.857623,,,,-0.709924579,-0.711781561,86477.000000000,1718095760.857623339
1718095760.858630,,,,-0.990093052,-0.990483582,86478.000000000,1718095760.858630419
1718095760.858934,58.257575989,17468.000000000,1718095760.858933926,,,,
1718095760.859637,,,,-1.257087350,-1.259809732,86479.000000000,1718095760.859637499
1718095760.860645,,,,-1.184124231,-1.186822653,86480.000000000,1718095760.860644579
1718095760.861652,,,,-0.975716770,-0.975626528,86481.000000000,1718095760.861651659
1718095760.862659,,,,-0.691196978,-0.692140400,86482.000000000,1718095760.862658739
1718095760.863666,,,,-0.295393467,-0.294678122,86483.000000000,1718095760.863665819
1718095760.864673,,,,-0.034168936,-0.031410135,86484.000000000,1718095760.864672899
1718095760.865680,,,,-0.027149096,-0.024750905,86485.000000000,1718095760.865679979
1718095760.866687,,,,-0.127734736,-0.125168249,86486.000000000,1718095760.866687059
1718095760.867694,,,,-0.233561203,-0.231932297,86487.000000000,1718095760.867694139
1718095760.868701,,,,-0.280969143,-0.282465518,86488.000000000,1718095760.868701220
1718095760.870715,,,,-0.589361250,-0.590593159,86490.000000000,1718095760.870715380
1718095760.871722,,,,-0.736729741,-0.734163284,86491.000000000,1718095760.871722460
1718095760.872730,,,,-0.797768712,-0.796981215,86492.000000000,1718095760.872729540
1718095760.873737,,,,-0.895229042,-0.893744409,86493.000000000,1718095760.873736620
1718095760.873934,73.675758362,17471.000000000,1718095760.873933792,,,,
1718095760.874744,,,,-0.954296649,-0.952379286,86494.000000000,1718095760.874743700
1718095760.875751,,,,-0.905855000,-0.904466510,86495.000000000,1718095760.875750780
1718095760.876758,,,,-0.856211245,-0.858981788,86496.000000000,1718095760.876757860
1718095760.877765,,,,-0.788392901,-0.789336324,86497.000000000,1718095760.877764940
1718095760.878772,,,,-0.447257578,-0.445195973,86498.000000000,1718095760.878772020
1718095760.878934,78.687477112,17472.000000000,1718095760.878933907,,,,
1718095760.879779,,,,0.039058559,0.041528873,86499.000000000,1718095760.879779100
1718095760.880786,,,,0.152409717,0.154880032,86500.000000000,1718095760.880786180
1718095760.881793,,,,0.052064493,0.052900050,86501.000000000,1718095760.881793261
1718095760.882800,,,,-0.153987005,-0.157406628,86502.000000000,1718095760.882800341
1718095760.883807,,,,-0.516830921,-0.517461836,86503.000000000,1718095760.883807421
1718095760.883934,83.704071045,17473.000000000,1718095760.883933783,,,,
1718095760.884815,,,,-0.889555514,-0.889128625,86504.000000000,1718095760.884814501
1718095760.885822,,,,-1.069979787,-1.070250034,86505.000000000,1718095760.885821581
1718095760.886829,,,,-0.906431973,-0.905355990,86506.000000000,1718095760.886828661
1718095760.887836,,,,-0.742259085,-0.739692628,86507.000000000,1718095760.887835741
1718095760.888843,,,,-0.743701518,-0.743731439,86508.000000000,1718095760.888842821
1718095760.888934,88.606903076,17474.000000000,1718095760.888933897,,,,
1718095760.889850,,,,-0.675306201,-0.672763765,86509.000000000,1718095760.889849901
1718095760.890857,,,,-0.424034417,-0.423150778,86510.000000000,1718095760.890856981
1718095760.891864,,,,-0.193629861,-0.194356933,86511.000000000,1718095760.891864061
1718095760.892871,,,,0.067618720,0.066290632,86512.000000000,1718095760.892871141
1718095760.893878,,,,0.151568294,0.151971132,86513.000000000,1718095760.893878222
1718095760.893934,93.329193115,17475.000000000,1718095760.893933773,,,,
1718095760.894885,,,,-0.006137663,-0.005542512,86514.000000000,1718095760.894885302
1718095760.895892,,,,-0.282099068,-0.283451200,86515.000000000,1718095760.895892382
1718095760.896899,,,,-0.659992337,-0.661969543,86516.000000000,1718095760.896899462
1718095760.897907,,,,-0.890108407,-0.890595078,86517.000000000,1718095760.897906542
1718095760.898914,,,,-1.032091856,-1.031929493,86518.000000000,1718095760.898913622
1718095760.898934,97.855323792,17476.000000000,1718095760.898933887,,,,
1718095760.899921,,,,-1.124744177,-1.128500342,86519.000000000,1718095760.899920702
1718095760.900928,,,,-1.024855614,-1.027794480,86520.000000000,1718095760.900927782
1718095760.901935,,,,-0.677638113,-0.673581123,86521.000000000,1718095760.901934862
1718095760.902942,,,,-0.454229355,-0.453273594,86522.000000000,1718095760.902941942
1718095760.903934,102.220245361,17477.000000000,1718095760.903933764,,,,
1718095760.903949,,,,-0.424731582,-0.427093446,86523.000000000,1718095760.903949022
1718095760.904956,,,,-0.364702374,-0.363938928,86524.000000000,1718095760.904956102
1718095760.905963,,,,-0.334002584,-0.333599746,86525.000000000,1718095760.905963182
1718095760.906970,,,,-0.467499733,-0.469260544,86526.000000000,1718095760.906970263
1718095760.907977,,,,-0.520941854,-0.522245884,86527.000000000,1718095760.907977343
1718095760.908934,106.475402832,17478.000000000,1718095760.908933878,,,,
1718095760.908984,,,,-0.336358547,-0.336725026,86528.000000000,1718095760.908984423
1718095760.909992,,,,-0.209688947,-0.208276406,86529.000000000,1718095760.909991503
1718095760.910999,,,,0.027158489,0.029893249,86530.000000000,1718095760.910998583
1718095760.912006,,,,0.261770159,0.262605697,86531.000000000,1718095760.912005663
1718095760.913013,,,,0.307663530,0.306071013,86532.000000000,1718095760.913012743
1718095760.913934,110.722122192,17479.000000000,1718095760.913933754,,,,
1718095760.914020,,,,-0.019335920,-0.020447649,86533.000000000,1718095760.914019823
1718095760.915027,,,,-0.426101893,-0.424328774,86534.000000000,1718095760.915026903
1718095760.916034,,,,-0.470600963,-0.468972057,86535.000000000,1718095760.916033983
1718095760.917041,,,,-0.155790046,-0.154113069,86536.000000000,1718095760.917041063
1718095760.918048,,,,0.252298176,0.254143447,86537.000000000,1718095760.918048143
1718095760.918934,115.127861023,17480.000000000,1718095760.918933868,,,,
1718095760.919055,,,,0.402647734,0.402738035,86538.000000000,1718095760.919055223
1718095760.920062,,,,1.068306327,1.070968986,86539.000000000,1718095760.920062304
1718095760.921069,,,,1.205024838,1.205523849,86540.000000000,1718095760.921069384
1718095760.922076,,,,1.020946503,1.022262812,86541.000000000,1718095760.922076464
1718095760.923084,,,,0.702577531,0.702884197,86542.000000000,1718095760.923083544
1718095760.924091,,,,0.145029277,0.145960987,86543.000000000,1718095760.924090624
1718095760.925098,,,,-0.436920136,-0.438296318,86544.000000000,1718095760.925097704
1718095760.926105,,,,-1.138062596,-1.140184045,86545.000000000,1718095760.926104784
1718095760.927112,,,,-1.196649432,-1.197352409,86546.000000000,1718095760.927111864
1718095760.928119,,,,-0.898306251,-0.896461010,86547.000000000,1718095760.928118944
1718095760.929126,,,,-0.743509173,-0.742096663,86548.000000000,1718095760.929126024
1718095760.930133,,,,-0.683552086,-0.683077157,86549.000000000,1718095760.930133104
1718095760.931140,,,,-0.697231174,-0.699905515,86550.000000000,1718095760.931140184
1718095760.932147,,,,-0.967687249,-0.970313549,86551.000000000,1718095760.932147264
1718095760.933154,,,,-1.204486609,-1.204420328,86552.000000000,1718095760.933154345
1718095760.934161,,,,-1.048391342,-1.046786547,86553.000000000,1718095760.934161425
1718095760.935169,,,,-0.569888413,-0.567682505,86554.000000000,1718095760.935168505
1718095760.936176,,,,0.331295401,0.333020449,86555.000000000,1718095760.936175585
1718095760.937183,,,,0.870260358,0.869725585,86556.000000000,1718095760.937182665
1718095760.938190,,,,0.937068999,0.933889806,86557.000000000,1718095760.938189745
1718095760.939197,,,,0.768400550,0.763658702,86558.000000000,1718095760.939196825
1718095760.940204,,,,0.267515838,0.266476244,86559.000000000,1718095760.940203905
1718095760.941211,,,,-0.379968107,-0.378868103,86560.000000000,1718095760.941210985
1718095760.942218,,,,-0.881670177,-0.881700099,86561.000000000,1718095760.942218065
1718095760.943225,,,,-0.940833986,-0.938676178,86562.000000000,1718095760.943225145
1718095760.944232,,,,-0.887127399,-0.885787010,86563.000000000,1718095760.944232225
1718095760.945239,,,,-0.893089473,-0.892350078,86564.000000000,1718095760.945239305
1718095760.946246,,,,-0.835392177,-0.834292173,86565.000000000,1718095760.946246386
1718095760.947253,,,,-0.852725387,-0.853596687,86566.000000000,1718095760.947253466
1718095760.948261,,,,-0.897440791,-0.896965861,86567.000000000,1718095760.948260546
1718095760.949268,,,,-0.889964163,-0.892229855,86568.000000000,1718095760.949267626
1718095760.950275,,,,-0.865082204,-0.866554558,86569.000000000,1718095760.950274706
1718095760.951282,,,,-0.712208390,-0.712550819,86570.000000000,1718095760.951281786
1718095760.952289,,,,-0.488943875,-0.490656614,86571.000000000,1718095760.952288866
1718095760.953296,,,,-0.417831957,-0.419785112,86572.000000000,1718095760.953295946
1718095760.954303,,,,-0.459806740,-0.463010013,86573.000000000,1718095760.954303026
1718095760.955310,,,,-0.607391655,-0.608046591,86574.000000000,1718095760.955310106
1718095760.956317,,,,-0.778223753,-0.777676642,86575.000000000,1718095760.956317186
1718095760.957324,,,,-0.965691864,-0.966491103,86576.000000000,1718095760.957324266
1718095760.958331,,,,-0.954705358,-0.953869820,86577.000000000,1718095760.958331347
1718095760.958640,168.965316772,17491.000000000,1718095760.958639622,,,,
1718095760.959338,,,,-0.495290577,-0.496690810,86578.000000000,1718095760.959338427
1718095760.960346,,,,0.125604510,0.125045717,86579.000000000,1718095760.960345507
1718095760.961353,,,,0.536241055,0.533734918,86580.000000000,1718095760.961352587
1718095760.962360,,,,0.531601191,0.529648066,86581.000000000,1718095760.962359667
1718095760.963367,,,,0.343844563,0.342155874,86582.000000000,1718095760.963366747
1718095760.963640,172.938186646,17492.000000000,1718095760.963639736,,,,
1718095760.964374,,,,-0.173435807,-0.175244704,86583.000000000,1718095760.964373827
1718095760.965381,,,,-0.492237449,-0.491738439,86584.000000000,1718095760.965380907
1718095760.966388,,,,-0.541688859,-0.540276289,86585.000000000,1718095760.966387987
1718095760.967395,,,,-0.510989070,-0.507340789,86586.000000000,1718095760.967395067
1718095760.968402,,,,-0.221877500,-0.221618906,86587.000000000,1718095760.968402147
1718095760.968640,176.774856567,17493.000000000,1718095760.968639612,,,,
1718095760.969409,,,,-0.006810797,-0.008956268,86588.000000000,1718095760.969409227
1718095760.970416,,,,-0.125931695,-0.127115533,86589.000000000,1718095760.970416307
1718095760.971423,,,,-0.221252441,-0.222965181,86590.000000000,1718095760.971423388
1718095760.972430,,,,-0.272002041,-0.273834974,86591.000000000,1718095760.972430468
1718095760.973438,,,,-0.530582130,-0.533184350,86592.000000000,1718095760.973437548
1718095760.973640,180.476058960,17494.000000000,1718095760.973639727,,,,
1718095760.974445,,,,-0.761924267,-0.763612926,86593.000000000,1718095760.974444628
1718095760.975452,,,,-0.839551151,-0.843163133,86594.000000000,1718095760.975451708
1718095760.976459,,,,-0.708001316,-0.707598507,86595.000000000,1718095760.976458788
1718095760.977466,,,,0.041126046,0.046865873,86596.000000000,1718095760.977465868
1718095760.978473,,,,0.973394275,0.976345360,86597.000000000,1718095760.978472948
1718095760.978640,184.172576904,17495.000000000,1718095760.978639603,,,,
1718095760.979480,,,,1.308158875,1.311710954,86598.000000000,1718095760.979480028
1718095760.980487,,,,1.291594863,1.293079495,86599.000000000,1718095760.980487108
1718095760.981494,,,,0.716593206,0.716082454,86600.000000000,1718095760.981494188
1718095760.982501,,,,-0.191297919,-0.195222393,86601.000000000,1718095760.982501268
1718095760.983508,,,,-0.885708988,-0.888094902,86602.000000000,1718095760.983508348
1718095760.983640,187.718322754,17496.000000000,1718095760.983639717,,,,
1718095760.984515,,,,-0.755769849,-0.754982412,86603.000000000,1718095760.984515429
1718095760.985523,,,,-0.121700555,-0.122668035,86604.000000000,1718095760.985522509
1718095760.986530,,,,0.083581641,0.081484251,86605.000000000,1718095760.986529589
1718095760.987537,,,,-0.028254962,-0.028573351,86606.000000000,1718095760.987536669
1718095760.988544,,,,-0.308784068,-0.309414983,86607.000000000,1718095760.988543749
1718095760.988640,190.935287476,17497.000000000,1718095760.988639593,,,,
1718095760.989551,,,,-0.812914252,-0.815035701,86608.000000000,1718095760.989550829
1718095760.990558,,,,-1.136523962,-1.137034655,86609.000000000,1718095760.990557909
1718095760.991565,,,,-1.021538019,-1.022673845,86610.000000000,1718095760.991564989
1718095760.992572,,,,-0.907369554,-0.906533957,86611.000000000,1718095760.992572069
1718095760.993579,,,,-0.778704524,-0.779864371,86612.000000000,1718095760.993579149
1718095760.993640,194.003005981,17498.000000000,1718095760.993639708,,,,
1718095760.994586,,,,-0.568157494,-0.568187356,86613.000000000,1718095760.994586229
1718095760.995593,,,,-0.352105111,-0.351918668,86614.000000000,1718095760.995593309
1718095760.996600,,,,-0.333954513,-0.332157314,86615.000000000,1718095760.996600389
1718095760.997607,,,,-0.310803473,-0.308429301,86616.000000000,1718095760.997607470
1718095760.998615,,,,-0.606766582,-0.607974470,86617.000000000,1718095760.998614550
1718095760.998640,196.630218506,17499.000000000,1718095760.998639584,,,,
1718095760.999622,,,,-1.025288343,-1.029357076,86618.000000000,1718095760.999621630
1718095761.000629,,,,-1.053439856,-1.053854465,86619.000000000,1718095761.000628710
1718095761.001636,,,,-0.971942425,-0.973318636,86620.000000000,1718095761.001635790
1718095761.002394,201.231094360,17501.000000000,1718095761.002394438,,,,
1718095761.002643,,,,-0.760265470,-0.762483060,86621.000000000,1718095761.002642870
1718095761.003640,199.093414307,17500.000000000,1718095761.003639698,,,,
1718095761.003650,,,,-0.480553746,-0.481112540,86622.000000000,1718095761.003649950
1718095761.004657,,,,-0.499617875,-0.500681520,86623.000000000,1718095761.004657030
1718095761.005664,,,,-0.576739967,-0.576481342,86624.000000000,1718095761.005664110
1718095761.006671,,,,-0.584889710,-0.584174335,86625.000000000,1718095761.006671190
1718095761.007395,203.140975952,17502.000000000,1718095761.007394552,,,,
1718095761.007678,,,,-0.664391756,-0.665070772,86626.000000000,1718095761.007678270
1718095761.008685,,,,-0.903907716,-0.903528929,86627.000000000,1718095761.008685350
1718095761.009692,,,,-0.918957055,-0.918794632,86628.000000000,1718095761.009692430
1718095761.010700,,,,-0.637923121,-0.636414468,86629.000000000,1718095761.010699511
1718095761.011707,,,,-0.332103372,-0.330955297,86630.000000000,1718095761.011706591
1718095761.012714,,,,-0.116940528,-0.117210835,86631.000000000,1718095761.012713671
1718095761.013721,,,,-0.023134327,-0.023524838,86632.000000000,1718095761.013720751
1718095761.014728,,,,-0.065565884,-0.065523669,86633.000000000,1718095761.014727831
1718095761.015735,,,,-0.301091075,-0.301962405,86634.000000000,1718095761.015734911
1718095761.016742,,,,-0.675041735,-0.675696671,86635.000000000,1718095761.016741991
1718095761.017749,,,,-0.945305526,-0.942282259,86636.000000000,1718095761.017749071
1718095761.018756,,,,-0.862245440,-0.857106626,86637.000000000,1718095761.018756151
1718095761.019763,,,,0.020162692,0.022753207,86638.000000000,1718095761.019763231
1718095761.020770,,,,0.949209452,0.947785199,86639.000000000,1718095761.020770311
1718095761.021777,,,,1.081576705,1.081739068,86640.000000000,1718095761.021777391
1718095761.022784,,,,1.044145584,1.042192459,86641.000000000,1718095761.022784472
1718095761.023792,,,,0.938679695,0.936918914,86642.000000000,1718095761.023791552
1718095761.024799,,,,0.398873359,0.397256792,86643.000000000,1718095761.024798632
1718095761.025806,,,,-0.189326599,-0.188947812,86644.000000000,1718095761.025805712
1718095761.026813,,,,-0.300802588,-0.299029469,86645.000000000,1718095761.026812792
1718095761.027820,,,,-0.477572709,-0.479165256,86646.000000000,1718095761.027819872
1718095761.028827,,,,-0.913307548,-0.914924145,86647.000000000,1718095761.028826952
1718095761.029834,,,,-1.035601735,-1.036088467,86648.000000000,1718095761.029834032
1718095761.030841,,,,-0.946195006,-0.943556428,86649.000000000,1718095761.030841112
1718095761.031848,,,,-0.814236462,-0.813280702,86650.000000000,1718095761.031848192
1718095761.032855,,,,-0.802096009,-0.802270174,86651.000000000,1718095761.032855272
1718095761.033862,,,,-0.910302460,-0.908192754,86652.000000000,1718095761.033862352
1718095761.034869,,,,-1.022691965,-1.020702481,86653.000000000,1718095761.034869432
1718095761.035877,,,,-1.025793195,-1.026520371,86654.000000000,1718095761.035876513
1718095761.036884,,,,-0.806976199,-0.809169769,86655.000000000,1718095761.036883593
1718095761.037891,,,,-0.571402967,-0.571625173,86656.000000000,1718095761.037890673
1718095761.038898,,,,-0.411196768,-0.412356585,86657.000000000,1718095761.038897753
1718095761.039905,,,,-0.300994933,-0.300495923,86658.000000000,1718095761.039904833
1718095761.040912,,,,-0.196130067,-0.194933906,86659.000000000,1718095761.040911913
1718095761.041919,,,,-0.284863710,-0.287345767,86660.000000000,1718095761.041918993
1718095761.042926,,,,-0.447810531,-0.451807112,86661.000000000,1718095761.042926073
1718095761.043933,,,,-0.530341685,-0.531501532,86662.000000000,1718095761.043933153
1718095761.044940,,,,-0.538852036,-0.536477923,86663.000000000,1718095761.044940233
1718095761.045947,,,,-0.557964265,-0.556840241,86664.000000000,1718095761.045947313
1718095761.046954,,,,-0.526831806,-0.529313803,86665.000000000,1718095761.046954393
1718095761.047961,,,,-0.576211035,-0.579029679,86666.000000000,1718095761.047961473
1718095761.048969,,,,-0.558517218,-0.559652984,86667.000000000,1718095761.048968554
1718095761.049976,,,,-0.487765908,-0.488156408,86668.000000000,1718095761.049975634
1718095761.050983,,,,-0.480481625,-0.483925283,86669.000000000,1718095761.050982714
1718095761.051990,,,,-0.475024402,-0.473996520,86670.000000000,1718095761.051989794
1718095761.052394,220.932418823,17511.000000000,1718095761.052394390,,,,
1718095761.052997,,,,-0.355494827,-0.355188161,86671.000000000,1718095761.052996874
1718095761.054004,,,,-0.337031692,-0.335426837,86672.000000000,1718095761.054003954
1718095761.055011,,,,-0.382828921,-0.381777018,86673.000000000,1718095761.055011034
1718095761.056018,,,,-0.383694381,-0.380935580,86674.000000000,1718095761.056018114
1718095761.057025,,,,0.146231294,0.147980392,86675.000000000,1718095761.057025194
1718095761.057395,222.994216919,17512.000000000,1718095761.057394505,,,,
1718095761.058032,,,,0.874419332,0.874774098,86676.000000000,1718095761.058032274
1718095761.059039,,,,1.050011516,1.048274636,86677.000000000,1718095761.059039354
1718095761.060046,,,,1.014599800,1.014473677,86678.000000000,1718095761.060046434
1718095761.061054,,,,0.368413985,0.367494583,86679.000000000,1718095761.061053514
1718095761.062061,,,,-0.684441566,-0.687644839,86680.000000000,1718095761.062060595
1718095761.062394,224.942459106,17513.000000000,1718095761.062394381,,,,
1718095761.063068,,,,-1.218526244,-1.219541907,86681.000000000,1718095761.063067675
1718095761.064075,,,,-0.903186500,-0.904418409,86682.000000000,1718095761.064074755
1718095761.065082,,,,-0.494857848,-0.496402323,86683.000000000,1718095761.065081835
1718095761.066089,,,,-0.411461204,-0.412356585,86684.000000000,1718095761.066088915
1718095761.067096,,,,-0.380929738,-0.380911559,86685.000000000,1718095761.067095995
1718095761.067394,226.825576782,17514.000000000,1718095761.067394495,,,,
1718095761.068103,,,,-0.244643882,-0.245635420,86686.000000000,1718095761.068103075
1718095761.069110,,,,-0.096914753,-0.097257182,86687.000000000,1718095761.069110155
1718095761.070117,,,,-0.001810365,-0.001623903,86688.000000000,1718095761.070117235
1718095761.071124,,,,0.088774398,0.089225307,86689.000000000,1718095761.071124315
1718095761.072131,,,,0.050982669,0.050520036,86690.000000000,1718095761.072131395
1718095761.072394,228.531097412,17515.000000000,1718095761.072394371,,,,
1718095761.073138,,,,0.092861295,0.092831388,86691.000000000,1718095761.073138475
1718095761.074146,,,,0.104064189,0.105188228,86692.000000000,1718095761.074145555
1718095761.075153,,,,0.023576450,0.023979275,86693.000000000,1718095761.075152636
1718095761.076160,,,,0.142577142,0.141008645,86694.000000000,1718095761.076159716
1718095761.077167,,,,0.035957329,0.035518736,86695.000000000,1718095761.077166796
1718095761.077394,230.187820435,17516.000000000,1718095761.077394485,,,,
1718095761.078174,,,,-0.175310969,-0.173465699,86696.000000000,1718095761.078173876
1718095761.079181,,,,-0.269814342,-0.269171119,86697.000000000,1718095761.079180956
1718095761.080188,,,,-0.395137697,-0.394350201,86698.000000000,1718095761.080188036
1718095761.081195,,,,-0.614411473,-0.615090489,86699.000000000,1718095761.081195116
1718095761.082202,,,,-0.666050553,-0.664157212,86700.000000000,1718095761.082202196
1718095761.082394,231.602890015,17517.000000000,1718095761.082394361,,,,
1718095761.083209,,,,-0.612560332,-0.611412287,86701.000000000,1718095761.083209276
1718095761.084216,,,,-0.706775248,-0.707406163,86702.000000000,1718095761.084216356
1718095761.085223,,,,-0.889267027,-0.890955687,86703.000000000,1718095761.085223436
1718095761.086231,,,,-0.985260904,-0.987334251,86704.000000000,1718095761.086230516
1718095761.087238,,,,-0.888858318,-0.889080524,86705.000000000,1718095761.087237597
1718095761.087394,232.937271118,17518.000000000,1718095761.087394476,,,,
1718095761.088245,,,,-0.739686728,-0.737577021,86706.000000000,1718095761.088244677
1718095761.089252,,,,-0.506517529,-0.504023194,86707.000000000,1718095761.089251757
1718095761.090259,,,,-0.011883352,-0.009461120,86708.000000000,1718095761.090258837
1718095761.091266,,,,0.343916684,0.346988022,86709.000000000,1718095761.091265917
1718095761.092273,,,,0.280906409,0.281429440,86710.000000000,1718095761.092272997
1718095761.092394,234.030258179,17519.000000000,1718095761.092394352,,,,
1718095761.093280,,,,0.005041190,0.003761179,86711.000000000,1718095761.093280077
1718095761.094287,,,,-0.382348120,-0.383988738,86712.000000000,1718095761.094287157
1718095761.095294,,,,-1.000743032,-1.004258752,86713.000000000,1718095761.095294237
1718095761.096301,,,,-1.347239375,-1.348543406,86714.000000000,1718095761.096301317
1718095761.097308,,,,-1.033390045,-1.033323765,86715.000000000,1718095761.097308397
1718095761.097394,235.139114380,17520.000000000,1718095761.097394466,,,,
1718095761.098315,,,,-0.265294701,-0.263906240,86716.000000000,1718095761.098315477
1718095761.099323,,,,0.451401949,0.453391463,86717.000000000,1718095761.099322557
1718095761.100330,,,,0.486068428,0.484908611,86718.000000000,1718095761.100329638
1718095761.101337,,,,0.261770159,0.262437433,86719.000000000,1718095761.101336718
1718095761.102344,,,,0.171401754,0.174761564,86720.000000000,1718095761.102343798
1718095761.103351,,,,-0.076624535,-0.076798677,86721.000000000,1718095761.103350878
1718095761.104358,,,,0.063868396,0.064968400,86722.000000000,1718095761.104357958
1718095761.105365,,,,0.323169708,0.324101418,86723.000000000,1718095761.105365038
1718095761.106372,,,,0.044443641,0.043981008,86724.000000000,1718095761.106372118
1718095761.107379,,,,-0.497502327,-0.500393033,86725.000000000,1718095761.107379198
1718095761.108386,,,,-0.773030996,-0.774671614,86726.000000000,1718095761.108386278
1718095761.109393,,,,-0.717593491,-0.716205001,86727.000000000,1718095761.109393358
1718095761.110400,,,,-0.509522617,-0.508110046,86728.000000000,1718095761.110400438
1718095761.111408,,,,-0.244066909,-0.243471771,86729.000000000,1718095761.111407518
1718095761.112415,,,,-0.142327338,-0.140722483,86730.000000000,1718095761.112414598
1718095761.113422,,,,-0.113334440,-0.113364346,86731.000000000,1718095761.113421679
1718095761.114429,,,,-0.029168503,-0.029655175,86732.000000000,1718095761.114428759
1718095761.115436,,,,-0.049651045,-0.046291232,86733.000000000,1718095761.115435839
1718095761.116443,,,,0.248475730,0.249599770,86734.000000000,1718095761.116442919
1718095761.117450,,,,0.296051949,0.294507504,86735.000000000,1718095761.117449999
1718095761.118457,,,,-0.088933289,-0.090477750,86736.000000000,1718095761.118457079
1718095761.119464,,,,-0.777406335,-0.776907384,86737.000000000,1718095761.119464159
1718095761.120471,,,,-0.931073487,-0.931776524,86738.000000000,1718095761.120471239
1718095761.121478,,,,-0.417807907,-0.420650572,86739.000000000,1718095761.121478319
1718095761.122485,,,,0.222127289,0.224453360,86740.000000000,1718095761.122485399
1718095761.123492,,,,0.505757630,0.508348107,86741.000000000,1718095761.123492479
1718095761.124500,,,,0.193519041,0.193368942,86742.000000000,1718095761.124499559
1718095761.125507,,,,-0.645471871,-0.648362577,86743.000000000,1718095761.125506639
1718095761.126514,,,,-1.149409771,-1.148790479,86744.000000000,1718095761.126513720
1718095761.127521,,,,-1.159602880,-1.159512639,86745.000000000,1718095761.127520800
1718095761.128528,,,,-0.868279636,-0.867492139,86746.000000000,1718095761.128527880
1718095761.129535,,,,-0.648957729,-0.647352874,86747.000000000,1718095761.129534960
1718095761.130542,,,,-0.640062749,-0.638938725,86748.000000000,1718095761.130542040
1718095761.131549,,,,-0.740528166,-0.742361128,86749.000000000,1718095761.131549120
1718095761.132556,,,,-0.483823240,-0.484021425,86750.000000000,1718095761.132556200
1718095761.133563,,,,0.341200113,0.344127178,86751.000000000,1718095761.133563280
1718095761.134570,,,,1.169276595,1.170809388,86752.000000000,1718095761.134570360
1718095761.135577,,,,1.330540538,1.330077887,86753.000000000,1718095761.135577440
1718095761.136585,,,,0.808115542,0.804960370,86754.000000000,1718095761.136584520
1718095761.137592,,,,-0.366505414,-0.368386418,86755.000000000,1718095761.137591600
1718095761.138599,,,,-1.181840420,-1.181966424,86756.000000000,1718095761.138598680
1718095761.139606,,,,-1.542520642,-1.544185281,86757.000000000,1718095761.139605761
1718095761.140613,,,,-1.264563918,-1.264954448,86758.000000000,1718095761.140612841
1718095761.141620,,,,-0.875684083,-0.879344106,86759.000000000,1718095761.141619921
1718095761.142627,,,,-0.791782618,-0.793447256,86760.000000000,1718095761.142627001
1718095761.143634,,,,-0.826256752,-0.824651897,86761.000000000,1718095761.143634081
1718095761.144641,,,,-0.767261267,-0.766209304,86762.000000000,1718095761.144641161
1718095761.145648,,,,-0.539693475,-0.535997093,86763.000000000,1718095761.145648241
1718095761.146655,,,,-0.106074199,-0.105262682,86764.000000000,1718095761.146655321
1718095761.147662,,,,0.175729051,0.175795302,86765.000000000,1718095761.147662401
1718095761.148669,,,,0.101443768,0.102760136,86766.000000000,1718095761.148669481
1718095761.149677,,,,0.380145788,0.383721948,86767.000000000,1718095761.149676561
1718095761.150684,,,,0.699885011,0.701249421,86768.000000000,1718095761.150683641
1718095761.151691,,,,0.756981313,0.756735027,86769.000000000,1718095761.151690722
1718095761.152698,,,,0.643630147,0.644633949,86770.000000000,1718095761.152697802
1718095761.153705,,,,0.179142803,0.175771266,86771.000000000,1718095761.153704882
1718095761.154712,,,,-0.573734879,-0.575495720,86772.000000000,1718095761.154711962
1718095761.155719,,,,-0.739229977,-0.738947332,86773.000000000,1718095761.155719042
1718095761.156726,,,,-0.410427481,-0.408654332,86774.000000000,1718095761.156726122
1718095761.157733,,,,-0.309529305,-0.308693767,86775.000000000,1718095761.157733202
1718095761.158740,,,,-0.453075409,-0.453489959,86776.000000000,1718095761.158740282
1718095761.159747,,,,-0.647058547,-0.648819387,86777.000000000,1718095761.159747362
1718095761.160754,,,,-0.627225101,-0.629394591,86778.000000000,1718095761.160754442
1718095761.161762,,,,-0.281714410,-0.280999064,86779.000000000,1718095761.161761522
1718095761.162769,,,,0.641538620,0.644754171,86780.000000000,1718095761.162768602
1718095761.163776,,,,1.305081606,1.306806684,86781.000000000,1718095761.163775682
1718095761.164783,,,,0.996809721,0.996755779,86782.000000000,1718095761.164782763
1718095761.165790,,,,0.316847026,0.315975696,86783.000000000,1718095761.165789843
1718095761.166797,,,,-0.550872326,-0.552705288,86784.000000000,1718095761.166796923
1718095761.167786,249.025741577,17531.000000000,1718095761.167785645,,,,
1718095761.167804,,,,-1.154626489,-1.155401707,86785.000000000,1718095761.167804003
1718095761.168811,,,,-1.208284974,-1.209540963,86786.000000000,1718095761.168811083
1718095761.169818,,,,-1.066902637,-1.069120169,86787.000000000,1718095761.169818163
1718095761.170825,,,,-1.225810528,-1.227931976,86788.000000000,1718095761.170825243
1718095761.171832,,,,-1.414552927,-1.417251229,86789.000000000,1718095761.171832323
1718095761.172786,250.405166626,17532.000000000,1718095761.172785759,,,,
1718095761.172839,,,,-1.275213838,-1.272719502,86790.000000000,1718095761.172839403
1718095761.173846,,,,-1.017619491,-1.017288804,86791.000000000,1718095761.173846483
1718095761.174854,,,,-0.849335670,-0.849125147,86792.000000000,1718095761.174853563
1718095761.175861,,,,-0.184494451,-0.183081925,86793.000000000,1718095761.175860643
1718095761.176868,,,,0.975269437,0.978196502,86794.000000000,1718095761.176867723
1718095761.177786,251.608001709,17533.000000000,1718095761.177785635,,,,
1718095761.177875,,,,1.302942038,1.305075765,86795.000000000,1718095761.177874804
1718095761.178882,,,,1.082201719,1.082700729,86796.000000000,1718095761.178881884
1718095761.179889,,,,0.319779992,0.317730665,86797.000000000,1718095761.179888964
1718095761.180896,,,,-0.614627838,-0.614898145,86798.000000000,1718095761.180896044
1718095761.181903,,,,-1.078874826,-1.080539465,86799.000000000,1718095761.181903124
1718095761.182786,252.762634277,17534.000000000,1718095761.182785749,,,,
1718095761.182910,,,,-0.872919440,-0.872805119,86800.000000000,1718095761.182910204
1718095761.183917,,,,-0.681123972,-0.677331448,86801.000000000,1718095761.183917284
1718095761.184924,,,,-0.813611448,-0.811694026,86802.000000000,1718095761.184924364
1718095761.185931,,,,-0.951243520,-0.951826334,86803.000000000,1718095761.185931444
1718095761.186939,,,,-0.847845137,-0.850759923,86804.000000000,1718095761.186938524
1718095761.187786,253.885070801,17535.000000000,1718095761.187785625,,,,
1718095761.187946,,,,-0.832002461,-0.833715200,86805.000000000,1718095761.187945604
1718095761.188953,,,,-1.013027668,-1.010918021,86806.000000000,1718095761.188952684
1718095761.189960,,,,-1.053560019,-1.053638101,86807.000000000,1718095761.189959764
1718095761.190967,,,,-0.972038567,-0.972765684,86808.000000000,1718095761.190966845
1718095761.191974,,,,-0.661891580,-0.661440670,86809.000000000,1718095761.191973925
1718095761.192786,254.959304810,17536.000000000,1718095761.192785740,,,,
1718095761.192981,,,,-0.091241181,-0.088434301,86810.000000000,1718095761.192981005
1718095761.193988,,,,0.305235445,0.305109382,86811.000000000,1718095761.193988085
1718095761.194995,,,,0.463927060,0.464161605,86812.000000000,1718095761.194995165
1718095761.196002,,,,1.319650173,1.323442698,86813.000000000,1718095761.196002245
1718095761.197009,,,,2.262712717,2.263331890,86814.000000000,1718095761.197009325
1718095761.197786,255.985366821,17537.000000000,1718095761.197785616,,,,
1718095761.198016,,,,1.797215581,1.796728969,86815.000000000,1718095761.198016405
1718095761.199023,,,,0.917524040,0.917758584,86816.000000000,1718095761.199023485
1718095761.200031,,,,-0.401099741,-0.401394099,86817.000000000,1718095761.200030565
1718095761.201038,,,,-1.491915345,-1.493411660,86818.000000000,1718095761.201037645
1718095761.202045,,,,-1.621782303,-1.621187210,86819.000000000,1718095761.202044725
1718095761.202786,256.867095947,17538.000000000,1718095761.202785730,,,,
1718095761.203052,,,,-1.092193246,-1.091646194,86820.000000000,1718095761.203051805
1718095761.204059,,,,-0.915831804,-0.915332794,86821.000000000,1718095761.204058886
1718095761.205066,,,,-1.122436285,-1.119509101,86822.000000000,1718095761.205065966
1718095761.206073,,,,-1.152679205,-1.148285627,86823.000000000,1718095761.206073046
1718095761.207080,,,,-0.528033793,-0.524625897,86824.000000000,1718095761.207080126
1718095761.207786,257.588470459,17539.000000000,1718095761.207785606,,,,
1718095761.208087,,,,0.531168461,0.533999383,86825.000000000,1718095761.208087206
1718095761.209094,,,,1.058065057,1.057217717,86826.000000000,1718095761.209094286
1718095761.210101,,,,1.448435426,1.451867342,86827.000000000,1718095761.210101366
1718095761.211108,,,,1.913716078,1.918301940,86828.000000000,1718095761.211108446
1718095761.211368,258.902893066,17541.000000000,1718095761.211368084,,,,
1718095761.212116,,,,1.525461316,1.525190949,86829.000000000,1718095761.212115526
1718095761.212786,258.229705811,17540.000000000,1718095761.212785721,,,,
1718095761.213123,,,,0.725896895,0.722669601,86830.000000000,1718095761.213122606
1718095761.214130,,,,-0.148746163,-0.150338694,86831.000000000,1718095761.214129686
1718095761.215137,,,,-0.850441515,-0.850687802,86832.000000000,1718095761.215136766
1718095761.216144,,,,-1.304471254,-1.301351786,86833.000000000,1718095761.216143847
1718095761.216368,259.495941162,17542.000000000,1718095761.216368198,,,,
1718095761.217151,,,,-1.240595460,-1.241058111,86834.000000000,1718095761.217150927
1718095761.218158,,,,-0.691822052,-0.691563427,86835.000000000,1718095761.218158007
1718095761.219165,,,,-0.493727952,-0.493950188,86836.000000000,1718095761.219165087
1718095761.220172,,,,-0.838397205,-0.840927362,86837.000000000,1718095761.220172167
1718095761.221179,,,,-0.989395857,-0.987598717,86838.000000000,1718095761.221179247
1718095761.221368,260.024871826,17543.000000000,1718095761.221368074,,,,
1718095761.222186,,,,-0.638572216,-0.634322941,86839.000000000,1718095761.222186327
1718095761.223193,,,,-0.339291513,-0.336700976,86840.000000000,1718095761.223193407
1718095761.224200,,,,0.009296366,0.009651111,86841.000000000,1718095761.224200487
1718095761.225208,,,,0.106227838,0.105452672,86842.000000000,1718095761.225207567
1718095761.226215,,,,-0.469735503,-0.472626209,86843.000000000,1718095761.226214647
1718095761.226368,260.633972168,17544.000000000,1718095761.226368189,,,,
1718095761.227222,,,,-1.086399436,-1.088761330,86844.000000000,1718095761.227221727
1718095761.228229,,,,-1.148303866,-1.151483059,86845.000000000,1718095761.228228807
1718095761.229236,,,,-1.005695343,-1.007624507,86846.000000000,1718095761.229235888
1718095761.230243,,,,-0.858975947,-0.861433923,86847.000000000,1718095761.230242968
1718095761.231250,,,,-0.934992135,-0.934517145,86848.000000000,1718095761.231250048
1718095761.232257,,,,-0.736729741,-0.736976027,86849.000000000,1718095761.232257128
1718095761.233264,,,,-0.339387655,-0.335787445,86850.000000000,1718095761.233264208
1718095761.234271,,,,-0.109343715,-0.105358846,86851.000000000,1718095761.234271288
1718095761.235278,,,,0.940001965,0.942977130,86852.000000000,1718095761.235278368
1718095761.236285,,,,2.518744469,2.519603968,86853.000000000,1718095761.236285448
1718095761.237293,,,,2.777204275,2.778905392,86854.000000000,1718095761.237292528
1718095761.238300,,,,2.432366610,2.431471348,86855.000000000,1718095761.238299608
1718095761.239307,,,,1.057055354,1.054573298,86856.000000000,1718095761.239306688
1718095761.240314,,,,-0.897993743,-0.901749909,86857.000000000,1718095761.240313768
1718095761.241321,,,,-1.900219917,-1.901427865,86858.000000000,1718095761.241320848
1718095761.242328,,,,-1.655679464,-1.655132413,86859.000000000,1718095761.242327929
1718095761.243335,,,,-1.293484688,-1.293514609,86860.000000000,1718095761.243335009
1718095761.244342,,,,-1.373371363,-1.372487783,86861.000000000,1718095761.244342089
1718095761.245349,,,,-1.460398197,-1.460139632,86862.000000000,1718095761.245349169
1718095761.246356,,,,-1.401859522,-1.401600838,86863.000000000,1718095761.246356249
1718095761.247363,,,,-0.875010967,-0.873838842,86864.000000000,1718095761.247363329
1718095761.248370,,,,0.515085340,0.518228769,86865.000000000,1718095761.248370409
1718095761.249377,,,,1.299768686,1.302767873,86866.000000000,1718095761.249377489
1718095761.250385,,,,1.406628847,1.408522248,86867.000000000,1718095761.250384569
1718095761.251392,,,,1.033760071,1.031398177,86868.000000000,1718095761.251391649
1718095761.252399,,,,-0.056911290,-0.060523234,86869.000000000,1718095761.252398729
1718095761.253406,,,,-0.573662758,-0.572658896,86870.000000000,1718095761.253405809
1718095761.254413,,,,-0.509282172,-0.509865046,86871.000000000,1718095761.254412889
1718095761.255420,,,,0.181691095,0.181276545,86872.000000000,1718095761.255419970
1718095761.256427,,,,0.384400964,0.384154677,86873.000000000,1718095761.256427050
1718095761.257434,,,,-0.073859870,-0.074130177,86874.000000000,1718095761.257434130
1718095761.258441,,,,-0.258803755,-0.257631660,86875.000000000,1718095761.258441210
1718095761.259448,,,,-0.734638214,-0.734523892,86876.000000000,1718095761.259448290
1718095761.260455,,,,-0.511157334,-0.511451721,86877.000000000,1718095761.260455370
1718095761.261368,267.589172363,17551.000000000,1718095761.261368036,,,,
1718095761.261462,,,,-0.635446966,-0.640188813,86878.000000000,1718095761.261462450
1718095761.262470,,,,-1.402292252,-1.407250404,86879.000000000,1718095761.262469530
1718095761.263477,,,,-1.735758543,-1.737447262,86880.000000000,1718095761.263476610
1718095761.264484,,,,-1.488237143,-1.486872673,86881.000000000,1718095761.264483690
1718095761.265491,,,,-0.883016467,-0.880570173,86882.000000000,1718095761.265490770
1718095761.266368,268.967254639,17552.000000000,1718095761.266368151,,,,
1718095761.266498,,,,-0.501853645,-0.502148032,86883.000000000,1718095761.266497850
1718095761.267505,,,,-0.608785987,-0.609152436,86884.000000000,1718095761.267504930
1718095761.268512,,,,-0.616623223,-0.615739584,86885.000000000,1718095761.268512011
1718095761.269519,,,,-0.264861971,-0.263930261,86886.000000000,1718095761.269519091
1718095761.270526,,,,0.214794934,0.214957342,86887.000000000,1718095761.270526171
1718095761.271368,270.489593506,17553.000000000,1718095761.271368027,,,,
1718095761.271533,,,,0.497559786,0.498299181,86888.000000000,1718095761.271533251
1718095761.272540,,,,0.721930206,0.719832778,86889.000000000,1718095761.272540331
1718095761.273547,,,,0.837997913,0.838977695,86890.000000000,1718095761.273547411
1718095761.274554,,,,1.410715818,1.415061235,86891.000000000,1718095761.274554491
1718095761.275562,,,,1.224377513,1.224636078,86892.000000000,1718095761.275561571
1718095761.276368,272.027954102,17554.000000000,1718095761.276368141,,,,
1718095761.276569,,,,0.573095202,0.572344065,86893.000000000,1718095761.276568651
1718095761.277576,,,,-0.245100662,-0.244793996,86894.000000000,1718095761.277575731
1718095761.278583,,,,-1.361904025,-1.363400459,86895.000000000,1718095761.278582811
1718095761.279590,,,,-1.488790035,-1.489204645,86896.000000000,1718095761.279589891
1718095761.280597,,,,-0.956989229,-0.954831421,86897.000000000,1718095761.280596972
1718095761.281368,273.502288818,17555.000000000,1718095761.281368017,,,,
1718095761.281604,,,,-0.595948339,-0.595160842,86898.000000000,1718095761.281604052
1718095761.282611,,,,-0.402397931,-0.402019143,86899.000000000,1718095761.282611132
1718095761.283618,,,,-0.314145088,-0.314199030,86900.000000000,1718095761.283618212
1718095761.284625,,,,-0.246543095,-0.244769961,86901.000000000,1718095761.284625292
1718095761.285632,,,,0.099232040,0.100452244,86902.000000000,1718095761.285632372
1718095761.286368,274.912475586,17556.000000000,1718095761.286368132,,,,
1718095761.286639,,,,0.734623611,0.735939980,86903.000000000,1718095761.286639452
1718095761.287647,,,,1.015393138,1.014137149,86904.000000000,1718095761.287646532
1718095761.288654,,,,0.851556778,0.849868059,86905.000000000,1718095761.288653612
1718095761.289661,,,,-0.195456937,-0.196496546,86906.000000000,1718095761.289660692
1718095761.290668,,,,-1.443882346,-1.445378661,86907.000000000,1718095761.290667772
1718095761.291368,276.386810303,17557.000000000,1718095761.291368008,,,,
1718095761.291675,,,,-1.800523758,-1.801515341,86908.000000000,1718095761.291674852
1718095761.292682,,,,-1.385559916,-1.385493755,86909.000000000,1718095761.292681932
1718095761.293689,,,,-0.592991352,-0.591362476,86910.000000000,1718095761.293689013
1718095761.294696,,,,-0.120835096,-0.120937116,86911.000000000,1718095761.294696093
1718095761.295703,,,,-0.068570949,-0.069899045,86912.000000000,1718095761.295703173
1718095761.296368,277.893341064,17558.000000000,1718095761.296368122,,,,
1718095761.296710,,,,-0.275968730,-0.276142865,86913.000000000,1718095761.296710253
1718095761.297717,,,,-0.559550941,-0.557128727,86914.000000000,1718095761.297717333
1718095761.298724,,,,-0.715405822,-0.713632643,86915.000000000,1718095761.298724413
1718095761.299731,,,,-0.452570558,-0.451975405,86916.000000000,1718095761.299731493
1718095761.300739,,,,0.042400192,0.043355953,86917.000000000,1718095761.300738573
1718095761.301368,279.239624023,17559.000000000,1718095761.301367998,,,,
1718095761.301746,,,,0.331776202,0.332034796,86918.000000000,1718095761.301745653
1718095761.302753,,,,-0.008541716,-0.010398701,86919.000000000,1718095761.302752733
1718095761.303760,,,,-0.331189841,-0.330931246,86920.000000000,1718095761.303759813
1718095761.304767,,,,-0.239162639,-0.238230929,86921.000000000,1718095761.304766893
1718095761.305774,,,,0.080937184,0.080787078,86922.000000000,1718095761.305773973
1718095761.306368,280.778411865,17560.000000000,1718095761.306368113,,,,
1718095761.306781,,,,0.326102644,0.326337188,86923.000000000,1718095761.306781054
1718095761.307788,,,,0.467436999,0.469306290,86924.000000000,1718095761.307788134
1718095761.308795,,,,-0.013181541,-0.015110647,86925.000000000,1718095761.308795214
1718095761.309802,,,,-0.344075561,-0.343071729,86926.000000000,1718095761.309802294
1718095761.310809,,,,-0.378285259,-0.379997998,86927.000000000,1718095761.310809374
1718095761.311816,,,,-0.627802074,-0.632640064,86928.000000000,1718095761.311816454
1718095761.312824,,,,-0.950329959,-0.948172212,86929.000000000,1718095761.312823534
1718095761.313831,,,,-0.789066017,-0.786090851,86930.000000000,1718095761.313830614
1718095761.314838,,,,-0.057800788,-0.054945827,86931.000000000,1718095761.314837694
1718095761.315845,,,,0.385554910,0.387352079,86932.000000000,1718095761.315844774
1718095761.316852,,,,0.240301937,0.238949805,86933.000000000,1718095761.316851854
1718095761.317859,,,,-0.026379799,-0.028549312,86934.000000000,1718095761.317858934
1718095761.318866,,,,0.226358429,0.224164873,86935.000000000,1718095761.318866014
1718095761.319873,,,,0.445055246,0.445938885,86936.000000000,1718095761.319873095
1718095761.320880,,,,0.429212540,0.429519206,86937.000000000,1718095761.320880175
1718095761.321887,,,,0.299465716,0.300325304,86938.000000000,1718095761.321887255
1718095761.322894,,,,0.021340678,0.020132788,86939.000000000,1718095761.322894335
1718095761.323901,,,,-0.047727801,-0.047565382,86940.000000000,1718095761.323901415
1718095761.324908,,,,0.121157013,0.121415593,86941.000000000,1718095761.324908495
1718095761.325916,,,,-0.078860305,-0.076822720,86942.000000000,1718095761.325915575
1718095761.326923,,,,-0.627008736,-0.627038598,86943.000000000,1718095761.326922655
1718095761.327930,,,,-1.163064718,-1.163142681,86944.000000000,1718095761.327929735
1718095761.328937,,,,-1.258866310,-1.256540298,86945.000000000,1718095761.328936815
1718095761.329944,,,,-0.900686264,-0.899009287,86946.000000000,1718095761.329943895
1718095761.330951,,,,-0.332512081,-0.329320550,86947.000000000,1718095761.330950975
1718095761.331958,,,,0.226118028,0.226376608,86948.000000000,1718095761.331958055
1718095761.332965,,,,0.340791404,0.340112418,86949.000000000,1718095761.332965136
1718095761.333972,,,,-0.068883479,-0.069370151,86950.000000000,1718095761.333972216
1718095761.334979,,,,-0.615757763,-0.616701186,86951.000000000,1718095761.334979296
1718095761.335986,,,,-0.364053279,-0.362784982,86952.000000000,1718095761.335986376
1718095761.336993,,,,0.641442418,0.642374158,86953.000000000,1718095761.336993456
1718095761.338001,,,,1.546905398,1.548846841,86954.000000000,1718095761.338000536
1718095761.339008,,,,1.726608515,1.725184202,86955.000000000,1718095761.339007616
1718095761.340015,,,,0.806576908,0.806186438,86956.000000000,1718095761.340014696
1718095761.341022,,,,-0.177138045,-0.176590979,86957.000000000,1718095761.341021776
1718095761.342029,,,,-0.383790553,-0.383868545,86958.000000000,1718095761.342028856
1718095761.343036,,,,-0.421173602,-0.420313984,86959.000000000,1718095761.343035936
1718095761.344043,,,,-0.633764088,-0.633481503,86960.000000000,1718095761.344043016
1718095761.345050,,,,-1.017499208,-1.018514872,86961.000000000,1718095761.345050097
1718095761.346057,,,,-1.246437311,-1.246827841,86962.000000000,1718095761.346057177
1718095761.347064,,,,-1.314496160,-1.316305041,86963.000000000,1718095761.347064257
1718095761.348071,,,,-1.197466731,-1.198289990,86964.000000000,1718095761.348071337
1718095761.349078,,,,-1.125970244,-1.127779126,86965.000000000,1718095761.349078417
1718095761.350085,,,,-0.898041785,-0.899225652,86966.000000000,1718095761.350085497
1718095761.351093,,,,0.219506875,0.222650319,86967.000000000,1718095761.351092577
1718095761.352100,,,,1.722281218,1.724943876,86968.000000000,1718095761.352099657
1718095761.353107,,,,1.950329781,1.951021075,86969.000000000,1718095761.353106737
1718095761.354114,,,,1.295633674,1.295724034,86970.000000000,1718095761.354113817
1718095761.355121,,,,-0.192067221,-0.193106830,86971.000000000,1718095761.355120897
1718095761.355424,298.985992432,17571.000000000,1718095761.355423927,,,,
1718095761.356128,,,,-1.622527599,-1.624601007,86972.000000000,1718095761.356127977
1718095761.357135,,,,-1.770449042,-1.771200180,86973.000000000,1718095761.357135057
1718095761.358142,,,,-1.041972518,-1.040319562,86974.000000000,1718095761.358142138
1718095761.359149,,,,-0.421918839,-0.418631166,86975.000000000,1718095761.359149218
1718095761.360156,,,,-0.314145088,-0.314367324,86976.000000000,1718095761.360156298
1718095761.360424,300.399322510,17572.000000000,1718095761.360424042,,,,
1718095761.361163,,,,-0.409009069,-0.410144836,86977.000000000,1718095761.361163378
1718095761.362170,,,,-0.559719265,-0.557176828,86978.000000000,1718095761.362170458
1718095761.363178,,,,-0.552795589,-0.552296579,86979.000000000,1718095761.363177538
1718095761.364185,,,,-0.380497009,-0.382402062,86980.000000000,1718095761.364184618
1718095761.365192,,,,-0.023230487,-0.022394933,86981.000000000,1718095761.365191698
1718095761.365424,301.748718262,17573.000000000,1718095761.365423918,,,,
1718095761.366199,,,,0.689138889,0.690383136,86982.000000000,1718095761.366198778
1718095761.367206,,,,0.745898604,0.746806264,86983.000000000,1718095761.367205858
1718095761.368213,,,,-0.014648015,-0.015351053,86984.000000000,1718095761.368212938
1718095761.369220,,,,-0.585130095,-0.585809112,86985.000000000,1718095761.369220018
1718095761.370227,,,,-0.821592867,-0.822608471,86986.000000000,1718095761.370227098
1718095761.370424,303.178802490,17574.000000000,1718095761.370424032,,,,
1718095761.371234,,,,-0.883425176,-0.884344578,86987.000000000,1718095761.371234179
1718095761.372241,,,,-0.668045938,-0.666969955,86988.000000000,1718095761.372241259
1718095761.373248,,,,-0.357490212,-0.356462330,86989.000000000,1718095761.373248339
1718095761.374255,,,,-0.167497784,-0.166109294,86990.000000000,1718095761.374255419
1718095761.375262,,,,0.287349284,0.290973544,86991.000000000,1718095761.375262499
1718095761.375424,304.609222412,17575.000000000,1718095761.375423908,,,,
1718095761.376270,,,,1.427111387,1.431072235,86992.000000000,1718095761.376269579
1718095761.377277,,,,2.339257717,2.342208862,86993.000000000,1718095761.377276659
1718095761.378284,,,,2.085052967,2.085912704,86994.000000000,1718095761.378283739
1718095761.379291,,,,1.004550815,1.002597690,86995.000000000,1718095761.379290819
1718095761.380298,,,,-0.471682787,-0.476352513,86996.000000000,1718095761.380297899
1718095761.380424,305.895385742,17576.000000000,1718095761.380424023,,,,
1718095761.381305,,,,-1.560430884,-1.562600374,86997.000000000,1718095761.381304979
1718095761.382312,,,,-1.437319279,-1.436700106,86998.000000000,1718095761.382312059
1718095761.383319,,,,-1.020504355,-1.019043684,86999.000000000,1718095761.383319139
1718095761.384326,,,,-0.685331106,-0.684880197,87000.000000000,1718095761.384326220
1718095761.385424,306.956634521,17577.000000000,1718095761.385423899,,,,
1718095761.386340,,,,-0.478798777,-0.479742229,87002.000000000,1718095761.386340380
1718095761.387347,,,,-0.894315541,-0.894802213,87003.000000000,1718095761.387347460
1718095761.388355,,,,-1.000430465,-0.998753488,87004.000000000,1718095761.388354540
1718095761.389362,,,,-0.488871753,-0.486545682,87005.000000000,1718095761.389361620
1718095761.390369,,,,-0.156126603,-0.154978529,87006.000000000,1718095761.390368700
1718095761.390424,307.889465332,17578.000000000,1718095761.390424013,,,,
1718095761.391376,,,,0.058290992,0.058838062,87007.000000000,1718095761.391375780
1718095761.392383,,,,0.036173694,0.036985207,87008.000000000,1718095761.392382860
1718095761.393390,,,,-0.249668360,-0.251958072,87009.000000000,1718095761.393389940
1718095761.394397,,,,-0.307606071,-0.308405280,87010.000000000,1718095761.394397020
1718095761.395404,,,,-0.006233824,-0.005975241,87011.000000000,1718095761.395404100
1718095761.395424,308.838500977,17579.000000000,1718095761.395423889,,,,
1718095761.396411,,,,0.453012675,0.452718318,87012.000000000,1718095761.396411180
1718095761.397418,,,,0.244340748,0.244671464,87013.000000000,1718095761.397418261
1718095761.398425,,,,-0.070349954,-0.069658637,87014.000000000,1718095761.398425341
1718095761.399432,,,,-0.311428517,-0.310448706,87015.000000000,1718095761.399432421
1718095761.400424,309.626831055,17580.000000000,1718095761.400424004,,,,
1718095761.400440,,,,-0.542049468,-0.544819951,87016.000000000,1718095761.400439501
1718095761.401447,,,,-0.677710235,-0.678918123,87017.000000000,1718095761.401446581
1718095761.402454,,,,-0.720766842,-0.720147669,87018.000000000,1718095761.402453661
1718095761.403461,,,,-0.521783292,-0.521981478,87019.000000000,1718095761.403460741
1718095761.404468,,,,-0.208222464,-0.205728114,87020.000000000,1718095761.404467821
1718095761.405475,,,,-0.089726627,-0.091559574,87021.000000000,1718095761.405474901
1718095761.406482,,,,-0.063209914,-0.063720629,87022.000000000,1718095761.406481981
1718095761.407489,,,,-0.239980027,-0.240058005,87023.000000000,1718095761.407489061
1718095761.408496,,,,-0.263852268,-0.262776315,87024.000000000,1718095761.408496141
1718095761.409503,,,,0.097212635,0.100187793,87025.000000000,1718095761.409503222
1718095761.410510,,,,0.498136759,0.501160026,87026.000000000,1718095761.410510302
1718095761.411517,,,,0.881150723,0.884390295,87027.000000000,1718095761.411517382
1718095761.412524,,,,0.850715339,0.850180626,87028.000000000,1718095761.412524462
1718095761.413532,,,,0.663872242,0.664948225,87029.000000000,1718095761.413531542
1718095761.414539,,,,0.357956350,0.356676340,87030.000000000,1718095761.414538622
1718095761.415546,,,,0.003430474,0.003809260,87031.000000000,1718095761.415545702
1718095761.416553,,,,-0.045107383,-0.042973638,87032.000000000,1718095761.416552782
1718095761.417560,,,,-0.011378501,-0.009773647,87033.000000000,1718095761.417559862
1718095761.418567,,,,0.163059682,0.162909567,87034.000000000,1718095761.418566942
1718095761.419574,,,,0.039659571,0.036840964,87035.000000000,1718095761.419574022
1718095761.420581,,,,-0.390642107,-0.392162532,87036.000000000,1718095761.420581102
1718095761.421588,,,,-0.864745677,-0.866121829,87037.000000000,1718095761.421588182
1718095761.422595,,,,-0.980957627,-0.981227934,87038.000000000,1718095761.422595263
1718095761.423602,,,,-0.074196443,-0.072495423,87039.000000000,1718095761.423602343
1718095761.424609,,,,1.073787570,1.076161742,87040.000000000,1718095761.424609423
1718095761.425617,,,,1.076215625,1.077964783,87041.000000000,1718095761.425616503
1718095761.426624,,,,-0.297893703,-0.298716933,87042.000000000,1718095761.426623583
1718095761.427631,,,,-1.354331255,-1.356500864,87043.000000000,1718095761.427630663
1718095761.428638,,,,-1.855696797,-1.854308367,87044.000000000,1718095761.428637743
1718095761.429645,,,,-1.370486498,-1.368785501,87045.000000000,1718095761.429644823
1718095761.430652,,,,-0.692615390,-0.691996157,87046.000000000,1718095761.430651903
1718095761.431659,,,,-0.226781771,-0.224263370,87047.000000000,1718095761.431658983
1718095761.432666,,,,0.191355392,0.191902474,87048.000000000,1718095761.432666063
1718095761.433673,,,,0.210419551,0.210029036,87049.000000000,1718095761.433673143
1718095761.434680,,,,-0.010561123,-0.012490229,87050.000000000,1718095761.434680223
1718095761.436694,,,,-0.140812784,-0.142501488,87052.000000000,1718095761.436694384
1718095761.437701,,,,-0.255414039,-0.254530400,87053.000000000,1718095761.437701464
1718095761.438709,,,,-0.633427560,-0.633769989,87054.000000000,1718095761.438708544
1718095761.439716,,,,-1.116161704,-1.117105126,87055.000000000,1718095761.439715624
1718095761.440723,,,,-1.180013299,-1.180788517,87056.000000000,1718095761.440722704
1718095761.441730,,,,-0.997545600,-1.001902819,87057.000000000,1718095761.441729784
1718095761.442737,,,,-0.789474726,-0.791644216,87058.000000000,1718095761.442736864
1718095761.443744,,,,-0.511758387,-0.512100816,87059.000000000,1718095761.443743944
1718095761.444751,,,,0.056680277,0.056722496,87060.000000000,1718095761.444751024
1718095761.445758,,,,0.882881641,0.884005666,87061.000000000,1718095761.445758104
1718095761.450794,,,,0.609372377,0.610881031,87066.000000000,1718095761.450793505
1718095761.451801,,,,0.933991790,0.935981333,87067.000000000,1718095761.451800585
1718095761.452808,,,,0.806625009,0.807244182,87068.000000000,1718095761.452807665
1718095761.453815,,,,-0.122998744,-0.126033708,87069.000000000,1718095761.453814745
1718095761.454822,,,,-1.373347402,-1.376214027,87070.000000000,1718095761.454821825
1718095761.455829,,,,-1.490737319,-1.491416335,87071.000000000,1718095761.455828905
1718095761.456836,,,,-1.053223491,-1.053589940,87072.000000000,1718095761.456835985
1718095761.457843,,,,-0.804043293,-0.804145336,87073.000000000,1718095761.457843065
1718095761.458850,,,,-0.654823661,-0.655286252,87074.000000000,1718095761.458850145
1718095761.459857,,,,-0.378621846,-0.377690107,87075.000000000,1718095761.459857225
1718095761.460000,319.275512695,17591.000000000,1718095761.460000038,,,,
1718095761.460864,,,,-0.171704888,-0.171470344,87076.000000000,1718095761.460864305
1718095761.461871,,,,-0.340541601,-0.342086077,87077.000000000,1718095761.461871386
1718095761.462878,,,,-0.799283266,-0.801717222,87078.000000000,1718095761.462878466
1718095761.463886,,,,-0.927924216,-0.928771496,87079.000000000,1718095761.463885546
1718095761.464893,,,,-0.747355700,-0.747650027,87080.000000000,1718095761.464892626
1718095761.465000,319.920593262,17592.000000000,1718095761.465000153,,,,
1718095761.465900,,,,-0.509282172,-0.509432316,87081.000000000,1718095761.465899706
1718095761.466907,,,,-0.215843320,-0.217507973,87082.000000000,1718095761.466906786
1718095761.467914,,,,0.081826687,0.080642834,87083.000000000,1718095761.467913866
1718095761.468921,,,,0.797417462,0.799166560,87084.000000000,1718095761.468920946
1718095761.469928,,,,1.562579870,1.564497232,87085.000000000,1718095761.469928026
1718095761.470000,320.501342773,17593.000000000,1718095761.470000029,,,,
1718095761.470935,,,,1.697423339,1.698643446,87086.000000000,1718095761.470935106
1718095761.471942,,,,1.285007834,1.286324143,87087.000000000,1718095761.471942186
1718095761.472949,,,,0.115050718,0.114275552,87088.000000000,1718095761.472949266
1718095761.473956,,,,-0.803850949,-0.806164742,87089.000000000,1718095761.473956347
1718095761.474963,,,,-1.196673393,-1.197496653,87090.000000000,1718095761.474963427
1718095761.475000,321.211242676,17594.000000000,1718095761.475000143,,,,
1718095761.475971,,,,-1.485833049,-1.487161160,87091.000000000,1718095761.475970507
1718095761.476978,,,,-1.312236309,-1.313300014,87092.000000000,1718095761.476977587
1718095761.477985,,,,-1.171430826,-1.174201369,87093.000000000,1718095761.477984667
1718095761.478992,,,,-0.992857695,-0.994161785,87094.000000000,1718095761.478991747
1718095761.479999,,,,-0.832843840,-0.834340215,87095.000000000,1718095761.479998827
1718095761.480000,321.808319092,17595.000000000,1718095761.480000019,,,,
1718095761.481006,,,,-0.773944497,-0.773517668,87096.000000000,1718095761.481005907
1718095761.482013,,,,-0.952373445,-0.951273441,87097.000000000,1718095761.482012987
1718095761.483020,,,,-1.103227854,-1.105565667,87098.000000000,1718095761.483020067
1718095761.484027,,,,-1.030360937,-1.033636332,87099.000000000,1718095761.484027147
1718095761.485000,322.373168945,17596.000000000,1718095761.485000134,,,,
1718095761.485034,,,,-0.968047857,-0.968270123,87100.000000000,1718095761.485034227
1718095761.486041,,,,-0.451536804,-0.452071548,87101.000000000,1718095761.486041307
1718095761.487048,,,,0.419187635,0.419902980,87102.000000000,1718095761.487048388
1718095761.488055,,,,0.894132614,0.896675050,87103.000000000,1718095761.488055468
1718095761.489063,,,,1.479471684,1.484610558,87104.000000000,1718095761.489062548
1718095761.490000,322.938140869,17597.000000000,1718095761.490000010,,,,
1718095761.490070,,,,2.012306213,2.013598680,87105.000000000,1718095761.490069628
1718095761.491077,,,,1.508632898,1.507809639,87106.000000000,1718095761.491076708
1718095761.492084,,,,0.687792599,0.686825097,87107.000000000,1718095761.492083788
1718095761.493091,,,,-0.646697938,-0.651031077,87108.000000000,1718095761.493090868
1718095761.494098,,,,-1.996670604,-1.999705553,87109.000000000,1718095761.494097948
1718095761.495000,323.438629150,17598.000000000,1718095761.495000124,,,,
1718095761.495105,,,,-2.115647316,-2.114859819,87110.000000000,1718095761.495105028
1718095761.496112,,,,-1.321491957,-1.321257353,87111.000000000,1718095761.496112108
1718095761.497119,,,,-0.821328461,-0.820589066,87112.000000000,1718095761.497119188
1718095761.498126,,,,-0.886838913,-0.888094902,87113.000000000,1718095761.498126268
1718095761.499133,,,,-0.962855101,-0.964399576,87114.000000000,1718095761.499133348
1718095761.500000,323.874572754,17599.000000000,1718095761.500000000,,,,
1718095761.500140,,,,-0.848686576,-0.850783944,87115.000000000,1718095761.500140429
1718095761.501148,,,,-0.466850638,-0.465558290,87116.000000000,1718095761.501147509
1718095761.502155,,,,-0.024216151,-0.023621000,87117.000000000,1718095761.502154589
1718095761.503162,,,,0.093967162,0.093312204,87118.000000000,1718095761.503161669
1718095761.504169,,,,0.186403051,0.184954748,87119.000000000,1718095761.504168749
1718095761.505000,324.439788818,17600.000000000,1718095761.505000114,,,,
1718095761.505176,,,,0.062738493,0.064126983,87120.000000000,1718095761.505175829
1718095761.506183,,,,-0.122037120,-0.122619957,87121.000000000,1718095761.506182909
1718095761.507190,,,,-0.183172226,-0.182528988,87122.000000000,1718095761.507189989
1718095761.508197,,,,-0.078235254,-0.077616058,87123.000000000,1718095761.508197069
1718095761.509204,,,,0.263044298,0.264096230,87124.000000000,1718095761.509204149
1718095761.510211,,,,0.788041651,0.787867546,87125.000000000,1718095761.510211229
1718095761.511218,,,,0.678128302,0.678891718,87126.000000000,1718095761.511218309
1718095761.512225,,,,-0.226998135,-0.226643384,87127.000000000,1718095761.512225389
1718095761.513232,,,,-1.189797878,-1.191390395,87128.000000000,1718095761.513232470
1718095761.514240,,,,-1.434867144,-1.437493443,87129.000000000,1718095761.514239550
1718095761.515146,324.956604004,17601.000000000,1718095761.515146017,,,,
1718095761.515247,,,,-1.232686162,-1.234206557,87130.000000000,1718095761.515246630
1718095761.516254,,,,-0.935953736,-0.937137604,87131.000000000,1718095761.516253710
1718095761.517261,,,,-0.703481674,-0.702429771,87132.000000000,1718095761.517260790
1718095761.518268,,,,-0.609939933,-0.609969854,87133.000000000,1718095761.518267870
1718095761.519275,,,,-0.479976773,-0.477891088,87134.000000000,1718095761.519274950
1718095761.520146,325.522003174,17602.000000000,1718095761.520146132,,,,
1718095761.520282,,,,-0.412158400,-0.411370903,87135.000000000,1718095761.520282030
1718095761.521289,,,,-0.674224377,-0.674711049,87136.000000000,1718095761.521289110
1718095761.522296,,,,-0.987640917,-0.985410988,87137.000000000,1718095761.522296190
1718095761.523303,,,,-0.929054081,-0.928218544,87138.000000000,1718095761.523303270
1718095761.524310,,,,-0.493054807,-0.491401881,87139.000000000,1718095761.524310350
1718095761.525146,326.006744385,17603.000000000,1718095761.525146008,,,,
1718095761.525317,,,,0.454238743,0.455627233,87140.000000000,1718095761.525317430
1718095761.526325,,,,0.889276385,0.890881240,87141.000000000,1718095761.526324511
1718095761.527332,,,,1.125546813,1.125805497,87142.000000000,1718095761.527331591
1718095761.528339,,,,0.900310993,0.896939456,87143.000000000,1718095761.528338671
1718095761.529346,,,,-0.122253485,-0.126466438,87144.000000000,1718095761.529345751
1718095761.530146,326.426849365,17604.000000000,1718095761.530146122,,,,
1718095761.530353,,,,-0.807481050,-0.808929384,87145.000000000,1718095761.530352831
1718095761.531360,,,,-1.069138408,-1.068423033,87146.000000000,1718095761.531359911
1718095761.532367,,,,-1.173882961,-1.173552275,87147.000000000,1718095761.532366991
1718095761.533374,,,,-1.318414688,-1.320680380,87148.000000000,1718095761.533374071
1718095761.534381,,,,-1.369572997,-1.373016715,87149.000000000,1718095761.534381151
1718095761.535146,326.733917236,17605.000000000,1718095761.535145998,,,,
1718095761.535388,,,,-1.161982894,-1.164008141,87150.000000000,1718095761.535388231
1718095761.536395,,,,-0.782935679,-0.784504175,87151.000000000,1718095761.536395311
1718095761.537402,,,,-0.663862884,-0.664686143,87152.000000000,1718095761.537402391
1718095761.538409,,,,-0.684441566,-0.685889900,87153.000000000,1718095761.538409472
1718095761.539417,,,,-0.711246789,-0.715411663,87154.000000000,1718095761.539416552
1718095761.540146,327.073333740,17606.000000000,1718095761.540146112,,,,
1718095761.540424,,,,-0.848830819,-0.850567579,87155.000000000,1718095761.540423632
1718095761.541431,,,,-0.831137002,-0.831022620,87156.000000000,1718095761.541430712
1718095761.542438,,,,-0.373453110,-0.374156147,87157.000000000,1718095761.542437792
1718095761.543445,,,,1.043616652,1.044476271,87158.000000000,1718095761.543444872
1718095761.544452,,,,2.223935127,2.225708246,87159.000000000,1718095761.544451952
1718095761.545146,327.331939697,17607.000000000,1718095761.545145988,,,,
1718095761.545459,,,,2.215641260,2.218472242,87160.000000000,1718095761.545459032
1718095761.546466,,,,0.994405687,0.994904697,87161.000000000,1718095761.546466112
1718095761.547473,,,,-0.893882811,-0.897110105,87162.000000000,1718095761.547473192
1718095761.548480,,,,-2.220752478,-2.224989414,87163.000000000,1718095761.548480272
1718095761.549487,,,,-1.996622443,-1.997830391,87164.000000000,1718095761.549487352
1718095761.550146,327.590545654,17608.000000000,1718095761.550146103,,,,
1718095761.550494,,,,-1.023869991,-1.023347020,87165.000000000,1718095761.550494432
1718095761.551502,,,,-0.486227304,-0.487170756,87166.000000000,1718095761.551501513
1718095761.552509,,,,-0.392781705,-0.393027991,87167.000000000,1718095761.552508593
1718095761.553516,,,,-0.617152095,-0.615090489,87168.000000000,1718095761.553515673
1718095761.554523,,,,-0.680811465,-0.678557515,87169.000000000,1718095761.554522753
1718095761.555146,327.800720215,17609.000000000,1718095761.555145979,,,,
1718095761.555530,,,,-0.444541007,-0.443008274,87170.000000000,1718095761.555529833
1718095761.556537,,,,-0.241831139,-0.238399208,87171.000000000,1718095761.556536913
1718095761.557544,,,,-0.097179197,-0.095189698,87172.000000000,1718095761.557543993
1718095761.558551,,,,-0.026019191,-0.026313541,87173.000000000,1718095761.558551073
1718095761.559558,,,,-0.054146625,-0.052109044,87174.000000000,1718095761.559558153
1718095761.560146,327.833068848,17610.000000000,1718095761.560146093,,,,
1718095761.560565,,,,-0.041477259,-0.038021285,87175.000000000,1718095761.560565233
1718095761.561572,,,,-0.150044352,-0.150050208,87176.000000000,1718095761.561572313
1718095761.562579,,,,-0.515172124,-0.516404033,87177.000000000,1718095761.562579393
1718095761.563586,,,,-1.084476233,-1.082486749,87178.000000000,1718095761.563586473
1718095761.564594,,,,-0.944055378,-0.941296577,87179.000000000,1718095761.564593554
1718095761.565146,327.865386963,17611.000000000,1718095761.565145969,,,,
1718095761.565601,,,,-0.790700793,-0.790105641,87180.000000000,1718095761.565600634
1718095761.566608,,,,-0.648356736,-0.649300158,87181.000000000,1718095761.566607714
1718095761.567615,,,,-0.464831233,-0.462625355,87182.000000000,1718095761.567614794
1718095761.568622,,,,-0.340012729,-0.340980202,87183.000000000,1718095761.568621874
1718095761.569629,,,,-0.314505696,-0.315617442,87184.000000000,1718095761.569628954
1718095761.570146,327.784606934,17612.000000000,1718095761.570146084,,,,
1718095761.570636,,,,-0.247745112,-0.246789366,87185.000000000,1718095761.570636034
1718095761.571643,,,,-0.461946368,-0.459788561,87186.000000000,1718095761.571643114
1718095761.572650,,,,-0.781180739,-0.779359519,87187.000000000,1718095761.572650194
1718095761.573657,,,,-0.788897753,-0.789216101,87188.000000000,1718095761.573657274
1718095761.574664,,,,-0.578350663,-0.580592275,87189.000000000,1718095761.574664354
1718095761.575146,327.574432373,17613.000000000,1718095761.575145960,,,,
1718095761.575671,,,,-0.270535558,-0.269964457,87190.000000000,1718095761.575671434
1718095761.576679,,,,-0.204448104,-0.206184879,87191.000000000,1718095761.576678514
1718095761.577686,,,,-0.087250456,-0.087088034,87192.000000000,1718095761.577685595
1718095761.578693,,,,-0.251832008,-0.252847582,87193.000000000,1718095761.578692675
1718095761.579700,,,,-0.784714699,-0.784119546,87194.000000000,1718095761.579699755
1718095761.580146,327.396575928,17614.000000000,1718095761.580146074,,,,
1718095761.580707,,,,-0.878544927,-0.879223943,87195.000000000,1718095761.580706835
1718095761.581714,,,,-0.837171137,-0.839268565,87196.000000000,1718095761.581713915
1718095761.582721,,,,-0.710525572,-0.710483372,87197.000000000,1718095761.582720995
1718095761.583728,,,,-0.396796495,-0.394109815,87198.000000000,1718095761.583728075
1718095761.584735,,,,-0.367947847,-0.367496938,87199.000000000,1718095761.584735155
1718095761.585146,327.186492920,17615.000000000,1718095761.585145950,,,,
1718095761.585742,,,,-0.465768814,-0.464957297,87200.000000000,1718095761.585742235
1718095761.586749,,,,-0.291907609,-0.293067396,87201.000000000,1718095761.586749315
1718095761.587756,,,,-0.234979585,-0.235826865,87202.000000000,1718095761.587756395
1718095761.588763,,,,-0.351528138,-0.351894617,87203.000000000,1718095761.588763475
1718095761.589771,,,,-0.202116162,-0.200270906,87204.000000000,1718095761.589770555
1718095761.590146,327.073333740,17616.000000000,1718095761.590146065,,,,
1718095761.590778,,,,0.421784014,0.424158156,87205.000000000,1718095761.590777636
1718095761.591785,,,,0.786623299,0.787386715,87206.000000000,1718095761.591784716
1718095761.592792,,,,0.681758404,0.682690144,87207.000000000,1718095761.592791796
1718095761.593799,,,,0.060358480,0.058357250,87208.000000000,1718095761.593798876
1718095761.594806,,,,-0.719180167,-0.718488872,87209.000000000,1718095761.594805956
1718095761.595146,327.154174805,17617.000000000,1718095761.595145941,,,,
1718095761.595813,,,,-0.677565992,-0.679759562,87210.000000000,1718095761.595813036
1718095761.596820,,,,-0.360783756,-0.359371215,87211.000000000,1718095761.596820116
1718095761.597827,,,,-0.126316339,-0.125312492,87212.000000000,1718095761.597827196
1718095761.598834,,,,-0.386507124,-0.386537045,87213.000000000,1718095761.598834276
1718095761.599841,,,,-0.469975889,-0.469573081,87214.000000000,1718095761.599841356
1718095761.600146,327.186492920,17618.000000000,1718095761.600146055,,,,
1718095761.600848,,,,-0.357706577,-0.360188603,87215.000000000,1718095761.600848436
1718095761.601856,,,,-0.232263014,-0.231812105,87216.000000000,1718095761.601855516
1718095761.602863,,,,-0.170022041,-0.174114794,87217.000000000,1718095761.602862597
1718095761.603870,,,,-0.230724409,-0.232413113,87218.000000000,1718095761.603869677
1718095761.604877,,,,-0.674921513,-0.676682353,87219.000000000,1718095761.604876757
1718095761.605146,327.445098877,17619.000000000,1718095761.605145931,,,,
1718095761.605884,,,,-1.178955555,-1.180475950,87220.000000000,1718095761.605883837
1718095761.606891,,,,-1.343440890,-1.344143987,87221.000000000,1718095761.606890917
1718095761.607898,,,,-0.918043554,-0.918770611,87222.000000000,1718095761.607897997
1718095761.608905,,,,-0.228993490,-0.227893487,87223.000000000,1718095761.608905077
1718095761.609912,,,,0.212631285,0.212529257,87224.000000000,1718095761.609912157
1718095761.610146,327.784606934,17620.000000000,1718095761.610146046,,,,
1718095761.610919,,,,0.052809749,0.052755807,87225.000000000,1718095761.610919237
1718095761.611926,,,,-0.303975940,-0.304366469,87226.000000000,1718095761.611926317
1718095761.612933,,,,-0.922370851,-0.922809422,87227.000000000,1718095761.612933397
1718095761.613940,,,,-1.033967018,-1.034429669,87228.000000000,1718095761.613940477
1718095761.614948,,,,-0.170142248,-0.167768091,87229.000000000,1718095761.614947557
1718095761.615955,,,,0.835666001,0.832943559,87230.000000000,1718095761.615954638
1718095761.616962,,,,0.909109831,0.907565415,87231.000000000,1718095761.616961718
1718095761.617969,,,,0.426592112,0.427740186,87232.000000000,1718095761.617968798
1718095761.618976,,,,-0.627417386,-0.629875422,87233.000000000,1718095761.618975878
1718095761.619983,,,,-1.546631575,-1.546998024,87234.000000000,1718095761.619982958
1718095761.620990,,,,-1.665391922,-1.664267898,87235.000000000,1718095761.620990038
1718095761.621997,,,,-1.038919330,-1.038179994,87236.000000000,1718095761.621997118
1718095761.623004,,,,-0.561353981,-0.562754214,87237.000000000,1718095761.623004198
1718095761.624011,,,,-0.565128386,-0.564869761,87238.000000000,1718095761.624011278
1718095761.625018,,,,-0.729854167,-0.730004251,87239.000000000,1718095761.625018358
1718095761.626025,,,,-0.613377750,-0.614970267,87240.000000000,1718095761.626025438
1718095761.627033,,,,-0.202813342,-0.203107700,87241.000000000,1718095761.627032518
1718095761.628040,,,,0.050814383,0.051505696,87242.000000000,1718095761.628039598
1718095761.629047,,,,0.064156882,0.065064564,87243.000000000,1718095761.629046679
1718095761.630054,,,,-0.118743569,-0.121466011,87244.000000000,1718095761.630053759
1718095761.631061,,,,-0.138937622,-0.139400259,87245.000000000,1718095761.631060839
1718095761.632068,,,,0.072258547,0.073021986,87246.000000000,1718095761.632067919
1718095761.633075,,,,-0.060228884,-0.061653137,87247.000000000,1718095761.633074999
1718095761.634082,,,,-0.346022844,-0.347278833,87248.000000000,1718095761.634082079
1718095761.635089,,,,-0.562940657,-0.562273383,87249.000000000,1718095761.635089159
1718095761.636096,,,,-0.542890847,-0.540997505,87250.000000000,1718095761.636096239
1718095761.637103,,,,-0.558541238,-0.558523059,87251.000000000,1718095761.637103319
1718095761.638110,,,,-0.663285911,-0.663556218,87252.000000000,1718095761.638110399
1718095761.639117,,,,-0.443603426,-0.441926450,87253.000000000,1718095761.639117479
1718095761.640125,,,,0.324708283,0.323380202,87254.000000000,1718095761.640124559
1718095761.641132,,,,0.626513243,0.626050651,87255.000000000,1718095761.641131639
1718095761.642139,,,,0.466379195,0.465291530,87256.000000000,1718095761.642138720
1718095761.643146,,,,0.053458843,0.051313374,87257.000000000,1718095761.643145800
1718095761.644153,,,,-0.959393263,-0.960553050,87258.000000000,1718095761.644152880
1718095761.645160,,,,-1.566993952,-1.567937374,87259.000000000,1718095761.645159960
1718095761.645759,329.256103516,17628.000000000,1718095761.645759344,,,,
1718095761.646167,,,,-1.400489211,-1.401576877,87260.000000000,1718095761.646167040
1718095761.647174,,,,-0.894724190,-0.894345403,87261.000000000,1718095761.647174120
1718095761.648181,,,,-0.363115698,-0.364059120,87262.000000000,1718095761.648181200
1718095761.649188,,,,-0.248586535,-0.250203103,87263.000000000,1718095761.649188280
1718095761.650195,,,,-0.542434096,-0.542728424,87264.000000000,1718095761.650195360
1718095761.650759,329.417846680,17629.000000000,1718095761.650759220,,,,
1718095761.651202,,,,-0.939295352,-0.937474132,87265.000000000,1718095761.651202440
1718095761.652210,,,,-0.986559093,-0.986036062,87266.000000000,1718095761.652209520
1718095761.653217,,,,-0.872847319,-0.872131944,87267.000000000,1718095761.653216600
1718095761.654224,,,,-0.676580310,-0.678076684,87268.000000000,1718095761.654223680
1718095761.655231,,,,-0.454253376,-0.455942094,87269.000000000,1718095761.655230761
1718095761.655759,329.741363525,17630.000000000,1718095761.655759335,,,,
1718095761.656238,,,,-0.148241311,-0.148896262,87270.000000000,1718095761.656237841
1718095761.657245,,,,0.178060979,0.180122599,87271.000000000,1718095761.657244921
1718095761.658252,,,,0.341801107,0.343670428,87272.000000000,1718095761.658252001
1718095761.659259,,,,0.022013813,0.022536842,87273.000000000,1718095761.659259081
1718095761.660266,,,,-0.398599535,-0.398533255,87274.000000000,1718095761.660266161
1718095761.660759,330.048736572,17631.000000000,1718095761.660759211,,,,
1718095761.661273,,,,-0.526903927,-0.525010586,87275.000000000,1718095761.661273241
1718095761.662280,,,,0.005257555,0.004097746,87276.000000000,1718095761.662280321
1718095761.663287,,,,0.781334341,0.781064034,87277.000000000,1718095761.663287401
1718095761.664294,,,,1.230147243,1.231271267,87278.000000000,1718095761.664294481
1718095761.665302,,,,0.956109107,0.958218813,87279.000000000,1718095761.665301561
1718095761.665759,330.404663086,17632.000000000,1718095761.665759325,,,,
1718095761.666309,,,,0.024105340,0.025638072,87280.000000000,1718095761.666308641
1718095761.667316,,,,-0.817049205,-0.817247391,87281.000000000,1718095761.667315722
1718095761.668323,,,,-1.020864964,-1.020654440,87282.000000000,1718095761.668322802
1718095761.669330,,,,-1.092529774,-1.092944384,87283.000000000,1718095761.669329882
1718095761.670337,,,,-1.137822151,-1.136409640,87284.000000000,1718095761.670336962
1718095761.670759,330.631164551,17633.000000000,1718095761.670759201,,,,
1718095761.671344,,,,-1.074787855,-1.076813102,87285.000000000,1718095761.671344042
1718095761.672351,,,,-1.183643460,-1.185716748,87286.000000000,1718095761.672351122
1718095761.673358,,,,-1.160131812,-1.159248114,87287.000000000,1718095761.673358202
1718095761.674365,,,,-1.053079247,-1.050753236,87288.000000000,1718095761.674365282
1718095761.675372,,,,-0.906407893,-0.905380011,87289.000000000,1718095761.675372362
1718095761.675759,330.906280518,17634.000000000,1718095761.675759315,,,,
1718095761.676379,,,,-0.808634996,-0.806140661,87290.000000000,1718095761.676379442
1718095761.677387,,,,-0.635759473,-0.631245732,87291.000000000,1718095761.677386522
1718095761.678394,,,,-0.094174132,-0.092689477,87292.000000000,1718095761.678393602
1718095761.679401,,,,0.542732000,0.545250356,87293.000000000,1718095761.679400682
1718095761.680408,,,,0.771766245,0.771399736,87294.000000000,1718095761.680407763
1718095761.680759,331.132843018,17635.000000000,1718095761.680759192,,,,
1718095761.681415,,,,0.586245358,0.585301936,87295.000000000,1718095761.681414843
1718095761.682422,,,,0.926755607,0.926389158,87296.000000000,1718095761.682421923
1718095761.683429,,,,1.288012862,1.285218239,87297.000000000,1718095761.683429003
1718095761.684436,,,,0.853528082,0.851863444,87298.000000000,1718095761.684436083
1718095761.685443,,,,0.173517317,0.170842946,87299.000000000,1718095761.685443163
1718095761.685759,331.343261719,17636.000000000,1718095761.685759306,,,,
1718095761.686450,,,,-0.783103943,-0.786259115,87300.000000000,1718095761.686450243
1718095761.687457,,,,-1.572306871,-1.576087117,87301.000000000,1718095761.687457323
1718095761.688464,,,,-1.787037015,-1.787307382,87302.000000000,1718095761.688464403
1718095761.689471,,,,-1.615628004,-1.615104914,87303.000000000,1718095761.689471483
1718095761.690479,,,,-1.199173689,-1.196655273,87304.000000000,1718095761.690478563
1718095761.690759,331.521331787,17637.000000000,1718095761.690759182,,,,
1718095761.691486,,,,-0.852268636,-0.855063200,87305.000000000,1718095761.691485643
1718095761.692493,,,,-0.730743647,-0.730172575,87306.000000000,1718095761.692492723
1718095761.693500,,,,-0.589625657,-0.589679599,87307.000000000,1718095761.693499804
1718095761.694507,,,,-0.447041214,-0.448152959,87308.000000000,1718095761.694506884
1718095761.695514,,,,-0.243850544,-0.243952572,87309.000000000,1718095761.695513964
1718095761.695759,331.747924805,17638.000000000,1718095761.695759296,,,,
1718095761.696521,,,,-0.283902109,-0.283042490,87310.000000000,1718095761.696521044
1718095761.697528,,,,-0.282483697,-0.278811365,87311.000000000,1718095761.697528124
1718095761.698535,,,,-0.282555819,-0.280686527,87312.000000000,1718095761.698535204
1718095761.699542,,,,-0.520340860,-0.523135424,87313.000000000,1718095761.699542284
1718095761.700549,,,,-0.360543340,-0.362424374,87314.000000000,1718095761.700549364
1718095761.700759,331.990783691,17639.000000000,1718095761.700759172,,,,
1718095761.701556,,,,-0.127133712,-0.127836749,87315.000000000,1718095761.701556444
1718095761.702564,,,,0.169863150,0.171588212,87316.000000000,1718095761.702563524
1718095761.703571,,,,0.418298125,0.420600146,87317.000000000,1718095761.703570604
1718095761.704578,,,,-0.005392406,-0.009845769,87318.000000000,1718095761.704577684
1718095761.705585,,,,-0.509186029,-0.512581587,87319.000000000,1718095761.705584764
1718095761.705759,332.185028076,17640.000000000,1718095761.705759287,,,,
1718095761.706592,,,,-0.773896456,-0.773902297,87320.000000000,1718095761.706591845
1718095761.707599,,,,-0.447834551,-0.446782649,87321.000000000,1718095761.707598925
1718095761.708606,,,,0.186883852,0.186589509,87322.000000000,1718095761.708606005
1718095761.709613,,,,0.267780274,0.267173409,87323.000000000,1718095761.709613085
1718095761.710620,,,,-0.274526298,-0.275613964,87324.000000000,1718095761.710620165
1718095761.711627,,,,-0.902898014,-0.905067503,87325.000000000,1718095761.711627245
1718095761.712634,,,,-1.275718689,-1.275868893,87326.000000000,1718095761.712634325
1718095761.713641,,,,-1.096929193,-1.095997453,87327.000000000,1718095761.713641405
1718095761.714648,,,,-0.704443336,-0.703992426,87328.000000000,1718095761.714648485
1718095761.715656,,,,-0.345758408,-0.348264486,87329.000000000,1718095761.715655565
1718095761.716663,,,,-0.283854008,-0.286071599,87330.000000000,1718095761.716662645
1718095761.717670,,,,-0.420404285,-0.422742099,87331.000000000,1718095761.717669725
1718095761.718677,,,,-0.583399177,-0.585087895,87332.000000000,1718095761.718676805
1718095761.719684,,,,-0.568181515,-0.567658484,87333.000000000,1718095761.719683886
1718095761.720691,,,,-0.495218456,-0.495633006,87334.000000000,1718095761.720690966
1718095761.721698,,,,-0.594337642,-0.595064700,87335.000000000,1718095761.721698046
1718095761.722705,,,,-0.697231174,-0.696323454,87336.000000000,1718095761.722705126
1718095761.723712,,,,-0.488439023,-0.487843871,87337.000000000,1718095761.723712206
1718095761.724719,,,,0.048506491,0.050712358,87338.000000000,1718095761.724719286
1718095761.725726,,,,0.304297864,0.305878669,87339.000000000,1718095761.725726366
1718095761.726733,,,,0.049444072,0.050664280,87340.000000000,1718095761.726733446
1718095761.727741,,,,-0.108526334,-0.106031984,87341.000000000,1718095761.727740526
1718095761.728748,,,,0.163564533,0.165746361,87342.000000000,1718095761.728747606
1718095761.729755,,,,0.442122310,0.444760889,87343.000000000,1718095761.729754686
1718095761.730762,,,,0.406422108,0.407594204,87344.000000000,1718095761.730761766
1718095761.731769,,,,0.132528186,0.130214438,87345.000000000,1718095761.731768847
1718095761.732776,,,,-0.306283832,-0.306121409,87346.000000000,1718095761.732775927
1718095761.733783,,,,-1.023148775,-1.023419142,87347.000000000,1718095761.733783007
1718095761.734790,,,,-1.315385580,-1.317314744,87348.000000000,1718095761.734790087
1718095761.735797,,,,-0.942492783,-0.941753387,87349.000000000,1718095761.735797167
1718095761.736804,,,,-0.127566442,-0.127115533,87350.000000000,1718095761.736804247
1718095761.737811,,,,0.376106977,0.377327174,87351.000000000,1718095761.737811327
1718095761.738818,,,,0.170103565,0.170915067,87352.000000000,1718095761.738818407
1718095761.739825,,,,-0.106603093,-0.108652398,87353.000000000,1718095761.739825487
1718095761.740833,,,,-0.399344772,-0.398845792,87354.000000000,1718095761.740832567
1718095761.741840,,,,-0.335733503,-0.334561378,87355.000000000,1718095761.741839647
1718095761.742847,,,,0.112237968,0.111222409,87356.000000000,1718095761.742846727
1718095761.743854,,,,0.334300458,0.333885908,87357.000000000,1718095761.743853807
1718095761.744861,,,,-0.106098242,-0.107185930,87358.000000000,1718095761.744860888
1718095761.745868,,,,-0.820679367,-0.822392106,87359.000000000,1718095761.745867968
1718095761.746875,,,,-0.611358345,-0.611003578,87360.000000000,1718095761.746875048
1718095761.747882,,,,-0.216011599,-0.216137663,87361.000000000,1718095761.747882128
1718095761.748889,,,,-0.372130901,-0.373122424,87362.000000000,1718095761.748889208
1718095761.749896,,,,-0.608016670,-0.607229233,87363.000000000,1718095761.749896288
1718095761.750903,,,,-0.513369083,-0.514312506,87364.000000000,1718095761.750903368
1718095761.751910,,,,-0.464013845,-0.465846777,87365.000000000,1718095761.751910448
1718095761.752918,,,,-0.262169451,-0.262103200,87366.000000000,1718095761.752917528
1718095761.753925,,,,-0.275704265,-0.277561247,87367.000000000,1718095761.753924608
1718095761.754932,,,,-0.434708416,-0.432574689,87368.000000000,1718095761.754931688
1718095761.755939,,,,-0.573494494,-0.572706997,87369.000000000,1718095761.755938768
1718095761.756946,,,,-0.654967904,-0.652665854,87370.000000000,1718095761.756945848
1718095761.757953,,,,-0.637009561,-0.636294246,87371.000000000,1718095761.757952929
1718095761.758960,,,,-0.477620780,-0.483348310,87372.000000000,1718095761.758960009
1718095761.759967,,,,-0.205073148,-0.207218632,87373.000000000,1718095761.759967089
1718095761.760974,,,,0.265544504,0.266932994,87374.000000000,1718095761.760974169
1718095761.761981,,,,0.513811171,0.514262080,87375.000000000,1718095761.761981249
1718095761.762988,,,,0.585572243,0.587850213,87376.000000000,1718095761.762988329
1718095761.763995,,,,0.574297190,0.575156808,87377.000000000,1718095761.763995409
1718095761.765002,,,,-0.320756257,-0.320641905,87378.000000000,1718095761.765002489
1718095761.766010,,,,-0.586620629,-0.586530328,87379.000000000,1718095761.766009569
1718095761.766303,335.911132813,17651.000000000,1718095761.766303301,,,,
1718095761.767017,,,,-0.658405662,-0.660791576,87380.000000000,1718095761.767016649
1718095761.768024,,,,-0.893450081,-0.897999585,87381.000000000,1718095761.768023729
1718095761.769031,,,,-1.163785934,-1.167758465,87382.000000000,1718095761.769030809
1718095761.770038,,,,-1.106809855,-1.109051466,87383.000000000,1718095761.770037889
1718095761.771045,,,,-1.061998248,-1.062100291,87384.000000000,1718095761.771044970
1718095761.771303,336.511016846,17652.000000000,1718095761.771303415,,,,
1718095761.772052,,,,-0.935352743,-0.935647070,87385.000000000,1718095761.772052050
1718095761.773059,,,,-0.528250158,-0.526909769,87386.000000000,1718095761.773059130
1718095761.774066,,,,-0.114368185,-0.112258479,87387.000000000,1718095761.774066210
1718095761.775073,,,,0.255351335,0.254672319,87388.000000000,1718095761.775073290
1718095761.776080,,,,0.292878598,0.293690115,87389.000000000,1718095761.776080370
1718095761.776303,337.208312988,17653.000000000,1718095761.776303291,,,,
1718095761.777087,,,,-0.080110416,-0.080236480,87390.000000000,1718095761.777087450
1718095761.778095,,,,-0.449373156,-0.448321223,87391.000000000,1718095761.778094530
1718095761.779102,,,,-0.459662497,-0.456495017,87392.000000000,1718095761.779101610
1718095761.780109,,,,0.067787006,0.067949429,87393.000000000,1718095761.780108690
1718095761.781116,,,,0.676589727,0.675381839,87394.000000000,1718095761.781115770
1718095761.781303,337.743560791,17654.000000000,1718095761.781303406,,,,
1718095761.782123,,,,0.566724420,0.565276146,87395.000000000,1718095761.782122850
1718095761.783130,,,,0.564416528,0.564819396,87396.000000000,1718095761.783129930
1718095761.784137,,,,0.532298386,0.531739593,87397.000000000,1718095761.784137011
1718095761.785144,,,,0.004223811,0.003881381,87398.000000000,1718095761.785144091
1718095761.786151,,,,-0.509282172,-0.509312093,87399.000000000,1718095761.786151171
1718095761.786303,338.197845459,17655.000000000,1718095761.786303282,,,,
1718095761.787158,,,,-0.593303859,-0.594944477,87400.000000000,1718095761.787158251
1718095761.788165,,,,-0.962710857,-0.963846624,87401.000000000,1718095761.788165331
1718095761.789172,,,,-1.200952649,-1.199612260,87402.000000000,1718095761.789172411
1718095761.790179,,,,-1.324040174,-1.324839473,87403.000000000,1718095761.790179491
1718095761.791187,,,,-1.161862731,-1.162854195,87404.000000000,1718095761.791186571
1718095761.791303,338.619720459,17656.000000000,1718095761.791303396,,,,
1718095761.792194,,,,-0.686364830,-0.684904218,87405.000000000,1718095761.792193651
1718095761.793201,,,,-0.137278825,-0.135265276,87406.000000000,1718095761.793200731
1718095761.794208,,,,-0.036933597,-0.034559447,87407.000000000,1718095761.794207811
1718095761.795215,,,,-0.179950789,-0.178297848,87408.000000000,1718095761.795214891
1718095761.796222,,,,-0.092034519,-0.092280790,87409.000000000,1718095761.796221972
1718095761.796303,339.155242920,17657.000000000,1718095761.796303272,,,,
1718095761.797229,,,,-0.135019019,-0.138102069,87410.000000000,1718095761.797229052
1718095761.798236,,,,-0.397830218,-0.398413062,87411.000000000,1718095761.798236132
1718095761.799243,,,,-0.159275919,-0.158488452,87412.000000000,1718095761.799243212
1718095761.800250,,,,0.336295843,0.336314023,87413.000000000,1718095761.800250292
1718095761.801257,,,,0.544583082,0.543904126,87414.000000000,1718095761.801257372
1718095761.801303,339.674713135,17658.000000000,1718095761.801303387,,,,
1718095761.802264,,,,0.405556649,0.403459251,87415.000000000,1718095761.802264452
1718095761.803272,,,,0.029947193,0.027200708,87416.000000000,1718095761.803271532
1718095761.804279,,,,-0.337392300,-0.336220175,87417.000000000,1718095761.804278612
1718095761.805286,,,,-0.393094242,-0.392354846,87418.000000000,1718095761.805285692
1718095761.806293,,,,-0.193701982,-0.195366636,87419.000000000,1718095761.806292772
1718095761.806303,340.080535889,17659.000000000,1718095761.806303263,,,,
1718095761.807300,,,,0.116733551,0.112881206,87420.000000000,1718095761.807299852
1718095761.808307,,,,-0.175359040,-0.178129569,87421.000000000,1718095761.808306932
1718095761.809314,,,,-0.860586643,-0.862058997,87422.000000000,1718095761.809314013
1718095761.810321,,,,-1.238191485,-1.239495516,87423.000000000,1718095761.810321093
1718095761.810756,341.006195068,17661.000000000,1718095761.810755968,,,,
1718095761.811303,340.551422119,17660.000000000,1718095761.811303377,,,,
1718095761.811328,,,,-1.222949743,-1.221104503,87424.000000000,1718095761.811328173
1718095761.812335,,,,-0.698144674,-0.697309136,87425.000000000,1718095761.812335253
1718095761.813342,,,,-0.229330063,-0.229119554,87426.000000000,1718095761.813342333
1718095761.814349,,,,-0.114921123,-0.116080925,87427.000000000,1718095761.814349413
1718095761.815356,,,,-0.106050156,-0.107546538,87428.000000000,1718095761.815356493
1718095761.815756,341.525970459,17662.000000000,1718095761.815756083,,,,
1718095761.816364,,,,-0.246110365,-0.249770388,87429.000000000,1718095761.816363573
1718095761.817371,,,,-0.299937129,-0.297587037,87430.000000000,1718095761.817370653
1718095761.818378,,,,0.018768340,0.020878045,87431.000000000,1718095761.818377733
1718095761.819385,,,,0.215011299,0.217313319,87432.000000000,1718095761.819384813
1718095761.820392,,,,0.302639067,0.303715020,87433.000000000,1718095761.820391893
1718095761.820756,341.915924072,17663.000000000,1718095761.820755959,,,,
1718095761.821399,,,,-0.090688251,-0.092352912,87434.000000000,1718095761.821398973
1718095761.822406,,,,-0.462883949,-0.461807966,87435.000000000,1718095761.822406054
1718095761.823413,,,,-0.214689374,-0.213998064,87436.000000000,1718095761.823413134
1718095761.824420,,,,0.264462680,0.266764730,87437.000000000,1718095761.824420214
1718095761.825427,,,,0.580355406,0.581864119,87438.000000000,1718095761.825427294
1718095761.825756,342.354644775,17664.000000000,1718095761.825756073,,,,
1718095761.826434,,,,0.067378320,0.068430237,87439.000000000,1718095761.826434374
1718095761.827441,,,,-1.010912180,-1.012456656,87440.000000000,1718095761.827441454
1718095761.828449,,,,-1.612430573,-1.614191413,87441.000000000,1718095761.828448534
1718095761.829456,,,,-1.481938481,-1.481078863,87442.000000000,1718095761.829455614
1718095761.830463,,,,-1.149193406,-1.148045301,87443.000000000,1718095761.830462694
1718095761.830756,342.712188721,17665.000000000,1718095761.830755949,,,,
1718095761.831470,,,,-0.984900296,-0.986132205,87444.000000000,1718095761.831469774
1718095761.832477,,,,-1.001031518,-1.001950860,87445.000000000,1718095761.832476854
1718095761.833484,,,,-0.890036285,-0.889945984,87446.000000000,1718095761.833483934
1718095761.834491,,,,-0.623715162,-0.623721004,87447.000000000,1718095761.834491014
1718095761.835498,,,,-0.290080518,-0.291096091,87448.000000000,1718095761.835498095
1718095761.835756,343.102264404,17666.000000000,1718095761.835756063,,,,
1718095761.836505,,,,0.080720820,0.078959994,87449.000000000,1718095761.836505175
1718095761.837512,,,,0.460393101,0.460315138,87450.000000000,1718095761.837512255
1718095761.838519,,,,0.512873590,0.511906147,87451.000000000,1718095761.838519335
1718095761.839526,,,,-0.045708396,-0.046459515,87452.000000000,1718095761.839526415
1718095761.840533,,,,-0.377203435,-0.377858400,87453.000000000,1718095761.840533495
1718095761.841541,,,,-0.249235630,-0.250275224,87454.000000000,1718095761.841540575
1718095761.842548,,,,-0.293229818,-0.293548226,87455.000000000,1718095761.842547655
1718095761.843555,,,,-0.257529616,-0.259266406,87456.000000000,1718095761.843554735
1718095761.844562,,,,-0.419490755,-0.423799872,87457.000000000,1718095761.844561815
1718095761.845569,,,,-0.779257476,-0.781475067,87458.000000000,1718095761.845568895
1718095761.846576,,,,-0.685932100,-0.688053548,87459.000000000,1718095761.846575975
1718095761.847583,,,,-0.620589912,-0.621629477,87460.000000000,1718095761.847583055
1718095761.848590,,,,-0.477404416,-0.477506459,87461.000000000,1718095761.848590136
1718095761.849597,,,,-0.273107886,-0.272993565,87462.000000000,1718095761.849597216
1718095761.850604,,,,-0.287147582,-0.284941703,87463.000000000,1718095761.850604296
1718095761.851611,,,,-0.315851986,-0.315184712,87464.000000000,1718095761.851611376
1718095761.852618,,,,-0.182186559,-0.181182712,87465.000000000,1718095761.852618456
1718095761.853626,,,,0.048145883,0.049414169,87466.000000000,1718095761.853625536
1718095761.854633,,,,-0.045131423,-0.045930624,87467.000000000,1718095761.854632616
1718095761.855640,,,,-0.039962705,-0.040281095,87468.000000000,1718095761.855639696
1718095761.856647,,,,-0.219761923,-0.221402541,87469.000000000,1718095761.856646776
1718095761.857654,,,,-0.601189196,-0.604753017,87470.000000000,1718095761.857653856
1718095761.858661,,,,-0.844166934,-0.845326781,87471.000000000,1718095761.858660936
1718095761.859668,,,,-0.563277245,-0.561432004,87472.000000000,1718095761.859668016
1718095761.860675,,,,-0.319962919,-0.319391787,87473.000000000,1718095761.860675097
1718095761.860756,344.663299561,17671.000000000,1718095761.860755920,,,,
1718095761.861682,,,,-0.329795480,-0.329488814,87474.000000000,1718095761.861682177
1718095761.862689,,,,-0.491756618,-0.491474003,87475.000000000,1718095761.862689257
1718095761.863696,,,,-0.519042671,-0.518134952,87476.000000000,1718095761.863696337
1718095761.864703,,,,-0.397710025,-0.395215660,87477.000000000,1718095761.864703417
1718095761.865710,,,,-0.226373076,-0.223830640,87478.000000000,1718095761.865710497
1718095761.865756,344.825958252,17672.000000000,1718095761.865756035,,,,
1718095761.866718,,,,-0.156391054,-0.153776497,87479.000000000,1718095761.866717577
1718095761.867725,,,,-0.336334527,-0.334777743,87480.000000000,1718095761.867724657
1718095761.868732,,,,-0.478654534,-0.478660405,87481.000000000,1718095761.868731737
1718095761.869739,,,,-0.329867601,-0.328455091,87482.000000000,1718095761.869738817
1718095761.870746,,,,-0.049410641,-0.050330043,87483.000000000,1718095761.870745897
1718095761.870756,344.972381592,17673.000000000,1718095761.870755911,,,,
1718095761.871753,,,,0.099400319,0.099322334,87484.000000000,1718095761.871752977
1718095761.872760,,,,0.037928652,0.038812291,87485.000000000,1718095761.872760057
1718095761.873767,,,,-0.160646230,-0.161036745,87486.000000000,1718095761.873767138
1718095761.874774,,,,-0.833877623,-0.836672187,87487.000000000,1718095761.874774218
1718095761.875756,345.167602539,17674.000000000,1718095761.875756025,,,,
1718095761.875781,,,,-1.101569057,-1.102560520,87488.000000000,1718095761.875781298
1718095761.876788,,,,-0.859576941,-0.861289680,87489.000000000,1718095761.876788378
1718095761.877795,,,,-0.483078003,-0.484261841,87490.000000000,1718095761.877795458
1718095761.878803,,,,-0.002170973,-0.001263295,87491.000000000,1718095761.878802538
1718095761.879810,,,,0.053122275,0.050688319,87492.000000000,1718095761.879809618
1718095761.880756,345.232666016,17675.000000000,1718095761.880755901,,,,
1718095761.880817,,,,-0.192980766,-0.194405019,87493.000000000,1718095761.880816698
1718095761.881824,,,,-0.629292548,-0.631918848,87494.000000000,1718095761.881823778
1718095761.882831,,,,-0.501228631,-0.500104547,87495.000000000,1718095761.882830858
1718095761.883838,,,,0.072114304,0.072829656,87496.000000000,1718095761.883837938
1718095761.884845,,,,0.439213395,0.440481693,87497.000000000,1718095761.884845018
1718095761.885756,345.297760010,17676.000000000,1718095761.885756016,,,,
1718095761.885852,,,,0.111180186,0.110284828,87498.000000000,1718095761.885852098
1718095761.886859,,,,-0.785676301,-0.787124574,87499.000000000,1718095761.886859179
1718095761.887866,,,,-0.909172595,-0.908361077,87500.000000000,1718095761.887866259
1718095761.888873,,,,-0.536568224,-0.537752032,87501.000000000,1718095761.888873339
1718095761.889880,,,,0.089447536,0.090523496,87502.000000000,1718095761.889880419
1718095761.890756,345.265228271,17677.000000000,1718095761.890755892,,,,
1718095761.890887,,,,0.666684985,0.667520583,87503.000000000,1718095761.890887499
1718095761.891895,,,,0.476860881,0.474258631,87504.000000000,1718095761.891894579
1718095761.892902,,,,0.068989031,0.065857902,87505.000000000,1718095761.892901659
1718095761.893909,,,,-0.393406779,-0.396393657,87506.000000000,1718095761.893908739
1718095761.894916,,,,-0.748173058,-0.749044359,87507.000000000,1718095761.894915819
1718095761.895756,345.183837891,17678.000000000,1718095761.895756006,,,,
1718095761.895923,,,,-0.957830608,-0.958990455,87508.000000000,1718095761.895922899
1718095761.896930,,,,-0.984203100,-0.984233022,87509.000000000,1718095761.896929979
1718095761.897937,,,,-0.780844152,-0.781979918,87510.000000000,1718095761.897937059
1718095761.898944,,,,-0.872967541,-0.871723294,87511.000000000,1718095761.898944139
1718095761.899951,,,,-0.944704473,-0.941176414,87512.000000000,1718095761.899951220
1718095761.900756,345.053710938,17679.000000000,1718095761.900755882,,,,
1718095761.900958,,,,-0.751442552,-0.749597311,87513.000000000,1718095761.900958300
1718095761.901965,,,,-0.407157958,-0.407812923,87514.000000000,1718095761.901965380
1718095761.902972,,,,0.008527068,0.009554950,87515.000000000,1718095761.902972460
1718095761.903980,,,,0.000136919,-0.000013187,87516.000000000,1718095761.903979540
1718095761.904987,,,,-0.192067221,-0.191712469,87517.000000000,1718095761.904986620
1718095761.905341,344.744659424,17681.000000000,1718095761.905340910,,,,
1718095761.905756,344.972381592,17680.000000000,1718095761.905755997,,,,
1718095761.905994,,,,-0.501973867,-0.503782749,87518.000000000,1718095761.905993700
1718095761.907001,,,,-0.902272940,-0.905019403,87519.000000000,1718095761.907000780
1718095761.908008,,,,-0.947060466,-0.947234631,87520.000000000,1718095761.908007860
1718095761.909015,,,,-0.218006968,-0.217820510,87521.000000000,1718095761.909014940
1718095761.910022,,,,1.170262218,1.171819091,87522.000000000,1718095761.910022020
1718095761.910341,344.647003174,17682.000000000,1718095761.910341024,,,,
1718095761.911029,,,,1.610516787,1.608491421,87523.000000000,1718095761.911029100
1718095761.912036,,,,1.083403826,1.082219958,87524.000000000,1718095761.912036180
1718095761.913043,,,,-0.141726330,-0.142453402,87525.000000000,1718095761.913043261
1718095761.914050,,,,-1.290455580,-1.290557623,87526.000000000,1718095761.914050341
1718095761.915057,,,,-1.510642886,-1.508461118,87527.000000000,1718095761.915057421
1718095761.915341,344.598236084,17683.000000000,1718095761.915340900,,,,
1718095761.916065,,,,-1.142293692,-1.141626477,87528.000000000,1718095761.916064501
1718095761.917072,,,,-0.825054705,-0.825613499,87529.000000000,1718095761.917071581
1718095761.918079,,,,-0.683672309,-0.684158981,87530.000000000,1718095761.918078661
1718095761.919086,,,,-0.762765646,-0.762747467,87531.000000000,1718095761.919085741
1718095761.920093,,,,-0.918211818,-0.918169618,87532.000000000,1718095761.920092821
1718095761.920341,344.549438477,17684.000000000,1718095761.920341015,,,,
1718095761.921100,,,,-0.778392017,-0.780128777,87533.000000000,1718095761.921099901
1718095761.922107,,,,-0.276233166,-0.277849734,87534.000000000,1718095761.922106981
1718095761.923114,,,,0.176810876,0.178632081,87535.000000000,1718095761.923114061
1718095761.924121,,,,0.353821397,0.353094310,87536.000000000,1718095761.924121141
1718095761.925128,,,,-0.050780952,-0.052541774,87537.000000000,1718095761.925128222
1718095761.925341,344.516906738,17685.000000000,1718095761.925340891,,,,
1718095761.926135,,,,-0.665401459,-0.666152596,87538.000000000,1718095761.926135302
1718095761.927142,,,,-0.434059322,-0.432983369,87539.000000000,1718095761.927142382
1718095761.928149,,,,0.310283959,0.312153250,87540.000000000,1718095761.928149462
1718095761.929157,,,,0.696230829,0.695888400,87541.000000000,1718095761.929156542
1718095761.930164,,,,0.184263438,0.183271915,87542.000000000,1718095761.930163622
1718095761.931171,,,,-0.788777530,-0.791427851,87543.000000000,1718095761.931170702
1718095761.932178,,,,-1.073561788,-1.074913979,87544.000000000,1718095761.932177782
1718095761.933185,,,,-0.953286946,-0.951513827,87545.000000000,1718095761.933184862
1718095761.934192,,,,-0.761948287,-0.764790952,87546.000000000,1718095761.934191942
1718095761.935199,,,,-0.751610875,-0.754020751,87547.000000000,1718095761.935199022
1718095761.936206,,,,-0.565008163,-0.564821720,87548.000000000,1718095761.936206102
