__time,/gdx/grip_force_stream/grip_force,/gdx/grip_force_stream/header/seq,/gdx/grip_force_stream/header/stamp,/shimmer0/emg_stream/emg_ch1,/shimmer0/emg_stream/emg_ch2,/shimmer0/emg_stream/header/seq,/shimmer0/emg_stream/header/stamp
1718095698.057117,,,,0.972961545,0.974109590,44168.000000000,1718095698.057116747
1718095698.058124,,,,0.982842207,0.985649049,44169.000000000,1718095698.058123827
1718095698.059131,,,,0.989549518,0.990577400,44170.000000000,1718095698.059130907
1718095698.060138,,,,0.995295167,0.993702650,44171.000000000,1718095698.060137987
1718095698.061145,,,,0.995703876,0.997573197,44172.000000000,1718095698.061145067
1718095698.062152,,,,0.996449113,0.996683657,44173.000000000,1718095698.062152147
1718095698.063159,,,,0.993299842,0.991298616,44174.000000000,1718095698.063159227
1718095698.064166,,,,0.986015558,0.986177981,44175.000000000,1718095698.064166307
1718095698.065173,,,,0.987626255,0.986682832,44176.000000000,1718095698.065173388
1718095698.066180,,,,0.990751505,0.990336955,44177.000000000,1718095698.066180468
1718095698.067188,,,,0.986304045,0.988293529,44178.000000000,1718095698.067187548
1718095698.068195,,,,0.983371079,0.984134495,44179.000000000,1718095698.068194628
1718095698.069202,,,,0.982048869,0.981610239,44180.000000000,1718095698.069201708
1718095698.070209,,,,0.977264762,0.979590833,44181.000000000,1718095698.070208788
1718095698.071216,,,,0.978322566,0.979013860,44182.000000000,1718095698.071215868
1718095698.072197,0.440576464,8932.000000000,1718095698.072197437,,,,
1718095698.072223,,,,0.977384984,0.979326427,44183.000000000,1718095698.072222948
1718095698.073230,,,,0.977457106,0.980696738,44184.000000000,1718095698.073230028
1718095698.074237,,,,0.980341971,0.981441975,44185.000000000,1718095698.074237108
1718095698.075244,,,,0.982313275,0.979975522,44186.000000000,1718095698.075244188
1718095698.076251,,,,0.984573126,0.984447062,44187.000000000,1718095698.076251268
1718095698.077197,0.493599653,8933.000000000,1718095698.077197313,,,,
1718095698.077258,,,,0.983851910,0.985697150,44188.000000000,1718095698.077258348
1718095698.078265,,,,0.986496329,0.989038765,44189.000000000,1718095698.078265429
1718095698.079273,,,,0.990342855,0.993654549,44190.000000000,1718095698.079272509
1718095698.080280,,,,0.991328478,0.990048468,44191.000000000,1718095698.080279589
1718095698.081287,,,,0.984837532,0.986490488,44192.000000000,1718095698.081286669
1718095698.082197,0.458250999,8934.000000000,1718095698.082197428,,,,
1718095698.082294,,,,0.983515322,0.985096157,44193.000000000,1718095698.082293749
1718095698.083301,,,,0.985967457,0.986899197,44194.000000000,1718095698.083300829
1718095698.084308,,,,0.989669681,0.989231110,44195.000000000,1718095698.084307909
1718095698.085315,,,,0.983659565,0.984711468,44196.000000000,1718095698.085314989
1718095698.086322,,,,0.976976275,0.979350448,44197.000000000,1718095698.086322069
1718095698.087197,0.458250999,8935.000000000,1718095698.087197304,,,,
1718095698.087329,,,,0.973634660,0.976177096,44198.000000000,1718095698.087329149
1718095698.088336,,,,0.971639276,0.974566400,44199.000000000,1718095698.088336229
1718095698.089343,,,,0.974620342,0.977763772,44200.000000000,1718095698.089343309
1718095698.090350,,,,0.979813099,0.979061961,44201.000000000,1718095698.090350389
1718095698.091357,,,,0.982601762,0.982067049,44202.000000000,1718095698.091357470
1718095698.092197,0.493599653,8936.000000000,1718095698.092197418,,,,
1718095698.092365,,,,0.992939234,0.991587102,44203.000000000,1718095698.092364550
1718095698.093372,,,,0.993347883,0.994736373,44204.000000000,1718095698.093371630
1718095698.094379,,,,0.996857822,0.998943508,44205.000000000,1718095698.094378710
1718095698.095386,,,,1.005608559,1.007237434,44206.000000000,1718095698.095385790
1718095698.096393,,,,1.007555842,1.008415461,44207.000000000,1718095698.096392870
1718095698.097197,0.511273801,8937.000000000,1718095698.097197294,,,,
1718095698.097400,,,,1.002315044,1.003270745,44208.000000000,1718095698.097399950
1718095698.098407,,,,0.997098207,0.996779859,44209.000000000,1718095698.098407030
1718095698.099414,,,,0.993203640,0.993269920,44210.000000000,1718095698.099414110
1718095698.100421,,,,0.988996565,0.989976346,44211.000000000,1718095698.100421190
1718095698.101428,,,,0.991568923,0.990072548,44212.000000000,1718095698.101428270
1718095698.102197,0.546629667,8938.000000000,1718095698.102197409,,,,
1718095698.102435,,,,0.998204112,0.997861683,44213.000000000,1718095698.102435350
1718095698.103442,,,,1.016691327,1.019498110,44214.000000000,1718095698.103442430
1718095698.104450,,,,1.033327341,1.032576203,44215.000000000,1718095698.104449511
1718095698.105457,,,,1.035515070,1.035172582,44216.000000000,1718095698.105456591
1718095698.106464,,,,1.030755043,1.028922081,44217.000000000,1718095698.106463671
1718095698.107197,0.634996653,8939.000000000,1718095698.107197285,,,,
1718095698.107471,,,,1.017989516,1.016589284,44218.000000000,1718095698.107470751
1718095698.108478,,,,1.002916098,1.001395583,44219.000000000,1718095698.108477831
1718095698.109485,,,,0.982649863,0.982451677,44220.000000000,1718095698.109484911
1718095698.110492,,,,0.971711397,0.974277914,44221.000000000,1718095698.110491991
1718095698.111499,,,,0.969259262,0.971921921,44222.000000000,1718095698.111499071
1718095698.112197,0.688023269,8940.000000000,1718095698.112197399,,,,
1718095698.112506,,,,0.966662884,0.968748569,44223.000000000,1718095698.112506151
1718095698.112867,0.670342445,8941.000000000,1718095698.112867117,,,,
1718095698.113513,,,,0.969475627,0.970022738,44224.000000000,1718095698.113513231
1718095698.114520,,,,0.971831620,0.972306550,44225.000000000,1718095698.114520311
1718095698.115527,,,,0.971903741,0.972619116,44226.000000000,1718095698.115527391
1718095698.116534,,,,0.973778903,0.976273239,44227.000000000,1718095698.116534472
1718095698.117542,,,,0.982673883,0.982307434,44228.000000000,1718095698.117541552
1718095698.117867,0.776384473,8942.000000000,1718095698.117867231,,,,
1718095698.118549,,,,0.986856937,0.986562610,44229.000000000,1718095698.118548632
1718095698.119556,,,,0.999670565,0.998270333,44230.000000000,1718095698.119555712
1718095698.120563,,,,1.002940059,1.002717853,44231.000000000,1718095698.120562792
1718095698.121570,,,,1.007604003,1.008367419,44232.000000000,1718095698.121569872
1718095698.122577,,,,1.017148018,1.017719150,44233.000000000,1718095698.122576952
1718095698.122867,0.829407632,8943.000000000,1718095698.122867107,,,,
1718095698.123584,,,,1.030129910,1.028849959,44234.000000000,1718095698.123584032
1718095698.124591,,,,1.047727585,1.047721744,44235.000000000,1718095698.124591112
1718095698.125598,,,,1.047751665,1.050294042,44236.000000000,1718095698.125598192
1718095698.126605,,,,1.052511692,1.055318594,44237.000000000,1718095698.126605272
1718095698.127612,,,,1.045419693,1.046014905,44238.000000000,1718095698.127612352
1718095698.128619,,,,1.017460585,1.016613245,44239.000000000,1718095698.128619432
1718095698.129627,,,,1.002507329,1.004040122,44240.000000000,1718095698.129626513
1718095698.130634,,,,1.006209612,1.008487582,44241.000000000,1718095698.130633593
1718095698.131641,,,,1.003300667,1.005530596,44242.000000000,1718095698.131640673
1718095698.132648,,,,1.002026558,1.003679514,44243.000000000,1718095698.132647753
1718095698.133655,,,,0.990631342,0.991995752,44244.000000000,1718095698.133654833
1718095698.134662,,,,0.972144127,0.972931623,44245.000000000,1718095698.134661913
1718095698.135669,,,,0.950147033,0.951944232,44246.000000000,1718095698.135668993
1718095698.136676,,,,0.942357898,0.944972456,44247.000000000,1718095698.136676073
1718095698.137683,,,,0.950291276,0.951992333,44248.000000000,1718095698.137683153
1718095698.138690,,,,0.958705485,0.958603442,44249.000000000,1718095698.138690233
1718095698.139697,,,,0.966061890,0.968508184,44250.000000000,1718095698.139697313
1718095698.140704,,,,0.976952255,0.977162778,44251.000000000,1718095698.140704393
1718095698.141711,,,,0.988323450,0.986202002,44252.000000000,1718095698.141711473
1718095698.142719,,,,0.996545315,0.995024860,44253.000000000,1718095698.142718554
1718095698.143726,,,,1.000199437,0.999664724,44254.000000000,1718095698.143725634
1718095698.144733,,,,0.999382079,0.998029947,44255.000000000,1718095698.144732714
1718095698.145740,,,,1.005560517,1.003126502,44256.000000000,1718095698.145739794
1718095698.146747,,,,1.019864678,1.018897176,44257.000000000,1718095698.146746874
1718095698.147754,,,,1.040010571,1.040966392,44258.000000000,1718095698.147753954
1718095698.148761,,,,1.095063448,1.096788526,44259.000000000,1718095698.148761034
1718095698.149768,,,,1.116555691,1.115876675,44260.000000000,1718095698.149768114
1718095698.150775,,,,1.137302637,1.134700418,44261.000000000,1718095698.150775194
1718095698.151782,,,,1.148241162,1.148259282,44262.000000000,1718095698.151782274
1718095698.152789,,,,1.127013326,1.126598835,44263.000000000,1718095698.152789354
1718095698.153796,,,,1.123359203,1.125204444,44264.000000000,1718095698.153796434
1718095698.154804,,,,1.196730852,1.195643187,44265.000000000,1718095698.154803514
1718095698.155811,,,,1.264020324,1.259398699,44266.000000000,1718095698.155810595
1718095698.156818,,,,1.317174077,1.317600846,44267.000000000,1718095698.156817675
1718095698.157825,,,,1.347561240,1.348733425,44268.000000000,1718095698.157824755
1718095698.158832,,,,1.318616509,1.320101142,44269.000000000,1718095698.158831835
1718095698.159839,,,,1.278589010,1.281828523,44270.000000000,1718095698.159838915
1718095698.160846,,,,1.184951067,1.185498118,44271.000000000,1718095698.160845995
1718095698.161853,,,,1.050949097,1.051592231,44272.000000000,1718095698.161853075
1718095698.162860,,,,0.972985566,0.972258508,44273.000000000,1718095698.162860155
1718095698.162867,2.225086927,8951.000000000,1718095698.162867069,,,,
1718095698.163867,,,,0.952214539,0.954708874,44274.000000000,1718095698.163867235
1718095698.164874,,,,0.942309856,0.943385780,44275.000000000,1718095698.164874315
1718095698.165881,,,,0.932958066,0.931918442,44276.000000000,1718095698.165881395
1718095698.166888,,,,0.963537633,0.963507712,44277.000000000,1718095698.166888475
1718095698.167867,2.507646799,8952.000000000,1718095698.167867184,,,,
1718095698.167896,,,,0.986664653,0.987764657,44278.000000000,1718095698.167895555
1718095698.168903,,,,0.962720275,0.963026941,44279.000000000,1718095698.168902636
1718095698.169910,,,,0.935193837,0.933937848,44280.000000000,1718095698.169909716
1718095698.170917,,,,0.911561966,0.912445605,44281.000000000,1718095698.170916796
1718095698.171924,,,,0.891848743,0.893405497,44282.000000000,1718095698.171923876
1718095698.172867,2.896108866,8953.000000000,1718095698.172867060,,,,
1718095698.172931,,,,0.885405898,0.888501227,44283.000000000,1718095698.172930956
1718095698.173938,,,,0.879035115,0.880279362,44284.000000000,1718095698.173938036
1718095698.174945,,,,0.895478845,0.892636240,44285.000000000,1718095698.174945116
1718095698.175952,,,,0.906345189,0.906074882,44286.000000000,1718095698.175952196
1718095698.176959,,,,0.909927249,0.912084997,44287.000000000,1718095698.176959276
1718095698.177867,3.390407801,8954.000000000,1718095698.177867174,,,,
1718095698.177966,,,,0.911153316,0.916075766,44288.000000000,1718095698.177966356
1718095698.178973,,,,0.923894763,0.924754381,44289.000000000,1718095698.178973436
1718095698.179981,,,,0.954594553,0.956247509,44290.000000000,1718095698.179980516
1718095698.180988,,,,0.978106201,0.978196502,44291.000000000,1718095698.180987597
1718095698.181995,,,,0.990463018,0.992212117,44292.000000000,1718095698.181994677
1718095698.182867,3.955195904,8955.000000000,1718095698.182867050,,,,
1718095698.183002,,,,1.004286408,1.008175015,44293.000000000,1718095698.183001757
1718095698.184009,,,,1.039457679,1.038995028,44294.000000000,1718095698.184008837
1718095698.185016,,,,1.126171947,1.124242783,44295.000000000,1718095698.185015917
1718095698.186023,,,,1.215482473,1.215909362,44296.000000000,1718095698.186022997
1718095698.187030,,,,1.301499605,1.302407265,44297.000000000,1718095698.187030077
1718095698.187867,4.572752476,8956.000000000,1718095698.187867165,,,,
1718095698.188037,,,,1.301691890,1.303513169,44298.000000000,1718095698.188037157
1718095698.189044,,,,1.262529850,1.263677955,44299.000000000,1718095698.189044237
1718095698.190051,,,,1.268323660,1.268365860,44300.000000000,1718095698.190051317
1718095698.191058,,,,1.208775163,1.210019469,44301.000000000,1718095698.191058397
1718095698.192065,,,,1.137038231,1.137705564,44302.000000000,1718095698.192065477
1718095698.192867,5.278318882,8957.000000000,1718095698.192867041,,,,
1718095698.193073,,,,1.028711557,1.024210095,44303.000000000,1718095698.193072557
1718095698.194080,,,,0.935602546,0.932904124,44304.000000000,1718095698.194079638
1718095698.195087,,,,0.904590249,0.902036071,44305.000000000,1718095698.195086718
1718095698.196094,,,,0.872496128,0.872394085,44306.000000000,1718095698.196093798
1718095698.197101,,,,0.867688000,0.870398700,44307.000000000,1718095698.197100878
1718095698.197867,6.177587509,8958.000000000,1718095698.197867155,,,,
1718095698.198108,,,,0.863697290,0.865927160,44308.000000000,1718095698.198107958
1718095698.199115,,,,0.887401223,0.887611747,44309.000000000,1718095698.199115038
1718095698.200122,,,,0.958969951,0.958170712,44310.000000000,1718095698.200122118
1718095698.201129,,,,1.060036421,1.061424851,44311.000000000,1718095698.201129198
1718095698.202136,,,,1.185744405,1.186988592,44312.000000000,1718095698.202136278
1718095698.202867,7.111722469,8959.000000000,1718095698.202867031,,,,
1718095698.203143,,,,1.252625108,1.252475023,44313.000000000,1718095698.203143358
1718095698.204150,,,,1.305923104,1.307263494,44314.000000000,1718095698.204150438
1718095698.205158,,,,1.276425362,1.277236819,44315.000000000,1718095698.205157518
1718095698.206165,,,,1.221901298,1.221847415,44316.000000000,1718095698.206164598
1718095698.207172,,,,1.219617486,1.220164537,44317.000000000,1718095698.207171679
1718095698.207867,8.186357498,8960.000000000,1718095698.207867146,,,,
1718095698.208179,,,,1.260125756,1.261201739,44318.000000000,1718095698.208178759
1718095698.209186,,,,1.210554242,1.210332036,44319.000000000,1718095698.209185839
1718095698.210193,,,,1.206130743,1.205932617,44320.000000000,1718095698.210192919
1718095698.211200,,,,1.165117621,1.166506052,44321.000000000,1718095698.211199999
1718095698.212207,,,,1.017965436,1.020652056,44322.000000000,1718095698.212207079
1718095698.213214,,,,0.910744607,0.912565827,44323.000000000,1718095698.213214159
1718095698.214221,,,,0.915288270,0.916388273,44324.000000000,1718095698.214221239
1718095698.215228,,,,1.087057948,1.090249419,44325.000000000,1718095698.215228319
1718095698.216235,,,,1.335492969,1.335366845,44326.000000000,1718095698.216235399
1718095698.217242,,,,1.615637422,1.614357352,44327.000000000,1718095698.217242479
1718095698.218250,,,,1.777911067,1.779299498,44328.000000000,1718095698.218249559
1718095698.219257,,,,1.769617081,1.767615795,44329.000000000,1718095698.219256639
1718095698.220264,,,,1.590034127,1.588201284,44330.000000000,1718095698.220263720
1718095698.221271,,,,1.419538617,1.419725060,44331.000000000,1718095698.221270800
1718095698.222278,,,,1.225723743,1.225982428,44332.000000000,1718095698.222277880
1718095698.223285,,,,1.084052920,1.082316041,44333.000000000,1718095698.223284960
1718095698.224292,,,,0.950868249,0.950357556,44334.000000000,1718095698.224292040
1718095698.225299,,,,0.907763600,0.906411469,44335.000000000,1718095698.225299120
1718095698.226306,,,,1.052583814,1.050029635,44336.000000000,1718095698.226306200
1718095698.227313,,,,1.147952676,1.147802591,44337.000000000,1718095698.227313280
1718095698.228320,,,,1.323208213,1.320245385,44338.000000000,1718095698.228320360
1718095698.229327,,,,1.620806098,1.620367527,44339.000000000,1718095698.229327440
1718095698.230335,,,,1.884891391,1.887361765,44340.000000000,1718095698.230334520
1718095698.231342,,,,1.919654012,1.920633912,44341.000000000,1718095698.231341600
1718095698.232349,,,,1.764760852,1.764730930,44342.000000000,1718095698.232348680
1718095698.233356,,,,1.483847141,1.482446909,44343.000000000,1718095698.233355761
1718095698.234363,,,,1.195889473,1.195835590,44344.000000000,1718095698.234362841
1718095698.235370,,,,0.960316181,0.961969137,44345.000000000,1718095698.235369921
1718095698.236377,,,,0.885069311,0.885832727,44346.000000000,1718095698.236377001
1718095698.237384,,,,1.067152381,1.069526553,44347.000000000,1718095698.237384081
1718095698.238391,,,,1.189903378,1.191436172,44348.000000000,1718095698.238391161
1718095698.239398,,,,1.133432150,1.133786917,44349.000000000,1718095698.239398241
1718095698.240405,,,,1.008902192,1.008776069,44350.000000000,1718095698.240405321
1718095698.241412,,,,0.919014573,0.917373955,44351.000000000,1718095698.241412401
1718095698.242419,,,,0.874371290,0.874173105,44352.000000000,1718095698.242419481
1718095698.243427,,,,0.836988211,0.837799728,44353.000000000,1718095698.243426561
1718095698.244434,,,,0.851628900,0.854507923,44354.000000000,1718095698.244433641
1718095698.245441,,,,1.105136395,1.105202675,44355.000000000,1718095698.245440722
1718095698.246448,,,,1.502238154,1.503891110,44356.000000000,1718095698.246447802
1718095698.247455,,,,1.781589270,1.787593484,44357.000000000,1718095698.247454882
1718095698.248462,,,,1.820174336,1.821562767,44358.000000000,1718095698.248461962
1718095698.249469,,,,1.673214436,1.673376918,44359.000000000,1718095698.249469042
1718095698.250476,,,,1.372827888,1.377149343,44360.000000000,1718095698.250476122
1718095698.251483,,,,1.015104651,1.014088988,44361.000000000,1718095698.251483202
1718095698.252490,,,,0.673488498,0.670309246,44362.000000000,1718095698.252490282
1718095698.253497,,,,0.458013088,0.453992456,44363.000000000,1718095698.253497362
1718095698.254504,,,,0.461162418,0.459329456,44364.000000000,1718095698.254504442
1718095698.255512,,,,0.572662473,0.568954349,44365.000000000,1718095698.255511522
1718095698.256519,,,,0.682623863,0.680622637,44366.000000000,1718095698.256518602
1718095698.257526,,,,0.832540691,0.831861734,44367.000000000,1718095698.257525682
1718095698.257812,36.285266876,8971.000000000,1718095698.257811785,,,,
1718095698.258533,,,,0.843671501,0.841958761,44368.000000000,1718095698.258532763
1718095698.259540,,,,0.769963205,0.771039128,44369.000000000,1718095698.259539843
1718095698.260547,,,,0.728156686,0.729569197,44370.000000000,1718095698.260546923
1718095698.261554,,,,0.761260509,0.762961507,44371.000000000,1718095698.261554003
1718095698.262561,,,,0.876030087,0.875543416,44372.000000000,1718095698.262561083
1718095698.262812,40.035861969,8972.000000000,1718095698.262811899,,,,
1718095698.263568,,,,1.165117621,1.164294362,44373.000000000,1718095698.263568163
1718095698.264575,,,,1.508536696,1.507641435,44374.000000000,1718095698.264575243
1718095698.265582,,,,1.597150207,1.602288961,44375.000000000,1718095698.265582323
1718095698.266589,,,,1.601693869,1.603827596,44376.000000000,1718095698.266589403
1718095698.267596,,,,1.658621907,1.660539269,44377.000000000,1718095698.267596483
1718095698.267812,43.952846527,8973.000000000,1718095698.267811775,,,,
1718095698.268604,,,,1.488390803,1.487735868,44378.000000000,1718095698.268603563
1718095698.269611,,,,1.095544219,1.092076540,44379.000000000,1718095698.269610643
1718095698.270618,,,,0.736811280,0.734978318,44380.000000000,1718095698.270617723
1718095698.271625,,,,0.684258640,0.683892190,44381.000000000,1718095698.271624804
1718095698.272632,,,,0.967215836,0.967426360,44382.000000000,1718095698.272631884
1718095698.272812,47.948825836,8974.000000000,1718095698.272811890,,,,
1718095698.273639,,,,1.152520299,1.154870510,44383.000000000,1718095698.273638964
1718095698.274646,,,,1.058329463,1.060102582,44384.000000000,1718095698.274646044
1718095698.275653,,,,1.047222733,1.048539162,44385.000000000,1718095698.275653124
1718095698.276660,,,,0.999021471,0.999280035,44386.000000000,1718095698.276660204
1718095698.277667,,,,0.931443512,0.930692375,44387.000000000,1718095698.277667284
1718095698.277812,52.126815796,8975.000000000,1718095698.277811766,,,,
1718095698.278674,,,,0.973899126,0.975071251,44388.000000000,1718095698.278674364
1718095698.279681,,,,1.106050014,1.109866500,44389.000000000,1718095698.279681444
1718095698.280689,,,,1.237239242,1.237040997,44390.000000000,1718095698.280688524
1718095698.281696,,,,1.373452902,1.374793291,44391.000000000,1718095698.281695604
1718095698.282703,,,,1.371794105,1.373278737,44392.000000000,1718095698.282702684
1718095698.282812,56.313552856,8976.000000000,1718095698.282811880,,,,
1718095698.283710,,,,1.346335173,1.345439792,44393.000000000,1718095698.283709764
1718095698.284717,,,,1.289863944,1.288007021,44394.000000000,1718095698.284716845
1718095698.285724,,,,1.186826229,1.186267376,44395.000000000,1718095698.285723925
1718095698.286731,,,,1.124392867,1.127680659,44396.000000000,1718095698.286731005
1718095698.287738,,,,1.126436353,1.129050970,44397.000000000,1718095698.287738085
1718095698.287812,60.629203796,8977.000000000,1718095698.287811756,,,,
1718095698.288745,,,,1.160646081,1.163140416,44398.000000000,1718095698.288745165
1718095698.289752,,,,1.232791662,1.230742455,44399.000000000,1718095698.289752245
1718095698.290759,,,,1.248970985,1.249253631,44400.000000000,1718095698.290759325
1718095698.291766,,,,1.338233590,1.336568832,44401.000000000,1718095698.291766405
1718095698.292773,,,,1.506012440,1.506968260,44402.000000000,1718095698.292773485
1718095698.292812,64.867263794,8978.000000000,1718095698.292811871,,,,
1718095698.293781,,,,1.521542668,1.523339868,44403.000000000,1718095698.293780565
1718095698.294788,,,,1.348138213,1.349815249,44404.000000000,1718095698.294787645
1718095698.295795,,,,1.079437137,1.082147837,44405.000000000,1718095698.295794725
1718095698.296802,,,,0.706712544,0.710553169,44406.000000000,1718095698.296801805
1718095698.297809,,,,0.394618183,0.396992326,44407.000000000,1718095698.297808886
1718095698.297812,69.028198242,8979.000000000,1718095698.297811747,,,,
1718095698.298816,,,,0.342546374,0.345689833,44408.000000000,1718095698.298815966
1718095698.299823,,,,0.480923742,0.480797678,44409.000000000,1718095698.299823046
1718095698.300830,,,,0.586221337,0.584845126,44410.000000000,1718095698.300830126
1718095698.301837,,,,0.591774702,0.592778504,44411.000000000,1718095698.301837206
1718095698.302812,73.317306519,8980.000000000,1718095698.302811861,,,,
1718095698.302844,,,,0.631489635,0.633382976,44412.000000000,1718095698.302844286
1718095698.303851,,,,0.669545829,0.671559393,44413.000000000,1718095698.303851366
1718095698.304858,,,,0.714838207,0.717332602,44414.000000000,1718095698.304858446
1718095698.305866,,,,0.803211272,0.806234479,44415.000000000,1718095698.305865526
1718095698.306873,,,,0.891704500,0.892660260,44416.000000000,1718095698.306872606
1718095698.307880,,,,0.896127939,0.894391179,44417.000000000,1718095698.307879686
1718095698.308887,,,,0.783954799,0.783371925,44418.000000000,1718095698.308886766
1718095698.309894,,,,0.654857039,0.652639449,44419.000000000,1718095698.309893847
1718095698.310901,,,,0.617786527,0.616097867,44420.000000000,1718095698.310900927
1718095698.311908,,,,0.769434273,0.769692898,44421.000000000,1718095698.311908007
1718095698.312915,,,,0.910888851,0.912998557,44422.000000000,1718095698.312915087
1718095698.312945,77.529373169,8981.000000000,1718095698.312944651,,,,
1718095698.313922,,,,1.032437801,1.036446691,44423.000000000,1718095698.313922167
1718095698.314929,,,,1.239787459,1.242257833,44424.000000000,1718095698.314929247
1718095698.315936,,,,1.372731686,1.375033736,44425.000000000,1718095698.315936327
1718095698.316943,,,,1.419658899,1.419412613,44426.000000000,1718095698.316943407
1718095698.317945,81.800895691,8982.000000000,1718095698.317944765,,,,
1718095698.317950,,,,1.555319667,1.555482030,44427.000000000,1718095698.317950487
1718095698.318958,,,,1.612584233,1.613708258,44428.000000000,1718095698.318957567
1718095698.319965,,,,1.624315977,1.623709083,44429.000000000,1718095698.319964647
1718095698.320972,,,,1.400113940,1.401742816,44430.000000000,1718095698.320971727
1718095698.321979,,,,1.036019921,1.037576675,44431.000000000,1718095698.321978807
1718095698.322945,86.012733459,8983.000000000,1718095698.322944641,,,,
1718095698.322986,,,,0.818717420,0.820442438,44432.000000000,1718095698.322985888
1718095698.323993,,,,0.705847085,0.707692325,44433.000000000,1718095698.323992968
1718095698.325000,,,,0.802826583,0.804912269,44434.000000000,1718095698.325000048
1718095698.326007,,,,1.133408070,1.133931160,44435.000000000,1718095698.326007128
1718095698.327014,,,,1.533923507,1.534662962,44436.000000000,1718095698.327014208
1718095698.327945,90.351501465,8984.000000000,1718095698.327944756,,,,
1718095698.328021,,,,1.723122597,1.724967837,44437.000000000,1718095698.328021288
1718095698.329028,,,,1.524211168,1.524469733,44438.000000000,1718095698.329028368
1718095698.330035,,,,1.180142879,1.178502321,44439.000000000,1718095698.330035448
1718095698.331043,,,,0.727747977,0.726155460,44440.000000000,1718095698.331042528
1718095698.332050,,,,0.421182990,0.421585828,44441.000000000,1718095698.332049608
1718095698.333057,,,,0.524917960,0.523950458,44442.000000000,1718095698.333056688
1718095698.334064,,,,0.823886096,0.823327303,44443.000000000,1718095698.334063768
1718095698.335071,,,,1.080639124,1.082027555,44444.000000000,1718095698.335070848
1718095698.336078,,,,1.466706157,1.465931058,44445.000000000,1718095698.336077929
1718095698.337085,,,,1.960378766,1.961935520,44446.000000000,1718095698.337085009
1718095698.338092,,,,2.285310745,2.286843538,44447.000000000,1718095698.338092089
1718095698.339099,,,,2.036106348,2.038648844,44448.000000000,1718095698.339099169
1718095698.340106,,,,1.630374193,1.633517623,44449.000000000,1718095698.340106249
1718095698.341113,,,,1.274910808,1.275337577,44450.000000000,1718095698.341113329
1718095698.342120,,,,0.849825859,0.849411309,44451.000000000,1718095698.342120409
1718095698.343127,,,,0.688081086,0.689637840,44452.000000000,1718095698.343127489
1718095698.344135,,,,0.637812316,0.638094962,44453.000000000,1718095698.344134569
1718095698.345142,,,,0.613579452,0.613309145,44454.000000000,1718095698.345141649
1718095698.346149,,,,0.652404904,0.652158678,44455.000000000,1718095698.346148729
1718095698.347156,,,,0.622474432,0.621987760,44456.000000000,1718095698.347155809
1718095698.348163,,,,0.528427839,0.525537133,44457.000000000,1718095698.348162889
1718095698.349170,,,,0.624157310,0.623526394,44458.000000000,1718095698.349169970
1718095698.350177,,,,0.759673834,0.762576878,44459.000000000,1718095698.350177050
1718095698.351184,,,,0.837132454,0.839843154,44460.000000000,1718095698.351184130
1718095698.352191,,,,0.819751143,0.821524262,44461.000000000,1718095698.352191210
1718095698.353198,,,,0.759361327,0.759740114,44462.000000000,1718095698.353198290
1718095698.354205,,,,0.825136244,0.825707316,44463.000000000,1718095698.354205370
1718095698.355212,,,,0.827516258,0.825659275,44464.000000000,1718095698.355212450
1718095698.356220,,,,0.845570683,0.843978167,44465.000000000,1718095698.356219530
1718095698.357227,,,,0.944064796,0.941943347,44466.000000000,1718095698.357226610
1718095698.358234,,,,0.926058412,0.924057186,44467.000000000,1718095698.358233690
1718095698.359241,,,,0.753567517,0.752143264,44468.000000000,1718095698.359240770
1718095698.360248,,,,0.683008552,0.686584711,44469.000000000,1718095698.360247850
1718095698.361255,,,,0.802658319,0.805513263,44470.000000000,1718095698.361254930
1718095698.362262,,,,0.918149114,0.918936551,44471.000000000,1718095698.362262011
1718095698.362945,119.006919861,8991.000000000,1718095698.362944603,,,,
1718095698.363269,,,,0.819414556,0.822221458,44472.000000000,1718095698.363269091
1718095698.364276,,,,0.951974154,0.953747272,44473.000000000,1718095698.364276171
1718095698.365283,,,,1.345541835,1.345728278,44474.000000000,1718095698.365283251
1718095698.366290,,,,1.442305088,1.441241384,44475.000000000,1718095698.366290331
1718095698.367297,,,,1.407205820,1.408762574,44476.000000000,1718095698.367297411
1718095698.367945,122.879142761,8992.000000000,1718095698.367944717,,,,
1718095698.368304,,,,1.253129959,1.253292441,44477.000000000,1718095698.368304491
1718095698.369312,,,,1.128888488,1.130421281,44478.000000000,1718095698.369311571
1718095698.370319,,,,0.844993711,0.845540762,44479.000000000,1718095698.370318651
1718095698.371326,,,,0.708491504,0.707740426,44480.000000000,1718095698.371325731
1718095698.372333,,,,1.154876351,1.157779336,44481.000000000,1718095698.372332811
1718095698.372945,126.794578552,8993.000000000,1718095698.372944593,,,,
1718095698.373340,,,,1.585706830,1.589667678,44482.000000000,1718095698.373339891
1718095698.374347,,,,1.764183879,1.766173363,44483.000000000,1718095698.374346972
1718095698.375354,,,,1.779978514,1.781294823,44484.000000000,1718095698.375354052
1718095698.376361,,,,1.640062571,1.639960527,44485.000000000,1718095698.376361132
1718095698.377368,,,,1.299480200,1.299738765,44486.000000000,1718095698.377368212
1718095698.377945,130.653350830,8994.000000000,1718095698.377944708,,,,
1718095698.378375,,,,0.977649450,0.977234900,44487.000000000,1718095698.378375292
1718095698.379382,,,,0.510613799,0.508925080,44488.000000000,1718095698.379382372
1718095698.380389,,,,0.522201359,0.523157120,44489.000000000,1718095698.380389452
1718095698.381397,,,,0.746788085,0.748056412,44490.000000000,1718095698.381396532
1718095698.382404,,,,0.848431528,0.848209262,44491.000000000,1718095698.382403612
1718095698.382945,134.323059082,8995.000000000,1718095698.382944584,,,,
1718095698.383411,,,,0.868024588,0.867802322,44492.000000000,1718095698.383410692
1718095698.384418,,,,0.866798520,0.865855038,44493.000000000,1718095698.384417772
1718095698.385425,,,,0.879804432,0.878957152,44494.000000000,1718095698.385424852
1718095698.386432,,,,1.123359203,1.126262188,44495.000000000,1718095698.386431932
1718095698.387439,,,,1.627080679,1.628950000,44496.000000000,1718095698.387439013
1718095698.387945,137.986938477,8996.000000000,1718095698.387944698,,,,
1718095698.388446,,,,1.891742945,1.892818928,44497.000000000,1718095698.388446093
1718095698.389453,,,,1.868135214,1.870220900,44498.000000000,1718095698.389453173
1718095698.390460,,,,1.594097018,1.595293164,44499.000000000,1718095698.390460253
1718095698.391467,,,,1.117421150,1.116261363,44500.000000000,1718095698.391467333
1718095698.392474,,,,0.515037239,0.513805330,44501.000000000,1718095698.392474413
1718095698.392945,141.562362671,8997.000000000,1718095698.392944574,,,,
1718095698.393481,,,,0.291291922,0.290084034,44502.000000000,1718095698.393481493
1718095698.394489,,,,0.529870272,0.529960573,44503.000000000,1718095698.394488573
1718095698.395496,,,,0.796600103,0.796233654,44504.000000000,1718095698.395495653
1718095698.396503,,,,1.124152541,1.124411106,44505.000000000,1718095698.396502733
1718095698.397510,,,,1.389848590,1.390251398,44506.000000000,1718095698.397509813
1718095698.397945,144.983749390,8998.000000000,1718095698.397944689,,,,
1718095698.398517,,,,1.378188968,1.379120588,44507.000000000,1718095698.398516893
1718095698.399524,,,,1.092803597,1.092076540,44508.000000000,1718095698.399523973
1718095698.400531,,,,0.727796078,0.728030622,44509.000000000,1718095698.400531054
1718095698.401538,,,,0.453325182,0.451107591,44510.000000000,1718095698.401538134
1718095698.402545,,,,0.306052834,0.304027557,44511.000000000,1718095698.402545214
1718095698.402945,148.367263794,8999.000000000,1718095698.402944565,,,,
1718095698.403552,,,,0.305932611,0.307681710,44512.000000000,1718095698.403552294
1718095698.404559,,,,0.479361117,0.479643732,44513.000000000,1718095698.404559374
1718095698.405566,,,,0.844969690,0.846141815,44514.000000000,1718095698.405566454
1718095698.406574,,,,1.470288277,1.471724868,44515.000000000,1718095698.406573534
1718095698.407581,,,,1.922418714,1.920657873,44516.000000000,1718095698.407580614
1718095698.407945,151.647247314,9000.000000000,1718095698.407944679,,,,
1718095698.408588,,,,2.012330294,2.013694763,44517.000000000,1718095698.408587694
1718095698.409595,,,,1.911408186,1.911378264,44518.000000000,1718095698.409594774
1718095698.410602,,,,1.365808010,1.366691709,44519.000000000,1718095698.410601854
1718095698.411609,,,,0.831338704,0.831068397,44520.000000000,1718095698.411608934
1718095698.412616,,,,0.412360102,0.408844322,44521.000000000,1718095698.412616014
1718095698.413623,,,,0.443901300,0.446059078,44522.000000000,1718095698.413623095
1718095698.414630,,,,0.741234720,0.741877973,44523.000000000,1718095698.414630175
1718095698.415637,,,,1.008926153,1.008535624,44524.000000000,1718095698.415637255
1718095698.416644,,,,1.258779526,1.259951711,44525.000000000,1718095698.416644335
1718095698.417651,,,,1.406484604,1.406598926,44526.000000000,1718095698.417651415
1718095698.418658,,,,1.366433144,1.367581129,44527.000000000,1718095698.418658495
1718095698.419666,,,,1.234041810,1.236343861,44528.000000000,1718095698.419665575
1718095698.420673,,,,1.086673260,1.088542581,44529.000000000,1718095698.420672655
1718095698.421680,,,,1.154587865,1.155904174,44530.000000000,1718095698.421679735
1718095698.422687,,,,1.106530786,1.109698296,44531.000000000,1718095698.422686815
1718095698.423694,,,,0.952118397,0.953723252,44532.000000000,1718095698.423693895
1718095698.424701,,,,0.630071282,0.629175901,44533.000000000,1718095698.424700975
1718095698.425708,,,,0.470850736,0.470772773,44534.000000000,1718095698.425708055
1718095698.426715,,,,0.525783420,0.526330471,44535.000000000,1718095698.426715136
1718095698.427722,,,,0.580691993,0.578570545,44536.000000000,1718095698.427722216
1718095698.428729,,,,0.644014776,0.643335760,44537.000000000,1718095698.428729296
1718095698.429736,,,,0.967432201,0.968892813,44538.000000000,1718095698.429736376
1718095698.430743,,,,1.044626355,1.044187784,44539.000000000,1718095698.430743456
1718095698.431751,,,,1.044217706,1.044548392,44540.000000000,1718095698.431750536
1718095698.432758,,,,0.937189221,0.940140307,44541.000000000,1718095698.432757616
1718095698.433765,,,,0.683657646,0.684757650,44542.000000000,1718095698.433764696
1718095698.434772,,,,0.568287075,0.568329275,44543.000000000,1718095698.434771776
1718095698.435779,,,,0.673007667,0.671102583,44544.000000000,1718095698.435778856
1718095698.436786,,,,1.117276907,1.115924716,44545.000000000,1718095698.436785936
1718095698.437793,,,,1.817169189,1.816923022,44546.000000000,1718095698.437793016
1718095698.438800,,,,2.263433933,2.264726162,44547.000000000,1718095698.438800097
1718095698.439807,,,,2.298460960,2.302421808,44548.000000000,1718095698.439807177
1718095698.440814,,,,1.936169863,1.936284304,44549.000000000,1718095698.440814257
1718095698.441821,,,,1.323929429,1.324187994,44550.000000000,1718095698.441821337
1718095698.442828,,,,0.715847909,0.712836981,44551.000000000,1718095698.442828417
1718095698.443835,,,,0.371996045,0.369850576,44552.000000000,1718095698.443835497
1718095698.444843,,,,0.470105499,0.470171750,44553.000000000,1718095698.444842577
1718095698.445850,,,,0.694091260,0.696705759,44554.000000000,1718095698.445849657
1718095698.446857,,,,0.852806866,0.856359005,44555.000000000,1718095698.446856737
1718095698.447864,,,,1.094462395,1.096716404,44556.000000000,1718095698.447863817
1718095698.448871,,,,1.321910024,1.322264791,44557.000000000,1718095698.448870897
1718095698.449878,,,,1.388646603,1.385299087,44558.000000000,1718095698.449877977
1718095698.450885,,,,1.326549888,1.328563333,44559.000000000,1718095698.450885057
1718095698.451892,,,,1.112853408,1.116237283,44560.000000000,1718095698.451892138
1718095698.452899,,,,0.691158295,0.692282319,44561.000000000,1718095698.452899218
1718095698.453906,,,,0.509892583,0.509934783,44562.000000000,1718095698.453906298
1718095698.454913,,,,0.586461723,0.589100301,44563.000000000,1718095698.454913378
1718095698.455920,,,,0.615791202,0.617035449,44564.000000000,1718095698.455920458
1718095698.456928,,,,0.615190148,0.614559233,44565.000000000,1718095698.456927538
1718095698.457935,,,,0.645673573,0.647230327,44566.000000000,1718095698.457934618
1718095698.458942,,,,0.668584228,0.670309246,44567.000000000,1718095698.458941698
1718095698.459949,,,,0.685460687,0.687666535,44568.000000000,1718095698.459948778
1718095698.460956,,,,0.726161301,0.727141142,44569.000000000,1718095698.460955858
1718095698.461963,,,,0.961061478,0.960791171,44570.000000000,1718095698.461962938
1718095698.462970,,,,1.243417621,1.245527387,44571.000000000,1718095698.462970018
1718095698.463977,,,,1.336406469,1.341088533,44572.000000000,1718095698.463977098
1718095698.464984,,,,1.317510605,1.320293427,44573.000000000,1718095698.464984179
1718095698.465991,,,,1.332776308,1.334597588,44574.000000000,1718095698.465991259
1718095698.466998,,,,1.352753997,1.353926182,44575.000000000,1718095698.466998339
1718095698.467701,177.101135254,9011.000000000,1718095698.467701435,,,,
1718095698.468005,,,,1.517527938,1.518796206,44576.000000000,1718095698.468005419
1718095698.469012,,,,1.779617906,1.778986931,44577.000000000,1718095698.469012499
1718095698.470020,,,,1.846955419,1.848824739,44578.000000000,1718095698.470019579
1718095698.471027,,,,2.070364237,2.071848869,44579.000000000,1718095698.471026659
1718095698.472034,,,,2.492924929,2.494505644,44580.000000000,1718095698.472033739
1718095698.472702,178.829849243,9012.000000000,1718095698.472701550,,,,
1718095698.473041,,,,2.565238714,2.564199209,44581.000000000,1718095698.473040819
1718095698.474048,,,,2.421957254,2.422576427,44582.000000000,1718095698.474047899
1718095698.475055,,,,2.175926208,2.177410841,44583.000000000,1718095698.475054979
1718095698.476062,,,,1.546520829,1.545793772,44584.000000000,1718095698.476062059
1718095698.477069,,,,0.880309284,0.883404672,44585.000000000,1718095698.477069139
1718095698.477701,180.622695923,9013.000000000,1718095698.477701426,,,,
1718095698.478076,,,,0.631080985,0.632565618,44586.000000000,1718095698.478076220
1718095698.479083,,,,0.662165403,0.661462367,44587.000000000,1718095698.479083300
1718095698.480090,,,,0.678537011,0.679204285,44588.000000000,1718095698.480090380
1718095698.481097,,,,0.481284350,0.481518894,44589.000000000,1718095698.481097460
1718095698.482105,,,,0.242946401,0.244551256,44590.000000000,1718095698.482104540
1718095698.482702,182.333023071,9014.000000000,1718095698.482701540,,,,
1718095698.483112,,,,0.249004617,0.250248879,44591.000000000,1718095698.483111620
1718095698.484119,,,,0.383799940,0.381702542,44592.000000000,1718095698.484118700
1718095698.485126,,,,0.458157331,0.456997544,44593.000000000,1718095698.485125780
1718095698.486133,,,,0.487006009,0.486519307,44594.000000000,1718095698.486132860
1718095698.487140,,,,0.540015399,0.541259646,44595.000000000,1718095698.487139940
1718095698.487701,184.058670044,9015.000000000,1718095698.487701416,,,,
1718095698.488147,,,,0.585980892,0.586335659,44596.000000000,1718095698.488147020
1718095698.489154,,,,0.659016073,0.657736063,44597.000000000,1718095698.489154100
1718095698.490161,,,,0.920601249,0.922903240,44598.000000000,1718095698.490161180
1718095698.491168,,,,1.315635443,1.317336440,44599.000000000,1718095698.491168261
1718095698.492175,,,,1.535606384,1.534566760,44600.000000000,1718095698.492175341
1718095698.492702,185.734512329,9016.000000000,1718095698.492701530,,,,
1718095698.493182,,,,1.659391165,1.659168959,44601.000000000,1718095698.493182421
1718095698.494190,,,,1.842892647,1.842045307,44602.000000000,1718095698.494189501
1718095698.495197,,,,1.798321486,1.798628092,44603.000000000,1718095698.495196581
1718095698.496204,,,,1.431991696,1.431841493,44604.000000000,1718095698.496203661
1718095698.497211,,,,1.141221285,1.140037417,44605.000000000,1718095698.497210741
1718095698.497701,187.393203735,9017.000000000,1718095698.497701406,,,,
1718095698.498218,,,,1.172978878,1.170929551,44606.000000000,1718095698.498217821
1718095698.499225,,,,1.104655623,1.103760242,44607.000000000,1718095698.499224901
1718095698.500232,,,,0.920865655,0.921292543,44608.000000000,1718095698.500231981
1718095698.501239,,,,0.974740505,0.973388374,44609.000000000,1718095698.501239061
1718095698.502246,,,,1.017845273,1.016733527,44610.000000000,1718095698.502246141
1718095698.502702,188.953506470,9018.000000000,1718095698.502701521,,,,
1718095698.503253,,,,1.013349652,1.013415933,44611.000000000,1718095698.503253222
1718095698.504260,,,,0.971999884,0.973075867,44612.000000000,1718095698.504260302
1718095698.505267,,,,1.033327341,1.034210920,44613.000000000,1718095698.505267382
1718095698.506274,,,,1.235508323,1.237978578,44614.000000000,1718095698.506274462
1718095698.507282,,,,1.407878995,1.410661817,44615.000000000,1718095698.507281542
1718095698.507701,190.366851807,9019.000000000,1718095698.507701397,,,,
1718095698.508289,,,,1.574648261,1.576613665,44616.000000000,1718095698.508288622
1718095698.509296,,,,1.650496125,1.652173162,44617.000000000,1718095698.509295702
1718095698.510303,,,,1.634893894,1.637003541,44618.000000000,1718095698.510302782
1718095698.511310,,,,1.415139198,1.413787127,44619.000000000,1718095698.511309862
1718095698.512317,,,,1.132302284,1.134051323,44620.000000000,1718095698.512316942
1718095698.512613,193.207931519,9021.000000000,1718095698.512613297,,,,
1718095698.512702,191.893218994,9020.000000000,1718095698.512701511,,,,
1718095698.513324,,,,1.340204835,1.342386723,44621.000000000,1718095698.513324022
1718095698.514331,,,,1.543996572,1.542043447,44622.000000000,1718095698.514331102
1718095698.515338,,,,1.437713265,1.437851667,44623.000000000,1718095698.515338182
1718095698.516345,,,,1.395666361,1.395396113,44624.000000000,1718095698.516345263
1718095698.517352,,,,1.431751251,1.432081938,44625.000000000,1718095698.517352343
1718095698.517613,194.489685059,9022.000000000,1718095698.517613411,,,,
1718095698.518359,,,,1.180768013,1.184272051,44626.000000000,1718095698.518359423
1718095698.519367,,,,0.875453115,0.874125004,44627.000000000,1718095698.519366503
1718095698.520374,,,,0.786791563,0.786833763,44628.000000000,1718095698.520373583
1718095698.521381,,,,0.804509461,0.804816127,44629.000000000,1718095698.521380663
1718095698.522388,,,,0.650794208,0.649706542,44630.000000000,1718095698.522387743
1718095698.522613,195.689834595,9023.000000000,1718095698.522613287,,,,
1718095698.523395,,,,0.518186569,0.518781722,44631.000000000,1718095698.523394823
1718095698.524402,,,,0.617498040,0.620881915,44632.000000000,1718095698.524401903
1718095698.525409,,,,0.739047050,0.740387440,44633.000000000,1718095698.525408983
1718095698.526416,,,,0.722963929,0.724977493,44634.000000000,1718095698.526416063
1718095698.527423,,,,0.812130272,0.814552546,44635.000000000,1718095698.527423143
1718095698.527613,196.873367310,9024.000000000,1718095698.527613401,,,,
1718095698.528430,,,,0.981327653,0.982788265,44636.000000000,1718095698.528430223
1718095698.529437,,,,1.102491975,1.100827336,44637.000000000,1718095698.529437304
1718095698.530444,,,,1.356287956,1.357003331,44638.000000000,1718095698.530444384
1718095698.531451,,,,1.630542517,1.632075191,44639.000000000,1718095698.531451464
1718095698.532459,,,,1.589577436,1.589042664,44640.000000000,1718095698.532458544
1718095698.532613,197.829620361,9025.000000000,1718095698.532613277,,,,
1718095698.533466,,,,1.524066925,1.524950624,44641.000000000,1718095698.533465624
1718095698.534473,,,,1.589553356,1.590004325,44642.000000000,1718095698.534472704
1718095698.535480,,,,1.566570640,1.567670584,44643.000000000,1718095698.535479784
1718095698.536487,,,,1.324169874,1.322577238,44644.000000000,1718095698.536486864
1718095698.537494,,,,1.089630246,1.088566661,44645.000000000,1718095698.537493944
1718095698.537613,198.785598755,9026.000000000,1718095698.537613392,,,,
1718095698.538501,,,,0.883482635,0.885159612,44646.000000000,1718095698.538501024
1718095698.539508,,,,0.522754312,0.521810830,44647.000000000,1718095698.539508104
1718095698.540515,,,,0.445776463,0.444256037,44648.000000000,1718095698.540515184
1718095698.541522,,,,0.638341188,0.638864219,44649.000000000,1718095698.541522264
1718095698.542529,,,,0.804870069,0.807917356,44650.000000000,1718095698.542529345
1718095698.542613,199.692733765,9027.000000000,1718095698.542613268,,,,
1718095698.543536,,,,1.016162395,1.015651703,44651.000000000,1718095698.543536425
1718095698.544544,,,,1.185455918,1.188551307,44652.000000000,1718095698.544543505
1718095698.545551,,,,1.502694845,1.505573869,44653.000000000,1718095698.545550585
1718095698.546558,,,,1.779930472,1.782112241,44654.000000000,1718095698.546557665
1718095698.547565,,,,1.687374353,1.690109134,44655.000000000,1718095698.547564745
1718095698.548572,,,,1.464422345,1.467012882,44656.000000000,1718095698.548571825
1718095698.549579,,,,1.498151183,1.500260949,44657.000000000,1718095698.549578905
1718095698.550586,,,,1.361889482,1.364696264,44658.000000000,1718095698.550585985
1718095698.551593,,,,1.323208213,1.324837089,44659.000000000,1718095698.551593065
1718095698.552600,,,,1.365134954,1.364936709,44660.000000000,1718095698.552600145
1718095698.553607,,,,1.190913081,1.190522552,44661.000000000,1718095698.553607225
1718095698.554614,,,,0.767270625,0.766976297,44662.000000000,1718095698.554614305
1718095698.555621,,,,0.508714616,0.507073998,44663.000000000,1718095698.555621386
1718095698.556628,,,,0.493136346,0.490750462,44664.000000000,1718095698.556628466
1718095698.557636,,,,0.879347682,0.879101396,44665.000000000,1718095698.557635546
1718095698.558643,,,,1.346335173,1.347363114,44666.000000000,1718095698.558642626
1718095698.559650,,,,1.601789951,1.602986217,44667.000000000,1718095698.559649706
1718095698.560657,,,,1.665521502,1.664818406,44668.000000000,1718095698.560656786
1718095698.561664,,,,1.985669374,1.986649156,44669.000000000,1718095698.561663866
1718095698.562613,203.869033813,9031.000000000,1718095698.562613249,,,,
1718095698.562671,,,,2.321828365,2.322976351,44670.000000000,1718095698.562670946
1718095698.563678,,,,2.267160177,2.268813133,44671.000000000,1718095698.563678026
1718095698.564685,,,,2.436525822,2.438010454,44672.000000000,1718095698.564685106
1718095698.565692,,,,2.481842279,2.485514402,44673.000000000,1718095698.565692186
1718095698.566699,,,,2.165156126,2.164477110,44674.000000000,1718095698.566699266
1718095698.567613,205.017517090,9032.000000000,1718095698.567613363,,,,
1718095698.567706,,,,1.688359976,1.690830350,44675.000000000,1718095698.567706347
1718095698.568713,,,,1.237792134,1.237569928,44676.000000000,1718095698.568713427
1718095698.569721,,,,0.943391681,0.943890631,44677.000000000,1718095698.569720507
1718095698.570728,,,,0.518451035,0.518781722,44678.000000000,1718095698.570727587
1718095698.571735,,,,0.329612553,0.331313580,44679.000000000,1718095698.571734667
1718095698.572613,206.197937012,9033.000000000,1718095698.572613239,,,,
1718095698.572742,,,,0.596342385,0.598187625,44680.000000000,1718095698.572741747
1718095698.573749,,,,0.803980529,0.802339911,44681.000000000,1718095698.573748827
1718095698.574756,,,,0.710342646,0.708653927,44682.000000000,1718095698.574755907
1718095698.575763,,,,0.478327364,0.478201300,44683.000000000,1718095698.575762987
1718095698.576770,,,,0.437025696,0.437572777,44684.000000000,1718095698.576770067
1718095698.577613,207.426513672,9034.000000000,1718095698.577613354,,,,
1718095698.577777,,,,0.544462919,0.546909153,44685.000000000,1718095698.577777147
1718095698.578784,,,,0.673248053,0.674732745,44686.000000000,1718095698.578784227
1718095698.579791,,,,0.849224865,0.850252748,44687.000000000,1718095698.579791307
1718095698.580798,,,,0.877135932,0.878668666,44688.000000000,1718095698.580798388
1718095698.581805,,,,0.762390435,0.760629594,44689.000000000,1718095698.581805468
1718095698.582613,208.686981201,9035.000000000,1718095698.582613230,,,,
1718095698.582813,,,,1.034914017,1.036230326,44690.000000000,1718095698.582812548
1718095698.583820,,,,2.137845993,2.141446352,44691.000000000,1718095698.583819628
1718095698.584827,,,,3.214237213,3.215481520,44692.000000000,1718095698.584826708
1718095698.585834,,,,3.431924343,3.433216810,44693.000000000,1718095698.585833788
1718095698.586841,,,,2.981645107,2.982985497,44694.000000000,1718095698.586840868
1718095698.587613,209.882446289,9036.000000000,1718095698.587613344,,,,
1718095698.587848,,,,1.824381351,1.824976563,44695.000000000,1718095698.587847948
1718095698.588855,,,,0.950699985,0.951391280,44696.000000000,1718095698.588855028
1718095698.589862,,,,0.840257704,0.841165423,44697.000000000,1718095698.589862108
1718095698.590869,,,,1.207428932,1.208673239,44698.000000000,1718095698.590869188
1718095698.591876,,,,1.176320434,1.175353050,44699.000000000,1718095698.591876268
1718095698.592613,211.255187988,9037.000000000,1718095698.592613220,,,,
1718095698.592883,,,,0.701351464,0.702980399,44700.000000000,1718095698.592883348
1718095698.593890,,,,0.201404348,0.200316653,44701.000000000,1718095698.593890429
1718095698.594898,,,,0.188783064,0.188200220,44702.000000000,1718095698.594897509
1718095698.595905,,,,0.529269278,0.529359579,44703.000000000,1718095698.595904589
1718095698.596912,,,,0.746764064,0.748344898,44704.000000000,1718095698.596911669
1718095698.597613,212.611312866,9038.000000000,1718095698.597613335,,,,
1718095698.597919,,,,0.783738434,0.783540249,44705.000000000,1718095698.597918749
1718095698.598926,,,,0.641466498,0.644609928,44706.000000000,1718095698.598925829
1718095698.599933,,,,0.531408906,0.533662796,44707.000000000,1718095698.599932909
1718095698.600940,,,,0.589010000,0.590759099,44708.000000000,1718095698.600939989
1718095698.601947,,,,0.720583916,0.721371412,44709.000000000,1718095698.601947069
1718095698.602613,213.870162964,9039.000000000,1718095698.602613211,,,,
1718095698.602954,,,,0.797008812,0.796858668,44710.000000000,1718095698.602954149
1718095698.603961,,,,0.809509873,0.808734715,44711.000000000,1718095698.603961229
1718095698.604968,,,,0.840233684,0.840973079,44712.000000000,1718095698.604968309
1718095698.605975,,,,1.012652516,1.014353514,44713.000000000,1718095698.605975389
1718095698.606982,,,,1.215602756,1.214082360,44714.000000000,1718095698.606982470
1718095698.607613,215.031875610,9040.000000000,1718095698.607613325,,,,
1718095698.607990,,,,1.273684740,1.272068143,44715.000000000,1718095698.607989550
1718095698.608997,,,,1.209905148,1.210644484,44716.000000000,1718095698.608996630
1718095698.610004,,,,1.047823787,1.048034310,44717.000000000,1718095698.610003710
1718095698.611011,,,,0.973442316,0.973364353,44718.000000000,1718095698.611010790
1718095698.612018,,,,0.970966160,0.973580718,44719.000000000,1718095698.612017870
1718095698.613025,,,,0.993828714,0.994063258,44720.000000000,1718095698.613024950
1718095698.614032,,,,1.100520611,1.099000216,44721.000000000,1718095698.614032030
1718095698.615039,,,,1.179325581,1.176122308,44722.000000000,1718095698.615039110
1718095698.616046,,,,1.147447824,1.145927429,44723.000000000,1718095698.616046190
1718095698.617053,,,,1.074989557,1.073132634,44724.000000000,1718095698.617053270
1718095698.618060,,,,1.160381556,1.157178402,44725.000000000,1718095698.618060350
1718095698.619067,,,,1.648837328,1.648014069,44726.000000000,1718095698.619067430
1718095698.620075,,,,2.075436831,2.076801300,44727.000000000,1718095698.620074511
1718095698.621082,,,,2.152895451,2.153658867,44728.000000000,1718095698.621081591
1718095698.622089,,,,1.961220145,1.961454749,44729.000000000,1718095698.622088671
1718095698.623096,,,,1.595875978,1.594788313,44730.000000000,1718095698.623095751
1718095698.624103,,,,1.237960458,1.236584306,44731.000000000,1718095698.624102831
1718095698.625110,,,,1.078571677,1.076666594,44732.000000000,1718095698.625109911
1718095698.626117,,,,1.526446939,1.525094867,44733.000000000,1718095698.626116991
1718095698.627124,,,,2.232806206,2.231958866,44734.000000000,1718095698.627124071
1718095698.628131,,,,2.232686043,2.231598377,44735.000000000,1718095698.628131151
1718095698.629138,,,,1.749014258,1.747277498,44736.000000000,1718095698.629138231
1718095698.630145,,,,1.416653752,1.417008519,44737.000000000,1718095698.630145311
1718095698.631152,,,,1.011498570,1.011540771,44738.000000000,1718095698.631152391
1718095698.632159,,,,0.525326610,0.525128424,44739.000000000,1718095698.632159472
1718095698.633167,,,,0.670074701,0.671703637,44740.000000000,1718095698.633166552
1718095698.634174,,,,1.282988429,1.283968210,44741.000000000,1718095698.634173632
1718095698.635181,,,,1.566426396,1.567141771,44742.000000000,1718095698.635180712
1718095698.636188,,,,1.419418454,1.419652939,44743.000000000,1718095698.636187792
1718095698.637195,,,,1.183051825,1.181531429,44744.000000000,1718095698.637194872
1718095698.638202,,,,0.824607313,0.824337006,44745.000000000,1718095698.638201952
1718095698.639209,,,,0.682984471,0.682377636,44746.000000000,1718095698.639209032
1718095698.640216,,,,0.671805620,0.670766056,44747.000000000,1718095698.640216112
1718095698.641223,,,,0.871943176,0.871961355,44748.000000000,1718095698.641223192
1718095698.642230,,,,1.360759497,1.364576101,44749.000000000,1718095698.642230272
1718095698.643237,,,,1.700284123,1.702946782,44750.000000000,1718095698.643237352
1718095698.644244,,,,1.940160632,1.939818263,44751.000000000,1718095698.644244432
1718095698.645252,,,,1.675786853,1.676406026,44752.000000000,1718095698.645251513
1718095698.646259,,,,1.144635081,1.143763781,44753.000000000,1718095698.646258593
1718095698.647266,,,,0.662405789,0.660644948,44754.000000000,1718095698.647265673
1718095698.648273,,,,0.338315248,0.337588161,44755.000000000,1718095698.648272753
1718095698.649280,,,,0.551314473,0.552967370,44756.000000000,1718095698.649279833
1718095698.650287,,,,0.878554344,0.880784214,44757.000000000,1718095698.650286913
1718095698.651294,,,,1.025466084,1.026349664,44758.000000000,1718095698.651293993
1718095698.652301,,,,1.096674204,1.095225811,44759.000000000,1718095698.652301073
1718095698.653308,,,,1.031812787,1.031013608,44760.000000000,1718095698.653308153
1718095698.654315,,,,1.020321369,1.020051122,44761.000000000,1718095698.654315233
1718095698.655322,,,,1.163603067,1.165015578,44762.000000000,1718095698.655322313
1718095698.656329,,,,1.766515851,1.770620823,44763.000000000,1718095698.656329393
1718095698.657336,,,,2.611516953,2.613265991,44764.000000000,1718095698.657336473
1718095698.658344,,,,2.854470491,2.855257988,44765.000000000,1718095698.658343554
1718095698.659351,,,,2.692004681,2.692840099,44766.000000000,1718095698.659350634
1718095698.660358,,,,2.233263016,2.232031107,44767.000000000,1718095698.660357714
1718095698.661365,,,,1.234787107,1.235141873,44768.000000000,1718095698.661364794
1718095698.662372,,,,0.400051355,0.400189728,44769.000000000,1718095698.662371874
1718095698.663379,,,,0.669954538,0.671150684,44770.000000000,1718095698.663378954
1718095698.664386,,,,1.192355514,1.193070889,44771.000000000,1718095698.664386034
1718095698.665393,,,,1.856836081,1.859426618,44772.000000000,1718095698.665393114
1718095698.666400,,,,2.301345825,2.304705620,44773.000000000,1718095698.666400194
1718095698.667407,,,,2.207467556,2.209048271,44774.000000000,1718095698.667407274
1718095698.667913,224.443389893,9051.000000000,1718095698.667913437,,,,
1718095698.668414,,,,1.629460692,1.629334569,44775.000000000,1718095698.668414354
1718095698.669421,,,,0.650000870,0.650692165,44776.000000000,1718095698.669421434
1718095698.670429,,,,0.039539371,0.040206641,44777.000000000,1718095698.670428514
1718095698.671436,,,,0.088894606,0.087614596,44778.000000000,1718095698.671435595
1718095698.672443,,,,0.606535554,0.609751165,44779.000000000,1718095698.672442675
1718095698.672914,225.248306274,9052.000000000,1718095698.672913551,,,,
1718095698.673450,,,,1.016979814,1.020219326,44780.000000000,1718095698.673449755
1718095698.674457,,,,1.089365840,1.089672446,44781.000000000,1718095698.674456835
1718095698.675464,,,,1.074845314,1.073517203,44782.000000000,1718095698.675463915
1718095698.676471,,,,1.061358571,1.059453487,44783.000000000,1718095698.676470995
1718095698.677478,,,,1.000608206,0.998751163,44784.000000000,1718095698.677478075
1718095698.677913,225.956542969,9053.000000000,1718095698.677913427,,,,
1718095698.678485,,,,0.864971399,0.864051998,44785.000000000,1718095698.678485155
1718095698.679492,,,,0.949618161,0.952040374,44786.000000000,1718095698.679492235
1718095698.680499,,,,1.180215001,1.183791280,44787.000000000,1718095698.680499315
1718095698.681506,,,,1.115473866,1.116766214,44788.000000000,1718095698.681506395
1718095698.682513,,,,1.002290964,1.001227379,44789.000000000,1718095698.682513475
1718095698.682914,226.584197998,9054.000000000,1718095698.682913542,,,,
1718095698.683521,,,,1.101482272,1.100586891,44790.000000000,1718095698.683520555
1718095698.684528,,,,1.573277950,1.573151827,44791.000000000,1718095698.684527636
1718095698.685535,,,,1.845897675,1.846252441,44792.000000000,1718095698.685534716
1718095698.686542,,,,1.827001810,1.829712510,44793.000000000,1718095698.686541796
1718095698.687549,,,,1.649462461,1.651355743,44794.000000000,1718095698.687548876
1718095698.687913,227.227874756,9055.000000000,1718095698.687913418,,,,
1718095698.688556,,,,1.536063194,1.534422517,44795.000000000,1718095698.688555956
1718095698.689563,,,,1.322583199,1.320125103,44796.000000000,1718095698.689563036
1718095698.690570,,,,1.277507186,1.278535008,44797.000000000,1718095698.690570116
1718095698.691577,,,,1.268323660,1.270553589,44798.000000000,1718095698.691577196
1718095698.692584,,,,1.292219996,1.295459509,44799.000000000,1718095698.692584276
1718095698.692914,227.662307739,9056.000000000,1718095698.692913532,,,,
1718095698.693591,,,,1.292412281,1.295459509,44800.000000000,1718095698.693591356
1718095698.694598,,,,1.233272552,1.234180212,44801.000000000,1718095698.694598436
1718095698.695606,,,,1.132182002,1.131503105,44802.000000000,1718095698.695605516
1718095698.696613,,,,1.007435679,1.007838488,44803.000000000,1718095698.696612597
1718095698.697620,,,,0.853191555,0.856022477,44804.000000000,1718095698.697619677
1718095698.697913,228.241516113,9057.000000000,1718095698.697913408,,,,
1718095698.698627,,,,0.879948676,0.880976558,44805.000000000,1718095698.698626757
1718095698.699634,,,,0.956806302,0.957521617,44806.000000000,1718095698.699633837
1718095698.700641,,,,1.161150932,1.162082672,44807.000000000,1718095698.700640917
1718095698.701648,,,,1.580009222,1.581806421,44808.000000000,1718095698.701647997
1718095698.702655,,,,1.681869030,1.683257580,44809.000000000,1718095698.702655077
1718095698.702914,228.708038330,9058.000000000,1718095698.702913523,,,,
1718095698.703662,,,,1.739758730,1.740041256,44810.000000000,1718095698.703662157
1718095698.704669,,,,1.959200740,1.960661411,44811.000000000,1718095698.704669237
1718095698.705676,,,,1.937660456,1.938976765,44812.000000000,1718095698.705676317
1718095698.706683,,,,1.514162183,1.515334368,44813.000000000,1718095698.706683397
1718095698.707690,,,,1.368716955,1.371307492,44814.000000000,1718095698.707690477
1718095698.707913,229.094116211,9059.000000000,1718095698.707913399,,,,
1718095698.708698,,,,1.162497163,1.162948132,44815.000000000,1718095698.708697557
1718095698.709705,,,,0.949690282,0.951439381,44816.000000000,1718095698.709704638
1718095698.710712,,,,0.769217908,0.770005405,44817.000000000,1718095698.710711718
1718095698.711719,,,,0.692360342,0.691440880,44818.000000000,1718095698.711718798
1718095698.712167,229.866180420,9061.000000000,1718095698.712166786,,,,
1718095698.712726,,,,0.887377203,0.886890531,44819.000000000,1718095698.712725878
1718095698.712914,229.447998047,9060.000000000,1718095698.712913513,,,,
1718095698.713733,,,,1.017340422,1.020676136,44820.000000000,1718095698.713732958
1718095698.714740,,,,0.906970263,0.908911645,44821.000000000,1718095698.714740038
1718095698.715747,,,,0.893219054,0.896338463,44822.000000000,1718095698.715747118
1718095698.716754,,,,0.949089289,0.951944232,44823.000000000,1718095698.716754198
1718095698.717167,230.187820435,9062.000000000,1718095698.717166901,,,,
1718095698.717761,,,,0.985678971,0.984567225,44824.000000000,1718095698.717761278
1718095698.718768,,,,0.958657384,0.958411157,44825.000000000,1718095698.718768358
1718095698.719775,,,,1.068282247,1.066377163,44826.000000000,1718095698.719775438
1718095698.720783,,,,1.507238507,1.507136583,44827.000000000,1718095698.720782518
1718095698.721790,,,,1.627849936,1.627699852,44828.000000000,1718095698.721789598
1718095698.722167,230.573791504,9063.000000000,1718095698.722166777,,,,
1718095698.722797,,,,1.624340057,1.624935150,44829.000000000,1718095698.722796679
1718095698.723804,,,,1.581331491,1.584114313,44830.000000000,1718095698.723803759
1718095698.724811,,,,1.419009805,1.419701099,44831.000000000,1718095698.724810839
1718095698.725818,,,,1.256663918,1.257812023,44832.000000000,1718095698.725817919
1718095698.726825,,,,1.504786372,1.506487489,44833.000000000,1718095698.726824999
1718095698.727167,230.975814819,9064.000000000,1718095698.727166891,,,,
1718095698.727832,,,,2.212011099,2.216404676,44834.000000000,1718095698.727832079
1718095698.728839,,,,2.792999029,2.794219017,44835.000000000,1718095698.728839159
1718095698.729846,,,,2.596804142,2.597230911,44836.000000000,1718095698.729846239
1718095698.730853,,,,2.307716608,2.307566404,44837.000000000,1718095698.730853319
1718095698.731860,,,,2.033582211,2.033912897,44838.000000000,1718095698.731860399
1718095698.732167,231.329544067,9065.000000000,1718095698.732166767,,,,
1718095698.732867,,,,1.148313284,1.146263957,44839.000000000,1718095698.732867479
1718095698.733875,,,,0.162771195,0.161755621,44840.000000000,1718095698.733874559
1718095698.734882,,,,0.145846650,0.147138983,44841.000000000,1718095698.734881639
1718095698.735889,,,,0.851124048,0.851671100,44842.000000000,1718095698.735888720
1718095698.736896,,,,1.908883929,1.911234021,44843.000000000,1718095698.736895800
1718095698.737167,231.667205811,9066.000000000,1718095698.737166882,,,,
1718095698.737903,,,,2.300913095,2.301075459,44844.000000000,1718095698.737902880
1718095698.738910,,,,2.165107965,2.161928892,44845.000000000,1718095698.738909960
1718095698.739917,,,,1.492429614,1.489731193,44846.000000000,1718095698.739917040
1718095698.740924,,,,0.484169215,0.481807381,44847.000000000,1718095698.740924120
1718095698.741931,,,,-0.154155284,-0.157166213,44848.000000000,1718095698.741931200
1718095698.742167,232.020919800,9067.000000000,1718095698.742166758,,,,
1718095698.742938,,,,-0.114704750,-0.115431830,44849.000000000,1718095698.742938280
1718095698.743945,,,,0.400147527,0.399155974,44850.000000000,1718095698.743945360
1718095698.744952,,,,0.760034442,0.760677695,44851.000000000,1718095698.744952440
1718095698.745960,,,,0.651803911,0.654442489,44852.000000000,1718095698.745959520
1718095698.746967,,,,0.566700399,0.569314957,44853.000000000,1718095698.746966600
1718095698.747167,232.374618530,9068.000000000,1718095698.747166872,,,,
1718095698.747974,,,,0.585836649,0.589412868,44854.000000000,1718095698.747973680
1718095698.748981,,,,0.898387790,0.897324145,44855.000000000,1718095698.748980761
1718095698.749988,,,,1.657491922,1.658543825,44856.000000000,1718095698.749987841
1718095698.750995,,,,2.532447577,2.536143780,44857.000000000,1718095698.750994921
1718095698.752002,,,,2.666353226,2.670121908,44858.000000000,1718095698.752002001
1718095698.752167,232.647903442,9069.000000000,1718095698.752166748,,,,
1718095698.753009,,,,2.102410316,2.104471922,44859.000000000,1718095698.753009081
1718095698.754016,,,,1.132206082,1.131166458,44860.000000000,1718095698.754016161
1718095698.755023,,,,0.230661690,0.229646116,44861.000000000,1718095698.755023241
1718095698.756030,,,,0.004464217,0.005828665,44862.000000000,1718095698.756030321
1718095698.757037,,,,0.527874947,0.526402593,44863.000000000,1718095698.757037401
1718095698.758044,,,,1.090856314,1.089023352,44864.000000000,1718095698.758044481
1718095698.759052,,,,1.225699782,1.224323630,44865.000000000,1718095698.759051561
1718095698.760059,,,,1.160670042,1.160255551,44866.000000000,1718095698.760058641
1718095698.761066,,,,1.034865975,1.033658028,44867.000000000,1718095698.761065722
1718095698.762073,,,,0.766597509,0.766399324,44868.000000000,1718095698.762072802
1718095698.762167,233.290878296,9071.000000000,1718095698.762166739,,,,
1718095698.763080,,,,0.615021884,0.615064085,44869.000000000,1718095698.763079882
1718095698.764087,,,,1.105448961,1.107967377,44870.000000000,1718095698.764086962
1718095698.765094,,,,1.585346222,1.587912798,44871.000000000,1718095698.765094042
1718095698.766101,,,,1.603569031,1.607746243,44872.000000000,1718095698.766101122
1718095698.767108,,,,1.021908045,1.024210095,44873.000000000,1718095698.767108202
1718095698.767167,233.644500732,9072.000000000,1718095698.767166853,,,,
1718095698.768115,,,,1.005127788,1.008944392,44874.000000000,1718095698.768115282
1718095698.769122,,,,1.752187610,1.753672242,44875.000000000,1718095698.769122362
1718095698.770129,,,,2.952844381,2.955699444,44876.000000000,1718095698.770129442
1718095698.771137,,,,3.434785128,3.436462164,44877.000000000,1718095698.771136522
1718095698.772144,,,,3.045472622,3.044937849,44878.000000000,1718095698.772143602
1718095698.772167,234.030258179,9073.000000000,1718095698.772166729,,,,
1718095698.773151,,,,1.922731280,1.921499372,44879.000000000,1718095698.773150682
1718095698.774158,,,,0.402816027,0.402377427,44880.000000000,1718095698.774157763
1718095698.775165,,,,-0.194567442,-0.193707839,44881.000000000,1718095698.775164843
1718095698.776172,,,,0.056560073,0.055857036,44882.000000000,1718095698.776171923
1718095698.777167,234.464187622,9074.000000000,1718095698.777166843,,,,
1718095698.777179,,,,0.343483955,0.342588603,44883.000000000,1718095698.777179003
1718095698.778186,,,,0.458950669,0.457838953,44884.000000000,1718095698.778186083
1718095698.779193,,,,0.326703668,0.327563256,44885.000000000,1718095698.779193163
1718095698.780200,,,,0.261193186,0.262749940,44886.000000000,1718095698.780200243
1718095698.781207,,,,0.344685972,0.347420752,44887.000000000,1718095698.781207323
1718095698.782167,234.978424072,9075.000000000,1718095698.782166719,,,,
1718095698.782214,,,,0.479817867,0.481999695,44888.000000000,1718095698.782214403
1718095698.783221,,,,0.750682652,0.753705919,44889.000000000,1718095698.783221483
1718095698.784229,,,,0.921731114,0.924153388,44890.000000000,1718095698.784228563
1718095698.785236,,,,0.947214127,0.948554516,44891.000000000,1718095698.785235643
1718095698.786243,,,,1.067633152,1.068084121,44892.000000000,1718095698.786242723
1718095698.787167,235.540832520,9076.000000000,1718095698.787166834,,,,
1718095698.787250,,,,1.011450410,1.013704419,44893.000000000,1718095698.787249804
1718095698.788257,,,,0.835089028,0.836309195,44894.000000000,1718095698.788256884
1718095698.789264,,,,0.845017731,0.848377585,44895.000000000,1718095698.789263964
1718095698.790271,,,,0.945867836,0.947184205,44896.000000000,1718095698.790271044
1718095698.791278,,,,1.051117301,1.052553892,44897.000000000,1718095698.791278124
1718095698.792167,236.119262695,9077.000000000,1718095698.792166710,,,,
1718095698.792285,,,,1.100929379,1.101933122,44898.000000000,1718095698.792285204
1718095698.793292,,,,1.021090746,1.021709919,44899.000000000,1718095698.793292284
1718095698.794299,,,,1.730863690,1.733237863,44900.000000000,1718095698.794299364
1718095698.795306,,,,2.918226004,2.919518471,44901.000000000,1718095698.795306444
1718095698.796314,,,,3.044294596,3.043279171,44902.000000000,1718095698.796313524
1718095698.797167,236.745819092,9078.000000000,1718095698.797166824,,,,
1718095698.797321,,,,2.700250387,2.700172424,44903.000000000,1718095698.797320604
1718095698.798328,,,,1.707376122,1.705735445,44904.000000000,1718095698.798327684
1718095698.799335,,,,0.305403739,0.301719666,44905.000000000,1718095698.799334764
1718095698.800342,,,,-0.217357874,-0.214262500,44906.000000000,1718095698.800341845
1718095698.801349,,,,0.021292597,0.022777248,44907.000000000,1718095698.801348925
1718095698.802167,237.308105469,9079.000000000,1718095698.802166700,,,,
1718095698.802356,,,,0.205491230,0.206254676,44908.000000000,1718095698.802356005
1718095698.803363,,,,0.328410536,0.327178597,44909.000000000,1718095698.803363085
1718095698.804370,,,,0.396397203,0.393121809,44910.000000000,1718095698.804370165
1718095698.805377,,,,0.405123919,0.406007528,44911.000000000,1718095698.805377245
1718095698.806384,,,,0.437458426,0.438077629,44912.000000000,1718095698.806384325
1718095698.806538,238.175476074,9081.000000000,1718095698.806537867,,,,
1718095698.807167,237.757858276,9080.000000000,1718095698.807166815,,,,
1718095698.807391,,,,0.450608611,0.450266182,44913.000000000,1718095698.807391405
1718095698.808398,,,,0.439718246,0.440722078,44914.000000000,1718095698.808398485
1718095698.809406,,,,0.512080252,0.509886742,44915.000000000,1718095698.809405565
1718095698.810413,,,,0.853023231,0.849892139,44916.000000000,1718095698.810412645
1718095698.811420,,,,1.383934617,1.382750750,44917.000000000,1718095698.811419725
1718095698.811538,238.448547363,9082.000000000,1718095698.811537981,,,,
1718095698.812427,,,,1.619483829,1.621882081,44918.000000000,1718095698.812426805
1718095698.813434,,,,1.505675912,1.507641435,44919.000000000,1718095698.813433886
1718095698.814441,,,,1.063906908,1.063396215,44920.000000000,1718095698.814440966
1718095698.815448,,,,0.393055558,0.392015934,44921.000000000,1718095698.815448046
1718095698.816455,,,,0.179888055,0.180771694,44922.000000000,1718095698.816455126
1718095698.816538,238.657318115,9083.000000000,1718095698.816537857,,,,
1718095698.817462,,,,0.312495708,0.312249422,44923.000000000,1718095698.817462206
1718095698.818469,,,,0.579105318,0.577512801,44924.000000000,1718095698.818469286
1718095698.819476,,,,0.883386493,0.883717179,44925.000000000,1718095698.819476366
1718095698.820483,,,,1.161535501,1.162034512,44926.000000000,1718095698.820483446
1718095698.821491,,,,1.232959986,1.234300375,44927.000000000,1718095698.821490526
1718095698.822498,,,,1.109223366,1.108688593,44928.000000000,1718095698.822497606
1718095698.823505,,,,1.000151396,1.000073433,44929.000000000,1718095698.823504686
1718095698.824512,,,,1.416221023,1.415133357,44930.000000000,1718095698.824511766
1718095698.825519,,,,2.272737503,2.273549080,44931.000000000,1718095698.825518847
1718095698.826526,,,,2.817352057,2.817658663,44932.000000000,1718095698.826525927
1718095698.827533,,,,2.326828718,2.327423811,44933.000000000,1718095698.827533007
1718095698.828540,,,,1.153457880,1.153428078,44934.000000000,1718095698.828540087
1718095698.829547,,,,0.277805179,0.274097085,44935.000000000,1718095698.829547167
1718095698.830554,,,,-0.209304288,-0.212122902,44936.000000000,1718095698.830554247
1718095698.831561,,,,-0.107059859,-0.105046317,44937.000000000,1718095698.831561327
1718095698.832568,,,,0.317039371,0.317201763,44938.000000000,1718095698.832568407
1718095698.833575,,,,0.469985276,0.471974790,44939.000000000,1718095698.833575487
1718095698.841632,,,,0.564801216,0.564386666,44947.000000000,1718095698.841632128
1718095698.842639,,,,0.491453499,0.491760164,44948.000000000,1718095698.842639208
1718095698.843646,,,,0.603145838,0.603644848,44949.000000000,1718095698.843646288
1718095698.844653,,,,0.501213968,0.501232147,44950.000000000,1718095698.844653368
1718095698.845660,,,,0.354182005,0.354464620,44951.000000000,1718095698.845660448
1718095698.846668,,,,0.365865707,0.366508931,44952.000000000,1718095698.846667528
1718095698.847675,,,,0.520061731,0.520176053,44953.000000000,1718095698.847674608
1718095698.848682,,,,0.792921901,0.793973804,44954.000000000,1718095698.848681688
1718095698.849689,,,,1.216684580,1.219972253,44955.000000000,1718095698.849688768
1718095698.850696,,,,1.966100454,1.970229506,44956.000000000,1718095698.850695848
1718095698.851703,,,,2.205544233,2.210154057,44957.000000000,1718095698.851702929
1718095698.852710,,,,2.003339291,2.003405571,44958.000000000,1718095698.852710009
1718095698.853717,,,,1.543155074,1.543197393,44959.000000000,1718095698.853717089
1718095698.854724,,,,0.847277582,0.846430302,44960.000000000,1718095698.854724169
1718095698.855731,,,,0.099183954,0.101245582,44961.000000000,1718095698.855731249
1718095698.856538,241.756378174,9091.000000000,1718095698.856537819,,,,
1718095698.856738,,,,-0.011282339,-0.010110214,44962.000000000,1718095698.856738329
1718095698.857745,,,,0.288527280,0.287391514,44963.000000000,1718095698.857745409
1718095698.858752,,,,0.446353436,0.447765976,44964.000000000,1718095698.858752489
1718095698.859760,,,,0.218088478,0.219476968,44965.000000000,1718095698.859759569
1718095698.860767,,,,0.139812469,0.140575916,44966.000000000,1718095698.860766649
1718095698.861538,242.559051514,9092.000000000,1718095698.861537933,,,,
1718095698.861774,,,,0.339589387,0.343670428,44967.000000000,1718095698.861773729
1718095698.862781,,,,0.684018254,0.685358644,44968.000000000,1718095698.862780809
1718095698.863788,,,,0.940290451,0.941630840,44969.000000000,1718095698.863787889
1718095698.864795,,,,1.128912568,1.131454945,44970.000000000,1718095698.864794970
1718095698.865802,,,,1.079749584,1.079647541,44971.000000000,1718095698.865802050
1718095698.866538,243.522140503,9093.000000000,1718095698.866537809,,,,
1718095698.866809,,,,0.884901047,0.884678781,44972.000000000,1718095698.866809130
1718095698.867816,,,,0.891776621,0.893309355,44973.000000000,1718095698.867816210
1718095698.868823,,,,1.168483257,1.170328498,44974.000000000,1718095698.868823290
1718095698.869830,,,,1.221925378,1.221847415,44975.000000000,1718095698.869830370
1718095698.870837,,,,0.971014261,0.971753657,44976.000000000,1718095698.870837450
1718095698.871538,244.581405640,9094.000000000,1718095698.871537924,,,,
1718095698.871845,,,,0.849633515,0.849627674,44977.000000000,1718095698.871844530
1718095698.872852,,,,1.117541313,1.116309404,44978.000000000,1718095698.872851610
1718095698.873859,,,,1.189783216,1.189945579,44979.000000000,1718095698.873858690
1718095698.874866,,,,1.245316863,1.246897697,44980.000000000,1718095698.874865770
1718095698.875873,,,,1.199567676,1.199081063,44981.000000000,1718095698.875872850
1718095698.876538,245.656570435,9095.000000000,1718095698.876537800,,,,
1718095698.876880,,,,0.825184286,0.824769735,44982.000000000,1718095698.876879930
1718095698.877887,,,,0.260231555,0.260682464,44983.000000000,1718095698.877887011
1718095698.878894,,,,0.190946713,0.192359239,44984.000000000,1718095698.878894091
1718095698.879901,,,,0.495540380,0.496856749,44985.000000000,1718095698.879901171
1718095698.880908,,,,0.734743774,0.735939980,44986.000000000,1718095698.880908251
1718095698.881538,246.747695923,9096.000000000,1718095698.881537914,,,,
1718095698.881915,,,,0.700654328,0.698677123,44987.000000000,1718095698.881915331
1718095698.882922,,,,0.279896706,0.278712869,44988.000000000,1718095698.882922411
1718095698.883929,,,,0.038505625,0.040735535,44989.000000000,1718095698.883929491
1718095698.884937,,,,0.314899743,0.317922980,44990.000000000,1718095698.884936571
1718095698.885944,,,,0.669281363,0.673001826,44991.000000000,1718095698.885943651
1718095698.886538,247.870742798,9097.000000000,1718095698.886537790,,,,
1718095698.886951,,,,0.873650074,0.873187423,44992.000000000,1718095698.886950731
1718095698.887958,,,,0.881703615,0.877803206,44993.000000000,1718095698.887957811
1718095698.888965,,,,0.760419071,0.759115040,44994.000000000,1718095698.888964891
1718095698.889972,,,,0.848359406,0.850012302,44995.000000000,1718095698.889971972
1718095698.890979,,,,0.909230053,0.908575118,44996.000000000,1718095698.890979052
1718095698.891538,248.865341187,9098.000000000,1718095698.891537905,,,,
1718095698.891986,,,,0.681878626,0.679372549,44997.000000000,1718095698.891986132
1718095698.892993,,,,0.443180084,0.441611588,44998.000000000,1718095698.892993212
1718095698.894000,,,,0.534389913,0.535129309,44999.000000000,1718095698.894000292
1718095698.895007,,,,0.670675755,0.670020759,45000.000000000,1718095698.895007372
1718095698.896014,,,,0.733397543,0.733271480,45001.000000000,1718095698.896014452
1718095698.896538,249.843795776,9099.000000000,1718095698.896537781,,,,
1718095698.897022,,,,1.049049854,1.048539162,45002.000000000,1718095698.897021532
1718095698.898029,,,,1.234522581,1.235502481,45003.000000000,1718095698.898028612
1718095698.899036,,,,1.209520459,1.210548401,45004.000000000,1718095698.899035692
1718095698.900043,,,,1.032894611,1.031999230,45005.000000000,1718095698.900042772
1718095698.901050,,,,1.040996313,1.042721272,45006.000000000,1718095698.901049852
1718095698.901538,250.693847656,9100.000000000,1718095698.901537895,,,,
1718095698.902057,,,,1.164276123,1.169006348,45007.000000000,1718095698.902056932
1718095698.903064,,,,1.133119583,1.134195566,45008.000000000,1718095698.903064013
1718095698.904071,,,,1.104535460,1.103880405,45009.000000000,1718095698.904071093
1718095698.905078,,,,0.942285776,0.943313658,45010.000000000,1718095698.905078173
1718095698.906085,,,,0.598746419,0.598668456,45011.000000000,1718095698.906085253
1718095698.907092,,,,0.485371232,0.486687601,45012.000000000,1718095698.907092333
1718095698.908099,,,,0.612978458,0.613789976,45013.000000000,1718095698.908099413
1718095698.909106,,,,0.448637277,0.446900517,45014.000000000,1718095698.909106493
1718095698.910114,,,,0.223617807,0.222530127,45015.000000000,1718095698.910113573
1718095698.911121,,,,0.259005487,0.258542866,45016.000000000,1718095698.911120653
1718095698.912128,,,,0.541505933,0.542581856,45017.000000000,1718095698.912127733
1718095698.913135,,,,0.933943748,0.936293840,45018.000000000,1718095698.913134813
1718095698.914142,,,,1.491323709,1.493745923,45019.000000000,1718095698.914141893
1718095698.915149,,,,1.615204692,1.615439177,45020.000000000,1718095698.915148973
1718095698.916156,,,,1.390762091,1.389794588,45021.000000000,1718095698.916156054
1718095698.917163,,,,0.761020124,0.759643912,45022.000000000,1718095698.917163134
1718095698.918170,,,,0.301965922,0.302681297,45023.000000000,1718095698.918170214
1718095698.919177,,,,0.173132673,0.174424991,45024.000000000,1718095698.919177294
1718095698.920184,,,,0.193903700,0.196349964,45025.000000000,1718095698.920184374
1718095698.921191,,,,0.118224069,0.118242241,45026.000000000,1718095698.921191454
1718095698.922199,,,,0.216742218,0.216423824,45027.000000000,1718095698.922198534
1718095698.923206,,,,0.326367080,0.327755570,45028.000000000,1718095698.923205614
1718095698.924213,,,,0.445896655,0.446347564,45029.000000000,1718095698.924212694
1718095698.925220,,,,0.420004994,0.420239538,45030.000000000,1718095698.925219774
1718095698.926227,,,,0.402503490,0.403964102,45031.000000000,1718095698.926226854
1718095698.927234,,,,0.803499758,0.807051897,45032.000000000,1718095698.927233934
1718095698.928241,,,,1.759039164,1.762398958,45033.000000000,1718095698.928241014
1718095698.929248,,,,2.269299746,2.271818161,45034.000000000,1718095698.929248095
1718095698.930255,,,,2.415610552,2.417071104,45035.000000000,1718095698.930255175
1718095698.931262,,,,2.377818823,2.379712105,45036.000000000,1718095698.931262255
1718095698.932269,,,,1.750552893,1.750859499,45037.000000000,1718095698.932269335
1718095698.933276,,,,1.327343225,1.329669237,45038.000000000,1718095698.933276415
1718095698.934283,,,,0.866293669,0.868379295,45039.000000000,1718095698.934283495
1718095698.935291,,,,0.079999603,0.077325240,45040.000000000,1718095698.935290575
1718095698.936298,,,,-0.507166624,-0.505633891,45041.000000000,1718095698.936297655
1718095698.937305,,,,-0.143817857,-0.142910168,45042.000000000,1718095698.937304735
1718095698.938312,,,,0.251216352,0.251210481,45043.000000000,1718095698.938311815
1718095698.939319,,,,0.346128404,0.348021746,45044.000000000,1718095698.939318895
1718095698.940326,,,,0.669738173,0.671391070,45045.000000000,1718095698.940325975
1718095698.941333,,,,1.306620240,1.307672143,45046.000000000,1718095698.941333055
1718095698.942340,,,,1.515460372,1.517930746,45047.000000000,1718095698.942340136
1718095698.943347,,,,1.640326977,1.640104771,45048.000000000,1718095698.943347216
1718095698.944354,,,,1.680594921,1.678233027,45049.000000000,1718095698.944354296
1718095698.945361,,,,1.811832190,1.811658144,45050.000000000,1718095698.945361376
1718095698.946368,,,,1.676748395,1.679026365,45051.000000000,1718095698.946368456
1718095698.947376,,,,1.266785026,1.268558145,45052.000000000,1718095698.947375536
1718095698.948383,,,,0.579441905,0.579484105,45053.000000000,1718095698.948382616
1718095698.949390,,,,-0.205145270,-0.203540429,45054.000000000,1718095698.949389696
1718095698.950397,,,,-0.416245282,-0.414183646,45055.000000000,1718095698.950396776
1718095698.951404,,,,0.027951827,0.030085573,45056.000000000,1718095698.951403856
1718095698.952411,,,,0.473230749,0.474066317,45057.000000000,1718095698.952410936
1718095698.953418,,,,0.560425818,0.559843004,45058.000000000,1718095698.953418016
1718095698.954425,,,,0.504699826,0.506448925,45059.000000000,1718095698.954425097
1718095698.955432,,,,0.486044377,0.490606219,45060.000000000,1718095698.955432177
1718095698.956439,,,,0.398007900,0.400622457,45061.000000000,1718095698.956439257
1718095698.957446,,,,0.210347429,0.207985595,45062.000000000,1718095698.957446337
1718095698.958453,,,,0.072090261,0.069391862,45063.000000000,1718095698.958453417
1718095698.959460,,,,0.229868352,0.230896235,45064.000000000,1718095698.959460497
1718095698.960380,256.610595703,9111.000000000,1718095698.960380077,,,,
1718095698.960468,,,,0.825448751,0.826212168,45065.000000000,1718095698.960467577
1718095698.961475,,,,1.249692202,1.253051996,45066.000000000,1718095698.961474657
1718095698.962482,,,,1.353667617,1.354166508,45067.000000000,1718095698.962481737
1718095698.963489,,,,1.419731021,1.416431546,45068.000000000,1718095698.963488817
1718095698.964496,,,,1.447714210,1.449775815,45069.000000000,1718095698.964495897
1718095698.965380,257.011383057,9112.000000000,1718095698.965380192,,,,
1718095698.965503,,,,1.272939444,1.272717237,45070.000000000,1718095698.965502977
1718095698.966510,,,,1.036524773,1.035701513,45071.000000000,1718095698.966510057
1718095698.967517,,,,0.608050108,0.610424280,45072.000000000,1718095698.967517138
1718095698.968524,,,,0.166810006,0.168222532,45073.000000000,1718095698.968524218
1718095698.969531,,,,0.109329067,0.110573314,45074.000000000,1718095698.969531298
1718095698.970380,257.332000732,9113.000000000,1718095698.970380068,,,,
1718095698.970538,,,,0.539101839,0.541980863,45075.000000000,1718095698.970538378
1718095698.971545,,,,1.124344826,1.127536416,45076.000000000,1718095698.971545458
1718095698.972553,,,,1.503560305,1.505766273,45077.000000000,1718095698.972552538
1718095698.973560,,,,1.238946080,1.240118265,45078.000000000,1718095698.973559618
1718095698.974567,,,,1.084629893,1.083349824,45079.000000000,1718095698.974566698
1718095698.975380,257.780822754,9114.000000000,1718095698.975380182,,,,
1718095698.975574,,,,0.939593256,0.941294253,45080.000000000,1718095698.975573778
1718095698.976581,,,,0.295330733,0.294459432,45081.000000000,1718095698.976580858
1718095698.977588,,,,-0.368693084,-0.370550066,45082.000000000,1718095698.977587938
1718095698.978595,,,,-0.381530732,-0.382642478,45083.000000000,1718095698.978595018
1718095698.979602,,,,0.097140513,0.100596488,45084.000000000,1718095698.979602098
1718095698.980380,258.181579590,9115.000000000,1718095698.980380058,,,,
1718095698.980609,,,,0.335045725,0.335712999,45085.000000000,1718095698.980609179
1718095698.981616,,,,0.157362074,0.158582270,45086.000000000,1718095698.981616259
1718095698.982623,,,,0.059372816,0.057996642,45087.000000000,1718095698.982623339
1718095698.983630,,,,0.198759884,0.200484946,45088.000000000,1718095698.983630419
1718095698.984637,,,,0.625167012,0.629127800,45089.000000000,1718095698.984637499
1718095698.985380,258.582305908,9116.000000000,1718095698.985380173,,,,
1718095698.985645,,,,1.111435056,1.113015890,45090.000000000,1718095698.985644579
1718095698.986652,,,,1.247720838,1.250167131,45091.000000000,1718095698.986651659
1718095698.987659,,,,1.125162244,1.125877619,45092.000000000,1718095698.987658739
1718095698.988666,,,,0.846604407,0.844963789,45093.000000000,1718095698.988665819
1718095698.989673,,,,0.745345652,0.744354129,45094.000000000,1718095698.989672899
1718095698.990380,259.015106201,9117.000000000,1718095698.990380049,,,,
1718095698.990680,,,,0.933871627,0.936317861,45095.000000000,1718095698.990679979
1718095698.991687,,,,1.178147554,1.179992795,45096.000000000,1718095698.991687059
1718095698.992694,,,,1.279622674,1.277813792,45097.000000000,1718095698.992694139
1718095698.993701,,,,1.008613706,1.006179690,45098.000000000,1718095698.993701220
1718095698.994708,,,,0.509243488,0.508396208,45099.000000000,1718095698.994708300
1718095698.995380,259.511993408,9118.000000000,1718095698.995380163,,,,
1718095698.995715,,,,0.297542483,0.296166301,45100.000000000,1718095698.995715380
1718095698.996722,,,,0.018359652,0.017055599,45101.000000000,1718095698.996722460
1718095698.997730,,,,-0.149395257,-0.148896262,45102.000000000,1718095698.997729540
1718095698.998737,,,,0.113944851,0.115814149,45103.000000000,1718095698.998736620
1718095698.999744,,,,0.616608560,0.617444098,45104.000000000,1718095698.999743700
1718095699.000380,260.153137207,9119.000000000,1718095699.000380039,,,,
1718095699.000751,,,,0.997867525,0.998630941,45105.000000000,1718095699.000750780
1718095699.001758,,,,0.998035789,0.998270333,45106.000000000,1718095699.001757860
1718095699.002765,,,,1.071431637,1.072098851,45107.000000000,1718095699.002764940
1718095699.003772,,,,1.389295697,1.393593073,45108.000000000,1718095699.003772020
1718095699.004779,,,,1.472980738,1.476629138,45109.000000000,1718095699.004779100
1718095699.005380,260.954498291,9120.000000000,1718095699.005380154,,,,
1718095699.005786,,,,1.377611995,1.379601479,45110.000000000,1718095699.005786180
1718095699.006793,,,,1.280079484,1.280265927,45111.000000000,1718095699.006793261
1718095699.007800,,,,0.801384151,0.801065803,45112.000000000,1718095699.007800341
1718095699.008807,,,,0.481019914,0.483201712,45113.000000000,1718095699.008807421
1718095699.009815,,,,0.485635698,0.486447185,45114.000000000,1718095699.009814501
1718095699.010822,,,,0.535159230,0.532412708,45115.000000000,1718095699.010821581
1718095699.011829,,,,0.539726913,0.538807511,45116.000000000,1718095699.011828661
1718095699.012836,,,,0.889156222,0.889727294,45117.000000000,1718095699.012835741
1718095699.013843,,,,1.379871726,1.380106330,45118.000000000,1718095699.013842821
1718095699.014850,,,,1.477043629,1.479730368,45119.000000000,1718095699.014849901
1718095699.015857,,,,1.182330608,1.183382511,45120.000000000,1718095699.015856981
1718095699.016864,,,,0.971663356,0.971465170,45121.000000000,1718095699.016864061
1718095699.017871,,,,1.142182946,1.142922282,45122.000000000,1718095699.017871141
1718095699.018878,,,,1.271256566,1.270842075,45123.000000000,1718095699.018878222
1718095699.019885,,,,1.077441692,1.077483892,45124.000000000,1718095699.019885302
1718095699.020892,,,,0.194432586,0.191517815,45125.000000000,1718095699.020892382
1718095699.021899,,,,-0.575778306,-0.574918747,45126.000000000,1718095699.021899462
1718095699.022907,,,,-0.370928854,-0.368290275,45127.000000000,1718095699.022906542
1718095699.023914,,,,0.419379950,0.420383781,45128.000000000,1718095699.023913622
1718095699.024921,,,,1.013277531,1.013656259,45129.000000000,1718095699.024920702
1718095699.025928,,,,1.223367810,1.224804401,45130.000000000,1718095699.025927782
1718095699.026935,,,,1.274790525,1.276130915,45131.000000000,1718095699.026934862
1718095699.027942,,,,1.093356609,1.092316985,45132.000000000,1718095699.027941942
1718095699.028949,,,,0.689860106,0.686897218,45133.000000000,1718095699.028949022
1718095699.029956,,,,0.201332226,0.201446563,45134.000000000,1718095699.029956102
1718095699.030963,,,,0.110434927,0.110741593,45135.000000000,1718095699.030963182
1718095699.031970,,,,0.255303234,0.255682021,45136.000000000,1718095699.031970263
1718095699.032977,,,,0.508979023,0.509502053,45137.000000000,1718095699.032977343
1718095699.033984,,,,0.508474171,0.509982884,45138.000000000,1718095699.033984423
1718095699.034992,,,,0.685003877,0.685502887,45139.000000000,1718095699.034991503
1718095699.035999,,,,1.527913451,1.529975057,45140.000000000,1718095699.035998583
1718095699.037006,,,,2.265837908,2.265134811,45141.000000000,1718095699.037005663
1718095699.038013,,,,2.293917179,2.292228460,45142.000000000,1718095699.038012743
1718095699.039020,,,,1.456032157,1.453454018,45143.000000000,1718095699.039019823
1718095699.040027,,,,0.024129381,0.021503098,45144.000000000,1718095699.040026903
1718095699.041034,,,,-0.475192696,-0.474573493,45145.000000000,1718095699.041033983
1718095699.042041,,,,0.250230700,0.254624248,45146.000000000,1718095699.042041063
1718095699.043048,,,,1.429202914,1.433500290,45147.000000000,1718095699.043048143
1718095699.044055,,,,1.797263622,1.795575023,45148.000000000,1718095699.044055223
1718095699.045062,,,,1.464230061,1.461555719,45149.000000000,1718095699.045062304
1718095699.046069,,,,0.541938663,0.539600849,45150.000000000,1718095699.046069384
1718095699.047076,,,,-0.277242869,-0.280277848,45151.000000000,1718095699.047076464
1718095699.048084,,,,0.057762101,0.061698887,45152.000000000,1718095699.048083544
1718095699.049091,,,,0.806985617,0.812028289,45153.000000000,1718095699.049090624
1718095699.050098,,,,1.029769301,1.028513312,45154.000000000,1718095699.050097704
1718095699.050411,271.835693359,9128.000000000,1718095699.050411463,,,,
1718095699.051105,,,,0.428539395,0.426946849,45155.000000000,1718095699.051104784
1718095699.052112,,,,0.040284626,0.038355518,45156.000000000,1718095699.052111864
1718095699.053119,,,,0.076080993,0.073118143,45157.000000000,1718095699.053118944
1718095699.054126,,,,0.239316285,0.237916067,45158.000000000,1718095699.054126024
1718095699.055133,,,,0.390771687,0.391054332,45159.000000000,1718095699.055133104
1718095699.055411,273.325988770,9129.000000000,1718095699.055411339,,,,
1718095699.056140,,,,0.362692356,0.362806678,45160.000000000,1718095699.056140184
1718095699.057147,,,,0.265424311,0.264096230,45161.000000000,1718095699.057147264
1718095699.058154,,,,0.486236691,0.486615479,45162.000000000,1718095699.058154345
1718095699.059161,,,,1.219280958,1.220212698,45163.000000000,1718095699.059161425
1718095699.060169,,,,1.568590045,1.567454219,45164.000000000,1718095699.060168505
1718095699.060411,274.784271240,9130.000000000,1718095699.060411453,,,,
1718095699.061176,,,,1.538948059,1.539038301,45165.000000000,1718095699.061175585
1718095699.062183,,,,1.303326726,1.303753495,45166.000000000,1718095699.062182665
1718095699.063190,,,,1.028230786,1.027768135,45167.000000000,1718095699.063189745
1718095699.064197,,,,0.892161250,0.894198835,45168.000000000,1718095699.064196825
1718095699.065204,,,,0.867375493,0.868643761,45169.000000000,1718095699.065203905
1718095699.065411,276.226562500,9131.000000000,1718095699.065411329,,,,
1718095699.066211,,,,0.622498512,0.621603131,45170.000000000,1718095699.066210985
1718095699.067218,,,,-0.062993549,-0.065523669,45171.000000000,1718095699.067218065
1718095699.068225,,,,-0.400522768,-0.400047809,45172.000000000,1718095699.068225145
1718095699.069232,,,,-0.087082170,-0.088121779,45173.000000000,1718095699.069232225
1718095699.070239,,,,0.247658342,0.247291878,45174.000000000,1718095699.070239305
1718095699.070411,277.524719238,9132.000000000,1718095699.070411444,,,,
1718095699.071246,,,,0.335334212,0.337443918,45175.000000000,1718095699.071246386
1718095699.072253,,,,0.305403739,0.306912422,45176.000000000,1718095699.072253466
1718095699.073261,,,,0.377405167,0.378168583,45177.000000000,1718095699.073260546
1718095699.074268,,,,0.474937648,0.473248929,45178.000000000,1718095699.074267626
1718095699.075275,,,,0.578408122,0.577080071,45179.000000000,1718095699.075274706
1718095699.075411,278.710723877,9133.000000000,1718095699.075411320,,,,
1718095699.076282,,,,0.598674297,0.598908842,45180.000000000,1718095699.076281786
1718095699.077289,,,,0.787633002,0.788516641,45181.000000000,1718095699.077288866
1718095699.078296,,,,1.279310226,1.282189131,45182.000000000,1718095699.078295946
1718095699.079303,,,,1.538611412,1.539182544,45183.000000000,1718095699.079303026
1718095699.080310,,,,1.712232232,1.711745620,45184.000000000,1718095699.080310106
1718095699.080411,279.816680908,9134.000000000,1718095699.080411434,,,,
1718095699.081317,,,,1.650568247,1.651019216,45185.000000000,1718095699.081317186
1718095699.082324,,,,1.446271777,1.444751263,45186.000000000,1718095699.082324266
1718095699.083331,,,,1.389199495,1.387919426,45187.000000000,1718095699.083331347
1718095699.084338,,,,1.310057998,1.310196400,45188.000000000,1718095699.084338427
1718095699.085346,,,,0.906032681,0.904776692,45189.000000000,1718095699.085345507
1718095699.085411,280.730285645,9135.000000000,1718095699.085411310,,,,
1718095699.086353,,,,0.186931938,0.185579807,45190.000000000,1718095699.086352587
1718095699.087360,,,,-0.444829494,-0.442479372,45191.000000000,1718095699.087359667
1718095699.088367,,,,-0.287412018,-0.285350382,45192.000000000,1718095699.088366747
1718095699.089374,,,,0.063892439,0.065304965,45193.000000000,1718095699.089373827
1718095699.090381,,,,0.254341632,0.256331116,45194.000000000,1718095699.090380907
1718095699.090411,281.627960205,9136.000000000,1718095699.090411425,,,,
1718095699.091388,,,,0.367356211,0.370595813,45195.000000000,1718095699.091387987
1718095699.092395,,,,0.893339276,0.896506727,45196.000000000,1718095699.092395067
1718095699.093402,,,,1.831665635,1.835722685,45197.000000000,1718095699.093402147
1718095699.094409,,,,2.216722965,2.216837406,45198.000000000,1718095699.094409227
1718095699.095411,282.397430420,9137.000000000,1718095699.095411301,,,,
1718095699.095416,,,,2.047597885,2.046390057,45199.000000000,1718095699.095416307
1718095699.096423,,,,1.118599176,1.116477728,45200.000000000,1718095699.096423388
1718095699.097430,,,,0.246696725,0.246787027,45201.000000000,1718095699.097430468
1718095699.098438,,,,0.185369298,0.183368072,45202.000000000,1718095699.098437548
1718095699.099445,,,,0.500156164,0.499717593,45203.000000000,1718095699.099444628
1718095699.100411,283.199005127,9138.000000000,1718095699.100411415,,,,
1718095699.100452,,,,1.108766556,1.107726932,45204.000000000,1718095699.100451708
1718095699.101459,,,,1.481515169,1.482206464,45205.000000000,1718095699.101458788
1718095699.102466,,,,1.883136511,1.885510683,45206.000000000,1718095699.102465868
1718095699.103473,,,,2.208356857,2.208110571,45207.000000000,1718095699.103472948
1718095699.104480,,,,1.497333884,1.498313665,45208.000000000,1718095699.104480028
1718095699.105411,284.016601563,9139.000000000,1718095699.105411291,,,,
1718095699.105487,,,,0.012421637,0.012439814,45209.000000000,1718095699.105487108
1718095699.106494,,,,-0.239907905,-0.240154177,45210.000000000,1718095699.106494188
1718095699.107501,,,,-0.224305585,-0.222147807,45211.000000000,1718095699.107501268
1718095699.108508,,,,-0.113887377,-0.112402722,45212.000000000,1718095699.108508348
1718095699.109515,,,,0.004872906,0.005708463,45213.000000000,1718095699.109515429
1718095699.110411,284.930541992,9140.000000000,1718095699.110411406,,,,
1718095699.110523,,,,0.192196816,0.192864090,45214.000000000,1718095699.110522509
1718095699.111530,,,,0.417576909,0.420023173,45215.000000000,1718095699.111529589
1718095699.112537,,,,1.102852583,1.102173567,45216.000000000,1718095699.112536669
1718095699.113544,,,,1.684633732,1.685685635,45217.000000000,1718095699.113543749
1718095699.114551,,,,1.665641665,1.667126298,45218.000000000,1718095699.114550829
1718095699.115558,,,,0.794051826,0.794550776,45219.000000000,1718095699.115557909
1718095699.116565,,,,-0.120474488,-0.121249646,45220.000000000,1718095699.116564989
1718095699.117572,,,,-0.410836160,-0.411058396,45221.000000000,1718095699.117572069
1718095699.118579,,,,-0.010777487,-0.008379295,45222.000000000,1718095699.118579149
1718095699.119586,,,,0.960196018,0.959805489,45223.000000000,1718095699.119586229
1718095699.120593,,,,1.544068694,1.543149233,45224.000000000,1718095699.120593309
1718095699.121600,,,,1.524475574,1.524830341,45225.000000000,1718095699.121600389
1718095699.122607,,,,1.055612922,1.052073121,45226.000000000,1718095699.122607470
1718095699.123615,,,,0.349373877,0.346362948,45227.000000000,1718095699.123614550
1718095699.124622,,,,0.365769535,0.366340637,45228.000000000,1718095699.124621630
1718095699.125629,,,,1.125883460,1.127824903,45229.000000000,1718095699.125628710
1718095699.126636,,,,2.396041393,2.399377346,45230.000000000,1718095699.126635790
1718095699.127643,,,,2.922024488,2.921032906,45231.000000000,1718095699.127642870
1718095699.128650,,,,2.243335962,2.241406918,45232.000000000,1718095699.128649950
1718095699.129657,,,,0.976759911,0.973700941,45233.000000000,1718095699.129657030
1718095699.130664,,,,-0.693096161,-0.692981839,45234.000000000,1718095699.130664110
1718095699.131671,,,,-1.189725757,-1.188144922,45235.000000000,1718095699.131671190
1718095699.132678,,,,-0.541472495,-0.538785815,45236.000000000,1718095699.132678270
1718095699.133685,,,,0.265640676,0.264841467,45237.000000000,1718095699.133685350
1718095699.134692,,,,1.086312652,1.088638783,45238.000000000,1718095699.134692430
1718095699.135700,,,,1.339435577,1.342122197,45239.000000000,1718095699.135699511
1718095699.136707,,,,1.342440605,1.344261885,45240.000000000,1718095699.136706591
1718095699.137714,,,,1.672132611,1.674122095,45241.000000000,1718095699.137713671
1718095699.138721,,,,1.652611732,1.653230906,45242.000000000,1718095699.138720751
1718095699.139728,,,,1.245509148,1.244493604,45243.000000000,1718095699.139727831
1718095699.140735,,,,0.858889163,0.859315991,45244.000000000,1718095699.140734911
1718095699.141742,,,,0.361899018,0.359849691,45245.000000000,1718095699.141741991
1718095699.142749,,,,-0.222839117,-0.224816307,45246.000000000,1718095699.142749071
1718095699.143756,,,,-0.323544949,-0.322324753,45247.000000000,1718095699.143756151
1718095699.144763,,,,-0.142519668,-0.142453402,45248.000000000,1718095699.144763231
1718095699.145770,,,,0.024826556,0.024171600,45249.000000000,1718095699.145770311
1718095699.146777,,,,0.306317270,0.303715020,45250.000000000,1718095699.146777391
1718095699.147784,,,,0.647572756,0.647590935,45251.000000000,1718095699.147784472
1718095699.148792,,,,0.794003725,0.793468952,45252.000000000,1718095699.148791552
1718095699.149799,,,,0.781911314,0.782193959,45253.000000000,1718095699.149798632
1718095699.150806,,,,1.065854192,1.067074418,45254.000000000,1718095699.150805712
1718095699.151813,,,,1.638788462,1.640946150,45255.000000000,1718095699.151812792
1718095699.152820,,,,2.190158367,2.190416813,45256.000000000,1718095699.152819872
1718095699.153827,,,,2.333800554,2.334179401,45257.000000000,1718095699.153826952
1718095699.154834,,,,1.722040772,1.723837972,45258.000000000,1718095699.154834032
1718095699.155841,,,,0.751283705,0.753104925,45259.000000000,1718095699.155841112
1718095699.156848,,,,0.043770503,0.044533938,45260.000000000,1718095699.156848192
1718095699.157855,,,,-0.193533689,-0.193082780,45261.000000000,1718095699.157855272
1718095699.158862,,,,-0.228993490,-0.229768649,45262.000000000,1718095699.158862352
1718095699.159869,,,,-0.031548515,-0.030737001,45263.000000000,1718095699.159869432
1718095699.160489,294.410583496,9151.000000000,1718095699.160489082,,,,
1718095699.160877,,,,0.207005784,0.208514482,45264.000000000,1718095699.160876513
1718095699.161884,,,,0.310668617,0.312874466,45265.000000000,1718095699.161883593
1718095699.162891,,,,0.432001233,0.432716578,45266.000000000,1718095699.162890673
1718095699.163898,,,,0.457243800,0.459089071,45267.000000000,1718095699.163897753
1718095699.164905,,,,0.429885656,0.433678210,45268.000000000,1718095699.164904833
1718095699.165489,295.004425049,9152.000000000,1718095699.165489197,,,,
1718095699.165912,,,,0.259558409,0.261187315,45269.000000000,1718095699.165911913
1718095699.166919,,,,0.250038356,0.251402825,45270.000000000,1718095699.166918993
1718095699.167926,,,,0.730993450,0.732694507,45271.000000000,1718095699.167926073
1718095699.168933,,,,1.625590205,1.627219081,45272.000000000,1718095699.168933153
1718095699.169940,,,,2.298292637,2.300907135,45273.000000000,1718095699.169940233
1718095699.170489,295.614318848,9153.000000000,1718095699.170489073,,,,
1718095699.170947,,,,2.130417585,2.128945112,45274.000000000,1718095699.170947313
1718095699.171954,,,,1.121387839,1.120612741,45275.000000000,1718095699.171954393
1718095699.172961,,,,0.234724537,0.234334022,45276.000000000,1718095699.172961473
1718095699.173969,,,,0.045910113,0.045110911,45277.000000000,1718095699.173968554
1718095699.174976,,,,0.330285698,0.331650138,45278.000000000,1718095699.174975634
1718095699.175489,296.256439209,9154.000000000,1718095699.175489187,,,,
1718095699.175983,,,,0.914975762,0.915907443,45279.000000000,1718095699.175982714
1718095699.176990,,,,1.322270632,1.326447845,45280.000000000,1718095699.176989794
1718095699.177997,,,,1.480914116,1.482350707,45281.000000000,1718095699.177996874
1718095699.179004,,,,1.587894559,1.590316772,45282.000000000,1718095699.179003954
1718095699.180011,,,,1.362081766,1.362917304,45283.000000000,1718095699.180011034
1718095699.180489,296.866485596,9155.000000000,1718095699.180489063,,,,
1718095699.181018,,,,0.773617327,0.772265196,45284.000000000,1718095699.181018114
1718095699.182025,,,,-0.011522744,-0.013596093,45285.000000000,1718095699.182025194
1718095699.183032,,,,-0.515003860,-0.513158560,45286.000000000,1718095699.183032274
1718095699.184039,,,,-0.219040707,-0.218661919,45287.000000000,1718095699.184039354
1718095699.185046,,,,0.243835896,0.244358927,45288.000000000,1718095699.185046434
1718095699.185489,297.556854248,9156.000000000,1718095699.185489178,,,,
1718095699.186054,,,,0.437482476,0.435625494,45289.000000000,1718095699.186053514
1718095699.187061,,,,0.823212981,0.824409127,45290.000000000,1718095699.187060595
1718095699.188068,,,,1.540390491,1.541634679,45291.000000000,1718095699.188067675
1718095699.189075,,,,2.078441858,2.079517841,45292.000000000,1718095699.189074755
1718095699.190082,,,,2.306586504,2.307350159,45293.000000000,1718095699.190081835
1718095699.190489,298.263305664,9157.000000000,1718095699.190489054,,,,
1718095699.191089,,,,1.656049490,1.653543472,45294.000000000,1718095699.191088915
1718095699.192096,,,,0.592928648,0.593764186,45295.000000000,1718095699.192095995
1718095699.193103,,,,0.176233903,0.177021369,45296.000000000,1718095699.193103075
1718095699.194110,,,,0.205010429,0.203730419,45297.000000000,1718095699.194110155
1718095699.195117,,,,0.681806505,0.683723867,45298.000000000,1718095699.195117235
1718095699.195489,298.969879150,9158.000000000,1718095699.195489168,,,,
1718095699.196124,,,,0.868288994,0.872009456,45299.000000000,1718095699.196124315
1718095699.197131,,,,0.850979805,0.852248073,45300.000000000,1718095699.197131395
1718095699.198138,,,,0.799340725,0.799190640,45301.000000000,1718095699.198138475
1718095699.199146,,,,0.638004661,0.639585435,45302.000000000,1718095699.199145555
1718095699.200153,,,,0.921346486,0.923768699,45303.000000000,1718095699.200152636
1718095699.200489,299.644439697,9159.000000000,1718095699.200489044,,,,
1718095699.201160,,,,1.428794265,1.432442546,45304.000000000,1718095699.201159716
1718095699.202167,,,,1.832963824,1.837838292,45305.000000000,1718095699.202166796
1718095699.203174,,,,1.833132148,1.832837820,45306.000000000,1718095699.203173876
1718095699.204181,,,,0.976952255,0.979494691,45307.000000000,1718095699.204180956
1718095699.205188,,,,0.162074015,0.164255843,45308.000000000,1718095699.205188036
1718095699.205489,300.270843506,9160.000000000,1718095699.205489159,,,,
1718095699.206195,,,,0.136086196,0.138316095,45309.000000000,1718095699.206195116
1718095699.207202,,,,0.416615278,0.418123990,45310.000000000,1718095699.207202196
1718095699.208209,,,,0.770395935,0.770822763,45311.000000000,1718095699.208209276
1718095699.209216,,,,0.893651783,0.895280659,45312.000000000,1718095699.209216356
1718095699.210223,,,,1.016571045,1.019930840,45313.000000000,1718095699.210223436
1718095699.211231,,,,0.636994958,0.636628449,45314.000000000,1718095699.211230516
1718095699.212238,,,,0.564464629,0.563184619,45315.000000000,1718095699.212237597
1718095699.213245,,,,1.077682137,1.080537081,45316.000000000,1718095699.213244677
1718095699.214252,,,,1.308928132,1.311446548,45317.000000000,1718095699.214251757
1718095699.215259,,,,1.277843714,1.279736996,45318.000000000,1718095699.215258837
1718095699.216266,,,,0.930433810,0.929225922,45319.000000000,1718095699.216265917
1718095699.217273,,,,0.528716326,0.529431701,45320.000000000,1718095699.217272997
1718095699.218280,,,,0.986207843,0.987788677,45321.000000000,1718095699.218280077
1718095699.219287,,,,1.668670774,1.668520689,45322.000000000,1718095699.219287157
1718095699.220294,,,,1.649798989,1.649721026,45323.000000000,1718095699.220294237
1718095699.221301,,,,1.092659354,1.090778351,45324.000000000,1718095699.221301317
1718095699.222308,,,,0.384569228,0.383433461,45325.000000000,1718095699.222308397
1718095699.223315,,,,0.171473876,0.173295081,45326.000000000,1718095699.223315477
1718095699.224323,,,,0.324059188,0.324341804,45327.000000000,1718095699.224322557
1718095699.225330,,,,0.632042587,0.632685840,45328.000000000,1718095699.225329638
1718095699.226337,,,,0.670267045,0.672016144,45329.000000000,1718095699.226336718
1718095699.227344,,,,0.522537947,0.523012877,45330.000000000,1718095699.227343798
1718095699.228351,,,,0.662910640,0.665260732,45331.000000000,1718095699.228350878
1718095699.229358,,,,1.050949097,1.055655122,45332.000000000,1718095699.229357958
1718095699.230365,,,,1.209400296,1.211485982,45333.000000000,1718095699.230365038
1718095699.231372,,,,0.976110816,0.975215495,45334.000000000,1718095699.231372118
1718095699.232379,,,,0.826506555,0.828712404,45335.000000000,1718095699.232379198
1718095699.233386,,,,0.614493012,0.616266131,45336.000000000,1718095699.233386278
1718095699.234393,,,,0.320789695,0.319149047,45337.000000000,1718095699.234393358
1718095699.235400,,,,0.334781289,0.333116621,45338.000000000,1718095699.235400438
1718095699.236408,,,,0.972072005,0.973556697,45339.000000000,1718095699.236407518
1718095699.237415,,,,1.558733344,1.562429786,45340.000000000,1718095699.237414598
1718095699.239429,,,,1.457618833,1.458839059,45342.000000000,1718095699.239428759
1718095699.240436,,,,0.640336573,0.637926638,45343.000000000,1718095699.240435839
1718095699.241443,,,,0.004680582,0.000419543,45344.000000000,1718095699.241442919
1718095699.242450,,,,0.097188592,0.098168388,45345.000000000,1718095699.242449999
1718095699.243457,,,,0.525639176,0.524743795,45346.000000000,1718095699.243457079
1718095699.244464,,,,0.916514337,0.915066063,45347.000000000,1718095699.244464159
1718095699.245471,,,,1.067897677,1.067963839,45348.000000000,1718095699.245471239
1718095699.246478,,,,1.032317638,1.031302094,45349.000000000,1718095699.246478319
1718095699.247485,,,,0.909903169,0.908599138,45350.000000000,1718095699.247485399
1718095699.248492,,,,0.712578416,0.710793555,45351.000000000,1718095699.248492479
1718095699.249500,,,,0.467004269,0.463680804,45352.000000000,1718095699.249499559
1718095699.250507,,,,0.489794701,0.488418519,45353.000000000,1718095699.250506639
1718095699.251514,,,,0.762919307,0.762865365,45354.000000000,1718095699.251513720
1718095699.252521,,,,0.915576756,0.917878807,45355.000000000,1718095699.252520800
1718095699.253528,,,,1.081168056,1.082243919,45356.000000000,1718095699.253527880
1718095699.254535,,,,1.548612356,1.549039245,45357.000000000,1718095699.254534960
1718095699.255542,,,,2.044664860,2.041990519,45358.000000000,1718095699.255542040
1718095699.256549,,,,1.857990026,1.856253266,45359.000000000,1718095699.256549120
1718095699.257556,,,,1.567363977,1.566348433,45360.000000000,1718095699.257556200
1718095699.258563,,,,1.806423068,1.807138443,45361.000000000,1718095699.258563280
1718095699.259570,,,,2.350556850,2.352546215,45362.000000000,1718095699.259570360
1718095699.260577,,,,2.356158257,2.359205484,45363.000000000,1718095699.260577440
1718095699.261585,,,,1.975043535,1.977754235,45364.000000000,1718095699.261584520
1718095699.262592,,,,0.598169446,0.597153902,45365.000000000,1718095699.262591600
1718095699.263599,,,,-0.493848145,-0.494599283,45366.000000000,1718095699.263598680
1718095699.264606,,,,-0.615036547,-0.612686396,45367.000000000,1718095699.264605761
1718095699.264941,305.139709473,9171.000000000,1718095699.264940500,,,,
1718095699.265613,,,,-0.100424670,-0.096055157,45368.000000000,1718095699.265612841
1718095699.266620,,,,0.594322979,0.595543206,45369.000000000,1718095699.266619921
1718095699.267627,,,,0.702721775,0.702643812,45370.000000000,1718095699.267627001
1718095699.268634,,,,0.510854185,0.509814620,45371.000000000,1718095699.268634081
1718095699.269641,,,,0.444358081,0.444087774,45372.000000000,1718095699.269641161
1718095699.269941,305.429138184,9172.000000000,1718095699.269940615,,,,
1718095699.270648,,,,0.603145838,0.603885233,45373.000000000,1718095699.270648241
1718095699.271655,,,,0.972913444,0.975840509,45374.000000000,1718095699.271655321
1718095699.272662,,,,1.080350637,1.081691027,45375.000000000,1718095699.272662401
1718095699.273669,,,,1.417014360,1.417825937,45376.000000000,1718095699.273669481
1718095699.274677,,,,1.299239755,1.299883008,45377.000000000,1718095699.274676561
1718095699.274940,305.670257568,9173.000000000,1718095699.274940491,,,,
1718095699.275684,,,,1.172834635,1.172227740,45378.000000000,1718095699.275683641
1718095699.276691,,,,1.132951379,1.133955240,45379.000000000,1718095699.276690722
1718095699.277698,,,,1.260270000,1.259591103,45380.000000000,1718095699.277697802
1718095699.278705,,,,1.806711555,1.809013605,45381.000000000,1718095699.278704882
1718095699.279712,,,,2.012330294,2.014704466,45382.000000000,1718095699.279711962
1718095699.279941,305.831085205,9174.000000000,1718095699.279940605,,,,
1718095699.280719,,,,1.936843038,1.936692953,45383.000000000,1718095699.280719042
1718095699.281726,,,,1.487693548,1.485764503,45384.000000000,1718095699.281726122
1718095699.282733,,,,0.814149678,0.815466046,45385.000000000,1718095699.282733202
1718095699.283740,,,,0.329300046,0.331217408,45386.000000000,1718095699.283740282
1718095699.284747,,,,0.144957155,0.144831091,45387.000000000,1718095699.284747362
1718095699.284940,305.879272461,9175.000000000,1718095699.284940481,,,,
1718095699.285754,,,,0.188374370,0.191349536,45388.000000000,1718095699.285754442
1718095699.286762,,,,0.405989379,0.407257646,45389.000000000,1718095699.286761522
1718095699.287769,,,,0.330309749,0.329462469,45390.000000000,1718095699.287768602
1718095699.288776,,,,0.361682653,0.359032333,45391.000000000,1718095699.288775682
1718095699.289783,,,,0.570066094,0.571670949,45392.000000000,1718095699.289782763
1718095699.289941,305.959686279,9176.000000000,1718095699.289940596,,,,
1718095699.290790,,,,0.662550032,0.661871016,45393.000000000,1718095699.290789843
1718095699.291797,,,,0.580908358,0.581239045,45394.000000000,1718095699.291796923
1718095699.292804,,,,0.805711448,0.809984803,45395.000000000,1718095699.292804003
1718095699.293811,,,,1.383309603,1.383760452,45396.000000000,1718095699.293811083
1718095699.294818,,,,1.782166243,1.781511188,45397.000000000,1718095699.294818163
1718095699.294940,306.072204590,9177.000000000,1718095699.294940472,,,,
1718095699.295825,,,,1.632369637,1.632628202,45398.000000000,1718095699.295825243
1718095699.296832,,,,1.079052448,1.079575419,45399.000000000,1718095699.296832323
1718095699.297839,,,,0.354879171,0.354224205,45400.000000000,1718095699.297839403
1718095699.298846,,,,0.271097869,0.271284342,45401.000000000,1718095699.298846483
1718095699.299854,,,,0.643197417,0.642326057,45402.000000000,1718095699.299853563
1718095699.299941,306.136505127,9178.000000000,1718095699.299940586,,,,
1718095699.300861,,,,0.818308711,0.816692114,45403.000000000,1718095699.300860643
1718095699.301868,,,,0.707121193,0.702138960,45404.000000000,1718095699.301867723
1718095699.302875,,,,0.815736353,0.813326478,45405.000000000,1718095699.302874804
1718095699.303882,,,,1.078691840,1.079238892,45406.000000000,1718095699.303881884
1718095699.304889,,,,1.607679963,1.610558987,45407.000000000,1718095699.304888964
1718095699.304940,306.200836182,9179.000000000,1718095699.304940462,,,,
1718095699.305896,,,,2.499367714,2.500035048,45408.000000000,1718095699.305896044
1718095699.306903,,,,2.939622164,2.941900253,45409.000000000,1718095699.306903124
1718095699.307910,,,,2.601780415,2.603216887,45410.000000000,1718095699.307910204
1718095699.308917,,,,1.441872358,1.439053655,45411.000000000,1718095699.308917284
1718095699.308954,306.377716064,9181.000000000,1718095699.308953524,,,,
1718095699.309924,,,,-0.071119249,-0.074322507,45412.000000000,1718095699.309924364
1718095699.309941,306.281250000,9180.000000000,1718095699.309940577,,,,
1718095699.310931,,,,-0.486587912,-0.484069526,45413.000000000,1718095699.310931444
1718095699.311939,,,,-0.012700731,-0.010783350,45414.000000000,1718095699.311938524
1718095699.312946,,,,0.582278669,0.582681477,45415.000000000,1718095699.312945604
1718095699.313953,,,,0.827828765,0.831140518,45416.000000000,1718095699.313952684
1718095699.313954,306.393829346,9182.000000000,1718095699.313953638,,,,
1718095699.314960,,,,0.725824773,0.728727818,45417.000000000,1718095699.314959764
1718095699.315967,,,,0.797874272,0.799094439,45418.000000000,1718095699.315966845
1718095699.316974,,,,1.229329824,1.228530645,45419.000000000,1718095699.316973925
1718095699.317981,,,,2.399527311,2.401228428,45420.000000000,1718095699.317981005
1718095699.318954,306.409881592,9183.000000000,1718095699.318953514,,,,
1718095699.318988,,,,3.318044424,3.319913626,45421.000000000,1718095699.318988085
1718095699.319995,,,,2.854807138,2.855210066,45422.000000000,1718095699.319995165
1718095699.321002,,,,1.483919263,1.481365085,45423.000000000,1718095699.321002245
1718095699.322009,,,,-0.097299404,-0.099036179,45424.000000000,1718095699.322009325
1718095699.323016,,,,-0.802408516,-0.801813364,45425.000000000,1718095699.323016405
1718095699.323954,306.522460938,9184.000000000,1718095699.323953629,,,,
1718095699.324023,,,,-0.521494806,-0.520779431,45426.000000000,1718095699.324023485
1718095699.325031,,,,0.140990466,0.142523199,45427.000000000,1718095699.325030565
1718095699.326038,,,,0.545136034,0.546909153,45428.000000000,1718095699.326037645
1718095699.327045,,,,0.510229170,0.509045303,45429.000000000,1718095699.327044725
1718095699.328052,,,,0.433107108,0.430336565,45430.000000000,1718095699.328051805
1718095699.328954,306.634979248,9185.000000000,1718095699.328953505,,,,
1718095699.329059,,,,0.781959414,0.779958189,45431.000000000,1718095699.329058886
1718095699.330066,,,,1.583663464,1.582143068,45432.000000000,1718095699.330065966
1718095699.331073,,,,1.994155765,1.992971897,45433.000000000,1718095699.331073046
1718095699.332080,,,,1.733556271,1.732756972,45434.000000000,1718095699.332080126
1718095699.333087,,,,1.239186525,1.238627672,45435.000000000,1718095699.333087206
1718095699.333954,306.811889648,9186.000000000,1718095699.333953619,,,,
1718095699.334094,,,,0.531240582,0.532508850,45436.000000000,1718095699.334094286
1718095699.335101,,,,0.155775398,0.158221662,45437.000000000,1718095699.335101366
1718095699.336108,,,,0.293912351,0.294723868,45438.000000000,1718095699.336108446
1718095699.337116,,,,0.650241256,0.651413381,45439.000000000,1718095699.337115526
1718095699.338123,,,,0.870861351,0.871720970,45440.000000000,1718095699.338122606
1718095699.339130,,,,0.889516830,0.889006078,45441.000000000,1718095699.339129686
1718095699.340137,,,,0.823838055,0.822726309,45442.000000000,1718095699.340136766
1718095699.341144,,,,0.848912299,0.850829720,45443.000000000,1718095699.341143847
1718095699.342151,,,,1.035611153,1.036951542,45444.000000000,1718095699.342150927
1718095699.343158,,,,1.280992985,1.280073643,45445.000000000,1718095699.343158007
1718095699.344165,,,,1.373861670,1.373831749,45446.000000000,1718095699.344165087
1718095699.345172,,,,1.379318833,1.380731344,45447.000000000,1718095699.345172167
1718095699.346179,,,,1.269453526,1.271731496,45448.000000000,1718095699.346179247
1718095699.347186,,,,1.228536487,1.227280617,45449.000000000,1718095699.347186327
1718095699.348193,,,,1.172113419,1.170064092,45450.000000000,1718095699.348193407
1718095699.349200,,,,1.038832664,1.035725474,45451.000000000,1718095699.349200487
1718095699.350208,,,,1.065397382,1.064213514,45452.000000000,1718095699.350207567
1718095699.351215,,,,1.021307111,1.019065380,45453.000000000,1718095699.351214647
1718095699.352222,,,,0.927356601,0.929370165,45454.000000000,1718095699.352221727
1718095699.353229,,,,0.885453939,0.886818409,45455.000000000,1718095699.353228807
1718095699.354236,,,,0.998228133,0.997981846,45456.000000000,1718095699.354235888
1718095699.355243,,,,1.705573082,1.707995296,45457.000000000,1718095699.355242968
1718095699.356250,,,,2.622046709,2.623747587,45458.000000000,1718095699.356250048
1718095699.357257,,,,3.232700348,3.232526302,45459.000000000,1718095699.357257128
1718095699.358264,,,,2.825790167,2.824750662,45460.000000000,1718095699.358264208
1718095699.358953,308.291595459,9191.000000000,1718095699.358953476,,,,
1718095699.359271,,,,1.152279973,1.152658701,45461.000000000,1718095699.359271288
1718095699.360278,,,,0.097909808,0.097879902,45462.000000000,1718095699.360278368
1718095699.361285,,,,-0.109463915,-0.110407360,45463.000000000,1718095699.361285448
1718095699.362293,,,,-0.161607847,-0.161132902,45464.000000000,1718095699.362292528
1718095699.363300,,,,0.019489557,0.021551181,45465.000000000,1718095699.363299608
1718095699.363954,308.741973877,9192.000000000,1718095699.363953590,,,,
1718095699.364307,,,,0.286171287,0.286117345,45466.000000000,1718095699.364306688
1718095699.365314,,,,0.466884047,0.464546263,45467.000000000,1718095699.365313768
1718095699.366321,,,,0.405220062,0.401848525,45468.000000000,1718095699.366320848
1718095699.367328,,,,0.323097587,0.322562814,45469.000000000,1718095699.367327929
1718095699.368335,,,,0.404715210,0.405743092,45470.000000000,1718095699.368335009
1718095699.368953,309.111999512,9193.000000000,1718095699.368953466,,,,
1718095699.369342,,,,0.538837433,0.542461693,45471.000000000,1718095699.369342089
1718095699.370349,,,,0.935746789,0.937207401,45472.000000000,1718095699.370349169
1718095699.371356,,,,1.503704548,1.504708409,45473.000000000,1718095699.371356249
1718095699.372363,,,,2.360004663,2.362474918,45474.000000000,1718095699.372363329
1718095699.373370,,,,3.060930729,3.061501980,45475.000000000,1718095699.373370409
1718095699.373954,309.514251709,9194.000000000,1718095699.373953581,,,,
1718095699.374377,,,,3.254072428,3.254427195,45476.000000000,1718095699.374377489
1718095699.375385,,,,2.795330763,2.794699907,45477.000000000,1718095699.375384569
1718095699.376392,,,,2.008363724,2.009992599,45478.000000000,1718095699.376391649
1718095699.377399,,,,1.085471272,1.086282730,45479.000000000,1718095699.377398729
1718095699.378406,,,,0.529293299,0.528421998,45480.000000000,1718095699.378405809
1718095699.378953,309.996917725,9195.000000000,1718095699.378953457,,,,
1718095699.379413,,,,0.146495745,0.145840794,45481.000000000,1718095699.379412889
1718095699.380420,,,,-0.173291564,-0.174186915,45482.000000000,1718095699.380419970
1718095699.381427,,,,-0.293782771,-0.293668419,45483.000000000,1718095699.381427050
1718095699.382434,,,,-0.212141082,-0.209382281,45484.000000000,1718095699.382434130
1718095699.383441,,,,0.068989031,0.068766810,45485.000000000,1718095699.383441210
1718095699.383954,310.560150146,9196.000000000,1718095699.383953571,,,,
