__time,/gdx/grip_force_stream/grip_force,/gdx/grip_force_stream/header/seq,/gdx/grip_force_stream/header/stamp,/shimmer0/emg_stream/emg_ch1,/shimmer0/emg_stream/emg_ch2,/shimmer0/emg_stream/header/seq,/shimmer0/emg_stream/header/stamp
1718095938.801561,,,,-11.682444572,-11.685872078,17338.000000000,1718095938.801560879
1718095938.802568,,,,-11.669582367,-11.672938347,17339.000000000,1718095938.802567959
1718095938.803575,,,,-11.665183067,-11.669861794,17340.000000000,1718095938.803575039
1718095938.804582,,,,-11.669221878,-11.672650337,17341.000000000,1718095938.804582119
1718095938.805589,,,,-11.669606209,-11.675438881,17342.000000000,1718095938.805589199
1718095938.806556,0.227393940,3513.000000000,1718095938.806555986,,,,
1718095938.806596,,,,-11.677900314,-11.684213638,17343.000000000,1718095938.806596279
1718095938.807603,,,,-11.696219444,-11.698926926,17344.000000000,1718095938.807603359
1718095938.808610,,,,-11.716870308,-11.719241142,17345.000000000,1718095938.808610439
1718095938.809618,,,,-11.738265991,-11.740372658,17346.000000000,1718095938.809617519
1718095938.810625,,,,-11.754613876,-11.757441521,17347.000000000,1718095938.810624599
1718095938.811556,0.209717527,3514.000000000,1718095938.811556101,,,,
1718095938.811632,,,,-11.767764091,-11.769798279,17348.000000000,1718095938.811631680
1718095938.812639,,,,-11.766946793,-11.770783424,17349.000000000,1718095938.812638760
1718095938.813646,,,,-11.760311127,-11.764268875,17350.000000000,1718095938.813645840
1718095938.814653,,,,-11.739419937,-11.744218826,17351.000000000,1718095938.814652920
1718095938.815660,,,,-11.720284462,-11.724457741,17352.000000000,1718095938.815660000
1718095938.816556,0.280430436,3515.000000000,1718095938.816555977,,,,
1718095938.816667,,,,-11.721798897,-11.726549149,17353.000000000,1718095938.816667080
1718095938.817674,,,,-11.730573654,-11.735564232,17354.000000000,1718095938.817674160
1718095938.818681,,,,-11.742617607,-11.749243736,17355.000000000,1718095938.818681240
1718095938.819688,,,,-11.751416206,-11.758763313,17356.000000000,1718095938.819688320
1718095938.820695,,,,-11.771058083,-11.778524399,17357.000000000,1718095938.820695400
1718095938.821556,0.315781951,3516.000000000,1718095938.821556091,,,,
1718095938.821702,,,,-11.808873177,-11.813022614,17358.000000000,1718095938.821702480
1718095938.822710,,,,-11.828610420,-11.832135201,17359.000000000,1718095938.822709560
1718095938.823717,,,,-11.822672844,-11.828769684,17360.000000000,1718095938.823716640
1718095938.824724,,,,-11.805891991,-11.812662125,17361.000000000,1718095938.824723721
1718095938.825731,,,,-11.814859390,-11.821100235,17362.000000000,1718095938.825730801
1718095938.826556,0.368808210,3517.000000000,1718095938.826555967,,,,
1718095938.826738,,,,-11.817720413,-11.821413040,17363.000000000,1718095938.826737881
1718095938.827745,,,,-11.779928207,-11.785231590,17364.000000000,1718095938.827744961
1718095938.828752,,,,-11.747113228,-11.752152443,17365.000000000,1718095938.828752041
1718095938.829759,,,,-11.752762794,-11.756215096,17366.000000000,1718095938.829759121
1718095938.830766,,,,-11.763845444,-11.770302773,17367.000000000,1718095938.830766201
1718095938.831556,0.333457530,3518.000000000,1718095938.831556082,,,,
1718095938.831773,,,,-11.768485069,-11.774750710,17368.000000000,1718095938.831773281
1718095938.832780,,,,-11.752041817,-11.758018494,17369.000000000,1718095938.832780361
1718095938.833787,,,,-11.730885506,-11.734939575,17370.000000000,1718095938.833787441
1718095938.834795,,,,-11.736103058,-11.742752075,17371.000000000,1718095938.834794521
1718095938.835802,,,,-11.756657600,-11.762393951,17372.000000000,1718095938.835801601
1718095938.836556,0.404166400,3519.000000000,1718095938.836555958,,,,
1718095938.836809,,,,-11.750358582,-11.754003525,17373.000000000,1718095938.836808681
1718095938.840860,0.545569241,3521.000000000,1718095938.840859890,,,,
1718095938.841556,0.421841264,3520.000000000,1718095938.841556072,,,,
1718095938.841844,,,,-11.800194740,-11.803743362,17378.000000000,1718095938.841844082
1718095938.842851,,,,-11.807767868,-11.810090065,17379.000000000,1718095938.842851162
1718095938.843858,,,,-11.794689178,-11.799007416,17380.000000000,1718095938.843858242
1718095938.844865,,,,-11.771850586,-11.776361465,17381.000000000,1718095938.844865322
1718095938.845860,0.545569241,3522.000000000,1718095938.845860004,,,,
1718095938.845872,,,,-11.748531342,-11.750228882,17382.000000000,1718095938.845872402
1718095938.846879,,,,-11.712422371,-11.713663101,17383.000000000,1718095938.846879482
1718095938.847887,,,,-11.676650047,-11.677722931,17384.000000000,1718095938.847886562
1718095938.848894,,,,-11.656841278,-11.660269737,17385.000000000,1718095938.848893642
1718095938.849901,,,,-11.657177925,-11.664043427,17386.000000000,1718095938.849900723
1718095938.850860,0.633936226,3523.000000000,1718095938.850859880,,,,
1718095938.850908,,,,-11.663091660,-11.668226242,17387.000000000,1718095938.850907803
1718095938.851915,,,,-11.671025276,-11.672770500,17388.000000000,1718095938.851914883
1718095938.852922,,,,-11.695402145,-11.698590279,17389.000000000,1718095938.852921963
1718095938.853929,,,,-11.717471123,-11.723231316,17390.000000000,1718095938.853929043
1718095938.854936,,,,-11.733626366,-11.739770889,17391.000000000,1718095938.854936123
1718095938.855860,0.704635382,3524.000000000,1718095938.855859995,,,,
1718095938.855943,,,,-11.737424850,-11.741333961,17392.000000000,1718095938.855943203
1718095938.856950,,,,-11.744035721,-11.751286507,17393.000000000,1718095938.856950283
1718095938.857957,,,,-11.751344681,-11.759989738,17394.000000000,1718095938.857957363
1718095938.858964,,,,-11.766442299,-11.773283958,17395.000000000,1718095938.858964443
1718095938.859972,,,,-11.806781769,-11.812469482,17396.000000000,1718095938.859971523
1718095938.860860,0.757652164,3525.000000000,1718095938.860859871,,,,
1718095938.860979,,,,-11.814859390,-11.819778442,17397.000000000,1718095938.860978603
1718095938.861986,,,,-11.800122261,-11.804921150,17398.000000000,1718095938.861985683
1718095938.862993,,,,-11.784303665,-11.788813591,17399.000000000,1718095938.862992764
1718095938.864000,,,,-11.790433884,-11.793525696,17400.000000000,1718095938.863999844
1718095938.865007,,,,-11.790746689,-11.795040131,17401.000000000,1718095938.865006924
1718095938.865860,0.934373558,3526.000000000,1718095938.865859985,,,,
1718095938.866014,,,,-11.767884254,-11.771360397,17402.000000000,1718095938.866014004
1718095938.867021,,,,-11.728289604,-11.730034828,17403.000000000,1718095938.867021084
1718095938.868028,,,,-11.694151878,-11.701426506,17404.000000000,1718095938.868028164
1718095938.869035,,,,-11.685689926,-11.692940712,17405.000000000,1718095938.869035244
1718095938.870042,,,,-11.689343452,-11.695055962,17406.000000000,1718095938.870042324
1718095938.870860,0.969722569,3527.000000000,1718095938.870859861,,,,
1718095938.871049,,,,-11.690737724,-11.696017265,17407.000000000,1718095938.871049404
1718095938.872056,,,,-11.687492371,-11.692315102,17408.000000000,1718095938.872056484
1718095938.873064,,,,-11.686531067,-11.695536613,17409.000000000,1718095938.873063564
1718095938.874071,,,,-11.681434631,-11.686497688,17410.000000000,1718095938.874070644
1718095938.875078,,,,-11.674150467,-11.677410126,17411.000000000,1718095938.875077724
1718095938.875860,1.234777570,3528.000000000,1718095938.875859976,,,,
1718095938.876085,,,,-11.699849129,-11.702123642,17412.000000000,1718095938.876084805
1718095938.877092,,,,-11.725957870,-11.728039742,17413.000000000,1718095938.877091885
1718095938.878099,,,,-11.720932961,-11.722702980,17414.000000000,1718095938.878098965
1718095938.879106,,,,-11.710811615,-11.712725639,17415.000000000,1718095938.879106045
1718095938.880113,,,,-11.704609871,-11.706908226,17416.000000000,1718095938.880113125
1718095938.881120,,,,-11.699873924,-11.705321312,17417.000000000,1718095938.881120205
1718095938.882127,,,,-11.712110519,-11.714529037,17418.000000000,1718095938.882127285
1718095938.883134,,,,-11.722928047,-11.727870941,17419.000000000,1718095938.883134365
1718095938.884141,,,,-11.723457336,-11.727198601,17420.000000000,1718095938.884141445
1718095938.885149,,,,-11.729731560,-11.732727051,17421.000000000,1718095938.885148525
1718095938.886156,,,,-11.747426033,-11.752849579,17422.000000000,1718095938.886155605
1718095938.887163,,,,-11.766466141,-11.770855904,17423.000000000,1718095938.887162685
1718095938.888170,,,,-11.792069435,-11.795425415,17424.000000000,1718095938.888169765
1718095938.889177,,,,-11.827288628,-11.831918716,17425.000000000,1718095938.889176846
1718095938.890184,,,,-11.908521652,-11.914258003,17426.000000000,1718095938.890183926
1718095938.890860,2.029740810,3531.000000000,1718095938.890859842,,,,
1718095938.891191,,,,-11.995259285,-11.999529839,17427.000000000,1718095938.891191006
1718095938.892198,,,,-11.986653328,-11.988759041,17428.000000000,1718095938.892198086
1718095938.893205,,,,-11.937874794,-11.942096710,17429.000000000,1718095938.893205166
1718095938.894212,,,,-11.930109978,-11.935870171,17430.000000000,1718095938.894212246
1718095938.895219,,,,-11.901838303,-11.908319473,17431.000000000,1718095938.895219326
1718095938.895860,2.294666529,3532.000000000,1718095938.895859957,,,,
1718095938.896226,,,,-11.848372459,-11.853771210,17432.000000000,1718095938.896226406
1718095938.897233,,,,-11.777091980,-11.781121254,17433.000000000,1718095938.897233486
1718095938.898241,,,,-11.732953072,-11.738521576,17434.000000000,1718095938.898240566
1718095938.899248,,,,-11.757185936,-11.761504173,17435.000000000,1718095938.899247646
1718095938.900255,,,,-11.807719231,-11.812710762,17436.000000000,1718095938.900254726
1718095938.900860,2.594882727,3533.000000000,1718095938.900859833,,,,
1718095938.901262,,,,-11.854622841,-11.859012604,17437.000000000,1718095938.901261806
1718095938.902269,,,,-11.890563011,-11.892356873,17438.000000000,1718095938.902268887
1718095938.903276,,,,-11.888471603,-11.890602112,17439.000000000,1718095938.903275967
1718095938.904283,,,,-11.857748032,-11.860262871,17440.000000000,1718095938.904283047
1718095938.905290,,,,-11.838948250,-11.843482018,17441.000000000,1718095938.905290127
1718095938.905860,3.071597338,3534.000000000,1718095938.905859947,,,,
1718095938.906297,,,,-11.816566467,-11.822710991,17442.000000000,1718095938.906297207
1718095938.907304,,,,-11.791996956,-11.798213959,17443.000000000,1718095938.907304287
1718095938.908311,,,,-11.770528793,-11.775375366,17444.000000000,1718095938.908311367
1718095938.909318,,,,-11.784856796,-11.789799690,17445.000000000,1718095938.909318447
1718095938.910326,,,,-11.769471169,-11.774101257,17446.000000000,1718095938.910325527
1718095938.910860,3.477608442,3535.000000000,1718095938.910859823,,,,
1718095938.911333,,,,-11.719755173,-11.724000931,17447.000000000,1718095938.911332607
1718095938.912340,,,,-11.667538643,-11.673418999,17448.000000000,1718095938.912339687
1718095938.913347,,,,-11.672154427,-11.675559044,17449.000000000,1718095938.913346767
1718095938.914354,,,,-11.705980301,-11.709672928,17450.000000000,1718095938.914353848
1718095938.915361,,,,-11.724635124,-11.729746819,17451.000000000,1718095938.915360928
1718095938.915860,3.971782923,3536.000000000,1718095938.915859938,,,,
1718095938.916368,,,,-11.750190735,-11.752489090,17452.000000000,1718095938.916368008
1718095938.917375,,,,-11.768918037,-11.771673203,17453.000000000,1718095938.917375088
1718095938.918382,,,,-11.770601273,-11.775568008,17454.000000000,1718095938.918382168
1718095938.919389,,,,-11.760311127,-11.763859749,17455.000000000,1718095938.919389248
1718095938.920396,,,,-11.774447441,-11.775615692,17456.000000000,1718095938.920396328
1718095938.920860,4.483478546,3537.000000000,1718095938.920859814,,,,
1718095938.921403,,,,-11.822216034,-11.823287964,17457.000000000,1718095938.921403408
1718095938.922410,,,,-11.880586624,-11.884110451,17458.000000000,1718095938.922410488
1718095938.923418,,,,-11.941649437,-11.948587418,17459.000000000,1718095938.923417568
1718095938.924425,,,,-11.985403061,-11.993014336,17460.000000000,1718095938.924424648
1718095938.925432,,,,-12.012713432,-12.017920494,17461.000000000,1718095938.925431728
1718095938.925860,5.171438217,3538.000000000,1718095938.925859928,,,,
1718095938.926439,,,,-12.064785004,-12.067660332,17462.000000000,1718095938.926438808
1718095938.927446,,,,-12.140151978,-12.144350052,17463.000000000,1718095938.927445889
1718095938.928453,,,,-12.215471268,-12.222121239,17464.000000000,1718095938.928452969
1718095938.929460,,,,-12.223259926,-12.227409363,17465.000000000,1718095938.929460049
1718095938.930467,,,,-12.106447220,-12.110163689,17466.000000000,1718095938.930467129
1718095938.930860,5.929708004,3539.000000000,1718095938.930859804,,,,
1718095938.931474,,,,-11.952804565,-11.956857681,17467.000000000,1718095938.931474209
1718095938.932481,,,,-11.828418732,-11.833216667,17468.000000000,1718095938.932481289
1718095938.933488,,,,-11.730645180,-11.731862068,17469.000000000,1718095938.933488369
1718095938.934495,,,,-11.643787384,-11.647696495,17470.000000000,1718095938.934495449
1718095938.935503,,,,-11.615972519,-11.620866776,17471.000000000,1718095938.935502529
1718095938.935860,6.740582466,3540.000000000,1718095938.935859919,,,,
1718095938.936510,,,,-11.721822739,-11.724337578,17472.000000000,1718095938.936509609
1718095938.937517,,,,-11.793318748,-11.797516823,17473.000000000,1718095938.937516689
1718095938.938524,,,,-11.812118530,-11.820956230,17474.000000000,1718095938.938523769
1718095938.939531,,,,-11.801685333,-11.807373047,17475.000000000,1718095938.939530849
1718095938.940538,,,,-11.802646637,-11.805882454,17476.000000000,1718095938.940537930
1718095938.941545,,,,-11.840198517,-11.843265533,17477.000000000,1718095938.941545010
1718095938.942552,,,,-11.847002029,-11.852185249,17478.000000000,1718095938.942552090
1718095938.943559,,,,-11.839693069,-11.842111588,17479.000000000,1718095938.943559170
1718095938.944566,,,,-11.853300095,-11.856464386,17480.000000000,1718095938.944566250
1718095938.945573,,,,-11.862796783,-11.866826057,17481.000000000,1718095938.945573330
1718095938.946580,,,,-11.882581711,-11.888630867,17482.000000000,1718095938.946580410
1718095938.947587,,,,-11.895322800,-11.898631096,17483.000000000,1718095938.947587490
1718095938.948595,,,,-11.929268837,-11.932215691,17484.000000000,1718095938.948594570
1718095938.949602,,,,-11.951217651,-11.956352234,17485.000000000,1718095938.949601650
1718095938.950609,,,,-11.955857277,-11.961810112,17486.000000000,1718095938.950608730
1718095938.951616,,,,-11.943140030,-11.948780060,17487.000000000,1718095938.951615810
1718095938.952623,,,,-11.951385498,-11.954453468,17488.000000000,1718095938.952622890
1718095938.953630,,,,-11.987013817,-11.987461090,17489.000000000,1718095938.953629971
1718095938.954637,,,,-11.982854843,-11.986643791,17490.000000000,1718095938.954637051
1718095938.955644,,,,-11.955160141,-11.959141731,17491.000000000,1718095938.955644131
1718095938.956651,,,,-11.916406631,-11.920364380,17492.000000000,1718095938.956651211
1718095938.957658,,,,-11.824884415,-11.829851151,17493.000000000,1718095938.957658291
1718095938.958665,,,,-11.763004303,-11.771143913,17494.000000000,1718095938.958665371
1718095938.959672,,,,-11.742233276,-11.747584343,17495.000000000,1718095938.959672451
1718095938.960680,,,,-11.729106903,-11.734217644,17496.000000000,1718095938.960679531
1718095938.961687,,,,-11.767667770,-11.771312714,17497.000000000,1718095938.961686611
1718095938.962694,,,,-11.816326141,-11.820138931,17498.000000000,1718095938.962693691
1718095938.963701,,,,-11.865152359,-11.870071411,17499.000000000,1718095938.963700771
1718095938.964708,,,,-11.891332626,-11.893654823,17500.000000000,1718095938.964707851
1718095938.965715,,,,-11.861763000,-11.864830017,17501.000000000,1718095938.965714931
1718095938.966722,,,,-11.850078583,-11.852857590,17502.000000000,1718095938.966722012
1718095938.967729,,,,-11.885514259,-11.890025139,17503.000000000,1718095938.967729092
1718095938.968736,,,,-11.923619270,-11.925557137,17504.000000000,1718095938.968736172
1718095938.969743,,,,-11.973455429,-11.977292061,17505.000000000,1718095938.969743252
1718095938.970750,,,,-12.001245499,-12.007751465,17506.000000000,1718095938.970750332
1718095938.971757,,,,-11.991245270,-11.996163368,17507.000000000,1718095938.971757412
1718095938.972764,,,,-11.941456795,-11.945775032,17508.000000000,1718095938.972764492
1718095938.973772,,,,-11.878686905,-11.881370544,17509.000000000,1718095938.973771572
1718095938.974779,,,,-11.873806953,-11.878749847,17510.000000000,1718095938.974778652
1718095938.975786,,,,-11.943644524,-11.948059082,17511.000000000,1718095938.975785732
1718095938.976793,,,,-12.082046509,-12.087084770,17512.000000000,1718095938.976792812
1718095938.977800,,,,-12.104163170,-12.108144760,17513.000000000,1718095938.977799892
1718095938.978807,,,,-12.041176796,-12.045351028,17514.000000000,1718095938.978806973
1718095938.979814,,,,-11.987975121,-11.994192123,17515.000000000,1718095938.979814053
1718095938.980821,,,,-11.971171379,-11.978542328,17516.000000000,1718095938.980821133
1718095938.981828,,,,-12.139791489,-12.142810822,17517.000000000,1718095938.981828213
1718095938.982835,,,,-12.408949852,-12.414156914,17518.000000000,1718095938.982835293
1718095938.983842,,,,-12.680150986,-12.685598373,17519.000000000,1718095938.983842373
1718095938.984849,,,,-12.895025253,-12.898117065,17520.000000000,1718095938.984849453
1718095938.985857,,,,-12.890072823,-12.894871712,17521.000000000,1718095938.985856533
1718095938.985956,19.585411072,3549.000000000,1718095938.985956430,,,,
1718095938.986864,,,,-12.746815681,-12.749714851,17522.000000000,1718095938.986863613
1718095938.987871,,,,-12.515377045,-12.520607948,17523.000000000,1718095938.987870693
1718095938.988878,,,,-12.266028404,-12.270658493,17524.000000000,1718095938.988877773
1718095938.989885,,,,-12.015645981,-12.019747734,17525.000000000,1718095938.989884853
1718095938.990892,,,,-11.868301392,-11.873244286,17526.000000000,1718095938.990891933
1718095938.990957,21.336544037,3550.000000000,1718095938.990956545,,,,
1718095938.991899,,,,-11.832794189,-11.838458061,17527.000000000,1718095938.991899014
1718095938.992906,,,,-11.854022026,-11.858266830,17528.000000000,1718095938.992906094
1718095938.993913,,,,-11.833659172,-11.837327957,17529.000000000,1718095938.993913174
1718095938.994920,,,,-11.767547607,-11.771288872,17530.000000000,1718095938.994920254
1718095938.995927,,,,-11.694584846,-11.699744225,17531.000000000,1718095938.995927334
1718095938.995956,23.278614044,3551.000000000,1718095938.995956421,,,,
1718095938.996934,,,,-11.670760155,-11.676352501,17532.000000000,1718095938.996934414
1718095938.997941,,,,-11.631358147,-11.637069702,17533.000000000,1718095938.997941494
1718095938.998949,,,,-11.629122734,-11.633896828,17534.000000000,1718095938.998948574
1718095938.999956,,,,-11.688791275,-11.692531586,17535.000000000,1718095938.999955654
1718095939.000957,25.428541183,3552.000000000,1718095939.000956535,,,,
1718095939.000963,,,,-11.710499763,-11.714649200,17536.000000000,1718095939.000962734
1718095939.001970,,,,-11.693430901,-11.696353912,17537.000000000,1718095939.001969814
1718095939.002977,,,,-11.685209274,-11.690969467,17538.000000000,1718095939.002976894
1718095939.003984,,,,-11.705378532,-11.711211205,17539.000000000,1718095939.003983974
1718095939.004991,,,,-11.784015656,-11.789006233,17540.000000000,1718095939.004991055
1718095939.005956,27.698432922,3553.000000000,1718095939.005956411,,,,
1718095939.005998,,,,-11.897727013,-11.902958870,17541.000000000,1718095939.005998135
1718095939.007005,,,,-11.968694687,-11.973253250,17542.000000000,1718095939.007005215
1718095939.008012,,,,-12.031897545,-12.033306122,17543.000000000,1718095939.008012295
1718095939.009019,,,,-12.212466240,-12.216615677,17544.000000000,1718095939.009019375
1718095939.010026,,,,-12.498404503,-12.501014709,17545.000000000,1718095939.010026455
1718095939.010957,30.070453644,3554.000000000,1718095939.010956526,,,,
1718095939.011034,,,,-12.589133263,-12.591118813,17546.000000000,1718095939.011033535
1718095939.012041,,,,-12.496216774,-12.497481346,17547.000000000,1718095939.012040615
1718095939.013048,,,,-12.325817108,-12.328932762,17548.000000000,1718095939.013047695
1718095939.014055,,,,-12.179409981,-12.183655739,17549.000000000,1718095939.014054775
1718095939.015062,,,,-12.044206619,-12.048620224,17550.000000000,1718095939.015061855
1718095939.015956,32.770584106,3555.000000000,1718095939.015956402,,,,
1718095939.016069,,,,-12.009852409,-12.017607689,17551.000000000,1718095939.016068935
1718095939.017076,,,,-12.016030312,-12.023065567,17552.000000000,1718095939.017076015
1718095939.018083,,,,-12.057765007,-12.063357353,17553.000000000,1718095939.018083096
1718095939.019090,,,,-12.196959496,-12.201470375,17554.000000000,1718095939.019090176
1718095939.020097,,,,-12.289660454,-12.293641090,17555.000000000,1718095939.020097256
1718095939.020957,35.415065765,3556.000000000,1718095939.020956516,,,,
1718095939.021104,,,,-12.330024719,-12.335375786,17556.000000000,1718095939.021104336
1718095939.022111,,,,-12.218836784,-12.223155022,17557.000000000,1718095939.022111416
1718095939.023118,,,,-11.997759819,-12.000394821,17558.000000000,1718095939.023118496
1718095939.024126,,,,-11.941096306,-11.944500923,17559.000000000,1718095939.024125576
1718095939.025133,,,,-11.907752037,-11.910820007,17560.000000000,1718095939.025132656
1718095939.025956,38.490261078,3557.000000000,1718095939.025956392,,,,
1718095939.026140,,,,-11.976604462,-11.980994225,17561.000000000,1718095939.026139736
1718095939.027147,,,,-12.075554848,-12.079560280,17562.000000000,1718095939.027146816
1718095939.028154,,,,-12.088873863,-12.091484070,17563.000000000,1718095939.028153896
1718095939.029161,,,,-12.007616997,-12.014001846,17564.000000000,1718095939.029160976
1718095939.030168,,,,-11.858805656,-11.863459587,17565.000000000,1718095939.030168056
1718095939.030957,41.803585052,3558.000000000,1718095939.030956507,,,,
1718095939.031175,,,,-11.809282303,-11.814272881,17566.000000000,1718095939.031175137
1718095939.032182,,,,-11.828803062,-11.833986282,17567.000000000,1718095939.032182217
1718095939.033189,,,,-11.820268631,-11.823888779,17568.000000000,1718095939.033189297
1718095939.034196,,,,-11.805507660,-11.808215141,17569.000000000,1718095939.034196377
1718095939.035203,,,,-11.746608734,-11.748570442,17570.000000000,1718095939.035203457
1718095939.035956,45.284664154,3559.000000000,1718095939.035956383,,,,
1718095939.036211,,,,-11.708095551,-11.710057259,17571.000000000,1718095939.036210537
1718095939.037218,,,,-11.756368637,-11.762177467,17572.000000000,1718095939.037217617
1718095939.038225,,,,-11.836712837,-11.840982437,17573.000000000,1718095939.038224697
1718095939.039232,,,,-11.875634193,-11.881682396,17574.000000000,1718095939.039231777
1718095939.040239,,,,-11.919531822,-11.925171852,17575.000000000,1718095939.040238857
1718095939.040723,53.229286194,3561.000000000,1718095939.040723324,,,,
1718095939.040956,49.157176971,3560.000000000,1718095939.040956497,,,,
1718095939.041246,,,,-11.920950890,-11.923609734,17576.000000000,1718095939.041245937
1718095939.042253,,,,-12.019588470,-12.024459839,17577.000000000,1718095939.042253017
1718095939.043260,,,,-12.136738777,-12.140815735,17578.000000000,1718095939.043260098
1718095939.044267,,,,-12.191598892,-12.196349144,17579.000000000,1718095939.044267178
1718095939.045274,,,,-12.186622620,-12.188944817,17580.000000000,1718095939.045274258
1718095939.045723,57.654617310,3562.000000000,1718095939.045723438,,,,
1718095939.046281,,,,-12.169961929,-12.173606873,17581.000000000,1718095939.046281338
1718095939.047288,,,,-12.364210129,-12.369897842,17582.000000000,1718095939.047288418
1718095939.048295,,,,-12.377817154,-12.386149406,17583.000000000,1718095939.048295498
1718095939.049303,,,,-12.318700790,-12.324653625,17584.000000000,1718095939.049302578
1718095939.050310,,,,-12.392842293,-12.399131775,17585.000000000,1718095939.050309658
1718095939.050723,62.396537781,3563.000000000,1718095939.050723314,,,,
1718095939.051317,,,,-12.397145271,-12.404901505,17586.000000000,1718095939.051316738
1718095939.052324,,,,-12.332091331,-12.338428497,17587.000000000,1718095939.052323818
1718095939.053331,,,,-12.428277969,-12.432331085,17588.000000000,1718095939.053330898
1718095939.054338,,,,-12.495807648,-12.500269890,17589.000000000,1718095939.054337978
1718095939.055345,,,,-12.603966713,-12.611529350,17590.000000000,1718095939.055345058
1718095939.055723,67.384346008,3564.000000000,1718095939.055723429,,,,
1718095939.056352,,,,-12.661759377,-12.666005135,17591.000000000,1718095939.056352139
1718095939.057359,,,,-12.611250877,-12.615640640,17592.000000000,1718095939.057359219
1718095939.058366,,,,-12.788789749,-12.792025566,17593.000000000,1718095939.058366299
1718095939.059373,,,,-12.845141411,-12.847414970,17594.000000000,1718095939.059373379
1718095939.060380,,,,-12.531748772,-12.535561562,17595.000000000,1718095939.060380459
1718095939.061388,,,,-12.147195816,-12.154663086,17596.000000000,1718095939.061387539
1718095939.062395,,,,-11.768797874,-11.774774551,17597.000000000,1718095939.062394619
1718095939.063402,,,,-11.403814316,-11.409742355,17598.000000000,1718095939.063401699
1718095939.064409,,,,-11.279020309,-11.281919479,17599.000000000,1718095939.064408779
1718095939.065416,,,,-11.642224312,-11.647912025,17600.000000000,1718095939.065415859
1718095939.066423,,,,-12.101278305,-12.106245041,17601.000000000,1718095939.066422939
1718095939.067430,,,,-12.192199707,-12.197599411,17602.000000000,1718095939.067430019
1718095939.068437,,,,-12.148662567,-12.152715683,17603.000000000,1718095939.068437099
1718095939.069444,,,,-12.105052948,-12.109395027,17604.000000000,1718095939.069444180
1718095939.070451,,,,-11.972229004,-11.976426125,17605.000000000,1718095939.070451260
1718095939.071458,,,,-11.866474152,-11.869518280,17606.000000000,1718095939.071458340
1718095939.072465,,,,-11.773990631,-11.777610779,17607.000000000,1718095939.072465420
1718095939.073472,,,,-11.720716476,-11.724745750,17608.000000000,1718095939.073472500
1718095939.074480,,,,-11.790049553,-11.800353050,17609.000000000,1718095939.074479580
1718095939.075487,,,,-11.884336472,-11.890673637,17610.000000000,1718095939.075486660
1718095939.076494,,,,-11.859118462,-11.862931252,17611.000000000,1718095939.076493740
1718095939.077501,,,,-11.880874634,-11.885384560,17612.000000000,1718095939.077500820
1718095939.078508,,,,-11.962420464,-11.967844009,17613.000000000,1718095939.078507900
1718095939.079515,,,,-11.936817169,-11.939596176,17614.000000000,1718095939.079514980
1718095939.080522,,,,-11.794377327,-11.796843529,17615.000000000,1718095939.080522060
1718095939.081529,,,,-11.746006966,-11.751190186,17616.000000000,1718095939.081529140
1718095939.082536,,,,-11.759734154,-11.764845848,17617.000000000,1718095939.082536221
1718095939.083543,,,,-11.805940628,-11.813575745,17618.000000000,1718095939.083543301
1718095939.084550,,,,-11.839813232,-11.845645905,17619.000000000,1718095939.084550381
1718095939.085557,,,,-11.912367821,-11.919354439,17620.000000000,1718095939.085557461
1718095939.086565,,,,-12.118636131,-12.122569084,17621.000000000,1718095939.086564541
1718095939.087572,,,,-12.216745377,-12.220918655,17622.000000000,1718095939.087571621
1718095939.088579,,,,-12.231362343,-12.235607147,17623.000000000,1718095939.088578701
1718095939.089586,,,,-12.079738617,-12.084008217,17624.000000000,1718095939.089585781
1718095939.090593,,,,-12.002038956,-12.003760338,17625.000000000,1718095939.090592861
1718095939.090723,107.700592041,3571.000000000,1718095939.090723276,,,,
1718095939.091600,,,,-12.027906418,-12.029339790,17626.000000000,1718095939.091599941
1718095939.092607,,,,-11.889072418,-11.895289421,17627.000000000,1718095939.092607021
1718095939.093614,,,,-11.737424850,-11.741958618,17628.000000000,1718095939.093614101
1718095939.094621,,,,-11.860729218,-11.864181519,17629.000000000,1718095939.094621181
1718095939.095628,,,,-12.115654945,-12.119611740,17630.000000000,1718095939.095628262
1718095939.095723,113.653694153,3572.000000000,1718095939.095723391,,,,
1718095939.096635,,,,-12.197488785,-12.204186440,17631.000000000,1718095939.096635342
1718095939.097642,,,,-12.150465965,-12.157764435,17632.000000000,1718095939.097642422
1718095939.098650,,,,-11.971628189,-11.975873947,17633.000000000,1718095939.098649502
1718095939.099657,,,,-11.834188461,-11.837544441,17634.000000000,1718095939.099656582
1718095939.100664,,,,-11.741583824,-11.748858452,17635.000000000,1718095939.100663662
1718095939.100723,119.623924255,3573.000000000,1718095939.100723267,,,,
1718095939.101671,,,,-11.713624954,-11.718231201,17636.000000000,1718095939.101670742
1718095939.102678,,,,-11.763340950,-11.766216278,17637.000000000,1718095939.102677822
1718095939.103685,,,,-11.497187614,-11.502731323,17638.000000000,1718095939.103684902
1718095939.104692,,,,-11.550869942,-11.558457375,17639.000000000,1718095939.104691982
1718095939.105699,,,,-11.804209709,-11.811220169,17640.000000000,1718095939.105699062
1718095939.105723,125.544715881,3574.000000000,1718095939.105723381,,,,
1718095939.106706,,,,-11.985812187,-11.992341042,17641.000000000,1718095939.106706142
1718095939.107713,,,,-12.038604736,-12.042898178,17642.000000000,1718095939.107713223
1718095939.108720,,,,-12.163976669,-12.168798447,17643.000000000,1718095939.108720303
1718095939.109727,,,,-12.341371536,-12.347035408,17644.000000000,1718095939.109727383
1718095939.110723,131.416656494,3575.000000000,1718095939.110723257,,,,
1718095939.110734,,,,-12.427869797,-12.432499886,17645.000000000,1718095939.110734463
1718095939.111742,,,,-12.382504463,-12.387063026,17646.000000000,1718095939.111741543
1718095939.112749,,,,-12.501866341,-12.507746696,17647.000000000,1718095939.112748623
1718095939.113756,,,,-12.817710876,-12.823014259,17648.000000000,1718095939.113755703
1718095939.114763,,,,-12.787467957,-12.793395996,17649.000000000,1718095939.114762783
1718095939.115723,137.107803345,3576.000000000,1718095939.115723372,,,,
1718095939.115770,,,,-12.285982132,-12.293545723,17650.000000000,1718095939.115769863
1718095939.116777,,,,-11.887701988,-11.891996384,17651.000000000,1718095939.116776943
1718095939.117784,,,,-11.829500198,-11.833336830,17652.000000000,1718095939.117784023
1718095939.118791,,,,-11.939052582,-11.941832542,17653.000000000,1718095939.118791103
1718095939.119798,,,,-12.044494629,-12.047249794,17654.000000000,1718095939.119798183
1718095939.120723,142.768508911,3577.000000000,1718095939.120723248,,,,
1718095939.120805,,,,-12.228164673,-12.231688499,17655.000000000,1718095939.120805264
1718095939.121812,,,,-12.304973602,-12.309002876,17656.000000000,1718095939.121812344
1718095939.122819,,,,-12.320960999,-12.324100494,17657.000000000,1718095939.122819424
1718095939.123827,,,,-12.291006088,-12.291622162,17658.000000000,1718095939.123826504
1718095939.124834,,,,-12.273721695,-12.276067734,17659.000000000,1718095939.124833584
1718095939.125723,148.399246216,3578.000000000,1718095939.125723362,,,,
1718095939.125841,,,,-12.242685318,-12.246906281,17660.000000000,1718095939.125840664
1718095939.126848,,,,-12.239607811,-12.245271683,17661.000000000,1718095939.126847744
1718095939.127855,,,,-12.198065758,-12.203104973,17662.000000000,1718095939.127854824
1718095939.128862,,,,-12.043797493,-12.047490120,17663.000000000,1718095939.128861904
1718095939.129869,,,,-11.920758247,-11.923584938,17664.000000000,1718095939.129868984
1718095939.130723,153.901809692,3579.000000000,1718095939.130723238,,,,
1718095939.130876,,,,-11.831640244,-11.835356712,17665.000000000,1718095939.130876064
1718095939.131883,,,,-11.766899109,-11.771841049,17666.000000000,1718095939.131883144
1718095939.132890,,,,-11.811349869,-11.817783356,17667.000000000,1718095939.132890224
1718095939.133897,,,,-12.066708565,-12.075016975,17668.000000000,1718095939.133897305
1718095939.134904,,,,-12.168712616,-12.174953461,17669.000000000,1718095939.134904385
1718095939.135723,159.425079346,3580.000000000,1718095939.135723352,,,,
1718095939.135911,,,,-12.092335701,-12.099466324,17670.000000000,1718095939.135911465
1718095939.136919,,,,-11.951938629,-11.956617355,17671.000000000,1718095939.136918545
1718095939.137926,,,,-11.939534187,-11.943971634,17672.000000000,1718095939.137925625
1718095939.138933,,,,-11.974416733,-11.976426125,17673.000000000,1718095939.138932705
1718095939.139940,,,,-11.990523338,-11.996332169,17674.000000000,1718095939.139939785
1718095939.140947,,,,-12.088705063,-12.094417572,17675.000000000,1718095939.140946865
1718095939.141954,,,,-12.268816948,-12.270634651,17676.000000000,1718095939.141953945
1718095939.142961,,,,-12.401280403,-12.404396057,17677.000000000,1718095939.142961025
1718095939.143968,,,,-12.467344284,-12.468512535,17678.000000000,1718095939.143968105
1718095939.144975,,,,-12.499318123,-12.501351357,17679.000000000,1718095939.144975185
1718095939.145982,,,,-12.441187859,-12.447092056,17680.000000000,1718095939.145982265
1718095939.146989,,,,-12.491384506,-12.499092102,17681.000000000,1718095939.146989346
1718095939.147996,,,,-12.447918892,-12.454256058,17682.000000000,1718095939.147996426
1718095939.150011,,,,-12.446332932,-12.452333450,17684.000000000,1718095939.150010586
1718095939.151018,,,,-12.546701431,-12.554241180,17685.000000000,1718095939.151017666
1718095939.152025,,,,-12.349256516,-12.354896545,17686.000000000,1718095939.152024746
1718095939.153032,,,,-12.217105865,-12.221424103,17687.000000000,1718095939.153031826
1718095939.154039,,,,-12.259634018,-12.260296822,17688.000000000,1718095939.154038906
1718095939.155046,,,,-12.124597549,-12.126920700,17689.000000000,1718095939.155045986
1718095939.156053,,,,-11.878302574,-11.885793686,17690.000000000,1718095939.156053066
1718095939.157060,,,,-12.054159164,-12.060496330,17691.000000000,1718095939.157060146
1718095939.158067,,,,-12.298939705,-12.301863670,17692.000000000,1718095939.158067226
1718095939.159074,,,,-12.298338890,-12.299603462,17693.000000000,1718095939.159074306
1718095939.160081,,,,-11.997712135,-12.000851631,17694.000000000,1718095939.160081387
1718095939.160120,180.849822998,3584.000000000,1718095939.160120487,,,,
1718095939.161088,,,,-11.631958961,-11.636613846,17695.000000000,1718095939.161088467
1718095939.162096,,,,-11.475406647,-11.477945328,17696.000000000,1718095939.162095547
1718095939.163103,,,,-11.608807564,-11.610841751,17697.000000000,1718095939.163102627
1718095939.164110,,,,-11.769735336,-11.773764610,17698.000000000,1718095939.164109707
1718095939.165117,,,,-11.924748421,-11.926902771,17699.000000000,1718095939.165116787
1718095939.165120,186.042572021,3585.000000000,1718095939.165120363,,,,
1718095939.166124,,,,-11.924291611,-11.926542282,17700.000000000,1718095939.166123867
1718095939.167131,,,,-11.638714790,-11.641180992,17701.000000000,1718095939.167130947
1718095939.168138,,,,-11.308229446,-11.310623169,17702.000000000,1718095939.168138027
1718095939.169145,,,,-11.269186974,-11.274033546,17703.000000000,1718095939.169145107
1718095939.170120,191.064208984,3586.000000000,1718095939.170120478,,,,
1718095939.170152,,,,-11.514737129,-11.521314621,17704.000000000,1718095939.170152187
1718095939.171159,,,,-11.810676575,-11.816941261,17705.000000000,1718095939.171159267
1718095939.172166,,,,-11.917609215,-11.919642448,17706.000000000,1718095939.172166348
1718095939.173173,,,,-12.134815216,-12.138531685,17707.000000000,1718095939.173173428
1718095939.174181,,,,-12.420560837,-12.423508644,17708.000000000,1718095939.174180508
1718095939.175120,195.915893555,3587.000000000,1718095939.175120354,,,,
1718095939.175188,,,,-12.465373039,-12.469882965,17709.000000000,1718095939.175187588
1718095939.176195,,,,-12.354112625,-12.357757568,17710.000000000,1718095939.176194668
1718095939.177202,,,,-12.320096016,-12.324004173,17711.000000000,1718095939.177201748
1718095939.178209,,,,-12.297281265,-12.302536011,17712.000000000,1718095939.178208828
1718095939.179216,,,,-12.192969322,-12.197839737,17713.000000000,1718095939.179215908
1718095939.180120,200.712005615,3588.000000000,1718095939.180120468,,,,
1718095939.180223,,,,-12.069304466,-12.072228432,17714.000000000,1718095939.180222988
1718095939.181230,,,,-12.053582191,-12.057707787,17715.000000000,1718095939.181230068
1718095939.182237,,,,-12.075098038,-12.079512596,17716.000000000,1718095939.182237148
1718095939.183244,,,,-12.142940521,-12.145815849,17717.000000000,1718095939.183244228
1718095939.184251,,,,-12.038797379,-12.042561531,17718.000000000,1718095939.184251308
1718095939.185120,205.129745483,3589.000000000,1718095939.185120344,,,,
1718095939.185258,,,,-11.891957283,-11.896683693,17719.000000000,1718095939.185258389
1718095939.186265,,,,-11.778919220,-11.781842232,17720.000000000,1718095939.186265469
1718095939.187273,,,,-11.657562256,-11.659788132,17721.000000000,1718095939.187272549
1718095939.188280,,,,-11.510410309,-11.513573647,17722.000000000,1718095939.188279629
1718095939.189287,,,,-11.694272041,-11.699431419,17723.000000000,1718095939.189286709
1718095939.190120,209.477661133,3590.000000000,1718095939.190120459,,,,
1718095939.190294,,,,-12.148469925,-12.150360107,17724.000000000,1718095939.190293789
1718095939.191301,,,,-12.466334343,-12.468247414,17725.000000000,1718095939.191300869
1718095939.192308,,,,-12.881442070,-12.888284683,17726.000000000,1718095939.192307949
1718095939.193315,,,,-13.165721893,-13.174150467,17727.000000000,1718095939.193315029
1718095939.194322,,,,-13.009482384,-13.014689445,17728.000000000,1718095939.194322109
1718095939.195120,213.611007690,3591.000000000,1718095939.195120335,,,,
1718095939.195329,,,,-12.765326500,-12.769403458,17729.000000000,1718095939.195329189
1718095939.196336,,,,-12.700392723,-12.705215454,17730.000000000,1718095939.196336269
1718095939.197343,,,,-12.751118660,-12.757479668,17731.000000000,1718095939.197343349
1718095939.198350,,,,-12.759052277,-12.763345718,17732.000000000,1718095939.198350430
1718095939.199358,,,,-12.733520508,-12.738175392,17733.000000000,1718095939.199357510
1718095939.200120,217.627441406,3592.000000000,1718095939.200120449,,,,
1718095939.200365,,,,-12.655485153,-12.661725998,17734.000000000,1718095939.200364590
1718095939.201372,,,,-12.285356522,-12.289434433,17735.000000000,1718095939.201371670
1718095939.202379,,,,-11.894024849,-11.899808884,17736.000000000,1718095939.202378750
1718095939.203386,,,,-11.626165390,-11.630915642,17737.000000000,1718095939.203385830
1718095939.204393,,,,-11.452664375,-11.457896233,17738.000000000,1718095939.204392910
1718095939.205120,221.543624878,3593.000000000,1718095939.205120325,,,,
1718095939.205400,,,,-11.489398956,-11.492274284,17739.000000000,1718095939.205399990
1718095939.206407,,,,-11.250844002,-11.254801750,17740.000000000,1718095939.206407070
1718095939.207414,,,,-11.212451935,-11.216649055,17741.000000000,1718095939.207414150
1718095939.208421,,,,-11.265148163,-11.269947052,17742.000000000,1718095939.208421230
1718095939.209428,,,,-11.471656799,-11.476984024,17743.000000000,1718095939.209428310
1718095939.210120,225.247360229,3594.000000000,1718095939.210120440,,,,
1718095939.210435,,,,-11.569021225,-11.573338509,17744.000000000,1718095939.210435390
1718095939.211442,,,,-11.551158905,-11.553337097,17745.000000000,1718095939.211442471
1718095939.212450,,,,-11.813945770,-11.818119049,17746.000000000,1718095939.212449551
1718095939.213457,,,,-11.988672256,-11.992894173,17747.000000000,1718095939.213456631
1718095939.214464,,,,-11.992158890,-11.997798920,17748.000000000,1718095939.214463711
1718095939.215120,228.996627808,3595.000000000,1718095939.215120316,,,,
1718095939.215471,,,,-11.902511597,-11.908896446,17749.000000000,1718095939.215470791
1718095939.216478,,,,-11.820316315,-11.826316833,17750.000000000,1718095939.216477871
1718095939.217485,,,,-11.898977280,-11.901324272,17751.000000000,1718095939.217484951
1718095939.218492,,,,-11.911719322,-11.914449692,17752.000000000,1718095939.218492031
1718095939.219499,,,,-12.098826408,-12.104586601,17753.000000000,1718095939.219499111
1718095939.220120,232.679077148,3596.000000000,1718095939.220120430,,,,
1718095939.220506,,,,-12.512780190,-12.519574165,17754.000000000,1718095939.220506191
1718095939.221513,,,,-12.679237366,-12.686271667,17755.000000000,1718095939.221513271
1718095939.222520,,,,-12.532686234,-12.538806915,17756.000000000,1718095939.222520351
1718095939.223527,,,,-12.543576241,-12.550153732,17757.000000000,1718095939.223527431
1718095939.224535,,,,-12.472848892,-12.478128433,17758.000000000,1718095939.224534512
1718095939.225120,236.423553467,3597.000000000,1718095939.225120306,,,,
1718095939.225542,,,,-12.342789650,-12.346362114,17759.000000000,1718095939.225541592
1718095939.226549,,,,-12.584300995,-12.587296486,17760.000000000,1718095939.226548672
1718095939.227556,,,,-12.857065201,-12.860468864,17761.000000000,1718095939.227555752
1718095939.228563,,,,-12.800834656,-12.802867889,17762.000000000,1718095939.228562832
1718095939.229570,,,,-12.456236839,-12.460963249,17763.000000000,1718095939.229569912
1718095939.230120,240.085617065,3598.000000000,1718095939.230120420,,,,
1718095939.230577,,,,-12.386326790,-12.393265724,17764.000000000,1718095939.230576992
1718095939.231584,,,,-12.781481743,-12.783130646,17765.000000000,1718095939.231584072
1718095939.232591,,,,-12.885264397,-12.888765335,17766.000000000,1718095939.232591152
1718095939.233598,,,,-12.553601265,-12.557558060,17767.000000000,1718095939.233598232
1718095939.234605,,,,-12.392601967,-12.398121834,17768.000000000,1718095939.234605312
1718095939.235120,243.810089111,3599.000000000,1718095939.235120296,,,,
1718095939.235612,,,,-12.237035751,-12.243396759,17769.000000000,1718095939.235612392
1718095939.236619,,,,-12.167870522,-12.174063683,17770.000000000,1718095939.236619473
1718095939.237627,,,,-12.095941544,-12.103023529,17771.000000000,1718095939.237626553
1718095939.238634,,,,-11.902174950,-11.905698776,17772.000000000,1718095939.238633633
1718095939.239641,,,,-11.338352203,-11.343799591,17773.000000000,1718095939.239640713
1718095939.240120,247.356399536,3600.000000000,1718095939.240120411,,,,
1718095939.240648,,,,-10.959112167,-10.963405609,17774.000000000,1718095939.240647793
1718095939.241655,,,,-10.943677902,-10.949534416,17775.000000000,1718095939.241654873
1718095939.242662,,,,-11.587411880,-11.593581200,17776.000000000,1718095939.242661953
1718095939.243669,,,,-12.524368286,-12.527604103,17777.000000000,1718095939.243669033
1718095939.244676,,,,-13.093503952,-13.096403122,17778.000000000,1718095939.244676113
1718095939.245683,,,,-13.084416389,-13.086546898,17779.000000000,1718095939.245683193
1718095939.246690,,,,-12.436018944,-12.438197136,17780.000000000,1718095939.246690273
1718095939.247697,,,,-11.753003120,-11.753330231,17781.000000000,1718095939.247697353
1718095939.248704,,,,-11.636094093,-11.638272285,17782.000000000,1718095939.248704433
1718095939.249712,,,,-11.806060791,-11.808671951,17783.000000000,1718095939.249711514
1718095939.250719,,,,-12.006823540,-12.011284828,17784.000000000,1718095939.250718594
1718095939.251726,,,,-11.945207596,-11.950991631,17785.000000000,1718095939.251725674
1718095939.252733,,,,-11.854286194,-11.861224174,17786.000000000,1718095939.252732754
1718095939.253740,,,,-11.941842079,-11.947842598,17787.000000000,1718095939.253739834
1718095939.254747,,,,-12.077405930,-12.081435204,17788.000000000,1718095939.254746914
1718095939.255754,,,,-11.970618248,-11.972892761,17789.000000000,1718095939.255753994
1718095939.256761,,,,-11.853179932,-11.857738495,17790.000000000,1718095939.256761074
1718095939.257768,,,,-11.989465714,-11.992004395,17791.000000000,1718095939.257768154
1718095939.258775,,,,-12.158302307,-12.163390160,17792.000000000,1718095939.258775234
1718095939.259782,,,,-12.137723923,-12.141945839,17793.000000000,1718095939.259782314
1718095939.260789,,,,-11.819643974,-11.824321747,17794.000000000,1718095939.260789394
1718095939.267839,,,,-11.869287491,-11.873196602,17801.000000000,1718095939.267838955
1718095939.268846,,,,-12.131497383,-12.136680603,17802.000000000,1718095939.268846035
1718095939.269853,,,,-12.319157600,-12.323812485,17803.000000000,1718095939.269853115
1718095939.270860,,,,-12.431499481,-12.437788963,17804.000000000,1718095939.270860195
1718095939.271867,,,,-13.332707405,-13.340631485,17805.000000000,1718095939.271867275
1718095939.272874,,,,-13.608908653,-13.613851547,17806.000000000,1718095939.272874355
1718095939.273881,,,,-13.619559288,-13.620823860,17807.000000000,1718095939.273881435
1718095939.274889,,,,-13.717932701,-13.718163490,17808.000000000,1718095939.274888515
1718095939.275896,,,,-13.759090424,-13.762446404,17809.000000000,1718095939.275895596
1718095939.276903,,,,-13.492889404,-13.497543335,17810.000000000,1718095939.276902676
1718095939.277910,,,,-12.735300064,-12.740627289,17811.000000000,1718095939.277909756
1718095939.278917,,,,-12.164240837,-12.170649529,17812.000000000,1718095939.278916836
1718095939.279924,,,,-11.630180359,-11.635435104,17813.000000000,1718095939.279923916
1718095939.280931,,,,-11.108837128,-11.114597321,17814.000000000,1718095939.280930996
1718095939.281938,,,,-11.066261292,-11.070170403,17815.000000000,1718095939.281938076
1718095939.282945,,,,-11.229832649,-11.233357430,17816.000000000,1718095939.282945156
1718095939.283952,,,,-11.280582428,-11.283842087,17817.000000000,1718095939.283952236
1718095939.284959,,,,-11.501346588,-11.507756233,17818.000000000,1718095939.284959316
1718095939.285966,,,,-11.929700851,-11.936303139,17819.000000000,1718095939.285966396
1718095939.286973,,,,-12.017761230,-12.023617744,17820.000000000,1718095939.286973476
1718095939.287981,,,,-11.814186096,-11.818480492,17821.000000000,1718095939.287980556
1718095939.288988,,,,-12.013722420,-12.017487526,17822.000000000,1718095939.288987637
1718095939.289995,,,,-12.117457390,-12.122232437,17823.000000000,1718095939.289994717
1718095939.291002,,,,-11.852411270,-11.859565735,17824.000000000,1718095939.291001797
1718095939.292009,,,,-11.889000893,-11.894761086,17825.000000000,1718095939.292008877
1718095939.293016,,,,-12.126905441,-12.132040977,17826.000000000,1718095939.293015957
1718095939.294023,,,,-12.341322899,-12.344655037,17827.000000000,1718095939.294023037
1718095939.295030,,,,-12.373177528,-12.376413345,17828.000000000,1718095939.295030117
1718095939.296037,,,,-12.705489159,-12.712572098,17829.000000000,1718095939.296037197
1718095939.297044,,,,-12.824057579,-12.828423500,17830.000000000,1718095939.297044277
1718095939.298051,,,,-12.226986885,-12.228635788,17831.000000000,1718095939.298051357
1718095939.299058,,,,-11.411988258,-11.417484283,17832.000000000,1718095939.299058437
1718095939.299740,284.737121582,3611.000000000,1718095939.299740314,,,,
1718095939.300066,,,,-11.226563454,-11.230880737,17833.000000000,1718095939.300065517
1718095939.301073,,,,-11.417925835,-11.420536995,17834.000000000,1718095939.301072598
1718095939.302080,,,,-11.643594742,-11.644906998,17835.000000000,1718095939.302079678
1718095939.303087,,,,-11.749517441,-11.753017426,17836.000000000,1718095939.303086758
1718095939.304094,,,,-11.810989380,-11.814753532,17837.000000000,1718095939.304093838
1718095939.304740,287.751831055,3612.000000000,1718095939.304740429,,,,
1718095939.305101,,,,-11.759613991,-11.763426781,17838.000000000,1718095939.305100918
1718095939.306108,,,,-11.790939331,-11.797997475,17839.000000000,1718095939.306107998
1718095939.307115,,,,-11.968141556,-11.973397255,17840.000000000,1718095939.307115078
1718095939.308122,,,,-12.235112190,-12.239093781,17841.000000000,1718095939.308122158
1718095939.309129,,,,-12.284828186,-12.288496971,17842.000000000,1718095939.309129238
1718095939.309740,290.751220703,3613.000000000,1718095939.309740305,,,,
1718095939.310136,,,,-12.312763214,-12.314893723,17843.000000000,1718095939.310136318
1718095939.311143,,,,-12.393155098,-12.396246910,17844.000000000,1718095939.311143398
1718095939.312150,,,,-12.296560287,-12.303089142,17845.000000000,1718095939.312150478
1718095939.313158,,,,-12.238406181,-12.243060112,17846.000000000,1718095939.313157558
1718095939.314165,,,,-12.451068878,-12.454953194,17847.000000000,1718095939.314164639
1718095939.314740,293.591125488,3614.000000000,1718095939.314740419,,,,
1718095939.315172,,,,-12.801772118,-12.806329727,17848.000000000,1718095939.315171719
1718095939.316179,,,,-12.841318130,-12.846862793,17849.000000000,1718095939.316178799
1718095939.317186,,,,-12.752993584,-12.757599831,17850.000000000,1718095939.317185879
1718095939.318193,,,,-12.805907249,-12.811041832,17851.000000000,1718095939.318192959
1718095939.319200,,,,-12.521699905,-12.527098656,17852.000000000,1718095939.319200039
1718095939.319740,296.415985107,3615.000000000,1718095939.319740295,,,,
1718095939.320207,,,,-12.240088463,-12.245584488,17853.000000000,1718095939.320207119
1718095939.321214,,,,-11.979560852,-11.983518600,17854.000000000,1718095939.321214199
1718095939.322221,,,,-11.728553772,-11.733160019,17855.000000000,1718095939.322221279
1718095939.323228,,,,-11.715066910,-11.719288826,17856.000000000,1718095939.323228359
1718095939.324235,,,,-11.704176903,-11.709023476,17857.000000000,1718095939.324235439
1718095939.324740,298.968933105,3616.000000000,1718095939.324740410,,,,
1718095939.325243,,,,-11.726174355,-11.730660439,17858.000000000,1718095939.325242519
1718095939.326250,,,,-11.937370300,-11.941303253,17859.000000000,1718095939.326249599
1718095939.327257,,,,-12.111447334,-12.111823082,17860.000000000,1718095939.327256680
1718095939.328264,,,,-12.041609764,-12.045182228,17861.000000000,1718095939.328263760
1718095939.329271,,,,-11.917320251,-11.922551155,17862.000000000,1718095939.329270840
1718095939.329740,301.490722656,3617.000000000,1718095939.329740286,,,,
1718095939.330278,,,,-12.307065964,-12.313980103,17863.000000000,1718095939.330277920
1718095939.331285,,,,-12.595768929,-12.603138924,17864.000000000,1718095939.331285000
1718095939.332292,,,,-12.731068611,-12.736925125,17865.000000000,1718095939.332292080
1718095939.333299,,,,-12.744411469,-12.747238159,17866.000000000,1718095939.333299160
1718095939.334306,,,,-12.637983322,-12.642373085,17867.000000000,1718095939.334306240
1718095939.334740,303.965362549,3618.000000000,1718095939.334740400,,,,
1718095939.335313,,,,-12.377888680,-12.382350922,17868.000000000,1718095939.335313320
1718095939.336320,,,,-12.110269547,-12.116967201,17869.000000000,1718095939.336320400
1718095939.337327,,,,-12.234799385,-12.237867355,17870.000000000,1718095939.337327480
1718095939.338335,,,,-12.395318031,-12.396919250,17871.000000000,1718095939.338334560
1718095939.339342,,,,-12.111663818,-12.114779472,17872.000000000,1718095939.339341640
1718095939.339740,306.296386719,3619.000000000,1718095939.339740276,,,,
1718095939.340349,,,,-11.696628571,-11.699912071,17873.000000000,1718095939.340348721
1718095939.341356,,,,-11.825942039,-11.830500603,17874.000000000,1718095939.341355801
1718095939.342363,,,,-12.288386345,-12.291814804,17875.000000000,1718095939.342362881
1718095939.343370,,,,-12.535161972,-12.538974762,17876.000000000,1718095939.343369961
1718095939.344377,,,,-12.459074020,-12.464353561,17877.000000000,1718095939.344377041
1718095939.344740,308.580139160,3620.000000000,1718095939.344740391,,,,
1718095939.345384,,,,-12.066299438,-12.069367409,17878.000000000,1718095939.345384121
1718095939.346391,,,,-12.030070305,-12.034869194,17879.000000000,1718095939.346391201
1718095939.347398,,,,-12.354858398,-12.359656334,17880.000000000,1718095939.347398281
1718095939.348405,,,,-12.361132622,-12.364584923,17881.000000000,1718095939.348405361
1718095939.349412,,,,-12.363849640,-12.368552208,17882.000000000,1718095939.349412441
1718095939.350420,,,,-12.469699860,-12.476613998,17883.000000000,1718095939.350419521
1718095939.351427,,,,-12.482320786,-12.485869408,17884.000000000,1718095939.351426601
1718095939.352434,,,,-12.536941528,-12.541619301,17885.000000000,1718095939.352433681
1718095939.353441,,,,-12.542518616,-12.548375130,17886.000000000,1718095939.353440762
1718095939.354448,,,,-12.284058571,-12.289506912,17887.000000000,1718095939.354447842
1718095939.355455,,,,-11.862604141,-11.867594719,17888.000000000,1718095939.355454922
1718095939.356462,,,,-11.452929497,-11.455468178,17889.000000000,1718095939.356462002
1718095939.357469,,,,-11.632608414,-11.637959480,17890.000000000,1718095939.357469082
1718095939.358476,,,,-12.472897530,-12.477311134,17891.000000000,1718095939.358476162
1718095939.359483,,,,-12.888774872,-12.892948151,17892.000000000,1718095939.359483242
1718095939.360490,,,,-12.918224335,-12.922710419,17893.000000000,1718095939.360490322
1718095939.361497,,,,-12.822326660,-12.824504852,17894.000000000,1718095939.361497402
1718095939.362504,,,,-12.535282135,-12.541739464,17895.000000000,1718095939.362504482
1718095939.363512,,,,-12.268312454,-12.272870064,17896.000000000,1718095939.363511562
1718095939.364519,,,,-12.154936790,-12.159783363,17897.000000000,1718095939.364518642
1718095939.365526,,,,-12.310382843,-12.315614700,17898.000000000,1718095939.365525723
1718095939.366533,,,,-12.245113373,-12.248229027,17899.000000000,1718095939.366532803
1718095939.367540,,,,-11.695738792,-11.697580338,17900.000000000,1718095939.367539883
1718095939.368547,,,,-11.026690483,-11.030743599,17901.000000000,1718095939.368546963
1718095939.369554,,,,-10.614611626,-10.620732307,17902.000000000,1718095939.369554043
1718095939.370561,,,,-11.050346375,-11.056996346,17903.000000000,1718095939.370561123
1718095939.371568,,,,-11.408622742,-11.413469315,17904.000000000,1718095939.371568203
1718095939.372575,,,,-11.461679459,-11.466190338,17905.000000000,1718095939.372575283
1718095939.373582,,,,-11.596475601,-11.601249695,17906.000000000,1718095939.373582363
1718095939.374589,,,,-11.700691223,-11.705801964,17907.000000000,1718095939.374589443
1718095939.375597,,,,-11.824139595,-11.829226494,17908.000000000,1718095939.375596523
1718095939.376604,,,,-12.211792946,-12.215966225,17909.000000000,1718095939.376603603
1718095939.377611,,,,-12.735684395,-12.742261887,17910.000000000,1718095939.377610683
1718095939.378618,,,,-12.998952866,-13.003222466,17911.000000000,1718095939.378617764
1718095939.379625,,,,-13.021790504,-13.025724411,17912.000000000,1718095939.379624844
1718095939.380632,,,,-12.922623634,-12.928816795,17913.000000000,1718095939.380631924
1718095939.381639,,,,-12.729530334,-12.735627174,17914.000000000,1718095939.381639004
1718095939.382646,,,,-12.374499321,-12.376965523,17915.000000000,1718095939.382646084
1718095939.383653,,,,-12.107721329,-12.111846924,17916.000000000,1718095939.383653164
1718095939.384660,,,,-12.186790466,-12.193584442,17917.000000000,1718095939.384660244
1718095939.385667,,,,-12.512131691,-12.518709183,17918.000000000,1718095939.385667324
1718095939.386674,,,,-12.661904335,-12.668481827,17919.000000000,1718095939.386674404
1718095939.387681,,,,-12.601874352,-12.605591774,17920.000000000,1718095939.387681484
1718095939.388689,,,,-12.445178986,-12.447572708,17921.000000000,1718095939.388688564
1718095939.389696,,,,-12.123203278,-12.128338814,17922.000000000,1718095939.389695644
1718095939.390703,,,,-11.680208206,-11.683684349,17923.000000000,1718095939.390702724
1718095939.391710,,,,-11.634050369,-11.638585091,17924.000000000,1718095939.391709805
1718095939.392717,,,,-11.639195442,-11.642383575,17925.000000000,1718095939.392716885
1718095939.393724,,,,-11.807575226,-11.811941147,17926.000000000,1718095939.393723965
1718095939.394007,330.274261475,3631.000000000,1718095939.394007206,,,,
1718095939.394731,,,,-12.013963699,-12.017896652,17927.000000000,1718095939.394731045
1718095939.395738,,,,-12.090821266,-12.096605301,17928.000000000,1718095939.395738125
1718095939.396745,,,,-12.192248344,-12.195628166,17929.000000000,1718095939.396745205
1718095939.397752,,,,-12.079689980,-12.082372665,17930.000000000,1718095939.397752285
1718095939.398759,,,,-11.712182045,-11.715730667,17931.000000000,1718095939.398759365
1718095939.399007,331.827911377,3632.000000000,1718095939.399007320,,,,
1718095939.399766,,,,-11.465502739,-11.468522072,17932.000000000,1718095939.399766445
1718095939.400774,,,,-11.692397118,-11.695248604,17933.000000000,1718095939.400773525
1718095939.401781,,,,-12.120944023,-12.125117302,17934.000000000,1718095939.401780605
1718095939.402788,,,,-12.537253380,-12.539551735,17935.000000000,1718095939.402787685
1718095939.403795,,,,-12.372335434,-12.374129295,17936.000000000,1718095939.403794765
1718095939.404007,333.366180420,3633.000000000,1718095939.404007196,,,,
1718095939.404802,,,,-12.177991867,-12.181420326,17937.000000000,1718095939.404801846
1718095939.405809,,,,-12.307979584,-12.312537193,17938.000000000,1718095939.405808926
1718095939.406816,,,,-12.537830353,-12.544072151,17939.000000000,1718095939.406816006
1718095939.407823,,,,-12.886538506,-12.892491341,17940.000000000,1718095939.407823086
1718095939.408830,,,,-13.045302391,-13.049283981,17941.000000000,1718095939.408830166
1718095939.409007,334.856597900,3634.000000000,1718095939.409007311,,,,
1718095939.409837,,,,-12.973781586,-12.977835655,17942.000000000,1718095939.409837246
1718095939.410844,,,,-12.492490768,-12.495124817,17943.000000000,1718095939.410844326
1718095939.411851,,,,-11.889024734,-11.893366814,17944.000000000,1718095939.411851406
1718095939.412858,,,,-11.322124481,-11.325360298,17945.000000000,1718095939.412858486
1718095939.413866,,,,-11.102634430,-11.104043007,17946.000000000,1718095939.413865566
1718095939.414007,336.153350830,3635.000000000,1718095939.414007187,,,,
1718095939.414873,,,,-11.483629227,-11.486841202,17947.000000000,1718095939.414872646
1718095939.415880,,,,-12.142099380,-12.148196220,17948.000000000,1718095939.415879726
1718095939.416887,,,,-12.648898125,-12.654465675,17949.000000000,1718095939.416886806
1718095939.417894,,,,-12.601754189,-12.606721878,17950.000000000,1718095939.417893887
1718095939.418901,,,,-12.229895592,-12.231376648,17951.000000000,1718095939.418900967
1718095939.419007,337.304626465,3636.000000000,1718095939.419007301,,,,
1718095939.419908,,,,-12.001630783,-12.003111839,17952.000000000,1718095939.419908047
1718095939.420915,,,,-11.716461182,-11.719841957,17953.000000000,1718095939.420915127
1718095939.421922,,,,-11.853660583,-11.859806061,17954.000000000,1718095939.421922207
1718095939.422929,,,,-12.341155052,-12.346170425,17955.000000000,1718095939.422929287
1718095939.423936,,,,-12.328629494,-12.332370758,17956.000000000,1718095939.423936367
1718095939.424007,338.326660156,3637.000000000,1718095939.424007177,,,,
1718095939.424943,,,,-12.212129593,-12.214235306,17957.000000000,1718095939.424943447
1718095939.425951,,,,-12.420584679,-12.424566269,17958.000000000,1718095939.425950527
1718095939.426958,,,,-12.659547806,-12.664923668,17959.000000000,1718095939.426957607
1718095939.427965,,,,-12.401184082,-12.407834053,17960.000000000,1718095939.427964687
1718095939.428972,,,,-12.095171928,-12.097759247,17961.000000000,1718095939.428971767
1718095939.429007,339.235443115,3638.000000000,1718095939.429007292,,,,
1718095939.429979,,,,-12.180107117,-12.185435295,17962.000000000,1718095939.429978848
1718095939.430986,,,,-12.145417213,-12.149614334,17963.000000000,1718095939.430985928
1718095939.431993,,,,-11.590609550,-11.592979431,17964.000000000,1718095939.431993008
1718095939.433000,,,,-11.080445290,-11.083921432,17965.000000000,1718095939.433000088
1718095939.434007,339.933471680,3639.000000000,1718095939.434007168,-11.180236816,-11.185685158,17966.000000000,1718095939.434007168
1718095939.435014,,,,-11.792044640,-11.797444344,17967.000000000,1718095939.435014248
1718095939.436021,,,,-12.390774727,-12.393073082,17968.000000000,1718095939.436021328
1718095939.437028,,,,-12.694911957,-12.697714806,17969.000000000,1718095939.437028408
1718095939.438035,,,,-12.976642609,-12.981585503,17970.000000000,1718095939.438035488
1718095939.439007,340.517974854,3640.000000000,1718095939.439007282,,,,
1718095939.439043,,,,-13.132905960,-13.138017654,17971.000000000,1718095939.439042568
1718095939.440050,,,,-12.962434769,-12.965983391,17972.000000000,1718095939.440049648
1718095939.441057,,,,-12.916180611,-12.922373772,17973.000000000,1718095939.441056728
1718095939.442064,,,,-12.111712456,-12.112014771,17974.000000000,1718095939.442063808
1718095939.443071,,,,-11.417517662,-11.418205261,17975.000000000,1718095939.443070889
1718095939.444078,,,,-10.994980812,-10.999419212,17976.000000000,1718095939.444077969
1718095939.445085,,,,-11.072151184,-11.077935219,17977.000000000,1718095939.445085049
1718095939.446092,,,,-11.543922424,-11.549538612,17978.000000000,1718095939.446092129
1718095939.447099,,,,-11.624771118,-11.628343582,17979.000000000,1718095939.447099209
1718095939.448106,,,,-11.576545715,-11.582786560,17980.000000000,1718095939.448106289
1718095939.449113,,,,-11.716966629,-11.724794388,17981.000000000,1718095939.449113369
1718095939.450120,,,,-11.809258461,-11.813479424,17982.000000000,1718095939.450120449
1718095939.451128,,,,-11.804762840,-11.810257912,17983.000000000,1718095939.451127529
1718095939.452135,,,,-12.135319710,-12.143027306,17984.000000000,1718095939.452134609
1718095939.453142,,,,-12.506217003,-12.513587952,17985.000000000,1718095939.453141689
1718095939.454149,,,,-12.597043037,-12.600879669,17986.000000000,1718095939.454148769
1718095939.455156,,,,-12.506649971,-12.509645462,17987.000000000,1718095939.455155849
1718095939.456163,,,,-12.523190498,-12.526426315,17988.000000000,1718095939.456162930
1718095939.457170,,,,-12.656422615,-12.662255287,17989.000000000,1718095939.457170010
1718095939.458177,,,,-12.964502335,-12.971343994,17990.000000000,1718095939.458177090
1718095939.459184,,,,-13.414300919,-13.422969818,17991.000000000,1718095939.459184170
1718095939.460191,,,,-13.600759506,-13.606760025,17992.000000000,1718095939.460191250
1718095939.461198,,,,-13.376293182,-13.378302574,17993.000000000,1718095939.461198330
1718095939.462205,,,,-12.739386559,-12.742887497,17994.000000000,1718095939.462205410
1718095939.463212,,,,-11.979993820,-11.983542442,17995.000000000,1718095939.463212490
1718095939.464220,,,,-11.212980270,-11.217538834,17996.000000000,1718095939.464219570
1718095939.465227,,,,-10.720077515,-10.724995613,17997.000000000,1718095939.465226650
1718095939.466234,,,,-10.716856003,-10.722351074,17998.000000000,1718095939.466233730
1718095939.467241,,,,-11.180958748,-11.186382294,17999.000000000,1718095939.467240810
1718095939.468248,,,,-11.536518097,-11.540066719,18000.000000000,1718095939.468247890
1718095939.469255,,,,-11.315537453,-11.319639206,18001.000000000,1718095939.469254971
1718095939.470262,,,,-11.115015030,-11.118900299,18002.000000000,1718095939.470262051
1718095939.471269,,,,-11.410641670,-11.417147636,18003.000000000,1718095939.471269131
1718095939.472276,,,,-11.693166733,-11.699984550,18004.000000000,1718095939.472276211
1718095939.473283,,,,-11.960569382,-11.966762543,18005.000000000,1718095939.473283291
1718095939.474290,,,,-12.470637321,-12.480075836,18006.000000000,1718095939.474290371
1718095939.475297,,,,-13.025348663,-13.029186249,18007.000000000,1718095939.475297451
1718095939.476305,,,,-13.277029037,-13.281298637,18008.000000000,1718095939.476304531
1718095939.477312,,,,-13.125886917,-13.130637169,18009.000000000,1718095939.477311611
1718095939.478319,,,,-12.944548607,-12.951582909,18010.000000000,1718095939.478318691
1718095939.479326,,,,-12.827567101,-12.831019402,18011.000000000,1718095939.479325771
1718095939.480333,,,,-12.399597168,-12.404108047,18012.000000000,1718095939.480332851
1718095939.481340,,,,-12.084835052,-12.092109680,18013.000000000,1718095939.481339931
1718095939.482347,,,,-12.000380516,-12.001765251,18014.000000000,1718095939.482347012
1718095939.483354,,,,-11.981364250,-11.985922813,18015.000000000,1718095939.483354092
1718095939.484361,,,,-11.717591286,-11.721813202,18016.000000000,1718095939.484361172
1718095939.485368,,,,-11.625948906,-11.627790451,18017.000000000,1718095939.485368252
1718095939.486375,,,,-11.958669662,-11.962723732,18018.000000000,1718095939.486375332
1718095939.487382,,,,-11.906718254,-11.910146713,18019.000000000,1718095939.487382412
1718095939.488308,346.891815186,3651.000000000,1718095939.488307714,,,,
1718095939.488389,,,,-11.349819183,-11.351203918,18020.000000000,1718095939.488389492
1718095939.489397,,,,-10.925287247,-10.932610512,18021.000000000,1718095939.489396572
1718095939.490404,,,,-11.227453232,-11.232804298,18022.000000000,1718095939.490403652
1718095939.491411,,,,-11.522117615,-11.525449753,18023.000000000,1718095939.491410732
1718095939.492418,,,,-11.712615013,-11.717870712,18024.000000000,1718095939.492417812
1718095939.493308,347.526855469,3652.000000000,1718095939.493307829,,,,
1718095939.493425,,,,-11.870201111,-11.878052711,18025.000000000,1718095939.493424892
1718095939.494432,,,,-12.124502182,-12.129805565,18026.000000000,1718095939.494431973
1718095939.495439,,,,-12.618294716,-12.620833397,18027.000000000,1718095939.495439053
1718095939.496446,,,,-13.022463799,-13.025387764,18028.000000000,1718095939.496446133
1718095939.497453,,,,-13.168847084,-13.170784950,18029.000000000,1718095939.497453213
1718095939.498308,347.982849121,3653.000000000,1718095939.498307705,,,,
1718095939.498460,,,,-13.063694000,-13.068324089,18030.000000000,1718095939.498460293
1718095939.499467,,,,-13.132521629,-13.137752533,18031.000000000,1718095939.499467373
1718095939.500474,,,,-12.941663742,-12.943649292,18032.000000000,1718095939.500474453
1718095939.501482,,,,-12.461478233,-12.463872910,18033.000000000,1718095939.501481533
1718095939.502489,,,,-12.371782303,-12.374753952,18034.000000000,1718095939.502488613
1718095939.503308,348.536773682,3654.000000000,1718095939.503307819,,,,
1718095939.503496,,,,-12.431162834,-12.432931900,18035.000000000,1718095939.503495693
1718095939.504503,,,,-11.916815758,-11.920916557,18036.000000000,1718095939.504502773
1718095939.505510,,,,-11.569333076,-11.571847916,18037.000000000,1718095939.505509853
1718095939.506517,,,,-11.541543007,-11.543456078,18038.000000000,1718095939.506516933
1718095939.507524,,,,-11.613568306,-11.619328499,18039.000000000,1718095939.507524014
1718095939.508308,348.992980957,3655.000000000,1718095939.508307695,,,,
1718095939.508531,,,,-11.554620743,-11.558601379,18040.000000000,1718095939.508531094
1718095939.509538,,,,-11.504520416,-11.507539749,18041.000000000,1718095939.509538174
1718095939.510545,,,,-11.784832954,-11.789919853,18042.000000000,1718095939.510545254
1718095939.511552,,,,-11.956891060,-11.962939262,18043.000000000,1718095939.511552334
1718095939.512559,,,,-11.780770302,-11.784414291,18044.000000000,1718095939.512559414
1718095939.513308,349.433013916,3656.000000000,1718095939.513307810,,,,
1718095939.513566,,,,-11.660134315,-11.663803101,18045.000000000,1718095939.513566494
1718095939.514574,,,,-11.921863556,-11.925460815,18046.000000000,1718095939.514573574
1718095939.515581,,,,-12.295357704,-12.301959038,18047.000000000,1718095939.515580654
1718095939.516588,,,,-12.560573578,-12.565540314,18048.000000000,1718095939.516587734
1718095939.517595,,,,-12.500904083,-12.507386208,18049.000000000,1718095939.517594814
1718095939.518308,349.791656494,3657.000000000,1718095939.518307686,,,,
1718095939.518602,,,,-12.160058022,-12.164182663,18050.000000000,1718095939.518601894
1718095939.519609,,,,-11.706244469,-11.711908340,18051.000000000,1718095939.519608974
1718095939.520616,,,,-11.592075348,-11.596777916,18052.000000000,1718095939.520616055
1718095939.521623,,,,-11.844573975,-11.849155426,18053.000000000,1718095939.521623135
1718095939.522630,,,,-12.193065643,-12.196372986,18054.000000000,1718095939.522630215
1718095939.523308,350.101348877,3658.000000000,1718095939.523307800,,,,
1718095939.523637,,,,-12.307137489,-12.310301781,18055.000000000,1718095939.523637295
1718095939.524644,,,,-12.144864082,-12.146873474,18056.000000000,1718095939.524644375
1718095939.525651,,,,-11.672876358,-11.677963257,18057.000000000,1718095939.525651455
1718095939.526659,,,,-11.406025887,-11.411185265,18058.000000000,1718095939.526658535
1718095939.527666,,,,-11.527118683,-11.532757759,18059.000000000,1718095939.527665615
1718095939.528308,350.443756104,3659.000000000,1718095939.528307676,,,,
1718095939.528673,,,,-11.824596405,-11.829563141,18060.000000000,1718095939.528672695
1718095939.529680,,,,-12.062333107,-12.064558983,18061.000000000,1718095939.529679775
1718095939.530687,,,,-12.045480728,-12.048500061,18062.000000000,1718095939.530686855
1718095939.531694,,,,-12.015718460,-12.017656326,18063.000000000,1718095939.531693935
1718095939.532701,,,,-12.196551323,-12.200387955,18064.000000000,1718095939.532701015
1718095939.533308,350.655761719,3660.000000000,1718095939.533307791,,,,
1718095939.533708,,,,-12.596393585,-12.599605560,18065.000000000,1718095939.533708096
1718095939.534715,,,,-12.782755852,-12.787674904,18066.000000000,1718095939.534715176
1718095939.535722,,,,-13.214115143,-13.223409653,18067.000000000,1718095939.535722256
1718095939.536729,,,,-13.627420425,-13.634815216,18068.000000000,1718095939.536729336
1718095939.537736,,,,-13.515824318,-13.521247864,18069.000000000,1718095939.537736416
1718095939.538743,,,,-13.093840599,-13.098230362,18070.000000000,1718095939.538743496
1718095939.539751,,,,-12.823480606,-12.827389717,18071.000000000,1718095939.539750576
1718095939.540758,,,,-12.616371155,-12.620689392,18072.000000000,1718095939.540757656
1718095939.541765,,,,-12.224102020,-12.228972435,18073.000000000,1718095939.541764736
1718095939.542237,350.916687012,3661.000000000,1718095939.542236805,,,,
1718095939.542772,,,,-11.946096420,-11.950366974,18074.000000000,1718095939.542771816
1718095939.543779,,,,-11.653306961,-11.654043198,18075.000000000,1718095939.543778896
1718095939.544786,,,,-11.237021446,-11.237684250,18076.000000000,1718095939.544785976
1718095939.545793,,,,-10.635190010,-10.639988899,18077.000000000,1718095939.545793056
1718095939.546800,,,,-10.279150009,-10.285367012,18078.000000000,1718095939.546800137
1718095939.547237,351.210327148,3662.000000000,1718095939.547236919,,,,
1718095939.547807,,,,-10.561097145,-10.564693451,18079.000000000,1718095939.547807217
1718095939.548814,,,,-10.797945023,-10.801637650,18080.000000000,1718095939.548814297
1718095939.549821,,,,-11.162856102,-11.162100792,18081.000000000,1718095939.549821377
1718095939.550828,,,,-11.486922264,-11.489533424,18082.000000000,1718095939.550828457
1718095939.551836,,,,-11.796396255,-11.799511909,18083.000000000,1718095939.551835537
1718095939.552237,351.601837158,3663.000000000,1718095939.552236795,,,,
1718095939.552843,,,,-11.936023712,-11.940773964,18084.000000000,1718095939.552842617
1718095939.553850,,,,-12.055048943,-12.060592651,18085.000000000,1718095939.553849697
1718095939.554857,,,,-12.097143173,-12.100667953,18086.000000000,1718095939.554856777
1718095939.555864,,,,-11.918041229,-11.920532227,18087.000000000,1718095939.555863857
1718095939.556871,,,,-11.661793709,-11.665894508,18088.000000000,1718095939.556870937
1718095939.557878,,,,-11.735597610,-11.742584229,18089.000000000,1718095939.557878017
1718095939.558885,,,,-12.187055588,-12.193392754,18090.000000000,1718095939.558885098
1718095939.559892,,,,-12.734890938,-12.739160538,18091.000000000,1718095939.559892178
1718095939.560899,,,,-13.357324600,-13.361954689,18092.000000000,1718095939.560899258
1718095939.561906,,,,-13.897828102,-13.902891159,18093.000000000,1718095939.561906338
1718095939.562913,,,,-13.855757713,-13.861349106,18094.000000000,1718095939.562913418
1718095939.563920,,,,-13.239622116,-13.246632576,18095.000000000,1718095939.563920498
1718095939.564928,,,,-12.925027847,-12.930018425,18096.000000000,1718095939.564927578
1718095939.565935,,,,-12.701498985,-12.706898689,18097.000000000,1718095939.565934658
1718095939.566942,,,,-12.297088623,-12.302200317,18098.000000000,1718095939.566941738
1718095939.567949,,,,-12.013001442,-12.017920494,18099.000000000,1718095939.567948818
1718095939.568956,,,,-11.569789886,-11.574468613,18100.000000000,1718095939.568955898
1718095939.569963,,,,-11.004501343,-11.009179115,18101.000000000,1718095939.569962978
1718095939.570970,,,,-10.494408607,-10.498293877,18102.000000000,1718095939.570970058
1718095939.571977,,,,-10.379302979,-10.384557724,18103.000000000,1718095939.571977139
1718095939.572984,,,,-10.962718010,-10.968237877,18104.000000000,1718095939.572984219
1718095939.573991,,,,-11.496586800,-11.501842499,18105.000000000,1718095939.573991299
1718095939.574998,,,,-11.757138252,-11.764389038,18106.000000000,1718095939.574998379
1718095939.576005,,,,-12.013674736,-12.021526337,18107.000000000,1718095939.576005459
1718095939.577013,,,,-12.233284950,-12.237458229,18108.000000000,1718095939.577012539
1718095939.578020,,,,-12.254008293,-12.260176659,18109.000000000,1718095939.578019619
1718095939.579027,,,,-12.192896843,-12.198128700,18110.000000000,1718095939.579026699
1718095939.580034,,,,-12.256219864,-12.259407997,18111.000000000,1718095939.580033779
1718095939.581041,,,,-12.386759758,-12.391149521,18112.000000000,1718095939.581040859
1718095939.582048,,,,-12.142051697,-12.145719528,18113.000000000,1718095939.582047939
1718095939.583055,,,,-11.560798645,-11.563362122,18114.000000000,1718095939.583055019
1718095939.584062,,,,-11.546951294,-11.550644875,18115.000000000,1718095939.584062099
1718095939.585069,,,,-11.794088364,-11.798430443,18116.000000000,1718095939.585069180
1718095939.586076,,,,-11.885947227,-11.889880180,18117.000000000,1718095939.586076260
1718095939.587083,,,,-12.157485008,-12.163558006,18118.000000000,1718095939.587083340
1718095939.588090,,,,-12.665029526,-12.671943665,18119.000000000,1718095939.588090420
1718095939.589097,,,,-13.002630234,-13.006635666,18120.000000000,1718095939.589097500
1718095939.590105,,,,-13.339246750,-13.344213486,18121.000000000,1718095939.590104580
1718095939.591112,,,,-13.957496643,-13.966070175,18122.000000000,1718095939.591111660
1718095939.592119,,,,-13.818134308,-13.824807167,18123.000000000,1718095939.592118740
1718095939.592237,355.439147949,3671.000000000,1718095939.592236757,,,,
1718095939.593126,,,,-12.938105583,-12.940332413,18124.000000000,1718095939.593125820
1718095939.594133,,,,-11.851497650,-11.856175423,18125.000000000,1718095939.594132900
1718095939.595140,,,,-11.591330528,-11.597908020,18126.000000000,1718095939.595139980
1718095939.596147,,,,-12.031681061,-12.036190987,18127.000000000,1718095939.596147060
1718095939.597154,,,,-11.937514305,-11.942289352,18128.000000000,1718095939.597154140
1718095939.597237,355.717041016,3672.000000000,1718095939.597236872,,,,
1718095939.598161,,,,-11.649291992,-11.654932022,18129.000000000,1718095939.598161221
1718095939.599168,,,,-11.138647079,-11.143613815,18130.000000000,1718095939.599168301
1718095939.600175,,,,-10.747363091,-10.751752853,18131.000000000,1718095939.600175381
1718095939.601182,,,,-10.844078064,-10.849069595,18132.000000000,1718095939.601182461
1718095939.602190,,,,-11.167255402,-11.173423767,18133.000000000,1718095939.602189541
1718095939.602237,356.076660156,3673.000000000,1718095939.602236748,,,,
1718095939.603197,,,,-11.393139839,-11.399212837,18134.000000000,1718095939.603196621
1718095939.604204,,,,-11.663428307,-11.668034554,18135.000000000,1718095939.604203701
1718095939.605211,,,,-11.751801491,-11.756984711,18136.000000000,1718095939.605210781
1718095939.606218,,,,-11.641719818,-11.647744179,18137.000000000,1718095939.606217861
1718095939.607225,,,,-12.618655205,-12.627324104,18138.000000000,1718095939.607224941
1718095939.607237,356.403686523,3674.000000000,1718095939.607236862,,,,
1718095939.608232,,,,-12.901804924,-12.904871941,18139.000000000,1718095939.608232021
1718095939.609239,,,,-12.870528221,-12.875975609,18140.000000000,1718095939.609239101
1718095939.610246,,,,-12.946399689,-12.952880859,18141.000000000,1718095939.610246181
1718095939.611253,,,,-12.507707596,-12.512290001,18142.000000000,1718095939.611253262
1718095939.612237,356.730712891,3675.000000000,1718095939.612236738,,,,
1718095939.612260,,,,-11.872123718,-11.874999046,18143.000000000,1718095939.612260342
1718095939.613267,,,,-11.804858208,-11.810907364,18144.000000000,1718095939.613267422
1718095939.614275,,,,-12.672000885,-12.676486969,18145.000000000,1718095939.614274502
1718095939.615282,,,,-13.478441238,-13.481797218,18146.000000000,1718095939.615281582
1718095939.616289,,,,-13.128843307,-13.130564690,18147.000000000,1718095939.616288662
1718095939.617237,357.286865234,3676.000000000,1718095939.617236853,,,,
1718095939.617296,,,,-12.022713661,-12.024747849,18148.000000000,1718095939.617295742
1718095939.618303,,,,-11.892126083,-11.893895149,18149.000000000,1718095939.618302822
1718095939.619310,,,,-12.189026833,-12.190074921,18150.000000000,1718095939.619309902
1718095939.620317,,,,-11.858733177,-11.861271858,18151.000000000,1718095939.620316982
1718095939.621324,,,,-11.322004318,-11.323052406,18152.000000000,1718095939.621324062
1718095939.622237,357.744903564,3677.000000000,1718095939.622236729,,,,
1718095939.622331,,,,-11.268105507,-11.272928238,18153.000000000,1718095939.622331142
1718095939.623338,,,,-11.399294853,-11.403059959,18154.000000000,1718095939.623338223
1718095939.624345,,,,-11.200960159,-11.203619003,18155.000000000,1718095939.624345303
1718095939.625352,,,,-10.994860649,-10.997543335,18156.000000000,1718095939.625352383
1718095939.626359,,,,-11.230649948,-11.232491493,18157.000000000,1718095939.626359463
1718095939.627237,358.137603760,3678.000000000,1718095939.627236843,,,,
1718095939.627367,,,,-11.446293831,-11.448856354,18158.000000000,1718095939.627366543
1718095939.628374,,,,-11.688429832,-11.691570282,18159.000000000,1718095939.628373623
1718095939.629381,,,,-12.353655815,-12.360738754,18160.000000000,1718095939.629380703
1718095939.630388,,,,-12.975608826,-12.980431557,18161.000000000,1718095939.630387783
1718095939.631395,,,,-12.967747688,-12.971560478,18162.000000000,1718095939.631394863
1718095939.632237,358.595916748,3679.000000000,1718095939.632236719,,,,
1718095939.632402,,,,-12.749772072,-12.754330635,18163.000000000,1718095939.632401943
1718095939.633409,,,,-12.879639626,-12.884654045,18164.000000000,1718095939.633409023
1718095939.634416,,,,-12.969454765,-12.972666740,18165.000000000,1718095939.634416103
1718095939.635423,,,,-12.677722931,-12.682617188,18166.000000000,1718095939.635423183
1718095939.636430,,,,-12.362983704,-12.368816376,18167.000000000,1718095939.636430264
1718095939.637237,358.988769531,3680.000000000,1718095939.637236834,,,,
1718095939.640459,,,,-12.198666573,-12.200484276,18171.000000000,1718095939.640458584
1718095939.641466,,,,-11.531565666,-11.536508560,18172.000000000,1718095939.641465664
1718095939.642473,,,,-11.102634430,-11.104980469,18173.000000000,1718095939.642472744
1718095939.643480,,,,-11.149729729,-11.152317047,18174.000000000,1718095939.643479824
1718095939.644487,,,,-11.222308159,-11.225423813,18175.000000000,1718095939.644486904
1718095939.645494,,,,-11.101961136,-11.105822563,18176.000000000,1718095939.645493984
1718095939.646501,,,,-10.991591454,-10.992952347,18177.000000000,1718095939.646501064
1718095939.647508,,,,-10.973392487,-10.976700783,18178.000000000,1718095939.647508144
1718095939.648515,,,,-11.267504692,-11.273625374,18179.000000000,1718095939.648515224
1718095939.649522,,,,-11.663355827,-11.669428825,18180.000000000,1718095939.649522305
1718095939.650529,,,,-11.964271545,-11.969935417,18181.000000000,1718095939.650529385
1718095939.651536,,,,-12.637742996,-12.643623352,18182.000000000,1718095939.651536465
1718095939.652544,,,,-13.433388710,-13.439534187,18183.000000000,1718095939.652543545
1718095939.653551,,,,-13.465627670,-13.471724510,18184.000000000,1718095939.653550625
1718095939.654558,,,,-13.442740440,-13.451193810,18185.000000000,1718095939.654557705
1718095939.655565,,,,-13.474498749,-13.478984833,18186.000000000,1718095939.655564785
1718095939.656572,,,,-13.325374603,-13.329067230,18187.000000000,1718095939.656571865
1718095939.657579,,,,-12.774004936,-12.778010368,18188.000000000,1718095939.657578945
1718095939.658586,,,,-12.346611977,-12.352372169,18189.000000000,1718095939.658586025
1718095939.659593,,,,-11.965136528,-11.968805313,18190.000000000,1718095939.659593105
1718095939.660600,,,,-11.660303116,-11.662336349,18191.000000000,1718095939.660600185
1718095939.661607,,,,-11.012866974,-11.018050194,18192.000000000,1718095939.661607265
1718095939.662614,,,,-10.765946388,-10.774278641,18193.000000000,1718095939.662614346
1718095939.663621,,,,-11.034382820,-11.039687157,18194.000000000,1718095939.663621426
1718095939.664629,,,,-10.945240974,-10.948596954,18195.000000000,1718095939.664628506
1718095939.665636,,,,-11.030585289,-11.037114143,18196.000000000,1718095939.665635586
1718095939.666643,,,,-11.456823349,-11.463521004,18197.000000000,1718095939.666642666
1718095939.667650,,,,-11.915685654,-11.919258118,18198.000000000,1718095939.667649746
1718095939.668657,,,,-11.976387978,-11.979816437,18199.000000000,1718095939.668656826
1718095939.669664,,,,-11.871691704,-11.877306938,18200.000000000,1718095939.669663906
1718095939.670671,,,,-12.152172089,-12.157331467,18201.000000000,1718095939.670670986
1718095939.671678,,,,-12.755782127,-12.761614799,18202.000000000,1718095939.671678066
1718095939.672685,,,,-13.273856163,-13.279567719,18203.000000000,1718095939.672685146
1718095939.673692,,,,-13.482119560,-13.485667229,18204.000000000,1718095939.673692226
1718095939.674699,,,,-13.457526207,-13.461242676,18205.000000000,1718095939.674699306
1718095939.675706,,,,-12.727222443,-12.727644920,18206.000000000,1718095939.675706387
1718095939.676713,,,,-11.520530701,-11.522517204,18207.000000000,1718095939.676713467
1718095939.677721,,,,-10.811119080,-10.812503815,18208.000000000,1718095939.677720547
1718095939.678728,,,,-11.109341621,-11.113443375,18209.000000000,1718095939.678727627
1718095939.679735,,,,-11.413839340,-11.417628288,18210.000000000,1718095939.679734707
1718095939.680742,,,,-11.603494644,-11.607836723,18211.000000000,1718095939.680741787
1718095939.681749,,,,-11.553610802,-11.557423592,18212.000000000,1718095939.681748867
1718095939.682756,,,,-11.578877449,-11.587282181,18213.000000000,1718095939.682755947
1718095939.683763,,,,-11.524041176,-11.529512405,18214.000000000,1718095939.683763027
1718095939.684770,,,,-11.473772049,-11.478186607,18215.000000000,1718095939.684770107
1718095939.685777,,,,-11.692517281,-11.698590279,18216.000000000,1718095939.685777187
1718095939.686784,,,,-12.197729111,-12.202792168,18217.000000000,1718095939.686784267
1718095939.687791,,,,-12.596033096,-12.601047516,18218.000000000,1718095939.687791348
1718095939.688798,,,,-12.388082504,-12.397376060,18219.000000000,1718095939.688798428
1718095939.689806,,,,-12.088657379,-12.094489098,18220.000000000,1718095939.689805508
1718095939.690813,,,,-11.953092575,-11.956424713,18221.000000000,1718095939.690812588
1718095939.691820,,,,-11.892919540,-11.897669792,18222.000000000,1718095939.691819668
1718095939.692827,,,,-12.147748947,-12.153124809,18223.000000000,1718095939.692826748
1718095939.693834,,,,-12.577449799,-12.581406593,18224.000000000,1718095939.693833828
1718095939.694841,,,,-12.737030983,-12.740699768,18225.000000000,1718095939.694840908
1718095939.695848,,,,-12.521483421,-12.524743080,18226.000000000,1718095939.695847988
1718095939.696855,,,,-12.317979813,-12.321624756,18227.000000000,1718095939.696855068
1718095939.697139,363.545440674,3691.000000000,1718095939.697138548,,,,
1718095939.697862,,,,-12.325023651,-12.331240654,18228.000000000,1718095939.697862148
1718095939.698869,,,,-12.593869209,-12.599100113,18229.000000000,1718095939.698869228
1718095939.699876,,,,-12.593388557,-12.597177505,18230.000000000,1718095939.699876308
1718095939.700883,,,,-12.405992508,-12.409781456,18231.000000000,1718095939.700883389
1718095939.701890,,,,-12.328894615,-12.332947731,18232.000000000,1718095939.701890469
1718095939.702139,363.725921631,3692.000000000,1718095939.702138662,,,,
1718095939.702898,,,,-12.224654198,-12.227962494,18233.000000000,1718095939.702897549
1718095939.703905,,,,-12.179121971,-12.182838440,18234.000000000,1718095939.703904629
1718095939.704912,,,,-12.313676834,-12.318162918,18235.000000000,1718095939.704911709
1718095939.705919,,,,-12.128299713,-12.132353783,18236.000000000,1718095939.705918789
1718095939.706926,,,,-11.751488686,-11.751046181,18237.000000000,1718095939.706925869
1718095939.707139,363.840820313,3693.000000000,1718095939.707138538,,,,
1718095939.707933,,,,-12.034157753,-12.036720276,18238.000000000,1718095939.707932949
1718095939.708940,,,,-12.648297310,-12.653120041,18239.000000000,1718095939.708940029
1718095939.709947,,,,-12.969598770,-12.973460197,18240.000000000,1718095939.709947109
1718095939.710954,,,,-12.889495850,-12.892515182,18241.000000000,1718095939.710954189
1718095939.711961,,,,-12.421330452,-12.425960541,18242.000000000,1718095939.711961269
1718095939.712139,363.890106201,3694.000000000,1718095939.712138653,,,,
1718095939.712968,,,,-12.025286674,-12.031022072,18243.000000000,1718095939.712968349
1718095939.713975,,,,-11.706652641,-11.707629204,18244.000000000,1718095939.713975430
1718095939.714983,,,,-11.307676315,-11.306873322,18245.000000000,1718095939.714982510
1718095939.715990,,,,-11.181655884,-11.183857918,18246.000000000,1718095939.715989590
1718095939.716997,,,,-11.671433449,-11.675511360,18247.000000000,1718095939.716996670
1718095939.717139,364.004943848,3695.000000000,1718095939.717138529,,,,
1718095939.718004,,,,-11.824523926,-11.829466820,18248.000000000,1718095939.718003750
1718095939.719011,,,,-11.695690155,-11.699888229,18249.000000000,1718095939.719010830
1718095939.720018,,,,-11.955160141,-11.959261894,18250.000000000,1718095939.720017910
1718095939.721025,,,,-11.891452789,-11.893798828,18251.000000000,1718095939.721024990
1718095939.722032,,,,-11.547143936,-11.549034119,18252.000000000,1718095939.722032070
1718095939.722139,364.201904297,3696.000000000,1718095939.722138643,,,,
1718095939.723039,,,,-11.780529976,-11.783525467,18253.000000000,1718095939.723039150
1718095939.724046,,,,-11.990571976,-11.995081902,18254.000000000,1718095939.724046230
1718095939.725053,,,,-11.881403923,-11.884350777,18255.000000000,1718095939.725053310
1718095939.726060,,,,-11.775745392,-11.780640602,18256.000000000,1718095939.726060390
1718095939.727067,,,,-11.604191780,-11.612524986,18257.000000000,1718095939.727067471
1718095939.727139,364.415344238,3697.000000000,1718095939.727138519,,,,
1718095939.728075,,,,-11.355011940,-11.362503052,18258.000000000,1718095939.728074551
1718095939.729082,,,,-11.280462265,-11.286149979,18259.000000000,1718095939.729081631
1718095939.730089,,,,-11.487595558,-11.492922783,18260.000000000,1718095939.730088711
1718095939.731096,,,,-11.896405220,-11.901780128,18261.000000000,1718095939.731095791
1718095939.732103,,,,-12.495495796,-12.500293732,18262.000000000,1718095939.732102871
1718095939.732139,364.743713379,3698.000000000,1718095939.732138634,,,,
1718095939.733110,,,,-12.825619698,-12.828807831,18263.000000000,1718095939.733109951
1718095939.734117,,,,-12.796650887,-12.798757553,18264.000000000,1718095939.734117031
1718095939.735124,,,,-12.637382507,-12.642037392,18265.000000000,1718095939.735124111
1718095939.736131,,,,-12.517011642,-12.520319939,18266.000000000,1718095939.736131191
1718095939.737138,,,,-12.277928352,-12.278255463,18267.000000000,1718095939.737138271
1718095939.737139,365.154266357,3699.000000000,1718095939.737138510,,,,
1718095939.738145,,,,-12.090412140,-12.094657898,18268.000000000,1718095939.738145351
1718095939.739152,,,,-11.958669662,-11.964766502,18269.000000000,1718095939.739152431
1718095939.740160,,,,-11.542191505,-11.543047905,18270.000000000,1718095939.740159512
1718095939.741167,,,,-11.020127296,-11.021295547,18271.000000000,1718095939.741166592
1718095939.742139,365.564910889,3700.000000000,1718095939.742138624,,,,
1718095939.742174,,,,-10.929615021,-10.933115005,18272.000000000,1718095939.742173672
1718095939.743181,,,,-11.351117134,-11.355411530,18273.000000000,1718095939.743180752
1718095939.744188,,,,-11.733073235,-11.737968445,18274.000000000,1718095939.744187832
1718095939.745195,,,,-11.956361771,-11.960559845,18275.000000000,1718095939.745194912
1718095939.746202,,,,-12.085363388,-12.088551521,18276.000000000,1718095939.746201992
1718095939.747209,,,,-12.082190514,-12.086676598,18277.000000000,1718095939.747209072
1718095939.748216,,,,-12.076564789,-12.081363678,18278.000000000,1718095939.748216152
1718095939.749223,,,,-12.063775063,-12.070232391,18279.000000000,1718095939.749223232
1718095939.750230,,,,-12.072958946,-12.077059746,18280.000000000,1718095939.750230312
1718095939.751237,,,,-12.454554558,-12.458871841,18281.000000000,1718095939.751237392
1718095939.752244,,,,-12.939620018,-12.943577766,18282.000000000,1718095939.752244473
1718095939.753252,,,,-13.243036270,-13.248050690,18283.000000000,1718095939.753251553
1718095939.754259,,,,-13.323066711,-13.325197220,18284.000000000,1718095939.754258633
1718095939.755266,,,,-13.308835030,-13.311974525,18285.000000000,1718095939.755265713
1718095939.756273,,,,-13.021502495,-13.023897171,18286.000000000,1718095939.756272793
1718095939.757280,,,,-12.235641479,-12.237506866,18287.000000000,1718095939.757279873
1718095939.758287,,,,-11.810700417,-11.813792229,18288.000000000,1718095939.758286953
1718095939.759294,,,,-11.403670311,-11.407242775,18289.000000000,1718095939.759294033
1718095939.760301,,,,-10.767917633,-10.772500038,18290.000000000,1718095939.760301113
1718095939.761308,,,,-10.645479202,-10.650758743,18291.000000000,1718095939.761308193
1718095939.762315,,,,-11.108163834,-11.114091873,18292.000000000,1718095939.762315273
1718095939.763322,,,,-11.531085014,-11.536604881,18293.000000000,1718095939.763322353
1718095939.764329,,,,-11.636046410,-11.643080711,18294.000000000,1718095939.764329433
1718095939.765337,,,,-11.852049828,-11.857786179,18295.000000000,1718095939.765336514
1718095939.766344,,,,-11.883928299,-11.889255524,18296.000000000,1718095939.766343594
1718095939.767351,,,,-12.238333702,-12.244478226,18297.000000000,1718095939.767350674
1718095939.768358,,,,-12.850358009,-12.855372429,18298.000000000,1718095939.768357754
1718095939.769365,,,,-12.842256546,-12.844650269,18299.000000000,1718095939.769364834
1718095939.770372,,,,-12.429359436,-12.432259560,18300.000000000,1718095939.770371914
1718095939.771379,,,,-11.904218674,-11.907069206,18301.000000000,1718095939.771378994
1718095939.772386,,,,-11.647489548,-11.653466225,18302.000000000,1718095939.772386074
1718095939.773393,,,,-11.576232910,-11.580839157,18303.000000000,1718095939.773393154
1718095939.774400,,,,-11.588181496,-11.593821526,18304.000000000,1718095939.774400234
1718095939.775407,,,,-12.094787598,-12.102639198,18305.000000000,1718095939.775407314
1718095939.776414,,,,-12.483643532,-12.491206169,18306.000000000,1718095939.776414394
1718095939.777421,,,,-12.724818230,-12.731539726,18307.000000000,1718095939.777421474
1718095939.778429,,,,-12.961233139,-12.967137337,18308.000000000,1718095939.778428555
1718095939.779436,,,,-13.467935562,-13.473550797,18309.000000000,1718095939.779435635
1718095939.780443,,,,-13.614654541,-13.621665001,18310.000000000,1718095939.780442715
1718095939.781450,,,,-12.979383469,-12.983123779,18311.000000000,1718095939.781449795
1718095939.782457,,,,-12.504270554,-12.507169724,18312.000000000,1718095939.782456875
1718095939.783464,,,,-11.923546791,-11.928369522,18313.000000000,1718095939.783463955
1718095939.784471,,,,-10.575160980,-10.578300476,18314.000000000,1718095939.784471035
1718095939.785478,,,,-9.906256676,-9.911463737,18315.000000000,1718095939.785478115
1718095939.786485,,,,-10.482604980,-10.491850853,18316.000000000,1718095939.786485195
1718095939.787492,,,,-11.147902489,-11.153229713,18317.000000000,1718095939.787492275
1718095939.788499,,,,-11.449779510,-11.452558517,18318.000000000,1718095939.788499355
1718095939.789506,,,,-11.639772415,-11.645147324,18319.000000000,1718095939.789506435
1718095939.790514,,,,-11.626982689,-11.631348610,18320.000000000,1718095939.790513515
1718095939.791521,,,,-11.580921173,-11.586994171,18321.000000000,1718095939.791520596
1718095939.791638,365.794952393,3711.000000000,1718095939.791637659,,,,
1718095939.792528,,,,-11.850151062,-11.855214119,18322.000000000,1718095939.792527676
1718095939.793535,,,,-12.088945389,-12.091676712,18323.000000000,1718095939.793534756
1718095939.794542,,,,-12.009732246,-12.013641357,18324.000000000,1718095939.794541836
1718095939.795549,,,,-11.871282578,-11.875888824,18325.000000000,1718095939.795548916
1718095939.796556,,,,-11.982325554,-11.989841461,18326.000000000,1718095939.796555996
1718095939.796638,365.696319580,3712.000000000,1718095939.796637774,,,,
1718095939.797563,,,,-12.087719917,-12.093456268,18327.000000000,1718095939.797563076
1718095939.798570,,,,-12.190998077,-12.193824768,18328.000000000,1718095939.798570156
1718095939.799577,,,,-12.322138786,-12.324966431,18329.000000000,1718095939.799577236
1718095939.800584,,,,-12.384260178,-12.390668869,18330.000000000,1718095939.800584316
1718095939.801591,,,,-12.364066124,-12.369369507,18331.000000000,1718095939.801591396
1718095939.801638,365.581359863,3713.000000000,1718095939.801637650,,,,
1718095939.802598,,,,-12.245594025,-12.250584602,18332.000000000,1718095939.802598476
1718095939.803606,,,,-12.233814240,-12.238300323,18333.000000000,1718095939.803605556
1718095939.804613,,,,-12.210855484,-12.213297844,18334.000000000,1718095939.804612637
1718095939.805620,,,,-12.375893593,-12.378745079,18335.000000000,1718095939.805619717
1718095939.806627,,,,-12.718711853,-12.726323128,18336.000000000,1718095939.806626797
1718095939.806638,365.384246826,3714.000000000,1718095939.806637764,,,,
1718095939.807634,,,,-13.082613945,-13.089191437,18337.000000000,1718095939.807633877
1718095939.808641,,,,-12.986956596,-12.989975929,18338.000000000,1718095939.808640957
1718095939.809648,,,,-12.264801979,-12.269577026,18339.000000000,1718095939.809648037
1718095939.810655,,,,-11.538898468,-11.542014122,18340.000000000,1718095939.810655117
1718095939.811638,365.236419678,3715.000000000,1718095939.811637640,,,,
1718095939.811662,,,,-11.621140480,-11.625194550,18341.000000000,1718095939.811662197
1718095939.812669,,,,-12.095196724,-12.099514008,18342.000000000,1718095939.812669277
1718095939.813676,,,,-12.243983269,-12.249887466,18343.000000000,1718095939.813676357
1718095939.814683,,,,-12.185179710,-12.188656807,18344.000000000,1718095939.814683437
1718095939.815691,,,,-11.725260735,-11.729145050,18345.000000000,1718095939.815690517
1718095939.816638,365.055725098,3716.000000000,1718095939.816637754,,,,
1718095939.816698,,,,-11.532839775,-11.537734985,18346.000000000,1718095939.816697598
1718095939.817705,,,,-11.654124260,-11.658082008,18347.000000000,1718095939.817704678
1718095939.818712,,,,-11.532191277,-11.536581039,18348.000000000,1718095939.818711758
1718095939.819719,,,,-11.234617233,-11.240184784,18349.000000000,1718095939.819718838
1718095939.820726,,,,-11.211201668,-11.218379974,18350.000000000,1718095939.820725918
1718095939.821638,364.924346924,3717.000000000,1718095939.821637630,,,,
1718095939.821733,,,,-11.435715675,-11.441428185,18351.000000000,1718095939.821732998
1718095939.822740,,,,-11.905372620,-11.913151741,18352.000000000,1718095939.822740078
1718095939.823747,,,,-12.204124451,-12.209643364,18353.000000000,1718095939.823747158
1718095939.824754,,,,-12.405271530,-12.409732819,18354.000000000,1718095939.824754238
1718095939.825761,,,,-12.460155487,-12.465147018,18355.000000000,1718095939.825761318
1718095939.826638,364.809448242,3718.000000000,1718095939.826637745,,,,
1718095939.826768,,,,-12.063895226,-12.068790436,18356.000000000,1718095939.826768398
1718095939.827775,,,,-11.629410744,-11.634329796,18357.000000000,1718095939.827775478
1718095939.828783,,,,-11.692733765,-11.696522713,18358.000000000,1718095939.828782558
1718095939.829790,,,,-12.129358292,-12.130910873,18359.000000000,1718095939.829789639
1718095939.830797,,,,-12.424912453,-12.427643776,18360.000000000,1718095939.830796719
1718095939.831638,364.743713379,3719.000000000,1718095939.831637621,,,,
1718095939.831804,,,,-12.416450500,-12.420454979,18361.000000000,1718095939.831803799
1718095939.832811,,,,-12.201359749,-12.206157684,18362.000000000,1718095939.832810879
1718095939.833818,,,,-11.815629005,-11.819272995,18363.000000000,1718095939.833817959
1718095939.834825,,,,-11.628160477,-11.634930611,18364.000000000,1718095939.834825039
1718095939.835832,,,,-11.767307281,-11.771336555,18365.000000000,1718095939.835832119
1718095939.836638,364.727325439,3720.000000000,1718095939.836637735,,,,
1718095939.836839,,,,-11.749036789,-11.752560616,18366.000000000,1718095939.836839199
1718095939.837846,,,,-12.200926781,-12.205244064,18367.000000000,1718095939.837846279
1718095939.838853,,,,-13.092566490,-13.098230362,18368.000000000,1718095939.838853359
1718095939.839860,,,,-13.571261406,-13.577574730,18369.000000000,1718095939.839860439
1718095939.840868,,,,-13.651172638,-13.655418396,18370.000000000,1718095939.840867519
1718095939.841875,,,,-13.471709251,-13.477205276,18371.000000000,1718095939.841874599
1718095939.842882,,,,-12.725395203,-12.729087830,18372.000000000,1718095939.842881680
1718095939.843889,,,,-11.810363770,-11.816100121,18373.000000000,1718095939.843888760
1718095939.844896,,,,-11.558490753,-11.564636230,18374.000000000,1718095939.844895840
1718095939.845903,,,,-11.773509979,-11.777803421,18375.000000000,1718095939.845902920
1718095939.846910,,,,-11.614769936,-11.620097160,18376.000000000,1718095939.846910000
1718095939.847917,,,,-10.885235786,-10.888471603,18377.000000000,1718095939.847917080
1718095939.848924,,,,-10.553620338,-10.558490753,18378.000000000,1718095939.848924160
1718095939.849931,,,,-10.845857620,-10.852386475,18379.000000000,1718095939.849931240
1718095939.850938,,,,-11.798199654,-11.804848671,18380.000000000,1718095939.850938320
1718095939.851945,,,,-12.329615593,-12.332971573,18381.000000000,1718095939.851945400
1718095939.852952,,,,-12.457054138,-12.463150978,18382.000000000,1718095939.852952480
1718095939.853960,,,,-12.309325218,-12.314316750,18383.000000000,1718095939.853959560
1718095939.854967,,,,-11.581354141,-11.582882881,18384.000000000,1718095939.854966640
1718095939.855974,,,,-10.799074173,-10.800627708,18385.000000000,1718095939.855973721
1718095939.856981,,,,-10.966685295,-10.973286629,18386.000000000,1718095939.856980801
1718095939.857988,,,,-11.986725807,-11.995514870,18387.000000000,1718095939.857987881
1718095939.858995,,,,-12.730755806,-12.736107826,18388.000000000,1718095939.858994961
1718095939.860002,,,,-12.745733261,-12.751036644,18389.000000000,1718095939.860002041
1718095939.861009,,,,-12.700849533,-12.704542160,18390.000000000,1718095939.861009121
1718095939.862016,,,,-12.990633965,-12.995216370,18391.000000000,1718095939.862016201
1718095939.863023,,,,-13.004746437,-13.011997223,18392.000000000,1718095939.863023281
1718095939.864030,,,,-12.864638329,-12.872008324,18393.000000000,1718095939.864030361
1718095939.865037,,,,-12.693541527,-12.696993828,18394.000000000,1718095939.865037441
1718095939.866045,,,,-12.661808014,-12.664659500,18395.000000000,1718095939.866044521
1718095939.867052,,,,-12.010933876,-12.015685081,18396.000000000,1718095939.867051601
1718095939.868059,,,,-10.985364914,-10.988191605,18397.000000000,1718095939.868058681
1718095939.869066,,,,-10.890212059,-10.894914627,18398.000000000,1718095939.869065762
1718095939.870073,,,,-11.236804962,-11.243983269,18399.000000000,1718095939.870072842
1718095939.871080,,,,-11.103908539,-11.109284401,18400.000000000,1718095939.871079922
1718095939.872087,,,,-11.131266594,-11.135608673,18401.000000000,1718095939.872087002
1718095939.873094,,,,-11.622679710,-11.628944397,18402.000000000,1718095939.873094082
1718095939.874101,,,,-11.914074898,-11.919402122,18403.000000000,1718095939.874101162
1718095939.875108,,,,-11.629074097,-11.632550240,18404.000000000,1718095939.875108242
1718095939.876115,,,,-11.118837357,-11.122145653,18405.000000000,1718095939.876115322
1718095939.877122,,,,-11.142950058,-11.148229599,18406.000000000,1718095939.877122402
1718095939.878129,,,,-12.141305923,-12.145984650,18407.000000000,1718095939.878129482
1718095939.879137,,,,-13.129853249,-13.134507179,18408.000000000,1718095939.879136562
1718095939.880144,,,,-13.477287292,-13.480066299,18409.000000000,1718095939.880143642
1718095939.881151,,,,-13.474185944,-13.475714684,18410.000000000,1718095939.881150723
1718095939.882158,,,,-13.077035904,-13.077675819,18411.000000000,1718095939.882157803
1718095939.883165,,,,-12.115270615,-12.116270065,18412.000000000,1718095939.883164883
1718095939.884172,,,,-11.268442154,-11.271557808,18413.000000000,1718095939.884171963
1718095939.885179,,,,-11.374292374,-11.379138947,18414.000000000,1718095939.885179043
1718095939.886186,,,,-11.767836571,-11.774125099,18415.000000000,1718095939.886186123
1718095939.887193,,,,-11.992567062,-11.995923042,18416.000000000,1718095939.887193203
1718095939.888200,,,,-11.816830635,-11.820571899,18417.000000000,1718095939.888200283
1718095939.889207,,,,-11.337173462,-11.340001106,18418.000000000,1718095939.889207363
1718095939.890214,,,,-10.957453728,-10.963767052,18419.000000000,1718095939.890214443
1718095939.891222,,,,-11.097898483,-11.103105545,18420.000000000,1718095939.891221523
1718095939.892229,,,,-11.307339668,-11.312066078,18421.000000000,1718095939.892228603
1718095939.893236,,,,-11.383860588,-11.389356613,18422.000000000,1718095939.893235683
1718095939.894243,,,,-11.558370590,-11.563217163,18423.000000000,1718095939.894242764
1718095939.895250,,,,-11.632679939,-11.636372566,18424.000000000,1718095939.895249844
1718095939.895885,367.011138916,3731.000000000,1718095939.895884991,,,,
1718095939.896257,,,,-11.529521942,-11.531556129,18425.000000000,1718095939.896256924
1718095939.897264,,,,-11.633233070,-11.636108398,18426.000000000,1718095939.897264004
1718095939.898271,,,,-11.980859756,-11.987557411,18427.000000000,1718095939.898271084
1718095939.899278,,,,-12.284058571,-12.290155411,18428.000000000,1718095939.899278164
1718095939.900285,,,,-12.483547211,-12.489716530,18429.000000000,1718095939.900285244
1718095939.900885,367.307067871,3732.000000000,1718095939.900885105,,,,
1718095939.901292,,,,-13.149566650,-13.156624794,18430.000000000,1718095939.901292324
1718095939.902299,,,,-13.624703407,-13.631473541,18431.000000000,1718095939.902299404
1718095939.903306,,,,-13.408290863,-13.413882256,18432.000000000,1718095939.903306484
1718095939.904314,,,,-12.963324547,-12.967570305,18433.000000000,1718095939.904313564
1718095939.905321,,,,-12.392457962,-12.397544861,18434.000000000,1718095939.905320644
1718095939.905885,367.389282227,3733.000000000,1718095939.905884981,,,,
1718095939.906328,,,,-11.879456520,-11.883702278,18435.000000000,1718095939.906327724
1718095939.907335,,,,-11.901621819,-11.906540871,18436.000000000,1718095939.907334805
1718095939.908342,,,,-12.223092079,-12.228011131,18437.000000000,1718095939.908341885
1718095939.909349,,,,-11.912127495,-11.913319588,18438.000000000,1718095939.909348965
1718095939.910356,,,,-11.181632042,-11.183280945,18439.000000000,1718095939.910356045
1718095939.910885,367.339935303,3734.000000000,1718095939.910885096,,,,
1718095939.911363,,,,-10.975171089,-10.979369164,18440.000000000,1718095939.911363125
1718095939.912370,,,,-11.791876793,-11.798381805,18441.000000000,1718095939.912370205
1718095939.913377,,,,-12.422171593,-12.425167084,18442.000000000,1718095939.913377285
1718095939.914384,,,,-12.716187477,-12.720673561,18443.000000000,1718095939.914384365
1718095939.915391,,,,-12.870455742,-12.876696587,18444.000000000,1718095939.915391445
1718095939.915885,367.191925049,3735.000000000,1718095939.915884972,,,,
1718095939.916399,,,,-12.854468346,-12.858762741,18445.000000000,1718095939.916398525
1718095939.917406,,,,-12.878846169,-12.881769180,18446.000000000,1718095939.917405605
1718095939.918413,,,,-12.767610550,-12.771327019,18447.000000000,1718095939.918412685
1718095939.919420,,,,-12.215663910,-12.221399307,18448.000000000,1718095939.919419765
1718095939.920427,,,,-11.753363609,-11.756238937,18449.000000000,1718095939.920426846
1718095939.920885,366.797393799,3736.000000000,1718095939.920885086,,,,
1718095939.921434,,,,-11.238559723,-11.242059708,18450.000000000,1718095939.921433926
1718095939.922441,,,,-10.796958923,-10.803656578,18451.000000000,1718095939.922441006
1718095939.923448,,,,-10.834871292,-10.841880798,18452.000000000,1718095939.923448086
1718095939.924455,,,,-11.224375725,-11.228669167,18453.000000000,1718095939.924455166
1718095939.925462,,,,-11.410593987,-11.415873528,18454.000000000,1718095939.925462246
1718095939.925885,366.485076904,3737.000000000,1718095939.925884962,,,,
1718095939.926469,,,,-11.543032646,-11.547615051,18455.000000000,1718095939.926469326
1718095939.927476,,,,-11.462305069,-11.467608452,18456.000000000,1718095939.927476406
1718095939.928483,,,,-11.410088539,-11.414214134,18457.000000000,1718095939.928483486
1718095939.929491,,,,-11.495600700,-11.495663643,18458.000000000,1718095939.929490566
1718095939.930498,,,,-11.668091774,-11.671833038,18459.000000000,1718095939.930497646
1718095939.930885,366.090698242,3738.000000000,1718095939.930885077,,,,
1718095939.931505,,,,-11.936240196,-11.941471100,18460.000000000,1718095939.931504726
1718095939.932512,,,,-11.852939606,-11.855887413,18461.000000000,1718095939.932511806
1718095939.933519,,,,-11.803055763,-11.803959846,18462.000000000,1718095939.933518887
1718095939.934526,,,,-12.305094719,-12.311310768,18463.000000000,1718095939.934525967
1718095939.935533,,,,-12.814152718,-12.819889069,18464.000000000,1718095939.935533047
1718095939.935885,365.893524170,3739.000000000,1718095939.935884953,,,,
1718095939.936540,,,,-12.957434654,-12.962594032,18465.000000000,1718095939.936540127
1718095939.937547,,,,-13.094537735,-13.100634575,18466.000000000,1718095939.937547207
1718095939.938554,,,,-13.231063843,-13.234949112,18467.000000000,1718095939.938554287
1718095939.939561,,,,-12.702003479,-12.705455780,18468.000000000,1718095939.939561367
1718095939.940568,,,,-12.410247803,-12.415214539,18469.000000000,1718095939.940568447
1718095939.940885,365.745635986,3740.000000000,1718095939.940885067,,,,
1718095939.941576,,,,-12.755397797,-12.761085510,18470.000000000,1718095939.941575527
1718095939.942583,,,,-13.156898499,-13.162971497,18471.000000000,1718095939.942582607
1718095939.943590,,,,-11.820965767,-11.824153900,18472.000000000,1718095939.943589687
1718095939.944597,,,,-11.314479828,-11.319277763,18473.000000000,1718095939.944596767
1718095939.945604,,,,-11.797622681,-11.803046227,18474.000000000,1718095939.945603848
1718095939.946611,,,,-11.795578957,-11.801002502,18475.000000000,1718095939.946610928
1718095939.947618,,,,-11.569045067,-11.572857857,18476.000000000,1718095939.947618008
1718095939.948625,,,,-11.559764862,-11.566078186,18477.000000000,1718095939.948625088
1718095939.949632,,,,-11.261999130,-11.264634132,18478.000000000,1718095939.949632168
1718095939.950639,,,,-11.035898209,-11.040648460,18479.000000000,1718095939.950639248
1718095939.951646,,,,-11.451126099,-11.456333160,18480.000000000,1718095939.951646328
1718095939.952653,,,,-11.860032082,-11.865118980,18481.000000000,1718095939.952653408
1718095939.953660,,,,-11.976027489,-11.980176926,18482.000000000,1718095939.953660488
1718095939.954668,,,,-11.572603226,-11.576969147,18483.000000000,1718095939.954667568
1718095939.955675,,,,-11.001664162,-11.001871109,18484.000000000,1718095939.955674648
1718095939.956682,,,,-11.061861992,-11.065794945,18485.000000000,1718095939.956681728
1718095939.957689,,,,-11.807839394,-11.813648224,18486.000000000,1718095939.957688808
1718095939.958696,,,,-12.391688347,-12.397521019,18487.000000000,1718095939.958695889
1718095939.959703,,,,-12.379908562,-12.385909081,18488.000000000,1718095939.959702969
1718095939.960710,,,,-12.159360886,-12.162813187,18489.000000000,1718095939.960710049
1718095939.961717,,,,-12.322427750,-12.326096535,18490.000000000,1718095939.961717129
1718095939.962724,,,,-12.276004791,-12.279145241,18491.000000000,1718095939.962724209
1718095939.963731,,,,-12.276654243,-12.280972481,18492.000000000,1718095939.963731289
1718095939.964738,,,,-12.639714241,-12.645739555,18493.000000000,1718095939.964738369
1718095939.965745,,,,-12.801748276,-12.806715012,18494.000000000,1718095939.965745449
1718095939.966753,,,,-12.597210884,-12.602994919,18495.000000000,1718095939.966752529
1718095939.967760,,,,-12.262879372,-12.266692162,18496.000000000,1718095939.967759609
1718095939.968767,,,,-11.678717613,-11.681929588,18497.000000000,1718095939.968766689
1718095939.969774,,,,-11.176679611,-11.182824135,18498.000000000,1718095939.969773769
1718095939.970781,,,,-11.024670601,-11.029229164,18499.000000000,1718095939.970780849
1718095939.971788,,,,-11.139969826,-11.143566132,18500.000000000,1718095939.971787930
1718095939.972795,,,,-11.543081284,-11.545763969,18501.000000000,1718095939.972795010
1718095939.973802,,,,-11.643907547,-11.647551537,18502.000000000,1718095939.973802090
1718095939.974809,,,,-11.465743065,-11.469867706,18503.000000000,1718095939.974809170
1718095939.975816,,,,-11.667514801,-11.673995972,18504.000000000,1718095939.975816250
1718095939.976823,,,,-12.061203003,-12.068309784,18505.000000000,1718095939.976823330
1718095939.977830,,,,-12.262759209,-12.271067619,18506.000000000,1718095939.977830410
1718095939.978837,,,,-12.322884560,-12.330279350,18507.000000000,1718095939.978837490
1718095939.979845,,,,-12.516987801,-12.521425247,18508.000000000,1718095939.979844570
1718095939.980852,,,,-12.694839478,-12.701320648,18509.000000000,1718095939.980851650
1718095939.981859,,,,-12.656422615,-12.660884857,18510.000000000,1718095939.981858730
1718095939.982866,,,,-12.369379044,-12.371628761,18511.000000000,1718095939.982865810
1718095939.983873,,,,-12.229198456,-12.232530594,18512.000000000,1718095939.983872890
1718095939.984880,,,,-12.164697647,-12.171587944,18513.000000000,1718095939.984879971
1718095939.985887,,,,-12.019468307,-12.025373459,18514.000000000,1718095939.985887051
1718095939.986894,,,,-11.798752785,-11.801916122,18515.000000000,1718095939.986894131
1718095939.987901,,,,-11.870441437,-11.871465683,18516.000000000,1718095939.987901211
1718095939.988908,,,,-11.814715385,-11.816917419,18517.000000000,1718095939.988908291
1718095939.989915,,,,-11.573107719,-11.576969147,18518.000000000,1718095939.989915371
1718095939.990922,,,,-11.420763016,-11.422652245,18519.000000000,1718095939.990922451
1718095939.991930,,,,-11.452015877,-11.454145432,18520.000000000,1718095939.991929531
1718095939.992937,,,,-11.392539024,-11.396928787,18521.000000000,1718095939.992936611
1718095939.993944,,,,-11.202090263,-11.209196091,18522.000000000,1718095939.993943691
1718095939.994951,,,,-11.462305069,-11.465853691,18523.000000000,1718095939.994950771
1718095939.995958,,,,-12.146595001,-12.148147583,18524.000000000,1718095939.995957851
1718095939.996965,,,,-12.350891113,-12.356410980,18525.000000000,1718095939.996964931
1718095939.997972,,,,-12.182343483,-12.186564445,18526.000000000,1718095939.997972012
1718095939.998979,,,,-12.038893700,-12.043764114,18527.000000000,1718095939.998979092
1718095939.999986,,,,-11.750118256,-11.754796982,18528.000000000,1718095939.999986172
1718095940.000993,,,,-11.530339241,-11.534176826,18529.000000000,1718095940.000993252
1718095940.002000,,,,-11.838587761,-11.846752167,18530.000000000,1718095940.002000332
1718095940.003007,,,,-12.480951309,-12.485797882,18531.000000000,1718095940.003007412
1718095940.004014,,,,-12.805907249,-12.810513496,18532.000000000,1718095940.004014492
1718095940.005022,,,,-12.514583588,-12.519382477,18533.000000000,1718095940.005021572
1718095940.006029,,,,-12.769533157,-12.773995399,18534.000000000,1718095940.006028652
1718095940.007036,,,,-13.546668053,-13.550745010,18535.000000000,1718095940.007035732
1718095940.008043,,,,-13.636892319,-13.639863968,18536.000000000,1718095940.008042812
1718095940.009050,,,,-13.112279892,-13.116645813,18537.000000000,1718095940.009049892
1718095940.010057,,,,-12.651278496,-12.656004906,18538.000000000,1718095940.010056973
1718095940.010126,368.260986328,3751.000000000,1718095940.010126352,,,,
1718095940.011064,,,,-12.198570251,-12.201685905,18539.000000000,1718095940.011064053
1718095940.012071,,,,-11.777500153,-11.781578064,18540.000000000,1718095940.012071133
1718095940.013078,,,,-11.796059608,-11.799320221,18541.000000000,1718095940.013078213
1718095940.014085,,,,-11.869551659,-11.873484612,18542.000000000,1718095940.014085293
1718095940.015092,,,,-11.364412308,-11.368176460,18543.000000000,1718095940.015092373
1718095940.015126,368.441986084,3752.000000000,1718095940.015126467,,,,
1718095940.016099,,,,-10.921921730,-10.923306465,18544.000000000,1718095940.016099453
1718095940.017107,,,,-10.915647507,-10.917873383,18545.000000000,1718095940.017106533
1718095940.018114,,,,-11.065684319,-11.068319321,18546.000000000,1718095940.018113613
1718095940.019121,,,,-11.467882156,-11.472657204,18547.000000000,1718095940.019120693
1718095940.020126,368.557128906,3753.000000000,1718095940.020126343,,,,
1718095940.020128,,,,-11.797357559,-11.802420616,18548.000000000,1718095940.020127773
1718095940.021135,,,,-12.061058998,-12.064318657,18549.000000000,1718095940.021134853
1718095940.022142,,,,-12.717341423,-12.722741127,18550.000000000,1718095940.022141933
1718095940.023149,,,,-13.134252548,-13.138858795,18551.000000000,1718095940.023149014
1718095940.024156,,,,-13.043403625,-13.046375275,18552.000000000,1718095940.024156094
1718095940.025126,368.705230713,3754.000000000,1718095940.025126457,,,,
1718095940.025163,,,,-12.567857742,-12.571910858,18553.000000000,1718095940.025163174
1718095940.026170,,,,-12.395006180,-12.400526047,18554.000000000,1718095940.026170254
1718095940.027177,,,,-12.185228348,-12.187166214,18555.000000000,1718095940.027177334
1718095940.028184,,,,-11.512886047,-11.514800072,18556.000000000,1718095940.028184414
1718095940.029191,,,,-11.162038803,-11.168303490,18557.000000000,1718095940.029191494
1718095940.030126,368.721679688,3755.000000000,1718095940.030126333,,,,
1718095940.030199,,,,-11.500889778,-11.507900238,18558.000000000,1718095940.030198574
1718095940.031206,,,,-11.491971016,-11.497322083,18559.000000000,1718095940.031205654
1718095940.032213,,,,-11.316427231,-11.322307587,18560.000000000,1718095940.032212734
1718095940.033220,,,,-11.613976479,-11.619424820,18561.000000000,1718095940.033219814
1718095940.034227,,,,-12.193762779,-12.199090004,18562.000000000,1718095940.034226894
1718095940.035126,368.836883545,3756.000000000,1718095940.035126448,,,,
1718095940.035234,,,,-12.485134125,-12.491447449,18563.000000000,1718095940.035233974
1718095940.036241,,,,-12.347886086,-12.352275848,18564.000000000,1718095940.036241055
1718095940.037248,,,,-12.156090736,-12.159566879,18565.000000000,1718095940.037248135
1718095940.038255,,,,-12.015165329,-12.019458771,18566.000000000,1718095940.038255215
1718095940.039262,,,,-12.013794899,-12.015756607,18567.000000000,1718095940.039262295
1718095940.040126,368.919189453,3757.000000000,1718095940.040126324,,,,
1718095940.040269,,,,-11.879119873,-11.883101463,18568.000000000,1718095940.040269375
1718095940.041276,,,,-11.372417450,-11.378370285,18569.000000000,1718095940.041276455
1718095940.042284,,,,-10.914925575,-10.919460297,18570.000000000,1718095940.042283535
1718095940.043291,,,,-11.234448433,-11.239727974,18571.000000000,1718095940.043290615
1718095940.044298,,,,-11.848107338,-11.853579521,18572.000000000,1718095940.044297695
1718095940.045126,369.001464844,3758.000000000,1718095940.045126438,,,,
1718095940.045305,,,,-12.030791283,-12.033906937,18573.000000000,1718095940.045304775
1718095940.046312,,,,-12.130536079,-12.132930756,18574.000000000,1718095940.046311855
1718095940.047319,,,,-12.008578300,-12.009842873,18575.000000000,1718095940.047318935
1718095940.048326,,,,-11.609072685,-11.611851692,18576.000000000,1718095940.048326015
1718095940.049333,,,,-11.378884315,-11.384860992,18577.000000000,1718095940.049333096
1718095940.050126,369.182525635,3759.000000000,1718095940.050126314,,,,
1718095940.050340,,,,-11.510025024,-11.514511108,18578.000000000,1718095940.050340176
1718095940.051347,,,,-11.699728966,-11.704455376,18579.000000000,1718095940.051347256
1718095940.052354,,,,-11.807045937,-11.811964989,18580.000000000,1718095940.052354336
1718095940.053361,,,,-11.889361382,-11.892092705,18581.000000000,1718095940.053361416
1718095940.054368,,,,-11.944053650,-11.951015472,18582.000000000,1718095940.054368496
1718095940.055126,369.281280518,3760.000000000,1718095940.055126429,,,,
1718095940.055376,,,,-12.076973915,-12.085450172,18583.000000000,1718095940.055375576
1718095940.056383,,,,-12.296800613,-12.302248001,18584.000000000,1718095940.056382656
1718095940.057390,,,,-12.071324348,-12.074993134,18585.000000000,1718095940.057389736
1718095940.058397,,,,-11.606764793,-11.609303474,18586.000000000,1718095940.058396816
1718095940.059404,,,,-11.526421547,-11.529897690,18587.000000000,1718095940.059403896
1718095940.060411,,,,-11.811998367,-11.817758560,18588.000000000,1718095940.060410976
1718095940.061418,,,,-12.088488579,-12.093984604,18589.000000000,1718095940.061418056
1718095940.062425,,,,-12.446164131,-12.452428818,18590.000000000,1718095940.062425137
1718095940.063432,,,,-13.298065186,-13.303945541,18591.000000000,1718095940.063432217
1718095940.064439,,,,-13.706176758,-13.709100723,18592.000000000,1718095940.064439297
1718095940.065446,,,,-13.485388756,-13.485090256,18593.000000000,1718095940.065446377
1718095940.066453,,,,-12.923657417,-12.925354958,18594.000000000,1718095940.066453457
1718095940.067461,,,,-12.676400185,-12.681391716,18595.000000000,1718095940.067460537
1718095940.068468,,,,-12.562255859,-12.566741943,18596.000000000,1718095940.068467617
1718095940.069475,,,,-12.144190788,-12.149253845,18597.000000000,1718095940.069474697
1718095940.070482,,,,-11.386505127,-11.388466835,18598.000000000,1718095940.070481777
1718095940.071489,,,,-10.630790710,-10.631381989,18599.000000000,1718095940.071488857
1718095940.072496,,,,-10.427648544,-10.429104805,18600.000000000,1718095940.072495937
1718095940.073503,,,,-10.896655083,-10.901044846,18601.000000000,1718095940.073503017
1718095940.074510,,,,-11.545533180,-11.551269531,18602.000000000,1718095940.074510098
1718095940.075517,,,,-11.943693161,-11.947049141,18603.000000000,1718095940.075517178
1718095940.076524,,,,-11.798247337,-11.799535751,18604.000000000,1718095940.076524258
1718095940.077531,,,,-11.507885933,-11.511314392,18605.000000000,1718095940.077531338
1718095940.078538,,,,-11.502500534,-11.505616188,18606.000000000,1718095940.078538418
1718095940.079545,,,,-11.651576042,-11.656422615,18607.000000000,1718095940.079545498
1718095940.080553,,,,-11.857459068,-11.861657143,18608.000000000,1718095940.080552578
1718095940.081560,,,,-12.239463806,-12.245175362,18609.000000000,1718095940.081559658
1718095940.082567,,,,-12.663538933,-12.667182922,18610.000000000,1718095940.082566738
1718095940.083574,,,,-12.733088493,-12.735265732,18611.000000000,1718095940.083573818
1718095940.084581,,,,-12.649691582,-12.651292801,18612.000000000,1718095940.084580898
1718095940.085588,,,,-12.814705849,-12.818638802,18613.000000000,1718095940.085587978
1718095940.086595,,,,-12.793261528,-12.797651291,18614.000000000,1718095940.086595058
1718095940.087602,,,,-12.540643692,-12.545586586,18615.000000000,1718095940.087602139
1718095940.088609,,,,-12.271942139,-12.277053833,18616.000000000,1718095940.088609219
1718095940.089616,,,,-11.920012474,-11.925244331,18617.000000000,1718095940.089616299
