__time,/gdx/grip_force_stream/grip_force,/gdx/grip_force_stream/header/seq,/gdx/grip_force_stream/header/stamp,/shimmer0/emg_stream/emg_ch1,/shimmer0/emg_stream/emg_ch2,/shimmer0/emg_stream/header/seq,/shimmer0/emg_stream/header/stamp
1718095990.616838,,,,-11.593350410,-11.600865364,68789.000000000,1718095990.616837978
1718095990.617845,,,,-11.589695930,-11.595936775,68790.000000000,1718095990.617845058
1718095990.618852,,,,-11.591907501,-11.594999313,68791.000000000,1718095990.618852139
1718095990.619859,,,,-11.589839935,-11.595576286,68792.000000000,1718095990.619859219
1718095990.620866,,,,-11.593013763,-11.598484993,68793.000000000,1718095990.620866299
1718095990.621873,,,,-11.609697342,-11.613125801,68794.000000000,1718095990.621873379
1718095990.622812,1.111088753,13878.000000000,1718095990.622811794,,,,
1718095990.622880,,,,-11.637392044,-11.642744064,68795.000000000,1718095990.622880459
1718095990.623888,,,,-11.656167984,-11.660870552,68796.000000000,1718095990.623887539
1718095990.624895,,,,-11.670952797,-11.675126076,68797.000000000,1718095990.624894619
1718095990.625902,,,,-11.675375938,-11.680078506,68798.000000000,1718095990.625901699
1718095990.626909,,,,-11.673453331,-11.677914619,68799.000000000,1718095990.626908779
1718095990.627812,1.181764245,13879.000000000,1718095990.627811670,,,,
1718095990.627916,,,,-11.679487228,-11.683083534,68800.000000000,1718095990.627915859
1718095990.628923,,,,-11.677467346,-11.680751801,68801.000000000,1718095990.628922939
1718095990.629930,,,,-11.663259506,-11.667938232,68802.000000000,1718095990.629930019
1718095990.630937,,,,-11.665687561,-11.671712875,68803.000000000,1718095990.630937099
1718095990.631944,,,,-11.697710037,-11.705825806,68804.000000000,1718095990.631944180
1718095990.632812,1.340784073,13880.000000000,1718095990.632811785,,,,
1718095990.632951,,,,-11.719658852,-11.725226402,68805.000000000,1718095990.632951260
1718095990.633958,,,,-11.729660034,-11.733424187,68806.000000000,1718095990.633958340
1718095990.634965,,,,-11.740934372,-11.745997429,68807.000000000,1718095990.634965420
1718095990.635972,,,,-11.760552406,-11.765422821,68808.000000000,1718095990.635972500
1718095990.636980,,,,-11.763195992,-11.767586708,68809.000000000,1718095990.636979580
1718095990.637987,,,,-11.754806519,-11.760350227,68810.000000000,1718095990.637986660
1718095990.638994,,,,-11.735717773,-11.740636826,68811.000000000,1718095990.638993740
1718095990.640001,,,,-11.712206841,-11.713759422,68812.000000000,1718095990.640000820
1718095990.641008,,,,-11.684967995,-11.688059807,68813.000000000,1718095990.641007900
1718095990.642015,,,,-11.672563553,-11.673804283,68814.000000000,1718095990.642014980
1718095990.642661,1.464459777,13881.000000000,1718095990.642661333,,,,
1718095990.643022,,,,-11.669822693,-11.671135902,68815.000000000,1718095990.643022060
1718095990.644029,,,,-11.669269562,-11.672963142,68816.000000000,1718095990.644029140
1718095990.645036,,,,-11.668621063,-11.673323631,68817.000000000,1718095990.645036221
1718095990.646043,,,,-11.681482315,-11.683949471,68818.000000000,1718095990.646043301
1718095990.647050,,,,-11.703239441,-11.705321312,68819.000000000,1718095990.647050381
1718095990.648057,,,,-11.729203224,-11.732511520,68820.000000000,1718095990.648057461
1718095990.649065,,,,-11.757642746,-11.760807037,68821.000000000,1718095990.649064541
1718095990.650072,,,,-11.775048256,-11.777683258,68822.000000000,1718095990.650071621
1718095990.651079,,,,-11.787861824,-11.791434288,68823.000000000,1718095990.651078701
1718095990.652086,,,,-11.792550087,-11.796435356,68824.000000000,1718095990.652085781
1718095990.653093,,,,-11.781491280,-11.785327911,68825.000000000,1718095990.653092861
1718095990.654100,,,,-11.777620316,-11.781217575,68826.000000000,1718095990.654099941
1718095990.655107,,,,-11.782356262,-11.788934708,68827.000000000,1718095990.655107021
1718095990.656114,,,,-11.787284851,-11.792107582,68828.000000000,1718095990.656114101
1718095990.657121,,,,-11.777620316,-11.782202721,68829.000000000,1718095990.657121181
1718095990.658128,,,,-11.744517326,-11.750445366,68830.000000000,1718095990.658128262
1718095990.659135,,,,-11.705258369,-11.709312439,68831.000000000,1718095990.659135342
1718095990.660142,,,,-11.673597336,-11.679694176,68832.000000000,1718095990.660142422
1718095990.661150,,,,-11.644989014,-11.651662827,68833.000000000,1718095990.661149502
1718095990.662157,,,,-11.636767387,-11.643008232,68834.000000000,1718095990.662156582
1718095990.663164,,,,-11.656360626,-11.662048340,68835.000000000,1718095990.663163662
1718095990.664171,,,,-11.684175491,-11.688925743,68836.000000000,1718095990.664170742
1718095990.665178,,,,-11.702518463,-11.708374023,68837.000000000,1718095990.665177822
1718095990.666185,,,,-11.721389771,-11.727991104,68838.000000000,1718095990.666184902
1718095990.667192,,,,-11.738025665,-11.745228767,68839.000000000,1718095990.667191982
1718095990.668199,,,,-11.752570152,-11.757657051,68840.000000000,1718095990.668199062
1718095990.669206,,,,-11.771081924,-11.774341583,68841.000000000,1718095990.669206142
1718095990.670213,,,,-11.762787819,-11.765807152,68842.000000000,1718095990.670213223
1718095990.671220,,,,-11.732856750,-11.735300064,68843.000000000,1718095990.671220303
1718095990.672227,,,,-11.723433495,-11.725563049,68844.000000000,1718095990.672227383
1718095990.673234,,,,-11.719802856,-11.725515366,68845.000000000,1718095990.673234463
1718095990.674242,,,,-11.716437340,-11.722221375,68846.000000000,1718095990.674241543
1718095990.675249,,,,-11.746632576,-11.750517845,68847.000000000,1718095990.675248623
1718095990.676256,,,,-11.742113113,-11.746790886,68848.000000000,1718095990.676255703
1718095990.677263,,,,-11.727760315,-11.730780602,68849.000000000,1718095990.677262783
1718095990.678270,,,,-11.750166893,-11.755878448,68850.000000000,1718095990.678269863
1718095990.679277,,,,-11.793992043,-11.797083855,68851.000000000,1718095990.679276943
1718095990.680284,,,,-11.825100899,-11.828600883,68852.000000000,1718095990.680284023
1718095990.681291,,,,-11.821374893,-11.824441910,68853.000000000,1718095990.681291103
1718095990.682298,,,,-11.781371117,-11.786097527,68854.000000000,1718095990.682298183
1718095990.683305,,,,-11.740309715,-11.746767044,68855.000000000,1718095990.683305264
1718095990.684312,,,,-11.696412086,-11.702340126,68856.000000000,1718095990.684312344
1718095990.685319,,,,-11.657946587,-11.664259911,68857.000000000,1718095990.685319424
1718095990.686327,,,,-11.693454742,-11.699864388,68858.000000000,1718095990.686326504
1718095990.687334,,,,-11.793150902,-11.797180176,68859.000000000,1718095990.687333584
1718095990.688341,,,,-11.849117279,-11.856247902,68860.000000000,1718095990.688340664
1718095990.689348,,,,-11.869335175,-11.875167847,68861.000000000,1718095990.689347744
1718095990.690355,,,,-11.883278847,-11.888871193,68862.000000000,1718095990.690354824
1718095990.691362,,,,-11.894938469,-11.900554657,68863.000000000,1718095990.691361904
1718095990.692369,,,,-11.877653122,-11.880913734,68864.000000000,1718095990.692368984
1718095990.692661,3.336395979,13891.000000000,1718095990.692661285,,,,
1718095990.693376,,,,-11.872243881,-11.873484612,68865.000000000,1718095990.693376064
1718095990.694383,,,,-11.860920906,-11.863941193,68866.000000000,1718095990.694383144
1718095990.695390,,,,-11.818224907,-11.822110176,68867.000000000,1718095990.695390224
1718095990.696397,,,,-11.799761772,-11.803574562,68868.000000000,1718095990.696397305
1718095990.697404,,,,-11.773486137,-11.777996063,68869.000000000,1718095990.697404385
1718095990.697661,3.760005236,13892.000000000,1718095990.697661400,,,,
1718095990.698411,,,,-11.726510048,-11.729554176,68870.000000000,1718095990.698411465
1718095990.699419,,,,-11.668308258,-11.671423912,68871.000000000,1718095990.699418545
1718095990.700426,,,,-11.628569603,-11.632622719,68872.000000000,1718095990.700425625
1718095990.701433,,,,-11.629266739,-11.637214661,68873.000000000,1718095990.701432705
1718095990.702440,,,,-11.655086517,-11.659283638,68874.000000000,1718095990.702439785
1718095990.702661,4.183531761,13893.000000000,1718095990.702661276,,,,
1718095990.703447,,,,-11.686146736,-11.688324928,68875.000000000,1718095990.703446865
1718095990.704454,,,,-11.717711449,-11.722461700,68876.000000000,1718095990.704453945
1718095990.705461,,,,-11.745550156,-11.749820709,68877.000000000,1718095990.705461025
1718095990.706468,,,,-11.778702736,-11.781001091,68878.000000000,1718095990.706468105
1718095990.707475,,,,-11.818057060,-11.820715904,68879.000000000,1718095990.707475185
1718095990.707661,4.801031113,13894.000000000,1718095990.707661390,,,,
1718095990.708482,,,,-11.845005989,-11.848121643,68880.000000000,1718095990.708482265
1718095990.709489,,,,-11.853900909,-11.856031418,68881.000000000,1718095990.709489346
1718095990.710496,,,,-11.868397713,-11.872956276,68882.000000000,1718095990.710496426
1718095990.711504,,,,-11.923210144,-11.928056717,68883.000000000,1718095990.711503506
1718095990.712511,,,,-11.937561989,-11.944380760,68884.000000000,1718095990.712510586
1718095990.712661,5.330173969,13895.000000000,1718095990.712661266,,,,
1718095990.713518,,,,-11.930061340,-11.934259415,68885.000000000,1718095990.713517666
1718095990.714525,,,,-11.928667068,-11.932721138,68886.000000000,1718095990.714524746
1718095990.715532,,,,-11.910276413,-11.915387154,68887.000000000,1718095990.715531826
1718095990.716539,,,,-11.855463982,-11.861056328,68888.000000000,1718095990.716538906
1718095990.717546,,,,-11.807455063,-11.813551903,68889.000000000,1718095990.717545986
1718095990.717661,6.017864227,13896.000000000,1718095990.717661381,,,,
1718095990.718553,,,,-11.804617882,-11.811003685,68890.000000000,1718095990.718553066
1718095990.719560,,,,-11.778462410,-11.782732010,68891.000000000,1718095990.719560146
1718095990.720567,,,,-11.718481064,-11.721356392,68892.000000000,1718095990.720567226
1718095990.721574,,,,-11.692781448,-11.697507858,68893.000000000,1718095990.721574306
1718095990.722581,,,,-11.743314743,-11.749459267,68894.000000000,1718095990.722581387
1718095990.722661,6.881572723,13897.000000000,1718095990.722661257,,,,
1718095990.723588,,,,-11.859743118,-11.863699913,68895.000000000,1718095990.723588467
1718095990.724596,,,,-11.955039978,-11.959959030,68896.000000000,1718095990.724595547
1718095990.725603,,,,-12.000908852,-12.008352280,68897.000000000,1718095990.725602627
1718095990.726610,,,,-12.069905281,-12.076098442,68898.000000000,1718095990.726609707
1718095990.727617,,,,-12.115775108,-12.122112274,68899.000000000,1718095990.727616787
1718095990.727661,7.744935036,13898.000000000,1718095990.727661371,,,,
1718095990.728624,,,,-12.102408409,-12.107158661,68900.000000000,1718095990.728623867
1718095990.729631,,,,-12.030094147,-12.032417297,68901.000000000,1718095990.729630947
1718095990.730638,,,,-11.950953484,-11.954621315,68902.000000000,1718095990.730638027
1718095990.731645,,,,-11.860032082,-11.862882614,68903.000000000,1718095990.731645107
1718095990.732652,,,,-11.830870628,-11.835789680,68904.000000000,1718095990.732652187
1718095990.732661,8.678390503,13899.000000000,1718095990.732661247,,,,
1718095990.733659,,,,-11.874937057,-11.880216599,68905.000000000,1718095990.733659267
1718095990.734666,,,,-11.870849609,-11.874422073,68906.000000000,1718095990.734666348
1718095990.735673,,,,-11.830798149,-11.835332870,68907.000000000,1718095990.735673428
1718095990.736681,,,,-11.782981873,-11.788669586,68908.000000000,1718095990.736680508
1718095990.737661,9.840242386,13900.000000000,1718095990.737661362,,,,
1718095990.737688,,,,-11.722640038,-11.729313850,68909.000000000,1718095990.737687588
1718095990.738695,,,,-11.678405762,-11.682242393,68910.000000000,1718095990.738694668
1718095990.739702,,,,-11.677371979,-11.681160927,68911.000000000,1718095990.739701748
1718095990.740709,,,,-11.680208206,-11.683564186,68912.000000000,1718095990.740708828
1718095990.741716,,,,-11.663812637,-11.667408943,68913.000000000,1718095990.741715908
1718095990.742723,,,,-11.701652527,-11.706162453,68914.000000000,1718095990.742722988
1718095990.743730,,,,-11.736150742,-11.737775803,68915.000000000,1718095990.743730068
1718095990.744737,,,,-11.757642746,-11.760614395,68916.000000000,1718095990.744737148
1718095990.745744,,,,-11.799761772,-11.804536819,68917.000000000,1718095990.745744228
1718095990.746751,,,,-11.842866898,-11.846246719,68918.000000000,1718095990.746751308
1718095990.747033,11.036643028,13901.000000000,1718095990.747032642,,,,
1718095990.747758,,,,-11.873470306,-11.875600815,68919.000000000,1718095990.747758389
1718095990.748765,,,,-11.863325119,-11.866369247,68920.000000000,1718095990.748765469
1718095990.749773,,,,-11.846015930,-11.848891258,68921.000000000,1718095990.749772549
1718095990.750780,,,,-11.855607986,-11.859229088,68922.000000000,1718095990.750779629
1718095990.751787,,,,-11.868325233,-11.873147964,68923.000000000,1718095990.751786709
1718095990.752794,,,,-11.897102356,-11.899497032,68924.000000000,1718095990.752793789
1718095990.753801,,,,-11.932128906,-11.935196877,68925.000000000,1718095990.753800869
1718095990.754808,,,,-11.968310356,-11.971714973,68926.000000000,1718095990.754807949
1718095990.755815,,,,-11.990523338,-11.995322227,68927.000000000,1718095990.755815029
1718095990.756822,,,,-11.990259171,-11.996212006,68928.000000000,1718095990.756822109
1718095990.757829,,,,-11.941265106,-11.943611145,68929.000000000,1718095990.757829189
1718095990.758836,,,,-11.898977280,-11.902381897,68930.000000000,1718095990.758836269
1718095990.759843,,,,-11.870898247,-11.875672340,68931.000000000,1718095990.759843349
1718095990.760850,,,,-11.839645386,-11.845886230,68932.000000000,1718095990.760850430
1718095990.761858,,,,-11.813777924,-11.817470551,68933.000000000,1718095990.761857510
1718095990.762865,,,,-11.765192032,-11.770038605,68934.000000000,1718095990.762864590
1718095990.763872,,,,-11.760167122,-11.764629364,68935.000000000,1718095990.763871670
1718095990.764879,,,,-11.789785385,-11.794752121,68936.000000000,1718095990.764878750
1718095990.765886,,,,-11.853276253,-11.857065201,68937.000000000,1718095990.765885830
1718095990.766893,,,,-11.861353874,-11.863941193,68938.000000000,1718095990.766892910
1718095990.767033,16.727937698,13905.000000000,1718095990.767032623,,,,
1718095990.767900,,,,-11.851665497,-11.852930069,68939.000000000,1718095990.767899990
1718095990.768907,,,,-11.871811867,-11.874181747,68940.000000000,1718095990.768907070
1718095990.769914,,,,-11.883879662,-11.887115479,68941.000000000,1718095990.769914150
1718095990.770921,,,,-11.880706787,-11.883773804,68942.000000000,1718095990.770921230
1718095990.771928,,,,-11.878278732,-11.880096436,68943.000000000,1718095990.771928310
1718095990.772033,18.271102905,13906.000000000,1718095990.772032738,,,,
1718095990.772935,,,,-11.838995934,-11.840332985,68944.000000000,1718095990.772935390
1718095990.773942,,,,-11.788824081,-11.791482925,68945.000000000,1718095990.773942471
1718095990.774950,,,,-11.786996841,-11.789390564,68946.000000000,1718095990.774949551
1718095990.775957,,,,-11.880057335,-11.881321907,68947.000000000,1718095990.775956631
1718095990.776964,,,,-12.005717278,-12.008856773,68948.000000000,1718095990.776963711
1718095990.777033,19.970779419,13907.000000000,1718095990.777032614,,,,
1718095990.777971,,,,-12.058991432,-12.063838005,68949.000000000,1718095990.777970791
1718095990.778978,,,,-12.080122948,-12.085042000,68950.000000000,1718095990.778977871
1718095990.779985,,,,-12.090027809,-12.094898224,68951.000000000,1718095990.779984951
1718095990.780992,,,,-12.059495926,-12.064078331,68952.000000000,1718095990.780992031
1718095990.781999,,,,-11.994033813,-11.997221947,68953.000000000,1718095990.781999111
1718095990.782033,21.581588745,13908.000000000,1718095990.782032728,,,,
1718095990.783006,,,,-11.884432793,-11.888942719,68954.000000000,1718095990.783006191
1718095990.784013,,,,-11.992976189,-11.997582436,68955.000000000,1718095990.784013271
1718095990.785020,,,,-12.167750359,-12.172885895,68956.000000000,1718095990.785020351
1718095990.786027,,,,-12.176213264,-12.179833412,68957.000000000,1718095990.786027431
1718095990.787033,23.313587189,13909.000000000,1718095990.787032604,,,,
1718095990.787035,,,,-12.208018303,-12.211903572,68958.000000000,1718095990.787034512
1718095990.788042,,,,-12.226433754,-12.230319023,68959.000000000,1718095990.788041592
1718095990.789049,,,,-12.233982086,-12.237410545,68960.000000000,1718095990.789048672
1718095990.790056,,,,-12.308411598,-12.312224388,68961.000000000,1718095990.790055752
1718095990.791063,,,,-12.387962341,-12.391871452,68962.000000000,1718095990.791062832
1718095990.792033,25.218885422,13910.000000000,1718095990.792032719,,,,
1718095990.792070,,,,-12.407242775,-12.410983086,68963.000000000,1718095990.792069912
1718095990.793077,,,,-12.397337914,-12.399852753,68964.000000000,1718095990.793076992
1718095990.794084,,,,-12.362238884,-12.368046761,68965.000000000,1718095990.794084072
1718095990.795091,,,,-12.360074997,-12.367061615,68966.000000000,1718095990.795091152
1718095990.796098,,,,-12.266437531,-12.271740913,68967.000000000,1718095990.796098232
1718095990.797033,27.174829483,13911.000000000,1718095990.797032595,,,,
1718095990.797105,,,,-12.093032837,-12.096364975,68968.000000000,1718095990.797105312
1718095990.798112,,,,-11.844621658,-11.847906113,68969.000000000,1718095990.798112392
1718095990.799119,,,,-11.560101509,-11.562761307,68970.000000000,1718095990.799119473
1718095990.800127,,,,-11.513102531,-11.514992714,68971.000000000,1718095990.800126553
1718095990.801134,,,,-11.544355392,-11.549322128,68972.000000000,1718095990.801133633
1718095990.802033,29.338207245,13912.000000000,1718095990.802032709,,,,
1718095990.802141,,,,-11.685184479,-11.688204765,68973.000000000,1718095990.802140713
1718095990.803148,,,,-11.868205070,-11.870888710,68974.000000000,1718095990.803147793
1718095990.804155,,,,-11.905877113,-11.909906387,68975.000000000,1718095990.804154873
1718095990.805162,,,,-11.850007057,-11.854853630,68976.000000000,1718095990.805161953
1718095990.806169,,,,-11.822696686,-11.828192711,68977.000000000,1718095990.806169033
1718095990.807033,31.847705841,13913.000000000,1718095990.807032585,,,,
1718095990.807176,,,,-11.821062088,-11.824297905,68978.000000000,1718095990.807176113
1718095990.808183,,,,-11.768581390,-11.774245262,68979.000000000,1718095990.808183193
1718095990.809190,,,,-11.701989174,-11.707485199,68980.000000000,1718095990.809190273
1718095990.810197,,,,-11.639411926,-11.646517754,68981.000000000,1718095990.810197353
1718095990.811204,,,,-11.642344475,-11.648368835,68982.000000000,1718095990.811204433
1718095990.812033,34.597724915,13914.000000000,1718095990.812032700,,,,
1718095990.812212,,,,-11.695161819,-11.699912071,68983.000000000,1718095990.812211514
1718095990.813219,,,,-11.754974365,-11.758090019,68984.000000000,1718095990.813218594
1718095990.814226,,,,-11.832985878,-11.837231636,68985.000000000,1718095990.814225674
1718095990.815233,,,,-11.823923111,-11.827783585,68986.000000000,1718095990.815232754
1718095990.816240,,,,-11.824691772,-11.827567101,68987.000000000,1718095990.816239834
1718095990.817033,37.656761169,13915.000000000,1718095990.817032576,,,,
1718095990.817247,,,,-11.907439232,-11.912550926,68988.000000000,1718095990.817246914
1718095990.818254,,,,-11.950544357,-11.956136703,68989.000000000,1718095990.818253994
1718095990.819261,,,,-11.928595543,-11.932936668,68990.000000000,1718095990.819261074
1718095990.820268,,,,-11.891308784,-11.895049095,68991.000000000,1718095990.820268154
1718095990.821275,,,,-11.961314201,-11.965488434,68992.000000000,1718095990.821275234
1718095990.822033,40.815341949,13916.000000000,1718095990.822032690,,,,
1718095990.822282,,,,-12.084449768,-12.088647842,68993.000000000,1718095990.822282314
1718095990.823289,,,,-12.136906624,-12.141825676,68994.000000000,1718095990.823289394
1718095990.824296,,,,-12.189146996,-12.195700645,68995.000000000,1718095990.824296474
1718095990.825304,,,,-12.233020782,-12.240151405,68996.000000000,1718095990.825303555
1718095990.826311,,,,-12.223212242,-12.227481842,68997.000000000,1718095990.826310635
1718095990.827033,44.194202423,13917.000000000,1718095990.827032566,,,,
1718095990.827318,,,,-12.177174568,-12.180794716,68998.000000000,1718095990.827317715
1718095990.828325,,,,-12.196791649,-12.202695847,68999.000000000,1718095990.828324795
1718095990.829332,,,,-12.185276031,-12.192286491,69000.000000000,1718095990.829331875
1718095990.830339,,,,-12.116111755,-12.123890877,69001.000000000,1718095990.830338955
1718095990.831346,,,,-12.066419601,-12.071218491,69002.000000000,1718095990.831346035
1718095990.832033,47.636692047,13918.000000000,1718095990.832032681,,,,
1718095990.832353,,,,-11.948308945,-11.953636169,69003.000000000,1718095990.832353115
1718095990.833360,,,,-11.797694206,-11.803574562,69004.000000000,1718095990.833360195
1718095990.834367,,,,-11.803199768,-11.808190346,69005.000000000,1718095990.834367275
1718095990.835374,,,,-11.988961220,-11.993327141,69006.000000000,1718095990.835374355
1718095990.836381,,,,-12.037426949,-12.042898178,69007.000000000,1718095990.836381435
1718095990.837033,51.142467499,13919.000000000,1718095990.837032557,,,,
1718095990.837389,,,,-11.972252846,-11.978181839,69008.000000000,1718095990.837388515
1718095990.838396,,,,-11.919724464,-11.924114227,69009.000000000,1718095990.838395596
1718095990.839403,,,,-11.998842239,-12.004337311,69010.000000000,1718095990.839402676
1718095990.840410,,,,-12.248526573,-12.252099037,69011.000000000,1718095990.840409756
1718095990.841417,,,,-12.422941208,-12.426104546,69012.000000000,1718095990.841416836
1718095990.841588,58.514469147,13921.000000000,1718095990.841588259,,,,
1718095990.842033,54.814544678,13920.000000000,1718095990.842032671,,,,
1718095990.842424,,,,-12.473618507,-12.476277351,69013.000000000,1718095990.842423916
1718095990.843431,,,,-12.465324402,-12.467839241,69014.000000000,1718095990.843430996
1718095990.844438,,,,-12.446500778,-12.450097084,69015.000000000,1718095990.844438076
1718095990.845445,,,,-12.414647102,-12.420046806,69016.000000000,1718095990.845445156
1718095990.846452,,,,-12.331082344,-12.337250710,69017.000000000,1718095990.846452236
1718095990.846588,62.345043182,13922.000000000,1718095990.846588373,,,,
1718095990.847459,,,,-12.248575211,-12.255537033,69018.000000000,1718095990.847459316
1718095990.848466,,,,-12.181573868,-12.186733246,69019.000000000,1718095990.848466396
1718095990.849473,,,,-11.931984901,-11.938394547,69020.000000000,1718095990.849473476
1718095990.850481,,,,-11.739973068,-11.747103691,69021.000000000,1718095990.850480556
1718095990.851488,,,,-11.659870148,-11.664452553,69022.000000000,1718095990.851487637
1718095990.851588,66.202766418,13923.000000000,1718095990.851588249,,,,
1718095990.852495,,,,-11.854910851,-11.858652115,69023.000000000,1718095990.852494717
1718095990.853502,,,,-11.998433113,-12.002822876,69024.000000000,1718095990.853501797
1718095990.854509,,,,-12.149335861,-12.152499199,69025.000000000,1718095990.854508877
1718095990.855516,,,,-12.141354561,-12.144421577,69026.000000000,1718095990.855515957
1718095990.856523,,,,-12.102095604,-12.108552933,69027.000000000,1718095990.856523037
1718095990.856588,70.087471008,13924.000000000,1718095990.856588364,,,,
1718095990.857530,,,,-12.028940201,-12.035734177,69028.000000000,1718095990.857530117
1718095990.858537,,,,-11.895515442,-11.901419640,69029.000000000,1718095990.858537197
1718095990.859544,,,,-11.847506523,-11.852521896,69030.000000000,1718095990.859544277
1718095990.860551,,,,-11.915276527,-11.919835091,69031.000000000,1718095990.860551357
1718095990.861558,,,,-12.125223160,-12.130333900,69032.000000000,1718095990.861558437
1718095990.861588,74.169624329,13925.000000000,1718095990.861588240,,,,
1718095990.862566,,,,-12.321490288,-12.324677467,69033.000000000,1718095990.862565517
1718095990.863573,,,,-12.345723152,-12.348838806,69034.000000000,1718095990.863572598
1718095990.864580,,,,-12.383586884,-12.387736320,69035.000000000,1718095990.864579678
1718095990.865587,,,,-12.427388191,-12.431249619,69036.000000000,1718095990.865586758
1718095990.866594,,,,-12.473089218,-12.478537560,69037.000000000,1718095990.866593838
1718095990.867601,,,,-12.664092064,-12.671053886,69038.000000000,1718095990.867600918
1718095990.868608,,,,-12.687194824,-12.693195343,69039.000000000,1718095990.868607998
1718095990.869615,,,,-12.456189156,-12.460386276,69040.000000000,1718095990.869615078
1718095990.870622,,,,-12.325793266,-12.329846382,69041.000000000,1718095990.870622158
1718095990.871629,,,,-12.344280243,-12.349319458,69042.000000000,1718095990.871629238
1718095990.872636,,,,-12.419960022,-12.423195839,69043.000000000,1718095990.872636318
1718095990.873643,,,,-12.429720879,-12.433124542,69044.000000000,1718095990.873643398
1718095990.874650,,,,-12.268672943,-12.271884918,69045.000000000,1718095990.874650478
1718095990.875658,,,,-12.068703651,-12.073045731,69046.000000000,1718095990.875657558
1718095990.876665,,,,-11.960352898,-11.962964058,69047.000000000,1718095990.876664639
1718095990.877672,,,,-11.915252686,-11.919642448,69048.000000000,1718095990.877671719
1718095990.878679,,,,-11.873085976,-11.875384331,69049.000000000,1718095990.878678799
1718095990.879686,,,,-11.819067001,-11.821580887,69050.000000000,1718095990.879685879
1718095990.880693,,,,-11.778269768,-11.781434059,69051.000000000,1718095990.880692959
1718095990.881700,,,,-11.997663498,-12.004193306,69052.000000000,1718095990.881700039
1718095990.882707,,,,-12.301704407,-12.305662155,69053.000000000,1718095990.882707119
1718095990.883714,,,,-12.387216568,-12.392688751,69054.000000000,1718095990.883714199
1718095990.884721,,,,-12.399068832,-12.405694008,69055.000000000,1718095990.884721279
1718095990.885728,,,,-12.602836609,-12.608236313,69056.000000000,1718095990.885728359
1718095990.886735,,,,-12.740997314,-12.745699883,69057.000000000,1718095990.886735439
1718095990.887743,,,,-12.481768608,-12.486806870,69058.000000000,1718095990.887742519
1718095990.888750,,,,-12.091037750,-12.096725464,69059.000000000,1718095990.888749599
1718095990.889757,,,,-11.875128746,-11.880216599,69060.000000000,1718095990.889756680
1718095990.890764,,,,-11.894048691,-11.897957802,69061.000000000,1718095990.890763760
1718095990.891588,99.692375183,13931.000000000,1718095990.891588211,,,,
1718095990.891771,,,,-12.015862465,-12.019603729,69062.000000000,1718095990.891770840
1718095990.892778,,,,-12.117698669,-12.120405197,69063.000000000,1718095990.892777920
1718095990.893785,,,,-12.120198250,-12.123674393,69064.000000000,1718095990.893785000
1718095990.894792,,,,-12.133204460,-12.138315201,69065.000000000,1718095990.894792080
1718095990.895799,,,,-12.051394463,-12.057442665,69066.000000000,1718095990.895799160
1718095990.896588,104.305824280,13932.000000000,1718095990.896588326,,,,
1718095990.896806,,,,-11.903833389,-11.908535957,69067.000000000,1718095990.896806240
1718095990.897813,,,,-11.718264580,-11.722341537,69068.000000000,1718095990.897813320
1718095990.898820,,,,-11.490649223,-11.496673584,69069.000000000,1718095990.898820400
1718095990.899827,,,,-11.291857719,-11.298315048,69070.000000000,1718095990.899827480
1718095990.900835,,,,-11.319119453,-11.325312614,69071.000000000,1718095990.900834560
1718095990.901588,109.295288086,13933.000000000,1718095990.901588202,,,,
1718095990.901842,,,,-11.510963440,-11.515954018,69072.000000000,1718095990.901841640
1718095990.902849,,,,-11.729227066,-11.733857155,69073.000000000,1718095990.902848721
1718095990.903856,,,,-11.757138252,-11.760903358,69074.000000000,1718095990.903855801
1718095990.904863,,,,-11.801877975,-11.806051254,69075.000000000,1718095990.904862881
1718095990.905870,,,,-11.924171448,-11.932144165,69076.000000000,1718095990.905869961
1718095990.906588,114.323448181,13934.000000000,1718095990.906588316,,,,
1718095990.906877,,,,-12.030334473,-12.036383629,69077.000000000,1718095990.906877041
1718095990.907884,,,,-12.116905212,-12.121775627,69078.000000000,1718095990.907884121
1718095990.908891,,,,-12.123155594,-12.128074646,69079.000000000,1718095990.908891201
1718095990.909898,,,,-12.134887695,-12.136800766,69080.000000000,1718095990.909898281
1718095990.910905,,,,-12.210566521,-12.214259148,69081.000000000,1718095990.910905361
1718095990.911588,119.590522766,13935.000000000,1718095990.911588192,,,,
1718095990.911912,,,,-12.163928032,-12.171106339,69082.000000000,1718095990.911912441
1718095990.912920,,,,-12.094017982,-12.098816872,69083.000000000,1718095990.912919521
1718095990.913927,,,,-12.007640839,-12.013712883,69084.000000000,1718095990.913926601
1718095990.914934,,,,-11.928499222,-11.932552338,69085.000000000,1718095990.914933681
1718095990.915941,,,,-11.939534187,-11.943418503,69086.000000000,1718095990.915940762
1718095990.916588,124.961677551,13936.000000000,1718095990.916588306,,,,
1718095990.916948,,,,-12.009443283,-12.014531136,69087.000000000,1718095990.916947842
1718095990.917955,,,,-12.117842674,-12.121078491,69088.000000000,1718095990.917954922
1718095990.918962,,,,-12.212417603,-12.216663361,69089.000000000,1718095990.918962002
1718095990.919969,,,,-12.197777748,-12.203369141,69090.000000000,1718095990.919969082
1718095990.920976,,,,-12.227418900,-12.233155251,69091.000000000,1718095990.920976162
1718095990.921588,130.419662476,13937.000000000,1718095990.921588182,,,,
1718095990.921983,,,,-12.233910561,-12.239501953,69092.000000000,1718095990.921983242
1718095990.922990,,,,-12.353752136,-12.359488487,69093.000000000,1718095990.922990322
1718095990.923997,,,,-12.586152077,-12.589387894,69094.000000000,1718095990.923997402
1718095990.925004,,,,-12.782371521,-12.786544800,69095.000000000,1718095990.925004482
1718095990.926012,,,,-12.805714607,-12.812941551,69096.000000000,1718095990.926011562
1718095990.926588,135.881164551,13938.000000000,1718095990.926588297,,,,
1718095990.927019,,,,-12.722437859,-12.726250648,69097.000000000,1718095990.927018642
1718095990.928026,,,,-12.576824188,-12.583281517,69098.000000000,1718095990.928025723
1718095990.929033,,,,-12.306897163,-12.314027786,69099.000000000,1718095990.929032803
1718095990.930040,,,,-11.971748352,-11.974647522,69100.000000000,1718095990.930039883
1718095990.931047,,,,-11.854382515,-11.859349251,69101.000000000,1718095990.931046963
1718095990.931588,141.280181885,13939.000000000,1718095990.931588173,,,,
1718095990.932054,,,,-12.035095215,-12.041095734,69102.000000000,1718095990.932054043
1718095990.933061,,,,-12.087479591,-12.094970703,69103.000000000,1718095990.933061123
1718095990.934068,,,,-11.947491646,-11.952746391,69104.000000000,1718095990.934068203
1718095990.935075,,,,-12.062309265,-12.066770554,69105.000000000,1718095990.935075283
1718095990.936082,,,,-12.169264793,-12.171419144,69106.000000000,1718095990.936082363
1718095990.936588,146.798889160,13940.000000000,1718095990.936588287,,,,
1718095990.937089,,,,-12.086133003,-12.090258598,69107.000000000,1718095990.937089443
1718095990.938097,,,,-12.067213058,-12.074174881,69108.000000000,1718095990.938096523
1718095990.939104,,,,-12.407194138,-12.412954330,69109.000000000,1718095990.939103603
1718095990.940111,,,,-12.730804443,-12.734184265,69110.000000000,1718095990.940110683
1718095990.941118,,,,-12.810306549,-12.815200806,69111.000000000,1718095990.941117764
1718095990.942125,,,,-12.790328979,-12.792265892,69112.000000000,1718095990.942124844
1718095990.943132,,,,-12.663755417,-12.668625832,69113.000000000,1718095990.943131924
1718095990.944139,,,,-12.638175964,-12.642518044,69114.000000000,1718095990.944139004
1718095990.945146,,,,-12.526507378,-12.528758049,69115.000000000,1718095990.945146084
1718095990.946153,,,,-12.135079384,-12.137185097,69116.000000000,1718095990.946153164
1718095990.947160,,,,-11.696267128,-11.698734283,69117.000000000,1718095990.947160244
1718095990.948167,,,,-11.238223076,-11.241146088,69118.000000000,1718095990.948167324
1718095990.949174,,,,-10.905573845,-10.908041000,69119.000000000,1718095990.949174404
1718095990.950181,,,,-10.963727951,-10.965257645,69120.000000000,1718095990.950181484
1718095990.951189,,,,-11.245916367,-11.250883102,69121.000000000,1718095990.951188564
1718095990.952196,,,,-11.625492096,-11.631636620,69122.000000000,1718095990.952195644
1718095990.953203,,,,-11.851665497,-11.860094070,69123.000000000,1718095990.953202724
1718095990.954210,,,,-11.956963539,-11.962434769,69124.000000000,1718095990.954209805
1718095990.955217,,,,-11.925998688,-11.929210663,69125.000000000,1718095990.955216885
1718095990.956224,,,,-12.003025055,-12.005827904,69126.000000000,1718095990.956223965
1718095990.957231,,,,-12.190228462,-12.194787025,69127.000000000,1718095990.957231045
1718095990.958238,,,,-12.261700630,-12.265851021,69128.000000000,1718095990.958238125
1718095990.959245,,,,-12.239151001,-12.241353035,69129.000000000,1718095990.959245205
1718095990.960252,,,,-12.291631699,-12.293713570,69130.000000000,1718095990.960252285
1718095990.961259,,,,-12.254416466,-12.259095192,69131.000000000,1718095990.961259365
1718095990.962266,,,,-11.969488144,-11.973901749,69132.000000000,1718095990.962266445
1718095990.963274,,,,-11.603927612,-11.608462334,69133.000000000,1718095990.963273525
1718095990.964281,,,,-11.387082100,-11.391544342,69134.000000000,1718095990.964280605
1718095990.965288,,,,-11.396866798,-11.401136398,69135.000000000,1718095990.965287685
1718095990.966295,,,,-11.420209885,-11.422555923,69136.000000000,1718095990.966294765
1718095990.967302,,,,-11.436077118,-11.439312935,69137.000000000,1718095990.967301846
1718095990.968309,,,,-11.543514252,-11.545787811,69138.000000000,1718095990.968308926
1718095990.969316,,,,-11.656408310,-11.657312393,69139.000000000,1718095990.969316006
1718095990.970323,,,,-11.784399986,-11.786602020,69140.000000000,1718095990.970323086
1718095990.971330,,,,-11.904747009,-11.907791138,69141.000000000,1718095990.971330166
1718095990.972337,,,,-11.903569221,-11.909449577,69142.000000000,1718095990.972337246
1718095990.973344,,,,-11.900179863,-11.904400826,69143.000000000,1718095990.973344326
1718095990.974351,,,,-11.925374031,-11.930533409,69144.000000000,1718095990.974351406
1718095990.975358,,,,-11.943043709,-11.948106766,69145.000000000,1718095990.975358486
1718095990.976366,,,,-12.061972618,-12.065977097,69146.000000000,1718095990.976365566
1718095990.977373,,,,-12.401280403,-12.409444809,69147.000000000,1718095990.977372646
1718095990.978380,,,,-12.849972725,-12.857656479,69148.000000000,1718095990.978379726
1718095990.979387,,,,-12.928345680,-12.935596466,69149.000000000,1718095990.979386806
1718095990.980394,,,,-12.836366653,-12.840683937,69150.000000000,1718095990.980393887
1718095990.981401,,,,-13.128699303,-13.133569717,69151.000000000,1718095990.981400967
1718095990.982408,,,,-13.268927574,-13.273606300,69152.000000000,1718095990.982408047
1718095990.983415,,,,-12.962867737,-12.964829445,69153.000000000,1718095990.983415127
1718095990.984422,,,,-12.669525146,-12.672327995,69154.000000000,1718095990.984422207
1718095990.985429,,,,-12.627189636,-12.630497932,69155.000000000,1718095990.985429287
1718095990.986436,,,,-12.579252243,-12.584604263,69156.000000000,1718095990.986436367
1718095990.987443,,,,-12.238477707,-12.243396759,69157.000000000,1718095990.987443447
1718095990.988451,,,,-11.637969017,-11.642791748,69158.000000000,1718095990.988450527
1718095990.989458,,,,-11.350083351,-11.353752136,69159.000000000,1718095990.989457607
1718095990.990465,,,,-11.298588753,-11.302209854,69160.000000000,1718095990.990464687
1718095990.991472,,,,-11.259306908,-11.263383865,69161.000000000,1718095990.991471767
1718095990.992479,,,,-11.199445724,-11.205470085,69162.000000000,1718095990.992478848
1718095990.993486,,,,-11.374581337,-11.378490448,69163.000000000,1718095990.993485928
1718095990.994493,,,,-11.468579292,-11.472728729,69164.000000000,1718095990.994493008
1718095990.995500,,,,-11.424465179,-11.428734779,69165.000000000,1718095990.995500088
1718095990.996250,205.081222534,13951.000000000,1718095990.996250153,,,,
1718095990.996507,,,,-11.394198418,-11.399598122,69166.000000000,1718095990.996507168
1718095990.997514,,,,-11.573925018,-11.580454826,69167.000000000,1718095990.997514248
1718095990.998521,,,,-11.705571175,-11.709360123,69168.000000000,1718095990.998521328
1718095990.999528,,,,-11.813344955,-11.818215370,69169.000000000,1718095990.999528408
1718095991.000535,,,,-11.912416458,-11.915122986,69170.000000000,1718095991.000535488
1718095991.001250,209.655334473,13952.000000000,1718095991.001250267,,,,
1718095991.001543,,,,-11.977157593,-11.980609894,69171.000000000,1718095991.001542568
1718095991.002550,,,,-12.000620842,-12.005539894,69172.000000000,1718095991.002549648
1718095991.003557,,,,-11.956121445,-11.961761475,69173.000000000,1718095991.003556728
1718095991.004564,,,,-11.889000893,-11.895602226,69174.000000000,1718095991.004563808
1718095991.005571,,,,-12.071395874,-12.076627731,69175.000000000,1718095991.005570889
1718095991.006250,213.998306274,13953.000000000,1718095991.006250143,,,,
1718095991.006578,,,,-12.331539154,-12.337996483,69176.000000000,1718095991.006577969
1718095991.007585,,,,-12.362335205,-12.367758751,69177.000000000,1718095991.007585049
1718095991.008592,,,,-12.239511490,-12.246498108,69178.000000000,1718095991.008592129
1718095991.009599,,,,-12.148325920,-12.153989792,69179.000000000,1718095991.009599209
1718095991.010606,,,,-12.188401222,-12.191420555,69180.000000000,1718095991.010606289
1718095991.011250,218.078857422,13954.000000000,1718095991.011250257,,,,
1718095991.011613,,,,-11.976484299,-11.981715202,69181.000000000,1718095991.011613369
1718095991.012620,,,,-11.932081223,-11.938081741,69182.000000000,1718095991.012620449
1718095991.013628,,,,-12.072117805,-12.077084541,69183.000000000,1718095991.013627529
1718095991.014635,,,,-12.062116623,-12.066049576,69184.000000000,1718095991.014634609
1718095991.015642,,,,-12.136425972,-12.142066002,69185.000000000,1718095991.015641689
1718095991.016250,221.898025513,13955.000000000,1718095991.016250134,,,,
1718095991.016649,,,,-12.527926445,-12.533926964,69186.000000000,1718095991.016648769
1718095991.017656,,,,-12.871225357,-12.875855446,69187.000000000,1718095991.017655849
1718095991.018663,,,,-12.818335533,-12.823061943,69188.000000000,1718095991.018662930
1718095991.019670,,,,-12.247132301,-12.254695892,69189.000000000,1718095991.019670010
1718095991.020677,,,,-11.673524857,-11.677890778,69190.000000000,1718095991.020677090
1718095991.021250,225.585357666,13956.000000000,1718095991.021250248,,,,
1718095991.021684,,,,-11.377826691,-11.381062508,69191.000000000,1718095991.021684170
1718095991.022691,,,,-11.789953232,-11.793838501,69192.000000000,1718095991.022691250
1718095991.023698,,,,-12.255065918,-12.258061409,69193.000000000,1718095991.023698330
1718095991.024705,,,,-12.450732231,-12.453102112,69194.000000000,1718095991.024705410
1718095991.025712,,,,-12.487249374,-12.490077019,69195.000000000,1718095991.025712490
1718095991.026250,229.125305176,13957.000000000,1718095991.026250124,,,,
1718095991.026720,,,,-12.428374290,-12.434327126,69196.000000000,1718095991.026719570
1718095991.027727,,,,-12.169049263,-12.173222542,69197.000000000,1718095991.027726650
1718095991.028734,,,,-11.943596840,-11.947529793,69198.000000000,1718095991.028733730
1718095991.029741,,,,-12.020069122,-12.023906708,69199.000000000,1718095991.029740810
1718095991.030748,,,,-12.188137054,-12.194787025,69200.000000000,1718095991.030747890
1718095991.031250,232.550476074,13958.000000000,1718095991.031250238,,,,
1718095991.031755,,,,-12.278649330,-12.283328056,69201.000000000,1718095991.031754971
1718095991.032762,,,,-12.214148521,-12.219116211,69202.000000000,1718095991.032762051
1718095991.033769,,,,-12.023603439,-12.027488708,69203.000000000,1718095991.033769131
1718095991.034776,,,,-12.051130295,-12.055303574,69204.000000000,1718095991.034776211
1718095991.035783,,,,-12.244776726,-12.249647141,69205.000000000,1718095991.035783291
1718095991.036250,235.941558838,13959.000000000,1718095991.036250114,,,,
1718095991.036790,,,,-12.113539696,-12.116005898,69206.000000000,1718095991.036790371
1718095991.037797,,,,-11.992254257,-11.998063087,69207.000000000,1718095991.037797451
1718095991.038805,,,,-11.866186142,-11.872186661,69208.000000000,1718095991.038804531
1718095991.039812,,,,-11.524017334,-11.528046608,69209.000000000,1718095991.039811611
1718095991.040331,242.558074951,13961.000000000,1718095991.040330887,,,,
1718095991.040819,,,,-11.159778595,-11.164120674,69210.000000000,1718095991.040818691
1718095991.041250,239.234542847,13960.000000000,1718095991.041250229,,,,
1718095991.041826,,,,-10.931466103,-10.934268951,69211.000000000,1718095991.041825771
1718095991.042833,,,,-10.993514061,-10.996654510,69212.000000000,1718095991.042832851
1718095991.043840,,,,-11.244545937,-11.248791695,69213.000000000,1718095991.043839931
1718095991.044847,,,,-11.401699066,-11.404405594,69214.000000000,1718095991.044847012
1718095991.045331,245.912353516,13962.000000000,1718095991.045331001,,,,
1718095991.045854,,,,-11.422445297,-11.425609589,69215.000000000,1718095991.045854092
1718095991.046861,,,,-11.479661942,-11.480614662,69216.000000000,1718095991.046861172
1718095991.047868,,,,-11.521252632,-11.523190498,69217.000000000,1718095991.047868252
1718095991.048875,,,,-11.608110428,-11.612356186,69218.000000000,1718095991.048875332
1718095991.049882,,,,-11.715692520,-11.721596718,69219.000000000,1718095991.049882412
1718095991.050889,,,,-11.817913055,-11.822831154,69220.000000000,1718095991.050889492
1718095991.051897,,,,-11.856810570,-11.864061356,69221.000000000,1718095991.051896572
1718095991.052904,,,,-11.867917061,-11.874567032,69222.000000000,1718095991.052903652
1718095991.053911,,,,-11.932081223,-11.938778877,69223.000000000,1718095991.053910732
1718095991.054918,,,,-11.821229935,-11.825524330,69224.000000000,1718095991.054917812
1718095991.055925,,,,-11.893880844,-11.898054123,69225.000000000,1718095991.055924892
1718095991.056932,,,,-12.477705002,-12.485268593,69226.000000000,1718095991.056931973
1718095991.057939,,,,-12.800329208,-12.807099342,69227.000000000,1718095991.057939053
1718095991.058946,,,,-12.801362991,-12.803108215,69228.000000000,1718095991.058946133
1718095991.059953,,,,-12.702123642,-12.706249237,69229.000000000,1718095991.059953213
1718095991.060960,,,,-12.854660988,-12.860757828,69230.000000000,1718095991.060960293
1718095991.061967,,,,-12.879182816,-12.886048317,69231.000000000,1718095991.061967373
1718095991.062974,,,,-12.602716446,-12.606673241,69232.000000000,1718095991.062974453
1718095991.063982,,,,-12.824057579,-12.828519821,69233.000000000,1718095991.063981533
1718095991.064989,,,,-12.909040451,-12.915834427,69234.000000000,1718095991.064988613
1718095991.065996,,,,-12.852280617,-12.853545189,69235.000000000,1718095991.065995693
1718095991.067003,,,,-12.442077637,-12.442572594,69236.000000000,1718095991.067002773
1718095991.068010,,,,-12.021584511,-12.027632713,69237.000000000,1718095991.068009853
1718095991.069017,,,,-12.169553757,-12.173823357,69238.000000000,1718095991.069016933
1718095991.070024,,,,-12.365243912,-12.369561195,69239.000000000,1718095991.070024014
1718095991.071031,,,,-12.621828079,-12.626794815,69240.000000000,1718095991.071031094
1718095991.072038,,,,-12.351227760,-12.357541084,69241.000000000,1718095991.072038174
1718095991.073045,,,,-11.727375984,-11.731405258,69242.000000000,1718095991.073045254
1718095991.074052,,,,-11.314647675,-11.318797112,69243.000000000,1718095991.074052334
1718095991.075059,,,,-11.171847343,-11.177824020,69244.000000000,1718095991.075059414
1718095991.076066,,,,-11.008203506,-11.014371872,69245.000000000,1718095991.076066494
1718095991.077074,,,,-10.975652695,-10.980066299,69246.000000000,1718095991.077073574
1718095991.078081,,,,-10.959592819,-10.963069916,69247.000000000,1718095991.078080654
1718095991.079088,,,,-11.049432755,-11.051587105,69248.000000000,1718095991.079087734
1718095991.080095,,,,-11.414079666,-11.416354179,69249.000000000,1718095991.080094814
1718095991.081102,,,,-11.686843872,-11.692218781,69250.000000000,1718095991.081101894
1718095991.082109,,,,-11.629940033,-11.633007050,69251.000000000,1718095991.082108974
1718095991.083116,,,,-11.507741928,-11.509198189,69252.000000000,1718095991.083116055
1718095991.084123,,,,-11.591450691,-11.596874237,69253.000000000,1718095991.084123135
1718095991.085130,,,,-11.772403717,-11.778284073,69254.000000000,1718095991.085130215
1718095991.086137,,,,-11.776827812,-11.783741951,69255.000000000,1718095991.086137295
1718095991.087144,,,,-11.726799011,-11.730611801,69256.000000000,1718095991.087144375
1718095991.088151,,,,-11.825581551,-11.830861092,69257.000000000,1718095991.088151455
1718095991.089159,,,,-12.132290840,-12.137858391,69258.000000000,1718095991.089158535
1718095991.090166,,,,-12.178929329,-12.181708336,69259.000000000,1718095991.090165615
1718095991.090331,271.658416748,13971.000000000,1718095991.090330839,,,,
1718095991.091173,,,,-11.776418686,-11.777996063,69260.000000000,1718095991.091172695
1718095991.092180,,,,-11.515170097,-11.517372131,69261.000000000,1718095991.092179775
1718095991.093187,,,,-11.678621292,-11.683107376,69262.000000000,1718095991.093186855
1718095991.094194,,,,-11.963574409,-11.966593742,69263.000000000,1718095991.094193935
1718095991.095201,,,,-12.274682999,-12.279842377,69264.000000000,1718095991.095201015
1718095991.095331,274.142272949,13972.000000000,1718095991.095330954,,,,
1718095991.096208,,,,-12.392337799,-12.395837784,69265.000000000,1718095991.096208096
1718095991.097215,,,,-12.190468788,-12.192382813,69266.000000000,1718095991.097215176
1718095991.098222,,,,-11.999443054,-12.003543854,69267.000000000,1718095991.098222256
1718095991.099229,,,,-12.061443329,-12.066722870,69268.000000000,1718095991.099229336
1718095991.100236,,,,-12.223019600,-12.225894928,69269.000000000,1718095991.100236416
1718095991.100331,276.562164307,13973.000000000,1718095991.100330830,,,,
1718095991.101243,,,,-12.333029747,-12.336072922,69270.000000000,1718095991.101243496
1718095991.102251,,,,-12.227010727,-12.230655670,69271.000000000,1718095991.102250576
1718095991.103258,,,,-11.972349167,-11.974599838,69272.000000000,1718095991.103257656
1718095991.104265,,,,-11.773557663,-11.776072502,69273.000000000,1718095991.104264736
1718095991.105272,,,,-11.620131493,-11.623391151,69274.000000000,1718095991.105271816
1718095991.105331,278.886077881,13974.000000000,1718095991.105330944,,,,
1718095991.106279,,,,-11.652441978,-11.656999588,69275.000000000,1718095991.106278896
1718095991.107286,,,,-12.142075539,-12.146633148,69276.000000000,1718095991.107285976
1718095991.108293,,,,-12.509775162,-12.513564110,69277.000000000,1718095991.108293056
1718095991.109300,,,,-12.654403687,-12.658360481,69278.000000000,1718095991.109300137
1718095991.110307,,,,-12.471983910,-12.476541519,69279.000000000,1718095991.110307217
1718095991.110331,281.065948486,13975.000000000,1718095991.110330820,,,,
1718095991.111314,,,,-12.144984245,-12.148629189,69280.000000000,1718095991.111314297
1718095991.112321,,,,-11.858492851,-11.862738609,69281.000000000,1718095991.112321377
1718095991.113328,,,,-11.525555611,-11.530258179,69282.000000000,1718095991.113328457
1718095991.114336,,,,-11.212186813,-11.214966774,69283.000000000,1718095991.114335537
1718095991.115331,283.101837158,13976.000000000,1718095991.115330935,,,,
1718095991.115343,,,,-10.983393669,-10.986701012,69284.000000000,1718095991.115342617
1718095991.116350,,,,-10.963631630,-10.969608307,69285.000000000,1718095991.116349697
1718095991.117357,,,,-11.022122383,-11.027666092,69286.000000000,1718095991.117356777
1718095991.118364,,,,-11.155956268,-11.161572456,69287.000000000,1718095991.118363857
1718095991.119371,,,,-11.415810585,-11.421643257,69288.000000000,1718095991.119370937
1718095991.120331,284.993682861,13977.000000000,1718095991.120330811,,,,
1718095991.120378,,,,-11.529858589,-11.533166885,69289.000000000,1718095991.120378017
1718095991.121385,,,,-11.545822144,-11.548672676,69290.000000000,1718095991.121385098
1718095991.122392,,,,-11.524785995,-11.529344559,69291.000000000,1718095991.122392178
1718095991.123399,,,,-11.529762268,-11.534224510,69292.000000000,1718095991.123399258
1718095991.124406,,,,-11.648739815,-11.653224945,69293.000000000,1718095991.124406338
1718095991.125331,286.645263672,13978.000000000,1718095991.125330925,,,,
1718095991.125413,,,,-11.951745987,-11.955390930,69294.000000000,1718095991.125413418
1718095991.126420,,,,-12.195324898,-12.199474335,69295.000000000,1718095991.126420498
1718095991.127428,,,,-12.268480301,-12.273471832,69296.000000000,1718095991.127427578
1718095991.128435,,,,-12.457535744,-12.465338707,69297.000000000,1718095991.128434658
1718095991.129442,,,,-12.614135742,-12.619462967,69298.000000000,1718095991.129441738
1718095991.130331,287.976318359,13979.000000000,1718095991.130330801,,,,
1718095991.130449,,,,-12.859661102,-12.862825394,69299.000000000,1718095991.130448818
1718095991.131456,,,,-13.155889511,-13.160927773,69300.000000000,1718095991.131455898
1718095991.132463,,,,-13.168967247,-13.172443390,69301.000000000,1718095991.132462978
1718095991.133470,,,,-12.774414063,-12.779115677,69302.000000000,1718095991.133470058
1718095991.134477,,,,-12.159288406,-12.161442757,69303.000000000,1718095991.134477139
1718095991.135331,289.002807617,13980.000000000,1718095991.135330915,,,,
1718095991.135484,,,,-11.624410629,-11.625891685,69304.000000000,1718095991.135484219
1718095991.136491,,,,-11.455694199,-11.457751274,69305.000000000,1718095991.136491299
1718095991.137498,,,,-11.669294357,-11.673635483,69306.000000000,1718095991.137498379
1718095991.138505,,,,-12.204725266,-12.212023735,69307.000000000,1718095991.138505459
1718095991.139513,,,,-12.678420067,-12.683290482,69308.000000000,1718095991.139512539
1718095991.140520,,,,-12.875912666,-12.880254745,69309.000000000,1718095991.140519619
1718095991.141527,,,,-12.440177917,-12.444327354,69310.000000000,1718095991.141526699
1718095991.142534,,,,-11.917993546,-11.921493530,69311.000000000,1718095991.142533779
1718095991.143541,,,,-11.850367546,-11.858050346,69312.000000000,1718095991.143540859
1718095991.144548,,,,-11.870994568,-11.876489639,69313.000000000,1718095991.144547939
1718095991.145555,,,,-11.476512909,-11.479652405,69314.000000000,1718095991.145555019
1718095991.146562,,,,-10.995774269,-10.997399330,69315.000000000,1718095991.146562099
1718095991.147569,,,,-10.857300758,-10.860584259,69316.000000000,1718095991.147569180
1718095991.148576,,,,-10.825614929,-10.827360153,69317.000000000,1718095991.148576260
1718095991.149583,,,,-10.614442825,-10.617294312,69318.000000000,1718095991.149583340
1718095991.150590,,,,-10.789338112,-10.795531273,69319.000000000,1718095991.150590420
1718095991.151597,,,,-11.087800980,-11.091349602,69320.000000000,1718095991.151597500
1718095991.152605,,,,-11.328711510,-11.330601692,69321.000000000,1718095991.152604580
1718095991.153612,,,,-11.453217506,-11.454987526,69322.000000000,1718095991.153611660
1718095991.154619,,,,-11.596018791,-11.598989487,69323.000000000,1718095991.154618740
1718095991.155626,,,,-11.602437019,-11.604567528,69324.000000000,1718095991.155625820
1718095991.156633,,,,-11.495913506,-11.499197960,69325.000000000,1718095991.156632900
1718095991.157640,,,,-11.442255020,-11.445514679,69326.000000000,1718095991.157639980
1718095991.158647,,,,-11.457545280,-11.459723473,69327.000000000,1718095991.158647060
1718095991.159654,,,,-11.458987236,-11.463185310,69328.000000000,1718095991.159654140
1718095991.160661,,,,-11.470190048,-11.474147797,69329.000000000,1718095991.160661221
1718095991.161668,,,,-11.590296745,-11.595287323,69330.000000000,1718095991.161668301
1718095991.162675,,,,-11.773630142,-11.777755737,69331.000000000,1718095991.162675381
1718095991.163682,,,,-11.919748306,-11.922551155,69332.000000000,1718095991.163682461
1718095991.164690,,,,-12.028243065,-12.031671524,69333.000000000,1718095991.164689541
1718095991.165697,,,,-12.035311699,-12.042754173,69334.000000000,1718095991.165696621
1718095991.166704,,,,-11.914171219,-11.921830177,69335.000000000,1718095991.166703701
1718095991.167711,,,,-11.809041977,-11.815066338,69336.000000000,1718095991.167710781
1718095991.168718,,,,-11.885273933,-11.890240669,69337.000000000,1718095991.168717861
1718095991.169725,,,,-12.134382248,-12.138531685,69338.000000000,1718095991.169724941
1718095991.170732,,,,-12.418445587,-12.423123360,69339.000000000,1718095991.170732021
1718095991.171739,,,,-13.044052124,-13.049331665,69340.000000000,1718095991.171739101
1718095991.172746,,,,-13.461420059,-13.465762138,69341.000000000,1718095991.172746181
1718095991.173753,,,,-13.409781456,-13.413113594,69342.000000000,1718095991.173753262
1718095991.174760,,,,-13.263326645,-13.269134521,69343.000000000,1718095991.174760342
1718095991.175767,,,,-13.135910988,-13.139965057,69344.000000000,1718095991.175767422
1718095991.176775,,,,-12.686714172,-12.688339233,69345.000000000,1718095991.176774502
1718095991.177782,,,,-12.066803932,-12.070425034,69346.000000000,1718095991.177781582
1718095991.178789,,,,-11.722760201,-11.728929520,69347.000000000,1718095991.178788662
1718095991.179796,,,,-11.986604691,-11.991643906,69348.000000000,1718095991.179795742
1718095991.180803,,,,-12.030647278,-12.034749031,69349.000000000,1718095991.180802822
1718095991.181810,,,,-11.528969765,-11.536725044,69350.000000000,1718095991.181809902
1718095991.182817,,,,-11.043446541,-11.051250458,69351.000000000,1718095991.182816982
1718095991.183824,,,,-10.895140648,-10.901838303,69352.000000000,1718095991.183824062
1718095991.184489,298.149963379,13991.000000000,1718095991.184489489,,,,
1718095991.184831,,,,-11.141027451,-11.146018028,69353.000000000,1718095991.184831142
1718095991.185838,,,,-11.299766541,-11.302570343,69354.000000000,1718095991.185838223
1718095991.186845,,,,-11.329648972,-11.334615707,69355.000000000,1718095991.186845303
1718095991.187852,,,,-12.057356834,-12.063212395,69356.000000000,1718095991.187852383
1718095991.188859,,,,-12.144503593,-12.147114754,69357.000000000,1718095991.188859463
1718095991.189490,298.278411865,13992.000000000,1718095991.189489603,,,,
1718095991.189867,,,,-12.240714073,-12.246065140,69358.000000000,1718095991.189866543
1718095991.190874,,,,-12.314541817,-12.320326805,69359.000000000,1718095991.190873623
1718095991.191881,,,,-12.340290070,-12.346674919,69360.000000000,1718095991.191880703
1718095991.192888,,,,-12.418806076,-12.424325943,69361.000000000,1718095991.192887783
1718095991.193895,,,,-12.465276718,-12.469497681,69362.000000000,1718095991.193894863
1718095991.194489,298.390838623,13993.000000000,1718095991.194489479,,,,
1718095991.194902,,,,-12.211672783,-12.214571953,69363.000000000,1718095991.194901943
1718095991.195909,,,,-11.675808907,-11.677457809,69364.000000000,1718095991.195909023
1718095991.196916,,,,-11.210937500,-11.214894295,69365.000000000,1718095991.196916103
1718095991.197923,,,,-11.175886154,-11.182271004,69366.000000000,1718095991.197923183
1718095991.198930,,,,-11.623208046,-11.629954338,69367.000000000,1718095991.198930264
1718095991.199490,298.792297363,13994.000000000,1718095991.199489594,,,,
1718095991.199937,,,,-11.920252800,-11.926205635,69368.000000000,1718095991.199937344
1718095991.200944,,,,-11.909723282,-11.914258003,69369.000000000,1718095991.200944424
1718095991.201952,,,,-11.774735451,-11.778764725,69370.000000000,1718095991.201951504
1718095991.202959,,,,-11.777404785,-11.783693314,69371.000000000,1718095991.202958584
1718095991.203966,,,,-11.755046844,-11.761384010,69372.000000000,1718095991.203965664
1718095991.204489,299.338287354,13995.000000000,1718095991.204489470,,,,
1718095991.204973,,,,-11.620900154,-11.624809265,69373.000000000,1718095991.204972744
1718095991.205980,,,,-11.731414795,-11.734242439,69374.000000000,1718095991.205979824
1718095991.206987,,,,-11.983407974,-11.988278389,69375.000000000,1718095991.206986904
1718095991.207994,,,,-12.246771812,-12.250392914,69376.000000000,1718095991.207993984
1718095991.209001,,,,-12.393779755,-12.399443626,69377.000000000,1718095991.209001064
1718095991.209490,300.093139648,13996.000000000,1718095991.209489584,,,,
1718095991.210008,,,,-12.346636772,-12.351146698,69378.000000000,1718095991.210008144
1718095991.211015,,,,-12.438446999,-12.441514969,69379.000000000,1718095991.211015224
1718095991.212022,,,,-12.433110237,-12.437932968,69380.000000000,1718095991.212022305
1718095991.213029,,,,-11.791059494,-11.793525696,69381.000000000,1718095991.213029385
1718095991.214036,,,,-11.179395676,-11.182703972,69382.000000000,1718095991.214036465
1718095991.214489,300.864196777,13997.000000000,1718095991.214489460,,,,
1718095991.215044,,,,-11.348568916,-11.353848457,69383.000000000,1718095991.215043545
1718095991.216051,,,,-11.819403648,-11.824971199,69384.000000000,1718095991.216050625
1718095991.217058,,,,-12.094547272,-12.098840714,69385.000000000,1718095991.217057705
1718095991.218065,,,,-12.069953918,-12.074054718,69386.000000000,1718095991.218064785
1718095991.219072,,,,-11.896092415,-11.901179314,69387.000000000,1718095991.219071865
1718095991.219490,301.828094482,13998.000000000,1718095991.219489574,,,,
1718095991.220079,,,,-11.810460091,-11.816629410,69388.000000000,1718095991.220078945
1718095991.221086,,,,-11.656047821,-11.660485268,69389.000000000,1718095991.221086025
1718095991.222093,,,,-11.224039078,-11.227731705,69390.000000000,1718095991.222093105
1718095991.223100,,,,-11.088450432,-11.091686249,69391.000000000,1718095991.223100185
1718095991.224107,,,,-11.398381233,-11.407266617,69392.000000000,1718095991.224107265
1718095991.224489,302.776153564,13999.000000000,1718095991.224489450,,,,
1718095991.225114,,,,-11.778630257,-11.785496712,69393.000000000,1718095991.225114346
1718095991.226121,,,,-12.031801224,-12.040494919,69394.000000000,1718095991.226121426
1718095991.227129,,,,-12.107336998,-12.112375259,69395.000000000,1718095991.227128506
1718095991.228136,,,,-11.792285919,-11.795593262,69396.000000000,1718095991.228135586
1718095991.229143,,,,-11.101648331,-11.104860306,69397.000000000,1718095991.229142666
1718095991.229490,303.708221436,14000.000000000,1718095991.229489565,,,,
1718095991.230150,,,,-10.969257355,-10.976003647,69398.000000000,1718095991.230149746
1718095991.231157,,,,-11.405377388,-11.410824776,69399.000000000,1718095991.231156826
1718095991.232164,,,,-11.675688744,-11.677794456,69400.000000000,1718095991.232163906
1718095991.233171,,,,-11.571016312,-11.573434830,69401.000000000,1718095991.233170986
1718095991.234178,,,,-11.432038307,-11.436331749,69402.000000000,1718095991.234178066
1718095991.235185,,,,-11.458097458,-11.464554787,69403.000000000,1718095991.235185146
1718095991.236192,,,,-11.605562210,-11.610073090,69404.000000000,1718095991.236192226
1718095991.237199,,,,-11.641430855,-11.644162178,69405.000000000,1718095991.237199306
1718095991.238206,,,,-11.727087021,-11.732342720,69406.000000000,1718095991.238206387
1718095991.239213,,,,-11.814595222,-11.817542076,69407.000000000,1718095991.239213467
1718095991.240221,,,,-12.096085548,-12.103384972,69408.000000000,1718095991.240220547
1718095991.241228,,,,-12.388634682,-12.395260811,69409.000000000,1718095991.241227627
1718095991.242235,,,,-12.674477577,-12.678674698,69410.000000000,1718095991.242234707
1718095991.243242,,,,-12.986163139,-12.988557816,69411.000000000,1718095991.243241787
1718095991.244249,,,,-12.938201904,-12.943889618,69412.000000000,1718095991.244248867
1718095991.245256,,,,-12.421090126,-12.426657677,69413.000000000,1718095991.245255947
1718095991.246263,,,,-11.758292198,-11.761528015,69414.000000000,1718095991.246263027
1718095991.247270,,,,-11.675400734,-11.681881905,69415.000000000,1718095991.247270107
1718095991.248277,,,,-12.065794945,-12.071098328,69416.000000000,1718095991.248277187
1718095991.249284,,,,-12.046129227,-12.049774170,69417.000000000,1718095991.249284267
1718095991.250291,,,,-11.781274796,-11.781818390,69418.000000000,1718095991.250291348
1718095991.251298,,,,-11.647946358,-11.649619102,69419.000000000,1718095991.251298428
1718095991.252306,,,,-11.581185341,-11.585238457,69420.000000000,1718095991.252305508
1718095991.253313,,,,-11.451967239,-11.455468178,69421.000000000,1718095991.253312588
1718095991.254320,,,,-11.352751732,-11.356420517,69422.000000000,1718095991.254319668
1718095991.255327,,,,-11.597076416,-11.600720406,69423.000000000,1718095991.255326748
1718095991.256334,,,,-11.793030739,-11.797420502,69424.000000000,1718095991.256333828
1718095991.257341,,,,-11.833466530,-11.838313103,69425.000000000,1718095991.257340908
1718095991.258348,,,,-12.343198776,-12.349319458,69426.000000000,1718095991.258347988
1718095991.259355,,,,-13.068020821,-13.073925018,69427.000000000,1718095991.259355068
1718095991.260362,,,,-13.162260056,-13.169438362,69428.000000000,1718095991.260362148
1718095991.261369,,,,-12.906757355,-12.912060738,69429.000000000,1718095991.261369228
1718095991.262376,,,,-12.564227104,-12.565684319,69430.000000000,1718095991.262376308
1718095991.263383,,,,-12.085315704,-12.088935852,69431.000000000,1718095991.263383389
1718095991.264390,,,,-11.948717117,-11.953130722,69432.000000000,1718095991.264390469
1718095991.265398,,,,-11.975763321,-11.979816437,69433.000000000,1718095991.265397549
1718095991.266405,,,,-12.000597000,-12.004025459,69434.000000000,1718095991.266404629
1718095991.267412,,,,-11.939004898,-11.943514824,69435.000000000,1718095991.267411709
1718095991.268419,,,,-11.550894737,-11.554394722,69436.000000000,1718095991.268418789
1718095991.269426,,,,-10.856699944,-10.858709335,69437.000000000,1718095991.269425869
1718095991.269525,305.283447266,14005.000000000,1718095991.269524574,,,,
1718095991.270433,,,,-10.748180389,-10.750622749,69438.000000000,1718095991.270432949
1718095991.271440,,,,-11.297314644,-11.303795815,69439.000000000,1718095991.271440029
1718095991.272447,,,,-11.628906250,-11.635170937,69440.000000000,1718095991.272447109
1718095991.273454,,,,-11.728722572,-11.734506607,69441.000000000,1718095991.273454189
1718095991.274461,,,,-11.756705284,-11.759989738,69442.000000000,1718095991.274461269
1718095991.274525,305.138793945,14006.000000000,1718095991.274524689,,,,
1718095991.275468,,,,-11.511058807,-11.513381958,69443.000000000,1718095991.275468349
1718095991.276475,,,,-11.134344101,-11.134959221,69444.000000000,1718095991.276475430
1718095991.277483,,,,-11.270894051,-11.276437759,69445.000000000,1718095991.277482510
1718095991.278490,,,,-11.656023979,-11.659644127,69446.000000000,1718095991.278489590
1718095991.279497,,,,-11.718553543,-11.724024773,69447.000000000,1718095991.279496670
1718095991.279525,305.106658936,14007.000000000,1718095991.279524565,,,,
1718095991.280504,,,,-11.863758087,-11.871489525,69448.000000000,1718095991.280503750
1718095991.281511,,,,-12.114789009,-12.121848106,69449.000000000,1718095991.281510830
1718095991.282518,,,,-12.181886673,-12.185675621,69450.000000000,1718095991.282517910
1718095991.283525,,,,-12.024517059,-12.028618813,69451.000000000,1718095991.283524990
1718095991.284525,305.106658936,14008.000000000,1718095991.284524679,,,,
1718095991.284532,,,,-11.836159706,-11.837400436,69452.000000000,1718095991.284532070
1718095991.285539,,,,-11.806228638,-11.807806015,69453.000000000,1718095991.285539150
1718095991.286546,,,,-11.774303436,-11.780712128,69454.000000000,1718095991.286546230
1718095991.287553,,,,-11.720428467,-11.727126122,69455.000000000,1718095991.287553310
1718095991.288560,,,,-11.683670044,-11.686689377,69456.000000000,1718095991.288560390
1718095991.289525,305.235260010,14009.000000000,1718095991.289524555,,,,
1718095991.289567,,,,-12.235905647,-12.240222931,69457.000000000,1718095991.289567471
1718095991.290575,,,,-12.765590668,-12.769596100,69458.000000000,1718095991.290574551
1718095991.291582,,,,-12.930797577,-12.934730530,69459.000000000,1718095991.291581631
1718095991.292589,,,,-12.817157745,-12.820633888,69460.000000000,1718095991.292588711
1718095991.293596,,,,-12.554250717,-12.556068420,69461.000000000,1718095991.293595791
1718095991.294525,305.347747803,14010.000000000,1718095991.294524670,,,,
1718095991.294603,,,,-12.435730934,-12.439230919,69462.000000000,1718095991.294602871
1718095991.295610,,,,-12.443038940,-12.448799133,69463.000000000,1718095991.295609951
1718095991.296617,,,,-12.504365921,-12.509428978,69464.000000000,1718095991.296617031
1718095991.297624,,,,-12.396424294,-12.401054382,69465.000000000,1718095991.297624111
1718095991.298631,,,,-12.141258240,-12.146176338,69466.000000000,1718095991.298631191
1718095991.299525,305.428161621,14011.000000000,1718095991.299524546,,,,
1718095991.299638,,,,-11.566016197,-11.568074226,69467.000000000,1718095991.299638271
1718095991.300645,,,,-11.079795837,-11.084786415,69468.000000000,1718095991.300645351
1718095991.301652,,,,-11.453121185,-11.456669807,69469.000000000,1718095991.301652431
1718095991.302660,,,,-11.775288582,-11.780280113,69470.000000000,1718095991.302659512
1718095991.303667,,,,-11.659004211,-11.663418770,69471.000000000,1718095991.303666592
1718095991.304525,305.540649414,14012.000000000,1718095991.304524660,,,,
1718095991.304674,,,,-11.385951996,-11.388514519,69472.000000000,1718095991.304673672
1718095991.305681,,,,-11.304238319,-11.311128616,69473.000000000,1718095991.305680752
1718095991.306688,,,,-11.604768753,-11.610601425,69474.000000000,1718095991.306687832
1718095991.307695,,,,-11.922825813,-11.928777695,69475.000000000,1718095991.307694912
1718095991.308702,,,,-11.949774742,-11.953059196,69476.000000000,1718095991.308701992
1718095991.309525,305.717529297,14013.000000000,1718095991.309524536,,,,
1718095991.309709,,,,-11.949294090,-11.953010559,69477.000000000,1718095991.309709072
1718095991.310716,,,,-11.790122032,-11.792540550,69478.000000000,1718095991.310716152
1718095991.311723,,,,-11.456895828,-11.461069107,69479.000000000,1718095991.311723232
1718095991.312730,,,,-11.416098595,-11.421523094,69480.000000000,1718095991.312730312
1718095991.313737,,,,-11.533680916,-11.539897919,69481.000000000,1718095991.313737392
1718095991.314525,305.990875244,14014.000000000,1718095991.314524651,,,,
1718095991.314744,,,,-11.515987396,-11.521050453,69482.000000000,1718095991.314744473
1718095991.315752,,,,-11.362440109,-11.365003586,69483.000000000,1718095991.315751553
1718095991.316759,,,,-11.589960098,-11.594686508,69484.000000000,1718095991.316758633
1718095991.317766,,,,-11.779135704,-11.781769753,69485.000000000,1718095991.317765713
1718095991.318773,,,,-11.922032356,-11.924643517,69486.000000000,1718095991.318772793
1718095991.319525,306.344573975,14015.000000000,1718095991.319524527,,,,
1718095991.319780,,,,-12.090701103,-12.096099854,69487.000000000,1718095991.319779873
1718095991.320787,,,,-11.998889923,-12.004025459,69488.000000000,1718095991.320786953
1718095991.321794,,,,-11.826904297,-11.827856064,69489.000000000,1718095991.321794033
1718095991.322801,,,,-11.898376465,-11.900698662,69490.000000000,1718095991.322801113
1718095991.323808,,,,-12.040599823,-12.043379784,69491.000000000,1718095991.323808193
1718095991.324525,306.923522949,14016.000000000,1718095991.324524641,,,,
1718095991.324815,,,,-11.970594406,-11.977003098,69492.000000000,1718095991.324815273
1718095991.325822,,,,-11.823754311,-11.828817368,69493.000000000,1718095991.325822353
1718095991.326829,,,,-11.666457176,-11.669548988,69494.000000000,1718095991.326829433
1718095991.327837,,,,-11.466848373,-11.471454620,69495.000000000,1718095991.327836514
1718095991.328844,,,,-11.425907135,-11.428494453,69496.000000000,1718095991.328843594
1718095991.329525,307.534606934,14017.000000000,1718095991.329524517,,,,
1718095991.329851,,,,-11.632488251,-11.636757851,69497.000000000,1718095991.329850674
1718095991.330858,,,,-11.796035767,-11.799944878,69498.000000000,1718095991.330857754
1718095991.331865,,,,-11.859791756,-11.864878654,69499.000000000,1718095991.331864834
1718095991.332872,,,,-11.945615768,-11.951328278,69500.000000000,1718095991.332871914
1718095991.333879,,,,-11.933355331,-11.937384605,69501.000000000,1718095991.333878994
1718095991.334525,308.178009033,14018.000000000,1718095991.334524632,,,,
1718095991.334886,,,,-11.930109978,-11.935389519,69502.000000000,1718095991.334886074
1718095991.335893,,,,-12.207056999,-12.211710930,69503.000000000,1718095991.335893154
1718095991.336900,,,,-12.655653000,-12.660091400,69504.000000000,1718095991.336900234
1718095991.337907,,,,-12.855838776,-12.861214638,69505.000000000,1718095991.337907314
1718095991.338914,,,,-12.784246445,-12.787915230,69506.000000000,1718095991.338914394
1718095991.339525,308.950164795,14019.000000000,1718095991.339524508,,,,
1718095991.339921,,,,-12.534801483,-12.537123680,69507.000000000,1718095991.339921474
1718095991.340929,,,,-12.361276627,-12.362325668,69508.000000000,1718095991.340928555
1718095991.341936,,,,-12.094739914,-12.093936920,69509.000000000,1718095991.341935635
1718095991.342943,,,,-11.532792091,-11.535738945,69510.000000000,1718095991.342942715
1718095991.343950,,,,-11.242405891,-11.244873047,69511.000000000,1718095991.343949795
1718095991.343993,310.237365723,14021.000000000,1718095991.343993425,,,,
1718095991.344525,309.625915527,14020.000000000,1718095991.344524622,,,,
1718095991.344957,,,,-11.398645401,-11.400535583,69512.000000000,1718095991.344956875
1718095991.345964,,,,-11.532406807,-11.536412239,69513.000000000,1718095991.345963955
1718095991.346971,,,,-11.382466316,-11.385750771,69514.000000000,1718095991.346971035
1718095991.347978,,,,-11.352174759,-11.356348991,69515.000000000,1718095991.347978115
1718095991.348985,,,,-11.429970741,-11.436860085,69516.000000000,1718095991.348985195
1718095991.348994,310.591430664,14022.000000000,1718095991.348993540,,,,
1718095991.349992,,,,-11.543754578,-11.549009323,69517.000000000,1718095991.349992275
1718095991.350999,,,,-11.721966743,-11.724385262,69518.000000000,1718095991.350999355
1718095991.352006,,,,-11.767066956,-11.770399094,69519.000000000,1718095991.352006435
1718095991.353014,,,,-11.528729439,-11.532469749,69520.000000000,1718095991.353013515
1718095991.353993,310.752349854,14023.000000000,1718095991.353993416,,,,
1718095991.354021,,,,-11.404775620,-11.407290459,69521.000000000,1718095991.354020596
1718095991.355028,,,,-11.527190208,-11.530258179,69522.000000000,1718095991.355027676
1718095991.356035,,,,-12.016271591,-12.022151947,69523.000000000,1718095991.356034756
1718095991.357042,,,,-12.189867973,-12.195339203,69524.000000000,1718095991.357041836
1718095991.358049,,,,-12.220471382,-12.225798607,69525.000000000,1718095991.358048916
1718095991.358994,310.687988281,14024.000000000,1718095991.358993530,,,,
1718095991.359056,,,,-12.138661385,-12.142859459,69526.000000000,1718095991.359055996
1718095991.360063,,,,-12.246891975,-12.249310493,69527.000000000,1718095991.360063076
1718095991.361070,,,,-12.708830833,-12.714759827,69528.000000000,1718095991.361070156
1718095991.362077,,,,-13.175337791,-13.180737495,69529.000000000,1718095991.362077236
1718095991.363084,,,,-13.190628052,-13.194752693,69530.000000000,1718095991.363084316
1718095991.363993,310.494812012,14025.000000000,1718095991.363993406,,,,
1718095991.364091,,,,-12.991307259,-12.995625496,69531.000000000,1718095991.364091396
1718095991.365098,,,,-13.341001511,-13.343708038,69532.000000000,1718095991.365098476
1718095991.366106,,,,-13.393337250,-13.397246361,69533.000000000,1718095991.366105556
1718095991.367113,,,,-12.891971588,-12.895689011,69534.000000000,1718095991.367112637
1718095991.368120,,,,-12.731141090,-12.736636162,69535.000000000,1718095991.368119717
1718095991.368994,310.221282959,14026.000000000,1718095991.368993521,,,,
1718095991.369127,,,,-12.566270828,-12.569770813,69536.000000000,1718095991.369126797
1718095991.370134,,,,-11.879240036,-11.880937576,69537.000000000,1718095991.370133877
1718095991.371141,,,,-11.230433464,-11.233020782,69538.000000000,1718095991.371140957
1718095991.372148,,,,-11.135329247,-11.138517380,69539.000000000,1718095991.372148037
1718095991.373155,,,,-11.200190544,-11.202344894,69540.000000000,1718095991.373155117
1718095991.373993,310.012084961,14027.000000000,1718095991.373993397,,,,
1718095991.374162,,,,-11.014934540,-11.020381927,69541.000000000,1718095991.374162197
1718095991.375169,,,,-10.683608055,-10.687397003,69542.000000000,1718095991.375169277
1718095991.376176,,,,-10.401227951,-10.403814316,69543.000000000,1718095991.376176357
1718095991.377183,,,,-10.578550339,-10.584550858,69544.000000000,1718095991.377183437
1718095991.378191,,,,-10.863719940,-10.868397713,69545.000000000,1718095991.378190517
1718095991.378994,310.060333252,14028.000000000,1718095991.378993511,,,,
1718095991.379198,,,,-10.959737778,-10.964559555,69546.000000000,1718095991.379197598
1718095991.380205,,,,-10.967935562,-10.970931053,69547.000000000,1718095991.380204678
1718095991.381212,,,,-11.060923576,-11.065674782,69548.000000000,1718095991.381211758
1718095991.382219,,,,-11.364724159,-11.368753433,69549.000000000,1718095991.382218838
1718095991.383226,,,,-11.678236961,-11.683372498,69550.000000000,1718095991.383225918
1718095991.383993,310.285644531,14029.000000000,1718095991.383993387,,,,
1718095991.384233,,,,-11.903809547,-11.910699844,69551.000000000,1718095991.384232998
1718095991.385240,,,,-11.984008789,-11.991139412,69552.000000000,1718095991.385240078
1718095991.386247,,,,-11.906814575,-11.910146713,69553.000000000,1718095991.386247158
1718095991.387254,,,,-11.713432312,-11.717510223,69554.000000000,1718095991.387254238
1718095991.388261,,,,-11.603590965,-11.609496117,69555.000000000,1718095991.388261318
1718095991.388994,310.720184326,14030.000000000,1718095991.388993502,,,,
1718095991.389268,,,,-11.625804901,-11.632358551,69556.000000000,1718095991.389268398
1718095991.390275,,,,-11.770528793,-11.775302887,69557.000000000,1718095991.390275478
1718095991.391283,,,,-11.790746689,-11.795906067,69558.000000000,1718095991.391282558
1718095991.392290,,,,-11.783631325,-11.787467957,69559.000000000,1718095991.392289639
1718095991.393297,,,,-11.805627823,-11.808695793,69560.000000000,1718095991.393296719
1718095991.393993,311.363952637,14031.000000000,1718095991.393993378,,,,
1718095991.394304,,,,-11.948981285,-11.956833839,69561.000000000,1718095991.394303799
1718095991.395311,,,,-12.205518723,-12.212456703,69562.000000000,1718095991.395310879
1718095991.396318,,,,-12.476623535,-12.482744217,69563.000000000,1718095991.396317959
1718095991.397325,,,,-12.583652496,-12.586359024,69564.000000000,1718095991.397325039
1718095991.398332,,,,-12.292472839,-12.295276642,69565.000000000,1718095991.398332119
1718095991.398993,311.975646973,14032.000000000,1718095991.398993492,,,,
1718095991.399339,,,,-12.028411865,-12.032537460,69566.000000000,1718095991.399339199
1718095991.400346,,,,-12.031993866,-12.038282394,69567.000000000,1718095991.400346279
1718095991.401353,,,,-12.129959106,-12.136512756,69568.000000000,1718095991.401353359
1718095991.402360,,,,-12.243117332,-12.244863510,69569.000000000,1718095991.402360439
1718095991.403368,,,,-12.061683655,-12.063332558,69570.000000000,1718095991.403367519
1718095991.403993,312.539123535,14033.000000000,1718095991.403993368,,,,
1718095991.404375,,,,-11.932682037,-11.934716225,69571.000000000,1718095991.404374599
1718095991.405382,,,,-12.322571754,-12.327562332,69572.000000000,1718095991.405381680
1718095991.406389,,,,-13.038378716,-13.044018745,69573.000000000,1718095991.406388760
1718095991.407396,,,,-13.381196976,-13.386283875,69574.000000000,1718095991.407395840
1718095991.408403,,,,-13.098167419,-13.101162910,69575.000000000,1718095991.408402920
1718095991.408993,312.909454346,14034.000000000,1718095991.408993483,,,,
1718095991.409410,,,,-12.937336922,-12.940669060,69576.000000000,1718095991.409410000
1718095991.410417,,,,-12.537181854,-12.541619301,69577.000000000,1718095991.410417080
1718095991.411424,,,,-12.104692459,-12.107423782,69578.000000000,1718095991.411424160
1718095991.412431,,,,-11.519305229,-11.521627426,69579.000000000,1718095991.412431240
1718095991.413438,,,,-11.107394218,-11.109788895,69580.000000000,1718095991.413438320
1718095991.413993,313.102661133,14035.000000000,1718095991.413993359,,,,
1718095991.414445,,,,-10.722289085,-10.724587440,69581.000000000,1718095991.414445400
1718095991.415452,,,,-10.401203156,-10.406122208,69582.000000000,1718095991.415452480
1718095991.416460,,,,-10.610356331,-10.616549492,69583.000000000,1718095991.416459560
1718095991.417467,,,,-11.073352814,-11.077911377,69584.000000000,1718095991.417466640
1718095991.418474,,,,-11.377466202,-11.382744789,69585.000000000,1718095991.418473721
1718095991.418993,313.215423584,14036.000000000,1718095991.418993473,,,,
1718095991.419481,,,,-11.541157722,-11.545042992,69586.000000000,1718095991.419480801
1718095991.420488,,,,-11.882461548,-11.886154175,69587.000000000,1718095991.420487881
1718095991.421495,,,,-12.185420036,-12.191276550,69588.000000000,1718095991.421494961
1718095991.422502,,,,-12.099475861,-12.105957031,69589.000000000,1718095991.422502041
1718095991.423509,,,,-11.946192741,-11.953106880,69590.000000000,1718095991.423509121
1718095991.423993,313.376434326,14037.000000000,1718095991.423993349,,,,
1718095991.424516,,,,-11.946168900,-11.952890396,69591.000000000,1718095991.424516201
1718095991.425523,,,,-11.736968040,-11.743665695,69592.000000000,1718095991.425523281
1718095991.426530,,,,-11.761056900,-11.767297745,69593.000000000,1718095991.426530361
1718095991.427537,,,,-12.187055588,-12.191709518,69594.000000000,1718095991.427537441
1718095991.428545,,,,-12.478498459,-12.485004425,69595.000000000,1718095991.428544521
1718095991.428993,313.618011475,14038.000000000,1718095991.428993464,,,,
1718095991.429552,,,,-12.435706139,-12.440120697,69596.000000000,1718095991.429551601
1718095991.430559,,,,-12.098489761,-12.099754333,69597.000000000,1718095991.430558681
1718095991.431566,,,,-11.981171608,-11.987268448,69598.000000000,1718095991.431565762
1718095991.432573,,,,-12.283554077,-12.291982651,69599.000000000,1718095991.432572842
1718095991.433580,,,,-12.539970398,-12.545321465,69600.000000000,1718095991.433579922
1718095991.433993,313.940093994,14039.000000000,1718095991.433993340,,,,
1718095991.434587,,,,-12.348102570,-12.353742599,69601.000000000,1718095991.434587002
1718095991.435594,,,,-11.920926094,-11.925124168,69602.000000000,1718095991.435594082
1718095991.436601,,,,-11.498293877,-11.501265526,69603.000000000,1718095991.436601162
1718095991.437608,,,,-10.980869293,-10.984970093,69604.000000000,1718095991.437608242
1718095991.438574,314.793762207,14041.000000000,1718095991.438574076,,,,
1718095991.438615,,,,-10.759528160,-10.765792847,69605.000000000,1718095991.438615322
1718095991.438993,314.294403076,14040.000000000,1718095991.438993454,,,,
1718095991.439622,,,,-11.098499298,-11.104860306,69606.000000000,1718095991.439622402
1718095991.440629,,,,-11.334625244,-11.340073586,69607.000000000,1718095991.440629482
1718095991.441637,,,,-11.486802101,-11.490807533,69608.000000000,1718095991.441636562
1718095991.442644,,,,-11.885442734,-11.891202927,69609.000000000,1718095991.442643642
1718095991.443574,315.260925293,14042.000000000,1718095991.443574190,,,,
1718095991.443651,,,,-12.565357208,-12.572751999,69610.000000000,1718095991.443650723
1718095991.444658,,,,-12.997942924,-13.005265236,69611.000000000,1718095991.444657803
1718095991.445665,,,,-12.727149963,-12.730649948,69612.000000000,1718095991.445664883
1718095991.446672,,,,-12.064977646,-12.070978165,69613.000000000,1718095991.446671963
1718095991.447679,,,,-11.689223289,-11.693348885,69614.000000000,1718095991.447679043
1718095991.448686,,,,-11.559236526,-11.560548782,69615.000000000,1718095991.448686123
1718095991.449693,,,,-11.569958687,-11.572713852,69616.000000000,1718095991.449693203
1718095991.450700,,,,-11.396193504,-11.399092674,69617.000000000,1718095991.450700283
1718095991.451707,,,,-11.415954590,-11.418061256,69618.000000000,1718095991.451707363
1718095991.452714,,,,-11.722399712,-11.724914551,69619.000000000,1718095991.452714443
1718095991.453722,,,,-12.041225433,-12.044508934,69620.000000000,1718095991.453721523
1718095991.454729,,,,-12.251291275,-12.256931305,69621.000000000,1718095991.454728603
1718095991.455736,,,,-12.161716461,-12.164808273,69622.000000000,1718095991.455735683
1718095991.456743,,,,-11.694945335,-11.699022293,69623.000000000,1718095991.456742764
1718095991.457750,,,,-11.104749680,-11.108081818,69624.000000000,1718095991.457749844
1718095991.458757,,,,-10.821696281,-10.824836731,69625.000000000,1718095991.458756924
1718095991.459764,,,,-11.129151344,-11.131737709,69626.000000000,1718095991.459764004
1718095991.460771,,,,-11.548177719,-11.553865433,69627.000000000,1718095991.460771084
1718095991.461778,,,,-11.613952637,-11.619448662,69628.000000000,1718095991.461778164
1718095991.462785,,,,-11.547336578,-11.551462173,69629.000000000,1718095991.462785244
1718095991.463792,,,,-11.792910576,-11.799127579,69630.000000000,1718095991.463792324
1718095991.464799,,,,-12.064208031,-12.069367409,69631.000000000,1718095991.464799404
1718095991.465806,,,,-12.220231056,-12.222024918,69632.000000000,1718095991.465806484
1718095991.466814,,,,-12.180227280,-12.182285309,69633.000000000,1718095991.466813564
1718095991.467821,,,,-12.094114304,-12.100018501,69634.000000000,1718095991.467820644
1718095991.468828,,,,-12.427100182,-12.430600166,69635.000000000,1718095991.468827724
1718095991.469835,,,,-12.719793320,-12.724952698,69636.000000000,1718095991.469834805
1718095991.470842,,,,-12.596898079,-12.598595619,69637.000000000,1718095991.470841885
1718095991.471849,,,,-12.325096130,-12.326961517,69638.000000000,1718095991.471848965
1718095991.472856,,,,-12.231482506,-12.234141350,69639.000000000,1718095991.472856045
1718095991.473863,,,,-12.475469589,-12.479907990,69640.000000000,1718095991.473863125
1718095991.474870,,,,-12.360604286,-12.363791466,69641.000000000,1718095991.474870205
1718095991.475877,,,,-11.606836319,-11.608606339,69642.000000000,1718095991.475877285
1718095991.476884,,,,-10.928508759,-10.932585716,69643.000000000,1718095991.476884365
1718095991.477891,,,,-10.881340981,-10.886307716,69644.000000000,1718095991.477891445
1718095991.478899,,,,-11.185935020,-11.193570137,69645.000000000,1718095991.478898525
1718095991.479906,,,,-11.680785179,-11.687122345,69646.000000000,1718095991.479905605
1718095991.480913,,,,-12.317018509,-12.324605942,69647.000000000,1718095991.480912685
1718095991.481920,,,,-12.604615211,-12.610279083,69648.000000000,1718095991.481919765
1718095991.482927,,,,-12.415344238,-12.421297073,69649.000000000,1718095991.482926846
1718095991.483934,,,,-11.792406082,-11.798790932,69650.000000000,1718095991.483933926
1718095991.484941,,,,-11.229039192,-11.233164787,69651.000000000,1718095991.484941006
1718095991.485948,,,,-11.366478920,-11.371037483,69652.000000000,1718095991.485948086
1718095991.486955,,,,-11.682901382,-11.689382553,69653.000000000,1718095991.486955166
1718095991.487962,,,,-12.000260353,-12.005227089,69654.000000000,1718095991.487962246
1718095991.488574,319.597045898,14051.000000000,1718095991.488574028,,,,
1718095991.488969,,,,-12.295213699,-12.299530983,69655.000000000,1718095991.488969326
1718095991.489976,,,,-12.068223000,-12.073020935,69656.000000000,1718095991.489976406
1718095991.490983,,,,-11.778269768,-11.784414291,69657.000000000,1718095991.490983486
1718095991.491991,,,,-11.631814957,-11.637646675,69658.000000000,1718095991.491990566
1718095991.492998,,,,-11.455862045,-11.458881378,69659.000000000,1718095991.492997646
1718095991.493574,320.161590576,14052.000000000,1718095991.493574142,,,,
1718095991.494005,,,,-11.350973129,-11.352213860,69660.000000000,1718095991.494004726
1718095991.495012,,,,-11.350179672,-11.353848457,69661.000000000,1718095991.495011806
1718095991.496019,,,,-11.471007347,-11.474339485,69662.000000000,1718095991.496018887
1718095991.497026,,,,-11.583565712,-11.584661484,69663.000000000,1718095991.497025967
1718095991.498033,,,,-11.585993767,-11.588892937,69664.000000000,1718095991.498033047
1718095991.498574,320.839172363,14053.000000000,1718095991.498574018,,,,
1718095991.499040,,,,-11.647994041,-11.653441429,69665.000000000,1718095991.499040127
1718095991.500047,,,,-11.629940033,-11.633440018,69666.000000000,1718095991.500047207
1718095991.501054,,,,-11.640757561,-11.644642830,69667.000000000,1718095991.501054287
1718095991.502061,,,,-11.904626846,-11.908992767,69668.000000000,1718095991.502061367
1718095991.503068,,,,-12.204388618,-12.206133842,69669.000000000,1718095991.503068447
1718095991.503574,321.371612549,14054.000000000,1718095991.503574133,,,,
1718095991.504076,,,,-12.563602448,-12.566885948,69670.000000000,1718095991.504075527
1718095991.505083,,,,-12.667553902,-12.671583176,69671.000000000,1718095991.505082607
1718095991.506090,,,,-12.024300575,-12.025901794,69672.000000000,1718095991.506089687
1718095991.507097,,,,-11.602677345,-11.606514931,69673.000000000,1718095991.507096767
1718095991.508104,,,,-12.125126839,-12.132208824,69674.000000000,1718095991.508103848
1718095991.508574,321.936431885,14055.000000000,1718095991.508574009,,,,
1718095991.509111,,,,-12.472801208,-12.479451180,69675.000000000,1718095991.509110928
1718095991.510118,,,,-12.113274574,-12.119587898,69676.000000000,1718095991.510118008
1718095991.511125,,,,-11.826062202,-11.829803467,69677.000000000,1718095991.511125088
1718095991.512132,,,,-11.828058243,-11.836558342,69678.000000000,1718095991.512132168
1718095991.513139,,,,-11.627415657,-11.632719040,69679.000000000,1718095991.513139248
1718095991.513574,322.291473389,14056.000000000,1718095991.513574123,,,,
1718095991.514146,,,,-11.118429184,-11.122289658,69680.000000000,1718095991.514146328
1718095991.515153,,,,-11.028517723,-11.035599709,69681.000000000,1718095991.515153408
1718095991.516160,,,,-11.186127663,-11.193738937,69682.000000000,1718095991.516160488
1718095991.517168,,,,-11.394535065,-11.398395538,69683.000000000,1718095991.517167568
1718095991.518175,,,,-11.656095505,-11.659644127,69684.000000000,1718095991.518174648
1718095991.518574,322.662719727,14057.000000000,1718095991.518573999,,,,
1718095991.519182,,,,-12.001798630,-12.007511139,69685.000000000,1718095991.519181728
1718095991.520189,,,,-12.440274239,-12.444255829,69686.000000000,1718095991.520188808
1718095991.521196,,,,-12.558601379,-12.559288979,69687.000000000,1718095991.521195889
1718095991.522203,,,,-12.519271851,-12.521810532,69688.000000000,1718095991.522202969
1718095991.523210,,,,-11.837481499,-11.838818550,69689.000000000,1718095991.523210049
1718095991.523574,322.920989990,14058.000000000,1718095991.523574114,,,,
1718095991.524217,,,,-11.363955498,-11.365892410,69690.000000000,1718095991.524217129
1718095991.525224,,,,-11.157519341,-11.161115646,69691.000000000,1718095991.525224209
1718095991.526231,,,,-11.415786743,-11.420344353,69692.000000000,1718095991.526231289
1718095991.527238,,,,-11.607918739,-11.613630295,69693.000000000,1718095991.527238369
1718095991.528245,,,,-11.664558411,-11.671520233,69694.000000000,1718095991.528245449
1718095991.528574,323.179351807,14059.000000000,1718095991.528573990,,,,
1718095991.529253,,,,-11.498053551,-11.504150391,69695.000000000,1718095991.529252529
1718095991.530260,,,,-11.514183998,-11.515473366,69696.000000000,1718095991.530259609
1718095991.531267,,,,-11.724779129,-11.728447914,69697.000000000,1718095991.531266689
1718095991.532274,,,,-11.800988197,-11.805618286,69698.000000000,1718095991.532273769
1718095991.533281,,,,-11.965929985,-11.973253250,69699.000000000,1718095991.533280849
1718095991.533574,323.405364990,14060.000000000,1718095991.533574104,,,,
1718095991.534288,,,,-12.253094673,-12.261667252,69700.000000000,1718095991.534287930
1718095991.535295,,,,-12.405823708,-12.410262108,69701.000000000,1718095991.535295010
1718095991.536302,,,,-12.467488289,-12.470891953,69702.000000000,1718095991.536302090
1718095991.537309,,,,-12.526723862,-12.533349991,69703.000000000,1718095991.537309170
1718095991.538316,,,,-12.232924461,-12.238612175,69704.000000000,1718095991.538316250
1718095991.539323,,,,-11.841159821,-11.846078873,69705.000000000,1718095991.539323330
1718095991.540330,,,,-11.681651115,-11.684934616,69706.000000000,1718095991.540330410
1718095991.541337,,,,-11.455381393,-11.458497047,69707.000000000,1718095991.541337490
1718095991.542345,,,,-11.039816856,-11.047163010,69708.000000000,1718095991.542344570
1718095991.543352,,,,-11.118597031,-11.124814034,69709.000000000,1718095991.543351650
1718095991.544359,,,,-11.447039604,-11.451092720,69710.000000000,1718095991.544358730
1718095991.545366,,,,-11.599672318,-11.602980614,69711.000000000,1718095991.545365810
1718095991.546373,,,,-11.382081985,-11.388226509,69712.000000000,1718095991.546372890
1718095991.547380,,,,-11.307459831,-11.313700676,69713.000000000,1718095991.547379971
1718095991.548387,,,,-11.750791550,-11.753787041,69714.000000000,1718095991.548387051
1718095991.549394,,,,-12.106399536,-12.108625412,69715.000000000,1718095991.549394131
1718095991.550401,,,,-12.323749542,-12.329076767,69716.000000000,1718095991.550401211
1718095991.551408,,,,-12.423061371,-12.428004265,69717.000000000,1718095991.551408291
1718095991.552415,,,,-12.235184669,-12.240632057,69718.000000000,1718095991.552415371
1718095991.553422,,,,-11.897222519,-11.902333260,69719.000000000,1718095991.553422451
1718095991.554430,,,,-11.358113289,-11.363729477,69720.000000000,1718095991.554429531
1718095991.555437,,,,-10.837996483,-10.841905594,69721.000000000,1718095991.555436611
1718095991.556444,,,,-10.858070374,-10.863998413,69722.000000000,1718095991.556443691
1718095991.557451,,,,-11.319287300,-11.325720787,69723.000000000,1718095991.557450771
1718095991.558458,,,,-11.877965927,-11.882379532,69724.000000000,1718095991.558457851
1718095991.559465,,,,-12.745973587,-12.752454758,69725.000000000,1718095991.559464931
1718095991.560472,,,,-13.500437737,-13.506679535,69726.000000000,1718095991.560472012
1718095991.561479,,,,-13.619078636,-13.623876572,69727.000000000,1718095991.561479092
1718095991.562486,,,,-13.588834763,-13.590748787,69728.000000000,1718095991.562486172
1718095991.563493,,,,-13.414084435,-13.420253754,69729.000000000,1718095991.563493252
1718095991.564500,,,,-12.844468117,-12.850324631,69730.000000000,1718095991.564500332
1718095991.565507,,,,-11.838347435,-11.842424393,69731.000000000,1718095991.565507412
1718095991.566514,,,,-11.329144478,-11.333101273,69732.000000000,1718095991.566514492
1718095991.567522,,,,-11.431749344,-11.434793472,69733.000000000,1718095991.567521572
1718095991.568529,,,,-11.032484055,-11.034686089,69734.000000000,1718095991.568528652
1718095991.569536,,,,-10.643460274,-10.647224426,69735.000000000,1718095991.569535732
1718095991.570543,,,,-10.814147949,-10.818465233,69736.000000000,1718095991.570542812
1718095991.571550,,,,-11.482330322,-11.487682343,69737.000000000,1718095991.571549892
1718095991.572557,,,,-11.559644699,-11.559996605,69738.000000000,1718095991.572556973
1718095991.573564,,,,-11.302940369,-11.305863380,69739.000000000,1718095991.573564053
1718095991.574571,,,,-11.080829620,-11.084594727,69740.000000000,1718095991.574571133
1718095991.575578,,,,-11.062438965,-11.064015388,69741.000000000,1718095991.575578213
1718095991.576585,,,,-11.508006096,-11.511554718,69742.000000000,1718095991.576585293
1718095991.577592,,,,-11.971699715,-11.974070549,69743.000000000,1718095991.577592373
1718095991.578599,,,,-12.201984406,-12.207720757,69744.000000000,1718095991.578599453
1718095991.579607,,,,-12.048702240,-12.051889420,69745.000000000,1718095991.579606533
1718095991.580614,,,,-11.784232140,-11.787155151,69746.000000000,1718095991.580613613
1718095991.581621,,,,-12.196527481,-12.202479362,69747.000000000,1718095991.581620693
1718095991.582628,,,,-12.611322403,-12.616530418,69748.000000000,1718095991.582627773
1718095991.583635,,,,-12.331153870,-12.331866264,69749.000000000,1718095991.583634853
1718095991.584642,,,,-11.940808296,-11.941159248,69750.000000000,1718095991.584641933
1718095991.585649,,,,-11.972902298,-11.977171898,69751.000000000,1718095991.585649014
1718095991.586656,,,,-12.043148041,-12.046792984,69752.000000000,1718095991.586656094
1718095991.587663,,,,-11.867724419,-11.871802330,69753.000000000,1718095991.587663174
1718095991.588670,,,,-11.640877724,-11.644378662,69754.000000000,1718095991.588670254
1718095991.589677,,,,-11.382946968,-11.387289047,69755.000000000,1718095991.589677334
1718095991.590684,,,,-11.186632156,-11.189218521,69756.000000000,1718095991.590684414
1718095991.591691,,,,-10.897279739,-10.901645660,69757.000000000,1718095991.591691494
1718095991.592699,,,,-11.041691780,-11.046730995,69758.000000000,1718095991.592698574
1718095991.593421,326.248138428,14071.000000000,1718095991.593420982,,,,
1718095991.593706,,,,-11.747810364,-11.753377914,69759.000000000,1718095991.593705654
1718095991.594713,,,,-12.114212036,-12.119347572,69760.000000000,1718095991.594712734
1718095991.595720,,,,-12.156884193,-12.161394119,69761.000000000,1718095991.595719814
1718095991.596727,,,,-12.272808075,-12.276692390,69762.000000000,1718095991.596726894
1718095991.597734,,,,-12.487418175,-12.491158485,69763.000000000,1718095991.597733974
1718095991.598421,326.571319580,14072.000000000,1718095991.598421097,,,,
1718095991.598741,,,,-12.782828331,-12.786785126,69764.000000000,1718095991.598741055
1718095991.599748,,,,-12.979816437,-12.983965874,69765.000000000,1718095991.599748135
1718095991.600755,,,,-12.747296333,-12.751109123,69766.000000000,1718095991.600755215
1718095991.601762,,,,-11.648450851,-11.651158333,69767.000000000,1718095991.601762295
1718095991.602769,,,,-10.639445305,-10.641479492,69768.000000000,1718095991.602769375
1718095991.603421,326.894531250,14073.000000000,1718095991.603420973,,,,
1718095991.603776,,,,-10.902712822,-10.906430244,69769.000000000,1718095991.603776455
1718095991.604784,,,,-11.278899193,-11.285068512,69770.000000000,1718095991.604783535
1718095991.605791,,,,-11.407949448,-11.415488243,69771.000000000,1718095991.605790615
1718095991.606798,,,,-11.471247673,-11.475373268,69772.000000000,1718095991.606797695
1718095991.607805,,,,-11.658884048,-11.663082123,69773.000000000,1718095991.607804775
1718095991.608421,327.282501221,14074.000000000,1718095991.608421087,,,,
1718095991.608812,,,,-11.548754692,-11.556558609,69774.000000000,1718095991.608811855
1718095991.609819,,,,-11.160884857,-11.166188240,69775.000000000,1718095991.609818935
1718095991.610826,,,,-11.225096703,-11.227058411,69776.000000000,1718095991.610826015
1718095991.611833,,,,-12.006751060,-12.009121895,69777.000000000,1718095991.611833096
1718095991.612840,,,,-12.597138405,-12.602658272,69778.000000000,1718095991.612840176
1718095991.613421,327.718963623,14075.000000000,1718095991.613420963,,,,
1718095991.613847,,,,-12.401905060,-12.405453682,69779.000000000,1718095991.613847256
1718095991.614854,,,,-12.256027222,-12.261138916,69780.000000000,1718095991.614854336
1718095991.615861,,,,-12.670510292,-12.677857399,69781.000000000,1718095991.615861416
1718095991.616868,,,,-13.122929573,-13.129483223,69782.000000000,1718095991.616868496
1718095991.617876,,,,-12.958131790,-12.965406418,69783.000000000,1718095991.617875576
1718095991.618421,328.252502441,14076.000000000,1718095991.618421078,,,,
1718095991.618883,,,,-12.608606339,-12.614294052,69784.000000000,1718095991.618882656
1718095991.619890,,,,-12.394645691,-12.399900436,69785.000000000,1718095991.619889736
1718095991.620897,,,,-11.637848854,-11.643898010,69786.000000000,1718095991.620896816
1718095991.621904,,,,-10.398174286,-10.401554108,69787.000000000,1718095991.621903896
1718095991.622911,,,,-9.717682838,-9.721423149,69788.000000000,1718095991.622910976
1718095991.623421,328.883148193,14077.000000000,1718095991.623420954,,,,
1718095991.623918,,,,-10.333889961,-10.336861610,69789.000000000,1718095991.623918056
1718095991.624925,,,,-10.961059570,-10.966555595,69790.000000000,1718095991.624925137
1718095991.625932,,,,-11.260388374,-11.266221046,69791.000000000,1718095991.625932217
1718095991.626939,,,,-11.554163933,-11.558385849,69792.000000000,1718095991.626939297
1718095991.627946,,,,-11.735116959,-11.737584114,69793.000000000,1718095991.627946377
1718095991.628421,329.513916016,14078.000000000,1718095991.628421068,,,,
1718095991.628953,,,,-12.012448311,-12.018401146,69794.000000000,1718095991.628953457
1718095991.629961,,,,-12.440226555,-12.445866585,69795.000000000,1718095991.629960537
1718095991.630968,,,,-12.253527641,-12.255296707,69796.000000000,1718095991.630967617
1718095991.631975,,,,-12.022425652,-12.025204659,69797.000000000,1718095991.631974697
1718095991.632982,,,,-12.241098404,-12.246786118,69798.000000000,1718095991.632981777
1718095991.633421,330.144836426,14079.000000000,1718095991.633420944,,,,
1718095991.633989,,,,-12.645869255,-12.652566910,69799.000000000,1718095991.633988857
1718095991.634996,,,,-12.899015427,-12.905064583,69800.000000000,1718095991.634995937
1718095991.636003,,,,-12.853699684,-12.860108376,69801.000000000,1718095991.636003017
1718095991.637010,,,,-12.541821480,-12.548471451,69802.000000000,1718095991.637010098
1718095991.638017,,,,-11.712999344,-11.715850830,69803.000000000,1718095991.638017178
1718095991.638421,330.856811523,14080.000000000,1718095991.638421059,,,,
1718095991.638509,331.552734375,14081.000000000,1718095991.638508558,,,,
1718095991.639024,,,,-10.500947952,-10.503894806,69804.000000000,1718095991.639024258
1718095991.640031,,,,-10.129160881,-10.132853508,69805.000000000,1718095991.640031338
1718095991.641038,,,,-11.142252922,-11.148181915,69806.000000000,1718095991.641038418
1718095991.642045,,,,-11.701364517,-11.705224991,69807.000000000,1718095991.642045498
1718095991.643053,,,,-11.471776962,-11.472848892,69808.000000000,1718095991.643052578
1718095991.643509,332.378326416,14082.000000000,1718095991.643508673,,,,
1718095991.644060,,,,-11.339313507,-11.341275215,69809.000000000,1718095991.644059658
1718095991.645067,,,,-11.388548851,-11.393443108,69810.000000000,1718095991.645066738
1718095991.646074,,,,-11.763532639,-11.769196510,69811.000000000,1718095991.646073818
1718095991.647081,,,,-12.393563271,-12.399203300,69812.000000000,1718095991.647080898
1718095991.648088,,,,-12.616154671,-12.621241570,69813.000000000,1718095991.648087978
1718095991.648509,333.090850830,14083.000000000,1718095991.648508549,,,,
1718095991.649095,,,,-12.400415421,-12.404949188,69814.000000000,1718095991.649095058
1718095991.650102,,,,-12.283674240,-12.287102699,69815.000000000,1718095991.650102139
1718095991.651109,,,,-12.090219498,-12.093624115,69816.000000000,1718095991.651109219
1718095991.652116,,,,-11.728817940,-11.731621742,69817.000000000,1718095991.652116299
1718095991.653123,,,,-11.569622040,-11.572857857,69818.000000000,1718095991.653123379
1718095991.654130,,,,-11.582315445,-11.586296082,69819.000000000,1718095991.654130459
1718095991.655138,,,,-12.030166626,-12.036167145,69820.000000000,1718095991.655137539
1718095991.656145,,,,-12.193979263,-12.197936058,69821.000000000,1718095991.656144619
1718095991.657152,,,,-11.980523109,-11.984119415,69822.000000000,1718095991.657151699
1718095991.658159,,,,-11.868830681,-11.871465683,69823.000000000,1718095991.658158779
1718095991.659166,,,,-11.670303345,-11.673780441,69824.000000000,1718095991.659165859
1718095991.660173,,,,-11.121217728,-11.124405861,69825.000000000,1718095991.660172939
1718095991.661180,,,,-11.085157394,-11.090339661,69826.000000000,1718095991.661180019
1718095991.662187,,,,-11.696146965,-11.701402664,69827.000000000,1718095991.662187099
1718095991.663194,,,,-12.397217751,-12.401679993,69828.000000000,1718095991.663194180
1718095991.664201,,,,-12.320456505,-12.323643684,69829.000000000,1718095991.664201260
1718095991.665208,,,,-11.878375053,-11.882211685,69830.000000000,1718095991.665208340
1718095991.666215,,,,-11.679006577,-11.681521416,69831.000000000,1718095991.666215420
1718095991.667222,,,,-11.439923286,-11.442605972,69832.000000000,1718095991.667222500
1718095991.668230,,,,-10.978321075,-10.980931282,69833.000000000,1718095991.668229580
1718095991.669237,,,,-10.782774925,-10.786924362,69834.000000000,1718095991.669236660
1718095991.670244,,,,-10.945217133,-10.950183868,69835.000000000,1718095991.670243740
1718095991.671251,,,,-11.084916115,-11.088705063,69836.000000000,1718095991.671250820
1718095991.672258,,,,-10.972622871,-10.977229118,69837.000000000,1718095991.672257900
1718095991.673265,,,,-11.118669510,-11.123419762,69838.000000000,1718095991.673264980
1718095991.674272,,,,-11.472858429,-11.477729797,69839.000000000,1718095991.674272060
1718095991.675279,,,,-11.753940582,-11.758066177,69840.000000000,1718095991.675279140
1718095991.676286,,,,-11.959511757,-11.963901520,69841.000000000,1718095991.676286221
1718095991.677293,,,,-12.382312775,-12.385788918,69842.000000000,1718095991.677293301
1718095991.678300,,,,-12.561342239,-12.564169884,69843.000000000,1718095991.678300381
1718095991.679307,,,,-12.653657913,-12.657735825,69844.000000000,1718095991.679307461
1718095991.680315,,,,-13.162596703,-13.170928955,69845.000000000,1718095991.680314541
1718095991.681322,,,,-13.464329720,-13.470425606,69846.000000000,1718095991.681321621
1718095991.682329,,,,-13.097422600,-13.102918625,69847.000000000,1718095991.682328701
1718095991.683336,,,,-12.503477097,-12.508131027,69848.000000000,1718095991.683335781
1718095991.684343,,,,-12.160369873,-12.162884712,69849.000000000,1718095991.684342861
1718095991.685350,,,,-11.832529068,-11.835933685,69850.000000000,1718095991.685349941
1718095991.686357,,,,-11.594792366,-11.600071907,69851.000000000,1718095991.686357021
1718095991.687364,,,,-11.339409828,-11.343606949,69852.000000000,1718095991.687364101
1718095991.688371,,,,-11.252407074,-11.256940842,69853.000000000,1718095991.688371181
1718095991.688509,338.164428711,14091.000000000,1718095991.688508511,,,,
1718095991.689378,,,,-11.139392853,-11.141234398,69854.000000000,1718095991.689378262
1718095991.690385,,,,-10.664904594,-10.666746140,69855.000000000,1718095991.690385342
1718095991.691392,,,,-10.898626328,-10.907127380,69856.000000000,1718095991.691392422
1718095991.692400,,,,-11.500288963,-11.506818771,69857.000000000,1718095991.692399502
1718095991.693407,,,,-12.000260353,-12.003135681,69858.000000000,1718095991.693406582
1718095991.693509,338.359130859,14092.000000000,1718095991.693508625,,,,
1718095991.694414,,,,-12.187872887,-12.192815781,69859.000000000,1718095991.694413662
1718095991.695421,,,,-11.924460411,-11.929547310,69860.000000000,1718095991.695420742
1718095991.696428,,,,-11.296785355,-11.298892021,69861.000000000,1718095991.696427822
1718095991.697435,,,,-11.090974808,-11.094210625,69862.000000000,1718095991.697434902
1718095991.698442,,,,-11.904987335,-11.909473419,69863.000000000,1718095991.698441982
1718095991.698509,338.570068359,14093.000000000,1718095991.698508501,,,,
1718095991.699449,,,,-12.661302567,-12.667688370,69864.000000000,1718095991.699449062
1718095991.700456,,,,-12.793117523,-12.798324585,69865.000000000,1718095991.700456142
1718095991.701463,,,,-12.619039536,-12.623188972,69866.000000000,1718095991.701463223
1718095991.702470,,,,-12.411689758,-12.417017937,69867.000000000,1718095991.702470303
1718095991.703477,,,,-12.091614723,-12.095258713,69868.000000000,1718095991.703477383
1718095991.703509,338.618713379,14094.000000000,1718095991.703508615,,,,
1718095991.704484,,,,-11.986773491,-11.988782883,69869.000000000,1718095991.704484463
1718095991.705492,,,,-12.105557442,-12.108841896,69870.000000000,1718095991.705491543
1718095991.706499,,,,-12.335000992,-12.340616226,69871.000000000,1718095991.706498623
1718095991.707506,,,,-12.342573166,-12.346482277,69872.000000000,1718095991.707505703
1718095991.708508,338.667419434,14095.000000000,1718095991.708508492,,,,
1718095991.708513,,,,-11.661024094,-11.663562775,69873.000000000,1718095991.708512783
1718095991.709520,,,,-10.925431252,-10.926479340,69874.000000000,1718095991.709519863
1718095991.710527,,,,-10.767821312,-10.768965721,69875.000000000,1718095991.710526943
1718095991.711534,,,,-10.727289200,-10.727905273,69876.000000000,1718095991.711534023
1718095991.712541,,,,-10.870547295,-10.875922203,69877.000000000,1718095991.712541103
1718095991.713509,338.764801025,14096.000000000,1718095991.713508606,,,,
1718095991.713548,,,,-11.107418060,-11.112169266,69878.000000000,1718095991.713548183
1718095991.714555,,,,-11.436845779,-11.440923691,69879.000000000,1718095991.714555264
1718095991.715562,,,,-11.774278641,-11.778813362,69880.000000000,1718095991.715562344
1718095991.716569,,,,-12.073295593,-12.075785637,69881.000000000,1718095991.716569424
1718095991.717577,,,,-12.098706245,-12.102422714,69882.000000000,1718095991.717576504
1718095991.718508,338.748535156,14097.000000000,1718095991.718508482,,,,
1718095991.718584,,,,-12.306248665,-12.311431885,69883.000000000,1718095991.718583584
1718095991.719591,,,,-12.597043037,-12.600133896,69884.000000000,1718095991.719590664
1718095991.720598,,,,-12.395823479,-12.397881508,69885.000000000,1718095991.720597744
1718095991.721605,,,,-11.961362839,-11.963516235,69886.000000000,1718095991.721604824
1718095991.722612,,,,-11.706124306,-11.710947037,69887.000000000,1718095991.722611904
1718095991.723509,338.894622803,14098.000000000,1718095991.723508596,,,,
1718095991.723619,,,,-11.620419502,-11.624064445,69888.000000000,1718095991.723618984
1718095991.724626,,,,-11.629434586,-11.633512497,69889.000000000,1718095991.724626064
1718095991.725633,,,,-11.858228683,-11.862594604,69890.000000000,1718095991.725633144
1718095991.726640,,,,-12.220231056,-12.223923683,69891.000000000,1718095991.726640224
1718095991.727647,,,,-12.062260628,-12.065592766,69892.000000000,1718095991.727647305
1718095991.728508,338.991973877,14099.000000000,1718095991.728508472,,,,
1718095991.728654,,,,-11.663572311,-11.667818069,69893.000000000,1718095991.728654385
1718095991.729661,,,,-11.544788361,-11.548985481,69894.000000000,1718095991.729661465
1718095991.730669,,,,-11.871378899,-11.874134064,69895.000000000,1718095991.730668545
1718095991.731676,,,,-12.227491379,-12.233083725,69896.000000000,1718095991.731675625
1718095991.732683,,,,-12.149239540,-12.151514053,69897.000000000,1718095991.732682705
1718095991.733509,339.121826172,14100.000000000,1718095991.733508587,,,,
1718095991.733690,,,,-11.541133881,-11.542037964,69898.000000000,1718095991.733689785
1718095991.734697,,,,-11.269788742,-11.276366234,69899.000000000,1718095991.734696865
1718095991.735704,,,,-11.601763725,-11.605336189,69900.000000000,1718095991.735703945
1718095991.736711,,,,-12.126833916,-12.134204865,69901.000000000,1718095991.736711025
1718095991.737718,,,,-12.692338943,-12.699277878,69902.000000000,1718095991.737718105
1718095991.738725,,,,-12.915050507,-12.918575287,69903.000000000,1718095991.738725185
1718095991.739732,,,,-12.655244827,-12.656653404,69904.000000000,1718095991.739732265
1718095991.740739,,,,-12.026584625,-12.030397415,69905.000000000,1718095991.740739346
1718095991.741746,,,,-11.082079887,-11.085315704,69906.000000000,1718095991.741746426
1718095991.742754,,,,-10.378316879,-10.380687714,69907.000000000,1718095991.742753506
1718095991.743761,,,,-10.432432175,-10.436701775,69908.000000000,1718095991.743760586
1718095991.744069,339.219207764,14101.000000000,1718095991.744068623,,,,
1718095991.744768,,,,-11.483580589,-11.489004135,69909.000000000,1718095991.744767666
1718095991.745775,,,,-12.288313866,-12.294483185,69910.000000000,1718095991.745774746
1718095991.746782,,,,-12.353055000,-12.360113144,69911.000000000,1718095991.746781826
1718095991.747789,,,,-12.301055908,-12.305541039,69912.000000000,1718095991.747788906
1718095991.748796,,,,-12.028315544,-12.031984329,69913.000000000,1718095991.748795986
1718095991.749069,339.397766113,14102.000000000,1718095991.749068737,,,,
1718095991.749803,,,,-11.560317993,-11.563794136,69914.000000000,1718095991.749803066
1718095991.750810,,,,-11.751849174,-11.753763199,69915.000000000,1718095991.750810146
1718095991.751817,,,,-12.182703972,-12.186780930,69916.000000000,1718095991.751817226
1718095991.752824,,,,-12.171260834,-12.176275253,69917.000000000,1718095991.752824306
1718095991.753831,,,,-11.734587669,-11.738352776,69918.000000000,1718095991.753831387
1718095991.754069,339.625000000,14103.000000000,1718095991.754068613,,,,
1718095991.754838,,,,-11.025897026,-11.030214310,69919.000000000,1718095991.754838467
1718095991.755846,,,,-10.839462280,-10.844597816,69920.000000000,1718095991.755845547
1718095991.756853,,,,-11.146123886,-11.150609970,69921.000000000,1718095991.756852627
1718095991.757860,,,,-11.428936958,-11.433783531,69922.000000000,1718095991.757859707
1718095991.758867,,,,-12.101037979,-12.108096123,69923.000000000,1718095991.758866787
1718095991.759069,339.949676514,14104.000000000,1718095991.759068727,,,,
1718095991.759874,,,,-12.537926674,-12.544816971,69924.000000000,1718095991.759873867
1718095991.760881,,,,-12.308868408,-12.311552048,69925.000000000,1718095991.760880947
1718095991.761888,,,,-12.062164307,-12.066433907,69926.000000000,1718095991.761888027
1718095991.762895,,,,-12.085388184,-12.092517853,69927.000000000,1718095991.762895107
1718095991.763902,,,,-11.662394524,-11.665413857,69928.000000000,1718095991.763902187
1718095991.764069,340.323120117,14105.000000000,1718095991.764068604,,,,
1718095991.764909,,,,-11.619746208,-11.625074387,69929.000000000,1718095991.764909267
1718095991.765916,,,,-12.112817764,-12.118601799,69930.000000000,1718095991.765916348
1718095991.766923,,,,-12.496865273,-12.503995895,69931.000000000,1718095991.766923428
1718095991.767931,,,,-12.376951218,-12.385067940,69932.000000000,1718095991.767930508
1718095991.768938,,,,-11.839838028,-11.843914986,69933.000000000,1718095991.768937588
1718095991.769069,340.777862549,14106.000000000,1718095991.769068718,,,,
1718095991.769945,,,,-11.290751457,-11.295742989,69934.000000000,1718095991.769944668
1718095991.770952,,,,-11.191464424,-11.197392464,69935.000000000,1718095991.770951748
1718095991.771959,,,,-11.509689331,-11.516338348,69936.000000000,1718095991.771958828
1718095991.772966,,,,-11.884913445,-11.888798714,69937.000000000,1718095991.772965908
1718095991.773973,,,,-11.884865761,-11.887668610,69938.000000000,1718095991.773972988
1718095991.774069,341.265075684,14107.000000000,1718095991.774068594,,,,
1718095991.774980,,,,-11.504977226,-11.506361961,69939.000000000,1718095991.774980068
1718095991.775987,,,,-10.834077835,-10.835967064,69940.000000000,1718095991.775987148
1718095991.776994,,,,-10.750247955,-10.754133224,69941.000000000,1718095991.776994228
1718095991.778001,,,,-11.215456963,-11.222827911,69942.000000000,1718095991.778001308
1718095991.779008,,,,-11.494759560,-11.501866341,69943.000000000,1718095991.779008389
1718095991.780015,,,,-11.715187073,-11.721860886,69944.000000000,1718095991.780015469
1718095991.781023,,,,-12.074666023,-12.079656601,69945.000000000,1718095991.781022549
1718095991.782030,,,,-12.469579697,-12.475027084,69946.000000000,1718095991.782029629
1718095991.783037,,,,-12.686497688,-12.691103935,69947.000000000,1718095991.783036709
1718095991.784044,,,,-12.639473915,-12.646196365,69948.000000000,1718095991.784043789
1718095991.785051,,,,-12.210494995,-12.217625618,69949.000000000,1718095991.785050869
1718095991.786058,,,,-11.802406311,-11.808959961,69950.000000000,1718095991.786057949
1718095991.787065,,,,-11.638281822,-11.643368721,69951.000000000,1718095991.787065029
1718095991.788072,,,,-11.423671722,-11.428927422,69952.000000000,1718095991.788072109
1718095991.789079,,,,-11.177400589,-11.182920456,69953.000000000,1718095991.789079189
1718095991.790086,,,,-11.259234428,-11.264417648,69954.000000000,1718095991.790086269
1718095991.791093,,,,-11.472353935,-11.476960182,69955.000000000,1718095991.791093349
1718095991.792100,,,,-11.307532310,-11.312619209,69956.000000000,1718095991.792100430
1718095991.793108,,,,-11.088210106,-11.094523430,69957.000000000,1718095991.793107510
1718095991.794069,343.654052734,14111.000000000,1718095991.794068575,,,,
1718095991.794115,,,,-11.350083351,-11.355171204,69958.000000000,1718095991.794114590
1718095991.795122,,,,-11.707302094,-11.714673042,69959.000000000,1718095991.795121670
1718095991.796129,,,,-11.852531433,-11.860454559,69960.000000000,1718095991.796128750
1718095991.797136,,,,-12.396135330,-12.403218269,69961.000000000,1718095991.797135830
1718095991.798143,,,,-13.132810593,-13.139892578,69962.000000000,1718095991.798142910
1718095991.799069,344.206939697,14112.000000000,1718095991.799068689,,,,
1718095991.799150,,,,-13.288160324,-13.296444893,69963.000000000,1718095991.799149990
1718095991.800157,,,,-12.894568443,-12.899462700,69964.000000000,1718095991.800157070
1718095991.801164,,,,-12.548408508,-12.553183556,69965.000000000,1718095991.801164150
1718095991.802171,,,,-12.281293869,-12.285539627,69966.000000000,1718095991.802171230
1718095991.803178,,,,-12.282880783,-12.289073944,69967.000000000,1718095991.803178310
1718095991.804069,344.678619385,14113.000000000,1718095991.804068565,,,,
1718095991.804185,,,,-12.272038460,-12.277173996,69968.000000000,1718095991.804185390
1718095991.805192,,,,-11.975618362,-11.976666451,69969.000000000,1718095991.805192471
1718095991.806200,,,,-11.581474304,-11.585021973,69970.000000000,1718095991.806199551
1718095991.807207,,,,-11.537455559,-11.541172028,69971.000000000,1718095991.807206631
1718095991.808214,,,,-11.620155334,-11.623294830,69972.000000000,1718095991.808213711
1718095991.809069,344.971405029,14114.000000000,1718095991.809068680,,,,
1718095991.809221,,,,-11.242838860,-11.244993210,69973.000000000,1718095991.809220791
1718095991.810228,,,,-10.979642868,-10.983215332,69974.000000000,1718095991.810227871
1718095991.811235,,,,-10.996784210,-10.999587059,69975.000000000,1718095991.811234951
1718095991.812242,,,,-10.988923073,-10.994177818,69976.000000000,1718095991.812242031
1718095991.813249,,,,-11.108837128,-11.114091873,69977.000000000,1718095991.813249111
1718095991.814069,345.313079834,14115.000000000,1718095991.814068556,,,,
1718095991.814256,,,,-11.165957451,-11.167654037,69978.000000000,1718095991.814256191
1718095991.815263,,,,-11.255243301,-11.259922028,69979.000000000,1718095991.815263271
1718095991.816270,,,,-11.227910042,-11.231674194,69980.000000000,1718095991.816270351
1718095991.817277,,,,-11.137685776,-11.140777588,69981.000000000,1718095991.817277431
1718095991.818285,,,,-11.443601608,-11.446236610,69982.000000000,1718095991.818284512
1718095991.819069,345.654785156,14116.000000000,1718095991.819068670,,,,
1718095991.819292,,,,-12.368465424,-12.369561195,69983.000000000,1718095991.819291592
1718095991.820299,,,,-12.937360764,-12.939009666,69984.000000000,1718095991.820298672
1718095991.821306,,,,-13.007078171,-13.010987282,69985.000000000,1718095991.821305752
1718095991.822313,,,,-12.858339310,-12.863666534,69986.000000000,1718095991.822312832
1718095991.823320,,,,-12.180516243,-12.182645798,69987.000000000,1718095991.823319912
1718095991.824069,346.077880859,14117.000000000,1718095991.824068546,,,,
1718095991.824327,,,,-11.384437561,-11.385822296,69988.000000000,1718095991.824326992
1718095991.825334,,,,-11.135762215,-11.139815331,69989.000000000,1718095991.825334072
1718095991.826341,,,,-11.430499077,-11.432460785,69990.000000000,1718095991.826341152
1718095991.827348,,,,-11.760912895,-11.763859749,69991.000000000,1718095991.827348232
1718095991.828355,,,,-11.494566917,-11.499318123,69992.000000000,1718095991.828355312
1718095991.829069,346.549926758,14118.000000000,1718095991.829068661,,,,
1718095991.829362,,,,-11.195359230,-11.196984291,69993.000000000,1718095991.829362392
1718095991.830369,,,,-11.193435669,-11.195036888,69994.000000000,1718095991.830369473
1718095991.831377,,,,-11.154297829,-11.156523705,69995.000000000,1718095991.831376553
1718095991.832384,,,,-11.139728546,-11.142844200,69996.000000000,1718095991.832383633
1718095991.833391,,,,-11.574357986,-11.578916550,69997.000000000,1718095991.833390713
1718095991.834069,347.005737305,14119.000000000,1718095991.834068537,,,,
1718095991.834398,,,,-11.966747284,-11.969430923,69998.000000000,1718095991.834397793
1718095991.835405,,,,-12.023026466,-12.028473854,69999.000000000,1718095991.835404873
1718095991.836412,,,,-11.953236580,-11.955607414,70000.000000000,1718095991.836411953
1718095991.837419,,,,-12.099475861,-12.101629257,70001.000000000,1718095991.837419033
1718095991.838426,,,,-12.450779915,-12.455819130,70002.000000000,1718095991.838426113
1718095991.839069,347.624542236,14120.000000000,1718095991.839068651,,,,
1718095991.839433,,,,-12.637742996,-12.641411781,70003.000000000,1718095991.839433193
1718095991.840440,,,,-12.538407326,-12.543903351,70004.000000000,1718095991.840440273
1718095991.841447,,,,-12.186622620,-12.192118645,70005.000000000,1718095991.841447353
1718095991.842454,,,,-11.560606956,-11.565284729,70006.000000000,1718095991.842454433
1718095991.843462,,,,-10.835327148,-10.838851929,70007.000000000,1718095991.843461514
1718095991.844469,,,,-10.734501839,-10.740742683,70008.000000000,1718095991.844468594
1718095991.845476,,,,-11.243319511,-11.248045921,70009.000000000,1718095991.845475674
1718095991.846483,,,,-11.547720909,-11.552279472,70010.000000000,1718095991.846482754
1718095991.847490,,,,-11.550221443,-11.553793907,70011.000000000,1718095991.847489834
1718095991.848497,,,,-11.644845009,-11.647744179,70012.000000000,1718095991.848496914
1718095991.849402,348.145782471,14121.000000000,1718095991.849401712,,,,
1718095991.849504,,,,-11.773726463,-11.779967308,70013.000000000,1718095991.849503994
1718095991.850511,,,,-11.671096802,-11.675222397,70014.000000000,1718095991.850511074
1718095991.851518,,,,-11.364796638,-11.366854668,70015.000000000,1718095991.851518154
1718095991.852525,,,,-11.439995766,-11.443038940,70016.000000000,1718095991.852525234
1718095991.853532,,,,-11.573156357,-11.575670242,70017.000000000,1718095991.853532314
1718095991.854402,348.748596191,14122.000000000,1718095991.854401827,,,,
1718095991.854539,,,,-11.669125557,-11.674572945,70018.000000000,1718095991.854539394
1718095991.855546,,,,-11.675832748,-11.679188728,70019.000000000,1718095991.855546474
1718095991.856554,,,,-11.684776306,-11.685079575,70020.000000000,1718095991.856553555
1718095991.857561,,,,-11.950207710,-11.951255798,70021.000000000,1718095991.857560635
1718095991.858568,,,,-12.528166771,-12.532893181,70022.000000000,1718095991.858567715
1718095991.859402,349.237426758,14123.000000000,1718095991.859401703,,,,
1718095991.859575,,,,-13.012487411,-13.017237663,70023.000000000,1718095991.859574795
1718095991.860582,,,,-12.571367264,-12.576526642,70024.000000000,1718095991.860581875
1718095991.861589,,,,-11.787645340,-11.789535522,70025.000000000,1718095991.861588955
1718095991.862596,,,,-11.138406754,-11.139214516,70026.000000000,1718095991.862596035
1718095991.863603,,,,-11.333711624,-11.338294029,70027.000000000,1718095991.863603115
1718095991.864402,349.824249268,14124.000000000,1718095991.864401817,,,,
1718095991.864610,,,,-11.885947227,-11.889135361,70028.000000000,1718095991.864610195
1718095991.865617,,,,-12.262830734,-12.264792442,70029.000000000,1718095991.865617275
1718095991.866624,,,,-12.461117744,-12.467478752,70030.000000000,1718095991.866624355
1718095991.867631,,,,-12.804633141,-12.811041832,70031.000000000,1718095991.867631435
1718095991.868639,,,,-13.156370163,-13.158283234,70032.000000000,1718095991.868638515
1718095991.869402,350.215515137,14125.000000000,1718095991.869401693,,,,
1718095991.869646,,,,-12.822879791,-12.823783875,70033.000000000,1718095991.869645596
1718095991.870653,,,,-11.991773605,-11.995851517,70034.000000000,1718095991.870652676
1718095991.871660,,,,-11.589383125,-11.592114449,70035.000000000,1718095991.871659756
1718095991.872667,,,,-11.604624748,-11.606418610,70036.000000000,1718095991.872666836
