__time,/gdx/grip_force_stream/grip_force,/gdx/grip_force_stream/header/seq,/gdx/grip_force_stream/header/stamp,/shimmer0/emg_stream/emg_ch1,/shimmer0/emg_stream/emg_ch2,/shimmer0/emg_stream/header/seq,/shimmer0/emg_stream/header/stamp
1670928437.249454,,,,0.118540,0.117522,710803.000000,1670928437.273914
1670928437.249476,,,,0.118420,0.118508,710804.000000,1670928437.274921
1670928437.249507,,,,0.118227,0.116561,710805.000000,1670928437.275928
1670928437.249519,,,,0.113900,0.114133,710806.000000,1670928437.276936
1670928437.249535,,,,0.111881,0.114061,710807.000000,1670928437.277943
1670928437.249850,,,,0.111135,0.112378,710808.000000,1670928437.278950
1670928437.249980,,,,0.106399,0.107738,710809.000000,1670928437.279957
1670928437.250270,,,,0.100197,0.101800,710810.000000,1670928437.280964
1670928437.250566,,,,0.093946,0.095501,710811.000000,1670928437.281971
1670928437.250808,,,,0.091110,0.090934,710812.000000,1670928437.282978
1670928437.251094,,,,0.085965,0.086222,710813.000000,1670928437.283985
1670928437.251471,,,,0.081710,0.081317,710814.000000,1670928437.284992
1670928437.251886,,,,0.083104,0.082856,710815.000000,1670928437.285999
1670928437.251903,,,,0.084523,0.085813,710816.000000,1670928437.287006
1670928437.252212,,,,0.087624,0.089058,710817.000000,1670928437.288013
1670928437.252451,,,,0.090316,0.090188,710818.000000,1670928437.289021
1670928437.252639,,,,0.095701,0.094997,710819.000000,1670928437.290028
1670928437.253118,,,,0.104596,0.104517,710820.000000,1670928437.291035
1670928437.253289,,,,0.109645,0.110286,710821.000000,1670928437.292042
1670928437.253593,,,,0.111015,0.109541,710822.000000,1670928437.293049
1670928437.253772,,,,0.116448,0.114301,710823.000000,1670928437.294056
1670928437.253784,,,,0.117170,0.118196,710824.000000,1670928437.295063
1670928437.253973,,,,0.118324,0.118941,710825.000000,1670928437.296070
1670928437.254615,,,,0.116665,0.116272,710826.000000,1670928437.297077
1670928437.254681,,,,0.114525,0.113412,710827.000000,1670928437.298084
1670928437.254695,,,,0.109404,0.108315,710828.000000,1670928437.299091
1670928437.254701,,,,0.099307,0.099588,710829.000000,1670928437.300098
1670928437.254798,,,,0.090773,0.089732,710830.000000,1670928437.301105
1670928437.254899,,,,0.087648,0.087568,710831.000000,1670928437.302113
1670928437.256527,,,,0.084162,0.085068,710832.000000,1670928437.303120
1670928437.256657,,,,0.083080,0.081245,710833.000000,1670928437.304127
1670928437.270510,,,,0.093826,0.094083,710834.000000,1670928437.305134
1670928437.270759,,,,0.093706,0.094516,710835.000000,1670928437.306141
1670928437.271032,,,,0.094692,0.095165,710836.000000,1670928437.307148
1670928437.271039,,,,0.094571,0.094347,710837.000000,1670928437.308155
1670928437.278152,,,,0.094307,0.096631,710838.000000,1670928437.309162
1670928437.278274,-0.551216,725901.000000,1670928437.217057,,,,
1670928437.278785,,,,0.098057,0.100141,710839.000000,1670928437.310169
1670928437.278804,,,,0.102144,0.102810,710840.000000,1670928437.311176
1670928437.278895,,,,0.108539,0.108219,710841.000000,1670928437.312183
1670928437.280278,-0.551216,725928.000000,1670928437.244057,,,,
1670928437.280921,-0.569305,725929.000000,1670928437.245057,,,,
1670928437.280941,-0.587394,725930.000000,1670928437.246057,,,,
1670928437.280958,-0.515030,725931.000000,1670928437.247057,,,,
1670928437.281382,-0.551216,725932.000000,1670928437.248057,,,,
1670928437.281392,-0.587394,725933.000000,1670928437.249057,,,,
1670928437.281398,-0.605483,725934.000000,1670928437.250057,,,,
1670928437.281403,-0.587394,725935.000000,1670928437.251057,,,,
1670928437.281546,-0.605483,725936.000000,1670928437.252057,,,,
1670928437.281565,-0.569305,725937.000000,1670928437.253057,,,,
1670928437.281573,-0.533127,725952.000000,1670928437.268057,,,,
1670928437.281583,-0.587394,725953.000000,1670928437.269057,,,,
1670928437.281600,-0.569305,725954.000000,1670928437.270057,,,,
1670928437.281632,-0.533127,725955.000000,1670928437.271057,,,,
1670928437.281669,-0.551216,725956.000000,1670928437.272057,,,,
1670928437.281680,-0.515030,725957.000000,1670928437.273057,,,,
1670928437.281689,-0.533127,725958.000000,1670928437.274057,,,,
1670928437.281696,-0.551216,725959.000000,1670928437.275057,,,,
1670928437.281712,-0.605483,725960.000000,1670928437.276057,,,,
1670928437.281723,-0.605483,725961.000000,1670928437.277057,,,,
1670928437.284254,,,,0.113612,0.115022,710842.000000,1670928437.313190
1670928437.284263,,,,0.113948,0.114782,710843.000000,1670928437.314198
1670928437.284359,,,,0.110534,0.108772,710844.000000,1670928437.315205
1670928437.286760,,,,0.108202,0.108964,710845.000000,1670928437.316212
1670928437.286775,,,,0.111328,0.108844,710846.000000,1670928437.317219
1670928437.286786,,,,0.107313,0.107401,710847.000000,1670928437.318226
1670928437.286967,,,,0.098514,0.099444,710848.000000,1670928437.319233
1670928437.291497,,,,0.091542,0.091463,710849.000000,1670928437.320240
1670928437.291753,,,,0.092792,0.095646,710850.000000,1670928437.321247
1670928437.292053,,,,0.096615,0.098386,710851.000000,1670928437.322254
1670928437.292070,,,,0.097264,0.096391,710852.000000,1670928437.323261
1670928437.294142,,,,0.094091,0.093290,710853.000000,1670928437.324268
1670928437.294168,,,,0.093898,0.094732,710854.000000,1670928437.325275
1670928437.294516,,,,0.093081,0.094155,710855.000000,1670928437.326283
1670928437.294640,,,,0.092937,0.093794,710856.000000,1670928437.327290
1670928437.299464,,,,0.098803,0.097833,710857.000000,1670928437.328297
1670928437.299684,,,,0.102721,0.102401,710858.000000,1670928437.329304
1670928437.302255,,,,0.109453,0.110647,710859.000000,1670928437.330311
1670928437.302676,,,,0.110198,0.112859,710860.000000,1670928437.331318
1670928437.302735,,,,0.107938,0.110455,710861.000000,1670928437.332325
1670928437.302762,,,,0.116136,0.118051,710862.000000,1670928437.333332
1670928437.306975,,,,0.125776,0.126225,710863.000000,1670928437.334339
1670928437.307131,,,,0.128012,0.128485,710864.000000,1670928437.335346
1670928437.307330,,,,0.122819,0.125071,710865.000000,1670928437.336353
1670928437.307410,,,,0.115775,0.117979,710866.000000,1670928437.337360
1670928437.307534,,,,0.112434,0.114277,710867.000000,1670928437.338367
1670928437.307607,,,,0.109813,0.112137,710868.000000,1670928437.339375
1670928437.307612,,,,0.101062,0.101800,710869.000000,1670928437.340382
1670928437.307615,,,,0.096783,0.096703,710870.000000,1670928437.341389
1670928437.308696,,,,0.090701,0.089107,710871.000000,1670928437.342396
1670928437.308889,,,,0.085893,0.086414,710872.000000,1670928437.343403
1670928437.308902,,,,0.083657,0.084851,710873.000000,1670928437.344410
1670928437.318753,,,,0.085436,0.087207,710874.000000,1670928437.345417
1670928437.318760,,,,0.083849,0.083866,710875.000000,1670928437.346424
1670928437.318764,,,,0.085075,0.084948,710876.000000,1670928437.347431
1670928437.318767,,,,0.090869,0.091943,710877.000000,1670928437.348438
1670928437.318772,,,,0.094692,0.097593,710878.000000,1670928437.349445
1670928437.318776,,,,0.094884,0.097521,710879.000000,1670928437.350452
1670928437.318787,,,,0.097961,0.099901,710880.000000,1670928437.351460
1670928437.318790,,,,0.104380,0.107450,710881.000000,1670928437.352467
1670928437.318795,,,,0.109933,0.113051,710882.000000,1670928437.353474
1670928437.318807,,,,0.111616,0.113412,710883.000000,1670928437.354481
1670928437.318810,,,,0.111929,0.113051,710884.000000,1670928437.355488
1670928437.318812,,,,0.113612,0.114902,710885.000000,1670928437.356495
1670928437.318833,,,,0.112770,0.113989,710886.000000,1670928437.357502
1670928437.318837,,,,0.106015,0.106656,710887.000000,1670928437.358509
1670928437.330549,,,,0.104717,0.101728,710888.000000,1670928437.359516
1670928437.330700,,,,0.108515,0.106199,710889.000000,1670928437.360523
1670928437.330969,,,,0.110414,0.111849,710890.000000,1670928437.361530
1670928437.331135,,,,0.109453,0.110166,710891.000000,1670928437.362537
1670928437.331312,,,,0.108803,0.107522,710892.000000,1670928437.363544
1670928437.331431,,,,0.108563,0.110094,710893.000000,1670928437.364552
1670928437.331589,,,,0.114621,0.112714,710894.000000,1670928437.365559
1670928437.331789,,,,0.113732,0.114325,710895.000000,1670928437.366566
1670928437.338681,,,,0.105582,0.106921,710896.000000,1670928437.367573
1670928437.338909,,,,0.102529,0.100406,710897.000000,1670928437.368580
1670928437.339005,,,,0.097456,0.096992,710898.000000,1670928437.369587
1670928437.339259,,,,0.099764,0.099468,710899.000000,1670928437.370594
1670928437.340401,,,,0.107962,0.105454,710900.000000,1670928437.371601
1670928437.340590,,,,0.099981,0.100021,710901.000000,1670928437.372608
1670928437.340880,,,,0.097721,0.100334,710902.000000,1670928437.373615
1670928437.340892,,,,0.099620,0.101031,710903.000000,1670928437.374622
1670928437.340899,,,,0.101327,0.101896,710904.000000,1670928437.375629
1670928437.340939,,,,0.104332,0.102161,710905.000000,1670928437.376637
1670928437.340951,,,,0.097793,0.097953,710906.000000,1670928437.377644
1670928437.340968,,,,0.092167,0.094516,710907.000000,1670928437.378651
1670928437.340983,,,,0.092384,0.095021,710908.000000,1670928437.379658
1670928437.344656,,,,0.092215,0.092208,710909.000000,1670928437.380665
1670928437.344773,,,,0.086878,0.086102,710910.000000,1670928437.381672
1670928437.345110,,,,0.082046,0.079514,710911.000000,1670928437.382679
1670928437.345433,,,,0.075483,0.075788,710912.000000,1670928437.383686
1670928437.346068,,,,0.075147,0.077759,710913.000000,1670928437.384693
1670928437.346069,-0.677848,725963.000000,1670928437.285254,,,,
1670928437.346245,-0.533127,725964.000000,1670928437.286253,,,,
1670928437.346392,,,,0.080989,0.083842,710914.000000,1670928437.385700
1670928437.346551,,,,0.090148,0.091030,710915.000000,1670928437.386707
1670928437.346565,,,,0.099476,0.098867,710916.000000,1670928437.387714
1670928437.346853,,,,0.107601,0.107594,710917.000000,1670928437.388721
1670928437.347031,,,,0.122579,0.122619,710918.000000,1670928437.389729
1670928437.347213,-0.551216,725965.000000,1670928437.287254,,,,
1670928437.347409,,,,0.132291,0.132163,710919.000000,1670928437.390736
1670928437.347748,,,,0.140104,0.137668,710920.000000,1670928437.391743
1670928437.347907,,,,0.136282,0.136082,710921.000000,1670928437.392750
1670928437.347926,,,,0.130392,0.130480,710922.000000,1670928437.393757
1670928437.347934,,,,0.123396,0.125360,710923.000000,1670928437.394764
1670928437.348011,-0.587394,725966.000000,1670928437.288254,,,,
1670928437.348239,-0.569305,725967.000000,1670928437.289253,,,,
1670928437.348264,-0.533127,725968.000000,1670928437.290254,,,,
1670928437.348268,-0.569305,725969.000000,1670928437.291254,,,,
1670928437.348270,-0.569305,725970.000000,1670928437.292253,,,,
1670928437.348273,-0.605483,725971.000000,1670928437.293253,,,,
1670928437.348361,-0.587394,725972.000000,1670928437.294254,,,,
1670928437.348372,-0.388406,726013.000000,1670928437.335253,,,,
1670928437.348378,-0.406495,726014.000000,1670928437.336254,,,,
1670928437.348423,-0.424584,726015.000000,1670928437.337254,,,,
1670928437.348433,-0.388406,726016.000000,1670928437.338253,,,,
1670928437.348464,-0.370309,726017.000000,1670928437.339253,,,,
1670928437.348473,-0.334131,726018.000000,1670928437.340254,,,,
1670928437.348480,-0.352220,726019.000000,1670928437.341254,,,,
1670928437.348489,-0.388406,726020.000000,1670928437.342253,,,,
1670928437.348492,-0.406495,726021.000000,1670928437.343254,,,,
1670928437.348514,-0.406495,726022.000000,1670928437.344254,,,,
1670928437.351730,,,,0.117819,0.119590,710924.000000,1670928437.395771
1670928437.351903,,,,0.117194,0.117859,710925.000000,1670928437.396778
1670928437.352141,,,,0.109813,0.108844,710926.000000,1670928437.397785
1670928437.352370,,,,0.101832,0.102810,710927.000000,1670928437.398792
1670928437.352568,,,,0.096254,0.098987,710928.000000,1670928437.399799
1670928437.352793,,,,0.091206,0.093362,710929.000000,1670928437.400806
1670928437.353020,,,,0.087047,0.087592,710930.000000,1670928437.401814
1670928437.354496,,,,0.080363,0.081366,710931.000000,1670928437.402821
1670928437.354686,,,,0.079931,0.079755,710932.000000,1670928437.403828
1670928437.355032,,,,0.075483,0.075211,710933.000000,1670928437.404835
1670928437.355174,,,,0.072286,0.074514,710934.000000,1670928437.405842
1670928437.355574,,,,0.077767,0.078697,710935.000000,1670928437.406849
1670928437.355853,,,,0.086374,0.087640,710936.000000,1670928437.407856
1670928437.355866,,,,0.096302,0.097545,710937.000000,1670928437.408863
1670928437.355877,,,,0.104476,0.106151,710938.000000,1670928437.409870
1670928437.355883,,,,0.110366,0.109180,710939.000000,1670928437.410877
1670928437.355890,,,,0.115487,0.112618,710940.000000,1670928437.411884
1670928437.359274,,,,0.119237,0.119229,710941.000000,1670928437.412891
1670928437.359286,,,,0.119742,0.123436,710942.000000,1670928437.413898
1670928437.359380,,,,0.121112,0.122355,710943.000000,1670928437.414906
1670928437.359388,,,,0.124430,0.124446,710944.000000,1670928437.415913
1670928437.362040,,,,0.120223,0.121922,710945.000000,1670928437.416920
1670928437.362053,,,,0.118011,0.119350,710946.000000,1670928437.417927
1670928437.362156,,,,0.115992,0.116705,710947.000000,1670928437.418934
1670928437.362166,,,,0.111784,0.112017,710948.000000,1670928437.419941
1670928437.362171,,,,0.106159,0.106488,710949.000000,1670928437.420948
1670928437.362184,,,,0.101399,0.102521,710950.000000,1670928437.421955
1670928437.362190,,,,0.100942,0.101103,710951.000000,1670928437.422962
1670928437.369425,,,,0.098394,0.098242,710952.000000,1670928437.423969
1670928437.369444,,,,0.097673,0.096703,710953.000000,1670928437.424976
1670928437.369465,,,,0.098706,0.098002,710954.000000,1670928437.425983
1670928437.369475,,,,0.097096,0.096727,710955.000000,1670928437.426991
1670928437.374068,,,,0.098706,0.097160,710956.000000,1670928437.427998
1670928437.374382,,,,0.103442,0.102088,710957.000000,1670928437.429005
1670928437.374721,,,,0.106856,0.106488,710958.000000,1670928437.430012
1670928437.374742,,,,0.108563,0.111633,710959.000000,1670928437.431019
1670928437.376782,,,,0.112722,0.112282,710960.000000,1670928437.432026
1670928437.377065,,,,0.117795,0.115912,710961.000000,1670928437.433033
1670928437.377176,,,,0.120824,0.121008,710962.000000,1670928437.434040
1670928437.377697,,,,0.118131,0.120167,710963.000000,1670928437.435047
1670928437.377722,,,,0.118227,0.118388,710964.000000,1670928437.436054
1670928437.377734,,,,0.113395,0.115359,710965.000000,1670928437.437061
1670928437.381732,,,,0.107097,0.110406,710966.000000,1670928437.438068
1670928437.382039,,,,0.107890,0.107858,710967.000000,1670928437.439075
1670928437.382209,,,,0.106399,0.107618,710968.000000,1670928437.440083
1670928437.382527,,,,0.098178,0.100045,710969.000000,1670928437.441090
1670928437.384110,,,,0.087504,0.088241,710970.000000,1670928437.442097
1670928437.384126,,,,0.079402,0.078168,710971.000000,1670928437.443104
1670928437.384281,,,,0.073704,0.071966,710972.000000,1670928437.444111
1670928437.398539,,,,0.065627,0.067614,710973.000000,1670928437.445118
1670928437.398826,,,,0.058751,0.061604,710974.000000,1670928437.446125
1670928437.398846,,,,0.056708,0.057109,710975.000000,1670928437.447132
1670928437.398855,,,,0.059689,0.058767,710976.000000,1670928437.448139
1670928437.405907,,,,0.062694,0.061051,710977.000000,1670928437.449146
1670928437.405924,,,,0.063727,0.064056,710978.000000,1670928437.450153
1670928437.406141,,,,0.067069,0.066653,710979.000000,1670928437.451160
1670928437.406257,,,,0.070411,0.067855,710980.000000,1670928437.452168
1670928437.406633,,,,0.074570,0.074706,710981.000000,1670928437.453175
1670928437.406818,,,,0.082840,0.086630,710982.000000,1670928437.454182
1670928437.406826,,,,0.088081,0.090357,710983.000000,1670928437.455189
1670928437.406835,,,,0.088706,0.087953,710984.000000,1670928437.456196
1670928437.411453,-0.406495,726023.000000,1670928437.350864,,,,
1670928437.411475,-0.352220,726024.000000,1670928437.351864,,,,
1670928437.412883,,,,0.082984,0.083169,710985.000000,1670928437.457203
1670928437.413120,-0.442673,726025.000000,1670928437.352864,,,,
1670928437.413767,0.371384,726074.000000,1670928437.401864,,,,
1670928437.413797,0.407562,726075.000000,1670928437.402864,,,,
1670928437.413806,0.461837,726076.000000,1670928437.403864,,,,
1670928437.413817,0.498015,726077.000000,1670928437.404864,,,,
1670928437.413863,0.498015,726078.000000,1670928437.405864,,,,
1670928437.413871,0.498015,726079.000000,1670928437.406864,,,,
1670928437.413880,0.534193,726080.000000,1670928437.407864,,,,
1670928437.413907,0.516104,726081.000000,1670928437.408864,,,,
1670928437.413966,0.498015,726082.000000,1670928437.409864,,,,
1670928437.413970,0.516104,726083.000000,1670928437.410864,,,,
1670928437.414151,,,,0.072671,0.075283,710986.000000,1670928437.458210
1670928437.414188,,,,0.069233,0.069826,710987.000000,1670928437.459217
1670928437.414459,,,,0.066228,0.064369,710988.000000,1670928437.460224
1670928437.414468,,,,0.054304,0.053719,710989.000000,1670928437.461231
1670928437.414659,,,,0.045649,0.048310,710990.000000,1670928437.462238
1670928437.414709,,,,0.048462,0.049752,710991.000000,1670928437.463245
1670928437.415035,,,,0.048053,0.047949,710992.000000,1670928437.464252
1670928437.415132,,,,0.053582,0.053911,710993.000000,1670928437.465260
1670928437.415141,,,,0.061203,0.065066,710994.000000,1670928437.466267
1670928437.415149,,,,0.062045,0.067710,710995.000000,1670928437.467274
1670928437.415517,,,,0.064473,0.065499,710996.000000,1670928437.468281
1670928437.415635,,,,0.067838,0.067134,710997.000000,1670928437.469288
1670928437.415832,,,,0.086374,0.086390,710998.000000,1670928437.470295
1670928437.415843,,,,0.100197,0.100959,710999.000000,1670928437.471302
1670928437.416028,,,,0.101760,0.099516,711000.000000,1670928437.472309
1670928437.416192,,,,0.103274,0.103002,711001.000000,1670928437.473316
1670928437.416528,,,,0.100726,0.101728,711002.000000,1670928437.474323
1670928437.416540,,,,0.090292,0.091126,711003.000000,1670928437.475330
1670928437.416757,,,,0.080892,0.079034,711004.000000,1670928437.476337
1670928437.416910,,,,0.068992,0.065018,711005.000000,1670928437.477345
1670928437.419050,,,,0.049471,0.048382,711006.000000,1670928437.478352
1670928437.419178,,,,0.038701,0.038044,711007.000000,1670928437.479359
1670928437.419456,,,,0.041875,0.044271,711008.000000,1670928437.480366
1670928437.419564,,,,0.045601,0.047901,711009.000000,1670928437.481373
1670928437.421287,,,,0.048822,0.047036,711010.000000,1670928437.482380
1670928437.421472,,,,0.051707,0.050425,711011.000000,1670928437.483387
1670928437.426503,,,,0.048918,0.049416,711012.000000,1670928437.484394
1670928437.426722,,,,0.046250,0.045810,711013.000000,1670928437.485401
1670928437.426871,,,,0.038966,0.038790,711014.000000,1670928437.486408
1670928437.427037,,,,0.033533,0.032780,711015.000000,1670928437.487415
1670928437.428975,,,,0.039038,0.038621,711016.000000,1670928437.488422
1670928437.429234,,,,0.043966,0.044535,711017.000000,1670928437.489429
1670928437.429465,,,,0.049399,0.050305,711018.000000,1670928437.490437
1670928437.434769,,,,0.057044,0.057445,711019.000000,1670928437.491444
1670928437.434796,,,,0.071204,0.069393,711020.000000,1670928437.492451
1670928437.434808,,,,0.077839,0.076269,711021.000000,1670928437.493458
1670928437.434841,,,,0.075339,0.075932,711022.000000,1670928437.494465
1670928437.437162,,,,0.073031,0.075524,711023.000000,1670928437.495472
1670928437.437190,,,,0.077983,0.079370,711024.000000,1670928437.496479
1670928437.437205,,,,0.073945,0.076750,711025.000000,1670928437.497486
1670928437.437224,,,,0.068271,0.070259,711026.000000,1670928437.498493
1670928437.442148,,,,0.064521,0.067302,711027.000000,1670928437.499500
1670928437.442481,,,,0.061708,0.063335,711028.000000,1670928437.500507
1670928437.442492,,,,0.059977,0.061532,711029.000000,1670928437.501514
1670928437.442892,,,,0.052789,0.052421,711030.000000,1670928437.502522
1670928437.443306,,,,0.048221,0.049704,711031.000000,1670928437.503529
1670928437.443551,,,,0.049904,0.051868,711032.000000,1670928437.504536
1670928437.443821,,,,0.050409,0.049271,711033.000000,1670928437.505543
1670928437.444177,,,,0.047981,0.045978,711034.000000,1670928437.506550
1670928437.444629,,,,0.049399,0.048743,711035.000000,1670928437.507557
1670928437.444957,,,,0.060266,0.058407,711036.000000,1670928437.508564
1670928437.457805,,,,0.064569,0.062710,711037.000000,1670928437.509571
1670928437.458096,,,,0.071276,0.070066,711038.000000,1670928437.510578
1670928437.458109,,,,0.082527,0.082688,711039.000000,1670928437.511585
1670928437.458328,,,,0.087624,0.087688,711040.000000,1670928437.512592
1670928437.458340,,,,0.089739,0.087905,711041.000000,1670928437.513599
1670928437.465525,,,,0.093514,0.091487,711042.000000,1670928437.514606
1670928437.465540,,,,0.094307,0.091871,711043.000000,1670928437.515614
1670928437.465546,,,,0.090148,0.088770,711044.000000,1670928437.516621
1670928437.467516,1.565327,726135.000000,1670928437.456593,,,,
1670928437.467527,1.565327,726136.000000,1670928437.457593,,,,
1670928437.467531,1.655781,726137.000000,1670928437.458593,,,,
1670928437.467558,1.710048,726138.000000,1670928437.459593,,,,
1670928437.467567,1.655781,726139.000000,1670928437.460593,,,,
1670928437.467612,1.746235,726140.000000,1670928437.461593,,,,
1670928437.467622,1.800502,726141.000000,1670928437.462593,,,,
1670928437.467630,1.800502,726142.000000,1670928437.463593,,,,
1670928437.467634,1.836680,726143.000000,1670928437.464593,,,,
1670928437.467638,1.854769,726144.000000,1670928437.465593,,,,
1670928437.471774,,,,0.087191,0.087087,711045.000000,1670928437.517628
1670928437.472339,,,,0.084547,0.084106,711046.000000,1670928437.518635
1670928437.472421,,,,0.079210,0.080861,711047.000000,1670928437.519642
1670928437.472667,,,,0.075171,0.076750,711048.000000,1670928437.520649
1670928437.472741,,,,0.068007,0.070115,711049.000000,1670928437.521656
1670928437.472952,,,,0.065843,0.065499,711050.000000,1670928437.522663
1670928437.473201,,,,0.064256,0.063648,711051.000000,1670928437.523670
1670928437.473888,,,,0.060915,0.062325,711052.000000,1670928437.524677
1670928437.474251,,,,0.065627,0.066653,711053.000000,1670928437.525684
1670928437.474304,,,,0.067862,0.068840,711054.000000,1670928437.526691
1670928437.479528,,,,0.068512,0.066268,711055.000000,1670928437.527699
1670928437.479654,,,,0.069786,0.070547,711056.000000,1670928437.528706
1670928437.479982,,,,0.074305,0.075403,711057.000000,1670928437.529713
1670928437.479996,,,,0.077190,0.078529,711058.000000,1670928437.530720
1670928437.480501,,,,0.081517,0.080404,711059.000000,1670928437.531727
1670928437.480515,,,,0.089739,0.086895,711060.000000,1670928437.532734
1670928437.480870,,,,0.093922,0.091751,711061.000000,1670928437.533741
1670928437.480893,,,,0.092937,0.091390,711062.000000,1670928437.534748
1670928437.481747,,,,0.086422,0.087424,711063.000000,1670928437.535755
1670928437.481766,,,,0.080436,0.081293,711064.000000,1670928437.536762
1670928437.481833,,,,0.072695,0.071244,711065.000000,1670928437.537769
1670928437.486591,,,,0.062357,0.062902,711066.000000,1670928437.538776
1670928437.486871,,,,0.061083,0.062566,711067.000000,1670928437.539783
1670928437.487174,,,,0.068343,0.068744,711068.000000,1670928437.540791
1670928437.490024,,,,0.072574,0.071341,711069.000000,1670928437.541798
1670928437.490433,,,,0.068367,0.066869,711070.000000,1670928437.542805
1670928437.490451,,,,0.061756,0.062975,711071.000000,1670928437.543812
1670928437.490461,,,,0.052476,0.053406,711072.000000,1670928437.544819
1670928437.490467,,,,0.049568,0.050065,711073.000000,1670928437.545826
1670928437.490483,,,,0.048870,0.047589,711074.000000,1670928437.546833
1670928437.490490,,,,0.051106,0.048406,711075.000000,1670928437.547840
1670928437.490520,,,,0.057068,0.055474,711076.000000,1670928437.548847
1670928437.494084,,,,0.060314,0.059633,711077.000000,1670928437.549854
1670928437.494184,,,,0.063175,0.062422,711078.000000,1670928437.550861
1670928437.494211,,,,0.073752,0.071942,711079.000000,1670928437.551868
1670928437.496519,,,,0.079883,0.077880,711080.000000,1670928437.552876
1670928437.496630,,,,0.082311,0.081846,711081.000000,1670928437.553883
1670928437.496637,,,,0.079907,0.078312,711082.000000,1670928437.554890
1670928437.496754,,,,0.069521,0.069273,711083.000000,1670928437.555897
1670928437.502068,,,,0.068367,0.068119,711084.000000,1670928437.556904
1670928437.502254,,,,0.066035,0.067735,711085.000000,1670928437.557911
1670928437.502391,,,,0.060963,0.062398,711086.000000,1670928437.558918
1670928437.502910,,,,0.053919,0.055041,711087.000000,1670928437.559925
1670928437.503008,,,,0.050938,0.052589,711088.000000,1670928437.560932
1670928437.503219,,,,0.053390,0.052613,711089.000000,1670928437.561939
1670928437.503939,,,,0.049664,0.047324,711090.000000,1670928437.562946
1670928437.504050,,,,0.039134,0.039463,711091.000000,1670928437.563953
1670928437.504541,,,,0.037812,0.036241,711092.000000,1670928437.564960
1670928437.504556,,,,0.036009,0.035857,711093.000000,1670928437.565968
1670928437.518537,,,,0.041153,0.038694,711094.000000,1670928437.566975
1670928437.518561,,,,0.052717,0.050882,711095.000000,1670928437.567982
1670928437.518576,,,,0.072070,0.068191,711096.000000,1670928437.568989
1670928437.518585,,,,0.083801,0.080091,711097.000000,1670928437.569996
1670928437.525871,,,,0.088898,0.087784,711098.000000,1670928437.571003
1670928437.526420,,,,0.093225,0.092280,711099.000000,1670928437.572010
1670928437.526592,,,,0.099235,0.099829,711100.000000,1670928437.573017
1670928437.526859,,,,0.102361,0.102641,711101.000000,1670928437.574024
1670928437.527143,,,,0.100942,0.100959,711102.000000,1670928437.575031
1670928437.527333,,,,0.093898,0.091535,711103.000000,1670928437.576038
1670928437.527585,,,,0.062333,0.061340,711104.000000,1670928437.577045
1670928437.531696,2.234664,726160.000000,1670928437.485009,,,,
1670928437.531829,,,,0.034999,0.037251,711105.000000,1670928437.578053
1670928437.532048,,,,0.041274,0.042732,711106.000000,1670928437.579060
1670928437.532151,,,,0.052356,0.051267,711107.000000,1670928437.580067
1670928437.532415,,,,0.048125,0.044175,711108.000000,1670928437.581074
1670928437.532536,2.307028,726161.000000,1670928437.486009,,,,
1670928437.532550,2.343206,726162.000000,1670928437.487009,,,,
1670928437.532752,2.397474,726163.000000,1670928437.488009,,,,
1670928437.533287,2.397474,726164.000000,1670928437.489009,,,,
1670928437.533301,2.506016,726165.000000,1670928437.490009,,,,
1670928437.533307,2.524105,726166.000000,1670928437.491009,,,,
1670928437.533312,2.542194,726167.000000,1670928437.492009,,,,
1670928437.533319,2.596470,726168.000000,1670928437.493009,,,,
1670928437.533328,2.560292,726169.000000,1670928437.494009,,,,
1670928437.533340,3.320073,726196.000000,1670928437.521009,,,,
1670928437.533346,3.356251,726197.000000,1670928437.522009,,,,
1670928437.533359,3.392429,726198.000000,1670928437.523009,,,,
1670928437.533370,3.410527,726199.000000,1670928437.524009,,,,
1670928437.533380,3.356251,726200.000000,1670928437.525009,,,,
1670928437.533389,3.446705,726201.000000,1670928437.526009,,,,
1670928437.533403,3.410527,726202.000000,1670928437.527009,,,,
1670928437.533408,3.500972,726203.000000,1670928437.528009,,,,
1670928437.533412,3.519061,726204.000000,1670928437.529009,,,,
1670928437.533426,3.537158,726205.000000,1670928437.530009,,,,
1670928437.533845,,,,0.041730,0.041050,711109.000000,1670928437.582081
1670928437.534127,,,,0.038845,0.037564,711110.000000,1670928437.583088
1670928437.534142,,,,0.039302,0.037660,711111.000000,1670928437.584095
1670928437.539306,,,,0.038389,0.039343,711112.000000,1670928437.585102
1670928437.539437,,,,0.035961,0.037636,711113.000000,1670928437.586109
1670928437.539817,,,,0.034085,0.035664,711114.000000,1670928437.587116
1670928437.539836,,,,0.040528,0.042732,711115.000000,1670928437.588123
1670928437.540037,,,,0.044856,0.046915,711116.000000,1670928437.589130
1670928437.540111,,,,0.047837,0.050738,711117.000000,1670928437.590137
1670928437.540177,,,,0.057621,0.059825,711118.000000,1670928437.591145
1670928437.540226,,,,0.063776,0.063936,711119.000000,1670928437.592152
1670928437.541374,,,,0.067261,0.068672,711120.000000,1670928437.593159
1670928437.541441,,,,0.069786,0.069514,711121.000000,1670928437.594166
1670928437.546882,,,,0.073704,0.071437,711122.000000,1670928437.595173
1670928437.547056,,,,0.075507,0.073047,711123.000000,1670928437.596180
1670928437.547209,,,,0.076830,0.072735,711124.000000,1670928437.597187
1670928437.547447,,,,0.069161,0.066148,711125.000000,1670928437.598194
1670928437.547455,,,,0.062742,0.060739,711126.000000,1670928437.599201
1670928437.547606,,,,0.058799,0.058767,711127.000000,1670928437.600208
1670928437.547700,,,,0.058847,0.060522,711128.000000,1670928437.601215
1670928437.547801,,,,0.060290,0.061388,711129.000000,1670928437.602222
1670928437.562223,,,,0.058270,0.057613,711130.000000,1670928437.603230
1670928437.562358,,,,0.055385,0.055402,711131.000000,1670928437.604237
1670928437.563284,,,,0.055554,0.053094,711132.000000,1670928437.605244
1670928437.563334,,,,0.054352,0.051026,711133.000000,1670928437.606251
1670928437.578936,,,,0.053390,0.053887,711134.000000,1670928437.607258
1670928437.579501,,,,0.053751,0.055570,711135.000000,1670928437.608265
1670928437.580098,,,,0.060458,0.059969,711136.000000,1670928437.609272
1670928437.580111,,,,0.067117,0.067061,711137.000000,1670928437.610279
1670928437.580391,,,,0.074257,0.075860,711138.000000,1670928437.611286
1670928437.580867,,,,0.084835,0.088746,711139.000000,1670928437.612293
1670928437.580905,,,,0.098706,0.097112,711140.000000,1670928437.613300
1670928437.581158,,,,0.100149,0.096391,711141.000000,1670928437.614307
1670928437.581797,,,,0.095100,0.093843,711142.000000,1670928437.615314
1670928437.581812,,,,0.088369,0.088217,711143.000000,1670928437.616322
1670928437.581820,,,,0.087648,0.086126,711144.000000,1670928437.617329
1670928437.586157,,,,0.090533,0.087953,711145.000000,1670928437.618336
1670928437.586177,,,,0.107049,0.105430,711146.000000,1670928437.619343
1670928437.586447,,,,0.109356,0.106897,711147.000000,1670928437.620350
1670928437.586743,,,,0.097264,0.093554,711148.000000,1670928437.621357
1670928437.589635,4.351207,726256.000000,1670928437.575901,0.086326,0.086126,711149.000000,1670928437.622364
1670928437.589894,4.459750,726257.000000,1670928437.576901,,,,
1670928437.589907,4.387393,726258.000000,1670928437.577901,,,,
1670928437.589922,4.441661,726259.000000,1670928437.578901,,,,
1670928437.589933,4.459750,726260.000000,1670928437.579901,,,,
1670928437.589938,4.514025,726261.000000,1670928437.580901,,,,
1670928437.589979,4.550203,726262.000000,1670928437.581901,,,,
1670928437.589987,4.532114,726263.000000,1670928437.582901,,,,
1670928437.589996,4.568292,726264.000000,1670928437.583901,,,,
1670928437.590008,4.586381,726265.000000,1670928437.584901,,,,
1670928437.590015,4.586381,726266.000000,1670928437.585901,,,,
1670928437.590134,,,,0.081085,0.082712,711150.000000,1670928437.623371
1670928437.590320,,,,0.075363,0.074274,711151.000000,1670928437.624378
1670928437.590327,,,,0.066492,0.065571,711152.000000,1670928437.625385
1670928437.590494,,,,0.052813,0.051940,711153.000000,1670928437.626392
1670928437.590499,,,,0.053246,0.054584,711154.000000,1670928437.627399
1670928437.591848,,,,0.061203,0.063864,711155.000000,1670928437.628407
1670928437.591933,,,,0.064809,0.067302,711156.000000,1670928437.629414
1670928437.592200,,,,0.068632,0.070475,711157.000000,1670928437.630421
1670928437.592327,,,,0.070940,0.072831,711158.000000,1670928437.631428
1670928437.592337,,,,0.077911,0.077399,711159.000000,1670928437.632435
1670928437.592487,,,,0.075435,0.075067,711160.000000,1670928437.633442
1670928437.592646,,,,0.073392,0.074826,711161.000000,1670928437.634449
1670928437.592786,,,,0.073175,0.073673,711162.000000,1670928437.635456
1670928437.594550,,,,0.066877,0.068023,711163.000000,1670928437.636463
1670928437.594567,,,,0.062886,0.063744,711164.000000,1670928437.637470
1670928437.594579,,,,0.055698,0.057878,711165.000000,1670928437.638477
1670928437.594585,,,,0.049616,0.047637,711166.000000,1670928437.639484
1670928437.594609,,,,0.041562,0.039246,711167.000000,1670928437.640491
1670928437.594625,,,,0.036874,0.038117,711168.000000,1670928437.641499
1670928437.594645,,,,0.034590,0.034655,711169.000000,1670928437.642506
1670928437.599569,,,,0.029181,0.031313,711170.000000,1670928437.643513
1670928437.599587,,,,0.028556,0.028548,711171.000000,1670928437.644520
1670928437.599597,,,,0.027835,0.027755,711172.000000,1670928437.645527
1670928437.599679,,,,0.029229,0.029750,711173.000000,1670928437.646534
1670928437.599922,,,,0.034542,0.035881,711174.000000,1670928437.647541
1670928437.600228,,,,0.037331,0.039367,711175.000000,1670928437.648548
1670928437.602700,,,,0.034711,0.037083,711176.000000,1670928437.649555
1670928437.602715,,,,0.036369,0.036842,711177.000000,1670928437.650562
1670928437.603063,,,,0.048822,0.051363,711178.000000,1670928437.651569
1670928437.603345,,,,0.066035,0.066581,711179.000000,1670928437.652576
1670928437.603566,,,,0.076998,0.077519,711180.000000,1670928437.653584
1670928437.603922,,,,0.078032,0.077976,711181.000000,1670928437.654591
1670928437.603999,,,,0.074978,0.075355,711182.000000,1670928437.655598
1670928437.604331,,,,0.070483,0.070211,711183.000000,1670928437.656605
1670928437.604655,,,,0.064689,0.064778,711184.000000,1670928437.657612
1670928437.605251,,,,0.056948,0.057686,711185.000000,1670928437.658619
1670928437.605265,,,,0.053029,0.054080,711186.000000,1670928437.659626
1670928437.605284,,,,0.045721,0.046915,711187.000000,1670928437.660633
1670928437.605550,,,,0.038509,0.040088,711188.000000,1670928437.661640
1670928437.606112,,,,0.037571,0.037804,711189.000000,1670928437.662647
1670928437.606174,,,,0.045144,0.047492,711190.000000,1670928437.663654
1670928437.606294,,,,0.061564,0.062109,711191.000000,1670928437.664661
1670928437.606307,,,,0.068560,0.067590,711192.000000,1670928437.665668
1670928437.606326,,,,0.072190,0.071509,711193.000000,1670928437.666676
1670928437.607527,,,,0.075123,0.072831,711194.000000,1670928437.667683
1670928437.607537,,,,0.080051,0.077495,711195.000000,1670928437.668690
1670928437.607741,,,,0.075219,0.075812,711196.000000,1670928437.669697
1670928437.607811,,,,0.073416,0.072398,711197.000000,1670928437.670704
1670928437.608380,,,,0.071709,0.071172,711198.000000,1670928437.671711
1670928437.608394,,,,0.055025,0.057758,711199.000000,1670928437.672718
1670928437.608664,,,,0.040528,0.039896,711200.000000,1670928437.673725
1670928437.608788,,,,0.049231,0.050642,711201.000000,1670928437.674732
1670928437.608917,,,,0.056059,0.058046,711202.000000,1670928437.675739
1670928437.608931,,,,0.059448,0.056484,711203.000000,1670928437.676746
1670928437.609175,,,,0.054352,0.053382,711204.000000,1670928437.677753
1670928437.609189,,,,0.050770,0.052902,711205.000000,1670928437.678761
1670928437.609231,,,,0.051347,0.054536,711206.000000,1670928437.679768
1670928437.609236,,,,0.049375,0.049969,711207.000000,1670928437.680775
1670928437.614156,,,,0.040841,0.043045,711208.000000,1670928437.681782
1670928437.614356,,,,0.035071,0.037299,711209.000000,1670928437.682789
1670928437.614367,,,,0.033725,0.036891,711210.000000,1670928437.683796
1670928437.614371,,,,0.032811,0.037155,711211.000000,1670928437.684803
1670928437.616574,,,,0.037379,0.039727,711212.000000,1670928437.685810
1670928437.616777,,,,0.043726,0.043862,711213.000000,1670928437.686817
1670928437.616866,,,,0.052140,0.052781,711214.000000,1670928437.687824
1670928437.617096,,,,0.058991,0.058359,711215.000000,1670928437.688831
1670928437.621831,,,,0.069689,0.071509,711216.000000,1670928437.689838
1670928437.621947,,,,0.083921,0.086654,711217.000000,1670928437.690845
1670928437.638700,,,,0.092696,0.094011,711218.000000,1670928437.691853
1670928437.638719,,,,0.096735,0.098723,711219.000000,1670928437.692860
1670928437.639037,,,,0.089114,0.090333,711220.000000,1670928437.693867
1670928437.639467,,,,0.075267,0.074923,711221.000000,1670928437.694874
1670928437.640152,,,,0.067959,0.067710,711222.000000,1670928437.695881
1670928437.640232,,,,0.066420,0.065090,711223.000000,1670928437.696888
1670928437.640376,,,,0.062525,0.060210,711224.000000,1670928437.697895
1670928437.640396,,,,0.050024,0.049945,711225.000000,1670928437.698902
1670928437.645576,,,,0.054784,0.056315,711226.000000,1670928437.699909
1670928437.645590,,,,0.080363,0.081654,711227.000000,1670928437.700916
1670928437.645691,,,,0.085340,0.088265,711228.000000,1670928437.701923
1670928437.652036,,,,0.072887,0.074370,711229.000000,1670928437.702930
1670928437.652113,,,,0.060843,0.060691,711230.000000,1670928437.703938
1670928437.652171,,,,0.055674,0.054368,711231.000000,1670928437.704945
1670928437.652185,,,,0.053077,0.052829,711232.000000,1670928437.705952
1670928437.652249,,,,0.039519,0.038525,711233.000000,1670928437.706959
1670928437.652323,4.640648,726267.000000,1670928437.591712,,,,
1670928437.652334,4.622560,726268.000000,1670928437.592712,,,,
1670928437.652343,4.622560,726269.000000,1670928437.593712,,,,
1670928437.652348,,,,0.028075,0.028741,711234.000000,1670928437.707966
1670928437.652670,,,,0.044663,0.043694,711235.000000,1670928437.708973
1670928437.652763,,,,0.060314,0.059224,711236.000000,1670928437.709980
1670928437.653458,5.291896,726318.000000,1670928437.642712,,,,
1670928437.653468,5.364260,726319.000000,1670928437.643713,,,,
1670928437.653479,5.309985,726320.000000,1670928437.644712,,,,
1670928437.653488,5.328074,726321.000000,1670928437.645712,,,,
1670928437.653514,5.309985,726322.000000,1670928437.646712,,,,
1670928437.653551,5.328074,726323.000000,1670928437.647712,,,,
1670928437.653557,5.364260,726324.000000,1670928437.648712,,,,
1670928437.653568,5.400438,726325.000000,1670928437.649712,,,,
1670928437.653578,5.382349,726326.000000,1670928437.650712,,,,
1670928437.653621,5.436616,726327.000000,1670928437.651712,,,,
1670928437.654006,,,,0.065963,0.069417,711237.000000,1670928437.710987
1670928437.654077,,,,0.073079,0.075500,711238.000000,1670928437.711994
1670928437.654298,,,,0.076998,0.077687,711239.000000,1670928437.713001
1670928437.654473,,,,0.070170,0.069634,711240.000000,1670928437.714008
1670928437.659060,,,,0.065218,0.064970,711241.000000,1670928437.715015
1670928437.659122,,,,0.063583,0.063023,711242.000000,1670928437.716022
1670928437.661753,,,,0.065410,0.066100,711243.000000,1670928437.717030
1670928437.662042,,,,0.073680,0.075980,711244.000000,1670928437.718037
1670928437.662363,,,,0.079618,0.079442,711245.000000,1670928437.719044
1670928437.662793,,,,0.074137,0.073673,711246.000000,1670928437.720051
1670928437.662889,,,,0.063896,0.065427,711247.000000,1670928437.721058
1670928437.663105,,,,0.057068,0.057878,711248.000000,1670928437.722065
1670928437.663236,,,,0.054977,0.052757,711249.000000,1670928437.723072
1670928437.666995,,,,0.054856,0.051627,711250.000000,1670928437.724079
1670928437.667016,,,,0.047476,0.048358,711251.000000,1670928437.725086
1670928437.667233,,,,0.047139,0.048863,711252.000000,1670928437.726093
1670928437.667273,,,,0.050673,0.053911,711253.000000,1670928437.727100
1670928437.668926,,,,0.060891,0.061196,711254.000000,1670928437.728107
1670928437.669373,,,,0.062862,0.062133,711255.000000,1670928437.729115
1670928437.669657,,,,0.061299,0.062373,711256.000000,1670928437.730122
1670928437.669861,,,,0.062189,0.062253,711257.000000,1670928437.731129
1670928437.674515,,,,0.070435,0.068408,711258.000000,1670928437.732136
1670928437.674535,,,,0.075531,0.076004,711259.000000,1670928437.733143
1670928437.674966,,,,0.076589,0.077231,711260.000000,1670928437.734150
1670928437.674985,,,,0.078560,0.077832,711261.000000,1670928437.735157
1670928437.675338,,,,0.082719,0.085789,711262.000000,1670928437.736164
1670928437.675352,,,,0.087167,0.090645,711263.000000,1670928437.737171
1670928437.675378,,,,0.083465,0.084611,711264.000000,1670928437.738178
1670928437.676450,,,,0.076180,0.077327,711265.000000,1670928437.739185
1670928437.676808,,,,0.073824,0.074225,711266.000000,1670928437.740192
1670928437.676820,,,,0.071228,0.070091,711267.000000,1670928437.741199
1670928437.677160,,,,0.067021,0.068720,711268.000000,1670928437.742207
1670928437.681726,,,,0.064328,0.066052,711269.000000,1670928437.743214
1670928437.682518,,,,0.059472,0.059681,711270.000000,1670928437.744221
1670928437.682542,,,,0.053967,0.053551,711271.000000,1670928437.745228
1670928437.682566,,,,0.059064,0.058575,711272.000000,1670928437.746235
1670928437.684156,,,,0.064905,0.065090,711273.000000,1670928437.747242
1670928437.684222,,,,0.073536,0.073961,711274.000000,1670928437.748249
1670928437.698432,,,,0.084210,0.085645,711275.000000,1670928437.749256
1670928437.699507,,,,0.094043,0.096150,711276.000000,1670928437.750263
1670928437.699575,,,,0.100750,0.101968,711277.000000,1670928437.751270
1670928437.699822,,,,0.106111,0.103843,711278.000000,1670928437.752277
1670928437.699951,,,,0.100101,0.101463,711279.000000,1670928437.753284
1670928437.700204,,,,0.089860,0.092496,711280.000000,1670928437.754292
1670928437.700547,,,,0.088489,0.088746,711281.000000,1670928437.755299
1670928437.700565,,,,0.089138,0.089395,711282.000000,1670928437.756306
1670928437.705496,,,,0.086253,0.086510,711283.000000,1670928437.757313
1670928437.705696,,,,0.076108,0.075163,711284.000000,1670928437.758320
1670928437.705898,,,,0.069016,0.069225,711285.000000,1670928437.759327
1670928437.707257,5.581337,726337.000000,1670928437.654898,,,,
1670928437.707271,5.653702,726338.000000,1670928437.655899,,,,
1670928437.707276,5.617515,726339.000000,1670928437.656898,,,,
1670928437.708062,5.635612,726340.000000,1670928437.657898,,,,
1670928437.708070,5.599426,726341.000000,1670928437.658899,,,,
1670928437.708074,5.653702,726342.000000,1670928437.659899,,,,
1670928437.708083,5.653702,726343.000000,1670928437.660898,,,,
1670928437.708088,5.635612,726344.000000,1670928437.661899,,,,
1670928437.708102,5.671791,726345.000000,1670928437.662899,,,,
1670928437.708114,5.671791,726346.000000,1670928437.663898,,,,
1670928437.708118,6.232584,726379.000000,1670928437.696898,,,,
1670928437.708135,6.304941,726380.000000,1670928437.697899,,,,
1670928437.708145,6.341127,726381.000000,1670928437.698899,,,,
1670928437.708156,6.304941,726382.000000,1670928437.699898,,,,
1670928437.708163,6.341127,726383.000000,1670928437.700898,,,,
1670928437.708197,6.395394,726384.000000,1670928437.701899,,,,
1670928437.708204,6.359216,726385.000000,1670928437.702899,,,,
1670928437.708211,6.359216,726386.000000,1670928437.703898,,,,
1670928437.708215,6.359216,726387.000000,1670928437.704899,,,,
1670928437.708225,6.377305,726388.000000,1670928437.705899,,,,
1670928437.714086,,,,0.064401,0.064201,711286.000000,1670928437.760334
1670928437.714207,,,,0.056972,0.058118,711287.000000,1670928437.761341
1670928437.714216,,,,0.054592,0.054392,711288.000000,1670928437.762348
1670928437.714365,,,,0.056539,0.058599,711289.000000,1670928437.763355
1670928437.718992,,,,0.057789,0.058022,711290.000000,1670928437.764362
1670928437.719536,,,,0.059208,0.057469,711291.000000,1670928437.765369
1670928437.719681,,,,0.061516,0.059104,711292.000000,1670928437.766376
1670928437.719699,,,,0.061948,0.060667,711293.000000,1670928437.767384
1670928437.721897,,,,0.057669,0.058575,711294.000000,1670928437.768391
1670928437.721912,,,,0.057116,0.058118,711295.000000,1670928437.769398
1670928437.722106,,,,0.065410,0.062806,711296.000000,1670928437.770405
1670928437.722252,,,,0.073079,0.068913,711297.000000,1670928437.771412
1670928437.722700,,,,0.076878,0.076221,711298.000000,1670928437.772419
1670928437.722713,,,,0.083032,0.083842,711299.000000,1670928437.773426
1670928437.722845,,,,0.083585,0.086606,711300.000000,1670928437.774433
1670928437.726549,,,,0.085412,0.086775,711301.000000,1670928437.775440
1670928437.726862,,,,0.087407,0.089660,711302.000000,1670928437.776447
1670928437.727108,,,,0.082046,0.081173,711303.000000,1670928437.777454
1670928437.729592,,,,0.073151,0.070740,711304.000000,1670928437.778461
1670928437.729969,,,,0.063030,0.064754,711305.000000,1670928437.779469
1670928437.730212,,,,0.057621,0.062902,711306.000000,1670928437.780476
1670928437.730682,,,,0.050000,0.050329,711307.000000,1670928437.781483
1670928437.730982,,,,0.047596,0.045906,711308.000000,1670928437.782490
1670928437.731069,,,,0.050313,0.049969,711309.000000,1670928437.783497
1670928437.731143,,,,0.052621,0.053190,711310.000000,1670928437.784504
1670928437.734768,,,,0.050577,0.050666,711311.000000,1670928437.785511
1670928437.735600,,,,0.050746,0.050089,711312.000000,1670928437.786518
1670928437.735613,,,,0.052717,0.051796,711313.000000,1670928437.787525
1670928437.735857,,,,0.054328,0.053959,711314.000000,1670928437.788532
1670928437.735892,,,,0.058559,0.060859,711315.000000,1670928437.789539
1670928437.736133,,,,0.068175,0.069778,711316.000000,1670928437.790546
1670928437.736219,,,,0.093778,0.092905,711317.000000,1670928437.791553
1670928437.736346,,,,0.107409,0.106440,711318.000000,1670928437.792561
1670928437.736821,,,,0.112121,0.112859,711319.000000,1670928437.793568
1670928437.736967,,,,0.120199,0.121826,711320.000000,1670928437.794575
1670928437.737154,,,,0.107000,0.105118,711321.000000,1670928437.795582
1670928437.737166,,,,0.091182,0.091703,711322.000000,1670928437.796589
1670928437.737192,,,,0.071997,0.071629,711323.000000,1670928437.797596
1670928437.737200,,,,0.065026,0.065258,711324.000000,1670928437.798603
1670928437.737211,,,,0.072454,0.075019,711325.000000,1670928437.799610
1670928437.741660,,,,0.089499,0.090693,711326.000000,1670928437.800617
1670928437.741920,,,,0.095148,0.097905,711327.000000,1670928437.801624
1670928437.742077,,,,0.120175,0.123004,711328.000000,1670928437.802631
1670928437.742090,,,,0.141090,0.140361,711329.000000,1670928437.803638
1670928437.743811,,,,0.135080,0.134687,711330.000000,1670928437.804646
1670928437.743951,,,,0.132171,0.131178,711331.000000,1670928437.805653
1670928437.758219,,,,0.120824,0.120720,711332.000000,1670928437.806660
1670928437.758736,,,,0.103274,0.105069,711333.000000,1670928437.807667
1670928437.759085,,,,0.099476,0.101295,711334.000000,1670928437.808674
1670928437.759428,,,,0.087528,0.087544,711335.000000,1670928437.809681
1670928437.759511,,,,0.072478,0.071773,711336.000000,1670928437.810688
1670928437.759620,,,,0.074017,0.074875,711337.000000,1670928437.811695
1670928437.759720,,,,0.077791,0.079394,711338.000000,1670928437.812702
1670928437.759744,,,,0.086566,0.086919,711339.000000,1670928437.813709
1670928437.765352,,,,0.087600,0.088169,711340.000000,1670928437.814716
1670928437.765466,,,,0.085388,0.086390,711341.000000,1670928437.815723
1670928437.765659,,,,0.082167,0.083721,711342.000000,1670928437.816730
1670928437.772056,,,,0.076060,0.075788,711343.000000,1670928437.817738
1670928437.772359,6.485848,726395.000000,1670928437.716589,,,,
1670928437.772557,,,,0.065218,0.066893,711344.000000,1670928437.818745
1670928437.772588,,,,0.059232,0.061869,711345.000000,1670928437.819752
1670928437.773041,,,,0.057886,0.056724,711346.000000,1670928437.820759
1670928437.773586,,,,0.050914,0.050113,711347.000000,1670928437.821766
1670928437.773611,,,,0.048341,0.047637,711348.000000,1670928437.822773
1670928437.773970,6.540115,726396.000000,1670928437.717589,,,,
1670928437.774073,,,,0.055025,0.053022,711349.000000,1670928437.823780
1670928437.774151,,,,0.058198,0.056820,711350.000000,1670928437.824787
1670928437.774310,6.558204,726397.000000,1670928437.718589,,,,
1670928437.774430,6.540115,726398.000000,1670928437.719589,,,,
1670928437.774445,6.540115,726399.000000,1670928437.720589,,,,
1670928437.774548,6.485848,726400.000000,1670928437.721589,,,,
1670928437.774615,,,,0.057140,0.057517,711351.000000,1670928437.825794
1670928437.775110,,,,0.056900,0.057181,711352.000000,1670928437.826801
1670928437.775138,,,,0.062790,0.062133,711353.000000,1670928437.827808
1670928437.775208,6.540115,726401.000000,1670928437.722589,,,,
1670928437.775486,6.522026,726402.000000,1670928437.723589,,,,
1670928437.775499,6.522026,726403.000000,1670928437.724589,,,,
1670928437.775512,6.558204,726404.000000,1670928437.725589,,,,
1670928437.775516,7.046641,726440.000000,1670928437.761589,,,,
1670928437.775564,7.028553,726441.000000,1670928437.762589,,,,
1670928437.775569,7.064731,726442.000000,1670928437.763589,,,,
1670928437.775587,7.118998,726443.000000,1670928437.764589,,,,
1670928437.775624,7.137087,726444.000000,1670928437.765589,,,,
1670928437.775646,7.082819,726445.000000,1670928437.766589,,,,
1670928437.775652,7.191362,726446.000000,1670928437.767589,,,,
1670928437.775657,7.191362,726447.000000,1670928437.768589,,,,
1670928437.775674,7.209451,726448.000000,1670928437.769589,,,,
1670928437.775682,7.173273,726449.000000,1670928437.770589,,,,
1670928437.778971,,,,0.068487,0.066460,711354.000000,1670928437.828815
1670928437.779147,,,,0.077719,0.075379,711355.000000,1670928437.829823
1670928437.779360,,,,0.087359,0.085885,711356.000000,1670928437.830830
1670928437.781644,,,,0.088898,0.090621,711357.000000,1670928437.831837
1670928437.781783,,,,0.093321,0.095189,711358.000000,1670928437.832844
1670928437.781947,,,,0.094908,0.096391,711359.000000,1670928437.833851
1670928437.782124,,,,0.093249,0.095261,711360.000000,1670928437.834858
1670928437.782244,,,,0.093562,0.094468,711361.000000,1670928437.835865
1670928437.782381,,,,0.094427,0.095237,711362.000000,1670928437.836872
1670928437.782497,,,,0.090773,0.091631,711363.000000,1670928437.837879
1670928437.782615,,,,0.083489,0.082808,711364.000000,1670928437.838886
1670928437.786773,,,,0.081517,0.080861,711365.000000,1670928437.839893
1670928437.786791,,,,0.086662,0.085621,711366.000000,1670928437.840900
1670928437.786798,,,,0.091590,0.090525,711367.000000,1670928437.841908
1670928437.789213,,,,0.088249,0.087808,711368.000000,1670928437.842915
1670928437.789646,,,,0.086181,0.084371,711369.000000,1670928437.843922
1670928437.789922,,,,0.086999,0.085044,711370.000000,1670928437.844929
1670928437.790733,,,,0.085003,0.083481,711371.000000,1670928437.845936
1670928437.790817,,,,0.083609,0.082760,711372.000000,1670928437.846943
1670928437.790881,,,,0.080916,0.081870,711373.000000,1670928437.847950
1670928437.790889,,,,0.084571,0.087087,711374.000000,1670928437.848957
1670928437.793873,,,,0.082671,0.082255,711375.000000,1670928437.849964
1670928437.794021,,,,0.085676,0.085164,711376.000000,1670928437.850971
1670928437.794183,,,,0.093658,0.095501,711377.000000,1670928437.851978
1670928437.794276,,,,0.092023,0.092857,711378.000000,1670928437.852985
1670928437.796930,,,,0.083609,0.082760,711379.000000,1670928437.853992
1670928437.796958,,,,0.082311,0.078841,711380.000000,1670928437.855000
1670928437.797005,,,,0.088898,0.087111,711381.000000,1670928437.856007
1670928437.801628,,,,0.088129,0.090934,711382.000000,1670928437.857014
1670928437.801633,,,,0.082551,0.082159,711383.000000,1670928437.858021
1670928437.801685,,,,0.074882,0.074875,711384.000000,1670928437.859028
1670928437.801696,,,,0.069233,0.068047,711385.000000,1670928437.860035
1670928437.804108,,,,0.061997,0.061099,711386.000000,1670928437.861042
1670928437.804245,,,,0.057068,0.056796,711387.000000,1670928437.862049
1670928437.804494,,,,0.054688,0.055354,711388.000000,1670928437.863056
1670928437.804674,,,,0.056467,0.055113,711389.000000,1670928437.864063
1670928437.804869,,,,0.068127,0.068504,711390.000000,1670928437.865070
1670928437.805026,,,,0.076349,0.075908,711391.000000,1670928437.866077
1670928437.805247,,,,0.074113,0.075524,711392.000000,1670928437.867085
1670928437.817970,,,,0.079883,0.082375,711393.000000,1670928437.868092
1670928437.817990,,,,0.075435,0.077663,711394.000000,1670928437.869099
1670928437.818135,,,,0.068463,0.070692,711395.000000,1670928437.870106
1670928437.825534,,,,0.065338,0.067927,711396.000000,1670928437.871113
1670928437.825699,,,,0.057597,0.059849,711397.000000,1670928437.872120
1670928437.825863,,,,0.065410,0.065595,711398.000000,1670928437.873127
1670928437.825891,,,,0.077695,0.078481,711399.000000,1670928437.874134
1670928437.825947,,,,0.079041,0.082976,711400.000000,1670928437.875141
1670928437.830000,8.222496,726487.000000,1670928437.804383,,,,
1670928437.831036,8.240585,726488.000000,1670928437.805383,,,,
1670928437.831071,8.240585,726489.000000,1670928437.806383,,,,
1670928437.831112,8.294861,726490.000000,1670928437.807383,,,,
1670928437.831129,8.294861,726491.000000,1670928437.808383,,,,
1670928437.831178,8.349128,726492.000000,1670928437.809383,,,,
1670928437.831229,8.331038,726493.000000,1670928437.810383,,,,
1670928437.831266,8.349128,726494.000000,1670928437.811383,,,,
1670928437.831276,8.421484,726495.000000,1670928437.812383,,,,
1670928437.831323,8.385306,726496.000000,1670928437.813383,,,,
1670928437.831339,8.530026,726501.000000,1670928437.818383,,,,
1670928437.831365,8.584302,726502.000000,1670928437.819383,,,,
1670928437.831386,8.584302,726503.000000,1670928437.820383,,,,
1670928437.831440,8.656658,726504.000000,1670928437.821383,,,,
1670928437.831457,8.692837,726505.000000,1670928437.822383,,,,
1670928437.831489,8.729023,726506.000000,1670928437.823383,,,,
1670928437.831504,8.729023,726507.000000,1670928437.824383,,,,
1670928437.831517,8.801379,726508.000000,1670928437.825383,,,,
1670928437.831528,8.765201,726509.000000,1670928437.826383,,,,
1670928437.831543,8.819468,726510.000000,1670928437.827383,,,,
1670928437.831985,,,,0.081806,0.084539,711401.000000,1670928437.876148
1670928437.832414,,,,0.081085,0.080885,711402.000000,1670928437.877155
1670928437.832891,,,,0.074954,0.072543,711403.000000,1670928437.878162
1670928437.833470,,,,0.068848,0.068047,711404.000000,1670928437.879169
1670928437.833551,,,,0.063030,0.065355,711405.000000,1670928437.880177
1670928437.833595,,,,0.064040,0.062422,711406.000000,1670928437.881184
1670928437.833789,,,,0.061948,0.059921,711407.000000,1670928437.882191
1670928437.833900,,,,0.056275,0.055522,711408.000000,1670928437.883198
1670928437.834011,,,,0.056539,0.054801,711409.000000,1670928437.884205
1670928437.839320,,,,0.058535,0.060138,711410.000000,1670928437.885212
1670928437.839477,,,,0.060698,0.061965,711411.000000,1670928437.886219
1670928437.839484,,,,0.060698,0.059200,711412.000000,1670928437.887226
1670928437.839596,,,,0.065410,0.065715,711413.000000,1670928437.888233
1670928437.839791,,,,0.075243,0.076125,711414.000000,1670928437.889240
1670928437.839921,,,,0.085460,0.085380,711415.000000,1670928437.890247
1670928437.840112,,,,0.098202,0.095910,711416.000000,1670928437.891254
1670928437.840196,,,,0.105221,0.106632,711417.000000,1670928437.892262
1670928437.841399,,,,0.109453,0.109902,711418.000000,1670928437.893269
1670928437.841571,,,,0.113227,0.109950,711419.000000,1670928437.894276
1670928437.841789,,,,0.096302,0.094948,711420.000000,1670928437.895283
1670928437.841939,,,,0.064256,0.067398,711421.000000,1670928437.896290
1670928437.846454,,,,0.060843,0.063047,711422.000000,1670928437.897297
1670928437.846599,,,,0.064665,0.064128,711423.000000,1670928437.898304
1670928437.846782,,,,0.058342,0.059729,711424.000000,1670928437.899311
1670928437.849472,,,,0.053414,0.055209,711425.000000,1670928437.900318
1670928437.849877,,,,0.051779,0.054248,711426.000000,1670928437.901325
1670928437.850129,,,,0.062429,0.063431,711427.000000,1670928437.902332
1670928437.850147,,,,0.081397,0.082495,711428.000000,1670928437.903339
1670928437.850665,,,,0.105510,0.106873,711429.000000,1670928437.904346
1670928437.851033,,,,0.109765,0.112594,711430.000000,1670928437.905354
1670928437.851350,,,,0.110991,0.113099,711431.000000,1670928437.906361
1670928437.854014,,,,0.106520,0.109445,711432.000000,1670928437.907368
1670928437.854293,,,,0.102288,0.103194,711433.000000,1670928437.908375
1670928437.854341,,,,0.091855,0.091679,711434.000000,1670928437.909382
1670928437.856701,,,,0.077671,0.076990,711435.000000,1670928437.910389
1670928437.856862,,,,0.058487,0.057133,711436.000000,1670928437.911396
1670928437.856871,,,,0.070339,0.069393,711437.000000,1670928437.912403
1670928437.856884,,,,0.090412,0.090477,711438.000000,1670928437.913410
1670928437.861957,,,,0.102938,0.104204,711439.000000,1670928437.914417
1670928437.862044,,,,0.113491,0.112835,711440.000000,1670928437.915424
1670928437.862233,,,,0.116088,0.116128,711441.000000,1670928437.916431
1670928437.862319,,,,0.130752,0.128725,711442.000000,1670928437.917439
1670928437.862446,,,,0.154673,0.152862,711443.000000,1670928437.918446
1670928437.862637,,,,0.171718,0.172623,711444.000000,1670928437.919453
1670928437.862649,,,,0.189700,0.189211,711445.000000,1670928437.920460
1670928437.863790,,,,0.182993,0.184980,711446.000000,1670928437.921467
1670928437.863946,,,,0.180132,0.182744,711447.000000,1670928437.922474
1670928437.864116,,,,0.171309,0.174162,711448.000000,1670928437.923481
1670928437.864172,,,,0.129839,0.131322,711449.000000,1670928437.924488
1670928437.868943,,,,0.096182,0.094852,711450.000000,1670928437.925495
1670928437.869284,,,,0.081229,0.080332,711451.000000,1670928437.926502
1670928437.869544,,,,0.055001,0.054176,711452.000000,1670928437.927509
1670928437.869559,,,,0.045889,0.047781,711453.000000,1670928437.928516
1670928437.871515,,,,0.052789,0.054128,711454.000000,1670928437.929523
1670928437.871775,,,,0.047524,0.047420,711455.000000,1670928437.930531
1670928437.872010,,,,0.058943,0.057974,711456.000000,1670928437.931538
1670928437.872192,,,,0.070555,0.068816,711457.000000,1670928437.932545
1670928437.886736,,,,0.074113,0.073456,711458.000000,1670928437.933552
1670928437.887383,,,,0.074185,0.073432,711459.000000,1670928437.934559
1670928437.887403,,,,0.069425,0.071437,711460.000000,1670928437.935566
1670928437.887686,,,,0.069858,0.070403,711461.000000,1670928437.936573
1670928437.887975,,,,0.080123,0.080933,711462.000000,1670928437.937580
1670928437.888262,,,,0.086975,0.087616,711463.000000,1670928437.938587
1670928437.888514,,,,0.084955,0.086654,711464.000000,1670928437.939594
1670928437.888713,,,,0.074594,0.075043,711465.000000,1670928437.940601
1670928437.888740,,,,0.062285,0.064850,711466.000000,1670928437.941608
1670928437.888910,,,,0.066444,0.067013,711467.000000,1670928437.942616
1670928437.889172,,,,0.071757,0.072230,711468.000000,1670928437.943623
1670928437.889475,,,,0.078633,0.080404,711469.000000,1670928437.944630
1670928437.889490,,,,0.085652,0.086414,711470.000000,1670928437.945637
1670928437.890188,,,,0.088008,0.091751,711471.000000,1670928437.946644
1670928437.890392,,,,0.086927,0.089083,711472.000000,1670928437.947651
1670928437.890567,,,,0.088225,0.088049,711473.000000,1670928437.948658
1670928437.890912,,,,0.096086,0.097184,711474.000000,1670928437.949665
1670928437.892739,,,,0.103827,0.104853,711475.000000,1670928437.950672
1670928437.893066,,,,0.098995,0.097280,711476.000000,1670928437.951679
1670928437.893554,,,,0.091254,0.090717,711477.000000,1670928437.952686
1670928437.893574,,,,0.085268,0.084996,711478.000000,1670928437.953693
1670928437.895836,11.171185,726562.000000,1670928437.884725,,,,
1670928437.895848,11.171185,726563.000000,1670928437.885725,,,,
1670928437.895863,11.261640,726564.000000,1670928437.886725,,,,
1670928437.895873,11.279728,726565.000000,1670928437.887725,,,,
1670928437.895879,11.352084,726566.000000,1670928437.888725,,,,
1670928437.895959,11.442538,726567.000000,1670928437.889725,,,,
1670928437.895975,11.460627,726568.000000,1670928437.890725,,,,
1670928437.895982,11.496805,726569.000000,1670928437.891725,,,,
1670928437.896006,11.587258,726570.000000,1670928437.892725,,,,
1670928437.896013,11.532991,726571.000000,1670928437.893725,,,,
1670928437.899013,,,,0.089739,0.089010,711479.000000,1670928437.954700
1670928437.899212,,,,0.094163,0.091799,711480.000000,1670928437.955708
1670928437.899378,,,,0.094547,0.092905,711481.000000,1670928437.956715
1670928437.901703,,,,0.096903,0.097785,711482.000000,1670928437.957722
1670928437.901724,,,,0.090124,0.093506,711483.000000,1670928437.958729
1670928437.901734,,,,0.084042,0.087304,711484.000000,1670928437.959736
1670928437.906631,,,,0.080676,0.083529,711485.000000,1670928437.960743
1670928437.906643,,,,0.077743,0.080404,711486.000000,1670928437.961750
1670928437.906856,,,,0.065939,0.065859,711487.000000,1670928437.962757
1670928437.907006,,,,0.056708,0.055594,711488.000000,1670928437.963764
1670928437.907165,,,,0.059761,0.059224,711489.000000,1670928437.964771
1670928437.908703,,,,0.069617,0.069826,711490.000000,1670928437.965778
1670928437.908930,,,,0.077671,0.078096,711491.000000,1670928437.966785
1670928437.914471,,,,0.098009,0.096679,711492.000000,1670928437.967793
1670928437.914762,,,,0.109717,0.109878,711493.000000,1670928437.968800
1670928437.914774,,,,0.108202,0.108002,711494.000000,1670928437.969807
1670928437.915108,,,,0.108803,0.108579,711495.000000,1670928437.970814
1670928437.915127,,,,0.111135,0.113724,711496.000000,1670928437.971821
1670928437.915135,,,,0.109188,0.110767,711497.000000,1670928437.972828
1670928437.915196,,,,0.120054,0.119686,711498.000000,1670928437.973835
1670928437.916442,,,,0.130224,0.131274,711499.000000,1670928437.974842
1670928437.916667,,,,0.133036,0.133918,711500.000000,1670928437.975849
1670928437.916832,,,,0.144071,0.143679,711501.000000,1670928437.976856
1670928437.917008,,,,0.138806,0.140433,711502.000000,1670928437.977863
1670928437.917133,,,,0.121545,0.121970,711503.000000,1670928437.978870
1670928437.921558,,,,0.107289,0.102882,711504.000000,1670928437.979877
1670928437.921767,,,,0.081830,0.080163,711505.000000,1670928437.980885
1670928437.924875,,,,0.067646,0.071268,711506.000000,1670928437.981892
1670928437.925680,,,,0.071444,0.071966,711507.000000,1670928437.982899
1670928437.925710,,,,0.074498,0.073600,711508.000000,1670928437.983906
1670928437.925722,,,,0.063655,0.063071,711509.000000,1670928437.984913
1670928437.925906,,,,0.060290,0.059705,711510.000000,1670928437.985920
1670928437.925924,,,,0.063896,0.066605,711511.000000,1670928437.986927
1670928437.926079,,,,0.075507,0.075764,711512.000000,1670928437.987934
1670928437.926106,,,,0.130007,0.127740,711513.000000,1670928437.988941
1670928437.929260,,,,0.196648,0.197914,711514.000000,1670928437.989948
1670928437.929865,,,,0.228045,0.232028,711515.000000,1670928437.990955
1670928437.930066,,,,0.246267,0.248616,711516.000000,1670928437.991962
1670928437.931466,,,,0.245955,0.244072,711517.000000,1670928437.992970
1670928437.932033,,,,0.217611,0.216185,711518.000000,1670928437.993977
1670928437.932049,,,,0.166308,0.165075,711519.000000,1670928437.994984
1670928437.932058,,,,0.079522,0.078865,711520.000000,1670928437.995991
1670928437.938937,,,,0.039422,0.038790,711521.000000,1670928437.996998
1670928437.939188,,,,0.070002,0.070475,711522.000000,1670928437.998005
1670928437.939739,,,,0.100197,0.100021,711523.000000,1670928437.999012
1670928437.940220,,,,0.104140,0.101992,711524.000000,1670928438.000019
1670928437.952116,,,,0.095004,0.093169,711525.000000,1670928438.001026
1670928437.952877,,,,0.076902,0.074923,711526.000000,1670928438.002033
1670928437.952894,,,,0.050601,0.052469,711527.000000,1670928438.003040
1670928437.953089,,,,0.035913,0.037467,711528.000000,1670928438.004047
1670928437.953102,,,,0.039759,0.041050,711529.000000,1670928438.005054
1670928437.953113,,,,0.048077,0.048791,711530.000000,1670928438.006062
1670928437.953117,,,,0.058366,0.056387,711531.000000,1670928438.007069
1670928437.953864,,,,0.064401,0.062542,711532.000000,1670928438.008076
1670928437.954104,,,,0.069521,0.068985,711533.000000,1670928438.009083
1670928437.954315,,,,0.073656,0.073023,711534.000000,1670928438.010090
1670928437.954357,,,,0.075411,0.076678,711535.000000,1670928438.011097
1670928437.959988,15.078652,726623.000000,1670928437.949269,,,,
1670928437.960004,15.169106,726624.000000,1670928437.950269,,,,
1670928437.960011,15.277649,726625.000000,1670928437.951269,,,,
1670928437.960102,15.368094,726626.000000,1670928437.952269,,,,
1670928437.960122,15.494726,726627.000000,1670928437.953269,,,,
1670928437.960134,15.603269,726628.000000,1670928437.954269,,,,
1670928437.960146,15.657536,726629.000000,1670928437.955269,,,,
1670928437.960173,15.766078,726630.000000,1670928437.956269,,,,
1670928437.960187,15.856532,726631.000000,1670928437.957269,,,,
1670928437.960275,16.001253,726632.000000,1670928437.958269,,,,
1670928437.961935,,,,0.080628,0.083024,711536.000000,1670928438.012104
1670928437.962077,,,,0.091302,0.091535,711537.000000,1670928438.013111
1670928437.962104,,,,0.097841,0.096535,711538.000000,1670928438.014118
1670928437.966815,,,,0.099836,0.099444,711539.000000,1670928438.015125
1670928437.967143,,,,0.100197,0.100646,711540.000000,1670928438.016132
1670928437.967365,,,,0.098875,0.101728,711541.000000,1670928438.017139
1670928437.967566,,,,0.099043,0.101415,711542.000000,1670928438.018147
1670928437.967741,,,,0.104019,0.102954,711543.000000,1670928438.019154
1670928437.967919,,,,0.097216,0.098122,711544.000000,1670928438.020161
1670928437.967966,,,,0.090148,0.092737,711545.000000,1670928438.021168
1670928437.968895,,,,0.089763,0.088794,711546.000000,1670928438.022175
1670928437.969211,,,,0.087095,0.085092,711547.000000,1670928438.023182
1670928437.969243,,,,0.077671,0.077086,711548.000000,1670928438.024189
1670928437.969261,,,,0.073993,0.076533,711549.000000,1670928438.025196
1670928437.974084,,,,0.080748,0.082255,711550.000000,1670928438.026203
1670928437.974493,,,,0.093418,0.093554,711551.000000,1670928438.027210
1670928437.974743,,,,0.094884,0.093987,711552.000000,1670928438.028217
1670928437.976823,,,,0.092264,0.091342,711553.000000,1670928438.029224
1670928437.977118,,,,0.095389,0.096463,711554.000000,1670928438.030231
1670928437.977420,,,,0.104140,0.102521,711555.000000,1670928438.031239
1670928437.977671,,,,0.106856,0.107137,711556.000000,1670928438.032246
1670928437.977914,,,,0.104284,0.106007,711557.000000,1670928438.033253
1670928437.978161,,,,0.097673,0.101848,711558.000000,1670928438.034260
1670928437.978446,,,,0.098490,0.100838,711559.000000,1670928438.035267
1670928437.978720,,,,0.098706,0.098963,711560.000000,1670928438.036274
1670928437.981514,,,,0.099067,0.100886,711561.000000,1670928438.037281
1670928437.981688,,,,0.098226,0.095910,711562.000000,1670928438.038288
1670928437.984153,,,,0.093249,0.092304,711563.000000,1670928438.039295
1670928437.984484,,,,0.096182,0.096583,711564.000000,1670928438.040302
1670928437.984948,,,,0.108587,0.105574,711565.000000,1670928438.041309
1670928437.984976,,,,0.112361,0.111488,711566.000000,1670928438.042316
1670928437.989292,,,,0.127916,0.128605,711567.000000,1670928438.043324
1670928437.989840,,,,0.157317,0.156324,711568.000000,1670928438.044331
1670928437.990151,,,,0.167703,0.169498,711569.000000,1670928438.045338
1670928437.990453,,,,0.174001,0.174667,711570.000000,1670928438.046345
1670928437.992180,,,,0.170395,0.171518,711571.000000,1670928438.047352
1670928437.992338,,,,0.144287,0.144688,711572.000000,1670928438.048359
1670928437.992702,,,,0.113107,0.112811,711573.000000,1670928438.049366
1670928437.993038,,,,0.089571,0.089107,711574.000000,1670928438.050373
1670928437.993138,,,,0.106111,0.108435,711575.000000,1670928438.051380
1670928437.993152,,,,0.132171,0.132259,711576.000000,1670928438.052387
1670928437.993176,,,,0.124670,0.123509,711577.000000,1670928438.053394
1670928438.005615,,,,0.096471,0.095453,711578.000000,1670928438.054401
1670928438.005636,,,,0.101351,0.100526,711579.000000,1670928438.055408
1670928438.005642,,,,0.105221,0.104973,711580.000000,1670928438.056416
1670928438.005652,,,,0.094884,0.094997,711581.000000,1670928438.057423
1670928438.012241,16.127884,726633.000000,1670928437.951705,,,,
1670928438.012352,16.200241,726634.000000,1670928437.952705,,,,
1670928438.012505,16.326872,726635.000000,1670928437.953705,,,,
1670928438.012613,16.417326,726636.000000,1670928437.954705,,,,
1670928438.012730,,,,0.079570,0.080885,711582.000000,1670928438.058430
1670928438.012791,16.471592,726637.000000,1670928437.955705,,,,
1670928438.014013,16.670580,726638.000000,1670928437.956705,,,,
1670928438.014028,16.706766,726639.000000,1670928437.957705,,,,
1670928438.014037,21.048397,726684.000000,1670928438.002705,,,,
1670928438.014073,21.175028,726685.000000,1670928438.003705,,,,
1670928438.014111,21.283562,726686.000000,1670928438.004705,,,,
1670928438.014116,21.410194,726687.000000,1670928438.005705,,,,
1670928438.014120,21.518736,726688.000000,1670928438.006705,,,,
1670928438.014135,21.573011,726689.000000,1670928438.007705,,,,
1670928438.014163,21.717733,726690.000000,1670928438.008705,,,,
1670928438.014169,21.771999,726691.000000,1670928438.009705,,,,
1670928438.014185,21.826267,726692.000000,1670928438.010705,,,,
1670928438.014201,,,,0.073031,0.075644,711583.000000,1670928438.059437
1670928438.014207,,,,0.069377,0.069225,711584.000000,1670928438.060444
1670928438.014296,21.989084,726693.000000,1670928438.011705,,,,
1670928438.020749,,,,0.081806,0.081197,711585.000000,1670928438.061451
1670928438.020761,,,,0.103635,0.104324,711586.000000,1670928438.062458
1670928438.020783,,,,0.109404,0.109998,711587.000000,1670928438.063465
1670928438.020798,,,,0.112217,0.114109,711588.000000,1670928438.064472
1670928438.034665,,,,0.114501,0.118220,711589.000000,1670928438.065479
1670928438.034689,,,,0.125824,0.126081,711590.000000,1670928438.066486
1670928438.035820,,,,0.127146,0.127595,711591.000000,1670928438.067493
1670928438.035986,,,,0.101110,0.102930,711592.000000,1670928438.068501
1670928438.036000,,,,0.088537,0.089948,711593.000000,1670928438.069508
1670928438.036193,,,,0.089860,0.091967,711594.000000,1670928438.070515
1670928438.036203,,,,0.084402,0.085404,711595.000000,1670928438.071522
1670928438.041634,,,,0.078080,0.080909,711596.000000,1670928438.072529
1670928438.041696,,,,0.068439,0.071677,711597.000000,1670928438.073536
1670928438.041706,,,,0.085845,0.084491,711598.000000,1670928438.074543
1670928438.049320,,,,0.108491,0.105286,711599.000000,1670928438.075550
1670928438.049648,,,,0.118540,0.118148,711600.000000,1670928438.076557
1670928438.050360,,,,0.113563,0.115335,711601.000000,1670928438.077564
1670928438.050495,,,,0.101351,0.100886,711602.000000,1670928438.078571
1670928438.050506,,,,0.086398,0.084274,711603.000000,1670928438.079578
1670928438.050516,,,,0.080965,0.080308,711604.000000,1670928438.080585
1670928438.050529,,,,0.086734,0.084323,711605.000000,1670928438.081593
1670928438.053710,,,,0.086422,0.086606,711606.000000,1670928438.082600
1670928438.054433,,,,0.083080,0.082207,711607.000000,1670928438.083607
1670928438.054632,,,,0.072935,0.074129,711608.000000,1670928438.084614
1670928438.054646,,,,0.071469,0.072519,711609.000000,1670928438.085621
1670928438.054784,,,,0.085388,0.085621,711610.000000,1670928438.086628
1670928438.054997,,,,0.099740,0.099011,711611.000000,1670928438.087635
1670928438.055070,,,,0.116617,0.114974,711612.000000,1670928438.088642
1670928438.055080,,,,0.129959,0.130096,711613.000000,1670928438.089649
1670928438.055097,,,,0.151764,0.150650,711614.000000,1670928438.090656
1670928438.055209,,,,0.160827,0.159401,711615.000000,1670928438.091663
1670928438.055290,,,,0.151644,0.150146,711616.000000,1670928438.092670
1670928438.055371,,,,0.139479,0.139255,711617.000000,1670928438.093678
1670928438.055716,,,,0.123180,0.121706,711618.000000,1670928438.094685
1670928438.055779,,,,0.091590,0.091246,711619.000000,1670928438.095692
1670928438.055933,,,,0.083513,0.083697,711620.000000,1670928438.096699
1670928438.056179,,,,0.083008,0.083048,711621.000000,1670928438.097706
1670928438.056273,,,,0.098827,0.101391,711622.000000,1670928438.098713
1670928438.056285,,,,0.118227,0.118027,711623.000000,1670928438.099720
1670928438.067634,,,,0.112434,0.113700,711624.000000,1670928438.100727
1670928438.067661,,,,0.091590,0.093458,711625.000000,1670928438.101734
1670928438.068356,,,,0.073392,0.072110,711626.000000,1670928438.102741
1670928438.068381,,,,0.068319,0.069297,711627.000000,1670928438.103748
1670928438.068390,,,,0.067093,0.069225,711628.000000,1670928438.104755
1670928438.068689,,,,0.069305,0.069033,711629.000000,1670928438.105762
1670928438.069170,,,,0.070026,0.071389,711630.000000,1670928438.106770
1670928438.069308,,,,0.070459,0.071461,711631.000000,1670928438.107777
1670928438.069323,,,,0.077479,0.078240,711632.000000,1670928438.108784
1670928438.069364,,,,0.097264,0.096271,711633.000000,1670928438.109791
1670928438.069508,,,,0.141787,0.142332,711634.000000,1670928438.110798
1670928438.075669,,,,0.185565,0.186904,711635.000000,1670928438.111805
1670928438.075692,,,,0.199989,0.201136,711636.000000,1670928438.112812
1670928438.075708,,,,0.189580,0.188418,711637.000000,1670928438.113819
1670928438.076035,,,,0.164409,0.164089,711638.000000,1670928438.114826
1670928438.076272,,,,0.149119,0.148511,711639.000000,1670928438.115833
1670928438.076321,,,,0.106952,0.104925,711640.000000,1670928438.116840
1670928438.076510,,,,0.054905,0.052950,711641.000000,1670928438.117847
1670928438.076528,,,,0.053799,0.052757,711642.000000,1670928438.118855
1670928438.076538,,,,0.080844,0.078529,711643.000000,1670928438.119862
1670928438.076554,,,,0.104356,0.104156,711644.000000,1670928438.120869
1670928438.079611,27.796011,726745.000000,1670928438.067703,,,,
1670928438.079633,27.886463,726746.000000,1670928438.068703,,,,
1670928438.079653,28.013096,726747.000000,1670928438.069703,,,,
1670928438.079663,28.139727,726748.000000,1670928438.070703,,,,
1670928438.079674,28.248262,726749.000000,1670928438.071703,,,,
1670928438.079683,28.374893,726750.000000,1670928438.072703,,,,
1670928438.079690,28.447258,726751.000000,1670928438.073703,,,,
1670928438.079793,28.628157,726752.000000,1670928438.074703,,,,
1670928438.079801,28.772877,726753.000000,1670928438.075703,,,,
1670928438.079808,28.899509,726754.000000,1670928438.076703,,,,
1670928438.080112,,,,0.080532,0.080284,711645.000000,1670928438.121876
1670928438.080350,,,,0.073752,0.074201,711646.000000,1670928438.122883
1670928438.080790,,,,0.061035,0.059729,711647.000000,1670928438.123890
1670928438.080945,,,,0.048101,0.047276,711648.000000,1670928438.124897
1670928438.081373,,,,0.049616,0.049969,711649.000000,1670928438.125904
1670928438.082690,,,,0.063824,0.064537,711650.000000,1670928438.126911
1670928438.082708,,,,0.073223,0.072831,711651.000000,1670928438.127918
1670928438.082783,,,,0.081253,0.082399,711652.000000,1670928438.128925
1670928438.082822,,,,0.094764,0.096992,711657.000000,1670928438.133961
1670928438.082832,,,,0.100101,0.102185,711658.000000,1670928438.134968
1670928438.082949,,,,0.138950,0.139736,711659.000000,1670928438.135975
1670928438.082961,,,,0.168616,0.170195,711660.000000,1670928438.136982
1670928438.083006,,,,0.174843,0.174763,711661.000000,1670928438.137989
1670928438.083035,,,,0.165780,0.165435,711662.000000,1670928438.138996
1670928438.083067,,,,0.156644,0.155194,711663.000000,1670928438.140003
1670928438.083076,,,,0.120800,0.119662,711664.000000,1670928438.141010
1670928438.083084,,,,0.053871,0.054296,711665.000000,1670928438.142017
1670928438.083094,,,,0.033484,0.033140,711666.000000,1670928438.143024
1670928438.086790,,,,0.060049,0.058094,711667.000000,1670928438.144032
1670928438.087229,,,,0.079450,0.081798,711668.000000,1670928438.145039
1670928438.087399,,,,0.079714,0.080524,711669.000000,1670928438.146046
1670928438.087516,,,,0.067021,0.066412,711670.000000,1670928438.147053
1670928438.087727,,,,0.052284,0.051195,711671.000000,1670928438.148060
1670928438.087908,,,,0.051467,0.052397,711672.000000,1670928438.149067
1670928438.088125,,,,0.075603,0.075524,711673.000000,1670928438.150074
1670928438.088938,,,,0.099668,0.098627,711674.000000,1670928438.151081
1670928438.089267,,,,0.111496,0.111176,711675.000000,1670928438.152088
1670928438.089420,,,,0.112650,0.111464,711676.000000,1670928438.153095
1670928438.094176,,,,0.115847,0.116272,711677.000000,1670928438.154102
1670928438.094468,,,,0.136498,0.139592,711678.000000,1670928438.155109
1670928438.094765,,,,0.166669,0.170724,711679.000000,1670928438.156116
1670928438.095222,,,,0.198186,0.201039,711680.000000,1670928438.157124
1670928438.095234,,,,0.252734,0.252726,711681.000000,1670928438.158131
1670928438.096404,,,,0.322235,0.323165,711682.000000,1670928438.159138
1670928438.096536,,,,0.336588,0.337277,711683.000000,1670928438.160145
1670928438.096548,,,,0.304373,0.302755,711684.000000,1670928438.161152
1670928438.101699,,,,0.238695,0.237653,711685.000000,1670928438.162159
1670928438.101709,,,,0.150129,0.150530,711686.000000,1670928438.163166
1670928438.101976,,,,0.082840,0.082519,711687.000000,1670928438.164173
1670928438.101983,,,,-0.003009,-0.002512,711688.000000,1670928438.165180
1670928438.104365,,,,-0.028324,-0.028548,711689.000000,1670928438.166187
1670928438.104386,,,,0.045336,0.045257,711690.000000,1670928438.167194
1670928438.104402,,,,0.074738,0.077062,711691.000000,1670928438.168201
1670928438.104653,,,,0.072094,0.072903,711692.000000,1670928438.169209
1670928438.104871,,,,0.064569,0.064297,711693.000000,1670928438.170216
1670928438.105126,,,,0.060338,0.057638,711694.000000,1670928438.171223
1670928438.109576,,,,0.061155,0.057469,711695.000000,1670928438.172230
1670928438.109595,,,,0.054087,0.057589,711696.000000,1670928438.173237
1670928438.109918,,,,0.056371,0.057253,711697.000000,1670928438.174244
1670928438.111810,,,,0.062838,0.064826,711698.000000,1670928438.175251
1670928438.112204,,,,0.065338,0.065330,711699.000000,1670928438.176258
1670928438.112429,,,,0.069665,0.068023,711700.000000,1670928438.177265
1670928438.112514,,,,0.076108,0.075452,711701.000000,1670928438.178272
1670928438.112619,,,,0.068367,0.065956,711702.000000,1670928438.179279
1670928438.112639,,,,0.061924,0.060258,711703.000000,1670928438.180286
1670928438.112919,,,,0.067838,0.068336,711704.000000,1670928438.181293
1670928438.113113,,,,0.075555,0.074033,711705.000000,1670928438.182301
1670928438.126196,,,,0.075988,0.074346,711706.000000,1670928438.183308
1670928438.126239,,,,0.063896,0.064729,711707.000000,1670928438.184315
1670928438.126257,,,,0.056491,0.058767,711708.000000,1670928438.185322
1670928438.126279,,,,0.071420,0.071461,711709.000000,1670928438.186329
1670928438.131789,,,,0.078921,0.080236,711710.000000,1670928438.187336
1670928438.132068,,,,0.080556,0.083096,711711.000000,1670928438.188343
1670928438.132119,,,,0.072695,0.073144,711712.000000,1670928438.189350
1670928438.132735,29.026140,726755.000000,1670928438.071849,,,,
1670928438.132952,29.098497,726756.000000,1670928438.072849,,,,
1670928438.133152,29.333672,726757.000000,1670928438.073849,,,,
1670928438.133997,,,,0.060770,0.065379,711713.000000,1670928438.190357
1670928438.134192,,,,0.064232,0.070187,711714.000000,1670928438.191364
1670928438.134448,29.369848,726758.000000,1670928438.074849,,,,
1670928438.134463,,,,0.083056,0.083265,711715.000000,1670928438.192371
1670928438.134563,29.532660,726759.000000,1670928438.075849,,,,
1670928438.134571,29.641201,726760.000000,1670928438.076849,,,,
1670928438.134580,29.785921,726761.000000,1670928438.077849,,,,
1670928438.135105,37.275238,726806.000000,1670928438.122849,,,,
1670928438.135125,37.456135,726807.000000,1670928438.123849,,,,
1670928438.135145,37.637035,726808.000000,1670928438.124849,,,,
1670928438.135155,37.799854,726809.000000,1670928438.125849,,,,
1670928438.135197,37.962662,726810.000000,1670928438.126849,,,,
1670928438.135210,38.161652,726811.000000,1670928438.127849,,,,
1670928438.135231,38.306370,726812.000000,1670928438.128849,,,,
1670928438.135300,38.469181,726813.000000,1670928438.129849,,,,
1670928438.135309,38.722443,726814.000000,1670928438.130849,,,,
1670928438.135341,38.867165,726815.000000,1670928438.131849,,,,
1670928438.139451,,,,0.102577,0.102113,711716.000000,1670928438.193378
1670928438.139823,,,,0.114453,0.114061,711717.000000,1670928438.194386
1670928438.140003,,,,0.118251,0.117787,711718.000000,1670928438.195393
1670928438.140014,,,,0.110270,0.110503,711719.000000,1670928438.196400
1670928438.140150,,,,0.101327,0.101151,711720.000000,1670928438.197407
1670928438.140299,,,,0.095004,0.097641,711721.000000,1670928438.198414
1670928438.140432,,,,0.084859,0.085428,711722.000000,1670928438.199421
1670928438.141704,,,,0.078368,0.077832,711723.000000,1670928438.200428
1670928438.141959,,,,0.078344,0.079346,711724.000000,1670928438.201435
1670928438.142018,,,,0.073824,0.077086,711725.000000,1670928438.202442
1670928438.142203,,,,0.073031,0.077255,711726.000000,1670928438.203449
1670928438.142320,,,,0.072935,0.073913,711727.000000,1670928438.204456
1670928438.142533,,,,0.078609,0.076702,711728.000000,1670928438.205463
1670928438.142651,,,,0.087672,0.085380,711729.000000,1670928438.206470
1670928438.146750,,,,0.127964,0.129110,711730.000000,1670928438.207478
1670928438.146764,,,,0.157606,0.157959,711731.000000,1670928438.208485
1670928438.146769,,,,0.183666,0.185100,711732.000000,1670928438.209492
1670928438.146836,,,,0.210014,0.209526,711733.000000,1670928438.210499
1670928438.148883,,,,0.251075,0.251813,711734.000000,1670928438.211506
1670928438.149270,,,,0.292065,0.293884,711735.000000,1670928438.212513
1670928438.149593,,,,0.269827,0.269266,711736.000000,1670928438.213520
1670928438.149859,,,,0.245089,0.241451,711737.000000,1670928438.214527
1670928438.154217,,,,0.216866,0.217916,711738.000000,1670928438.215534
1670928438.154449,,,,0.153278,0.154353,711739.000000,1670928438.216541
1670928438.155047,,,,0.097024,0.097905,711740.000000,1670928438.217548
1670928438.155113,,,,0.046899,0.049464,711741.000000,1670928438.218555
1670928438.156632,,,,0.026849,0.028356,711742.000000,1670928438.219563
1670928438.156849,,,,0.044134,0.045737,711743.000000,1670928438.220570
1670928438.157262,,,,0.048558,0.053070,711744.000000,1670928438.221577
1670928438.157472,,,,0.026152,0.027563,711745.000000,1670928438.222584
1670928438.161764,,,,0.001006,0.001839,711746.000000,1670928438.223591
1670928438.161963,,,,-0.014164,-0.014725,711747.000000,1670928438.224598
1670928438.165391,,,,-0.001158,-0.002103,711748.000000,1670928438.225605
1670928438.165406,,,,0.029157,0.030520,711749.000000,1670928438.226612
1670928438.165409,,,,0.043894,0.046795,711750.000000,1670928438.227619
1670928438.165730,,,,0.046514,0.046819,711751.000000,1670928438.228626
1670928438.166052,,,,0.052188,0.048502,711752.000000,1670928438.229633
1670928438.166412,,,,0.064328,0.064249,711753.000000,1670928438.230640
1670928438.166435,,,,0.055073,0.054488,711754.000000,1670928438.231647
1670928438.169267,,,,0.050409,0.049271,711755.000000,1670928438.232655
1670928438.169290,,,,0.074498,0.073120,711756.000000,1670928438.233662
1670928438.169725,,,,0.074498,0.075428,711757.000000,1670928438.234669
1670928438.169868,,,,0.083921,0.085621,711758.000000,1670928438.235676
1670928438.198824,38.993797,726816.000000,1670928438.137366,,,,
1670928438.198853,39.174694,726817.000000,1670928438.138366,,,,
1670928438.198863,39.355602,726818.000000,1670928438.139365,,,,
1670928438.199285,,,,0.088802,0.087977,711759.000000,1670928438.236683
1670928438.199492,39.536503,726819.000000,1670928438.140366,,,,
1670928438.199512,39.663132,726820.000000,1670928438.141366,,,,
1670928438.199521,39.807854,726821.000000,1670928438.142365,,,,
1670928438.199555,39.970661,726822.000000,1670928438.143366,,,,
1670928438.199564,40.115383,726823.000000,1670928438.144366,,,,
1670928438.199572,40.332470,726824.000000,1670928438.145365,,,,
1670928438.199596,40.495277,726825.000000,1670928438.146365,,,,
1670928438.199621,40.603821,726826.000000,1670928438.147366,,,,
1670928438.199688,40.784721,726827.000000,1670928438.148365,,,,
1670928438.199895,,,,0.098178,0.095718,711760.000000,1670928438.237690
1670928438.199911,,,,0.094668,0.095646,711761.000000,1670928438.238697
1670928438.199920,,,,0.073945,0.075355,711762.000000,1670928438.239704
1670928438.199954,40.965618,726828.000000,1670928438.149365,,,,
1670928438.200093,41.092251,726829.000000,1670928438.150366,,,,
1670928438.201086,41.236973,726830.000000,1670928438.151366,,,,
1670928438.201106,47.387615,726867.000000,1670928438.188365,,,,
1670928438.201114,47.604698,726868.000000,1670928438.189366,,,,
1670928438.201135,47.749420,726869.000000,1670928438.190366,,,,
1670928438.201143,47.966496,726870.000000,1670928438.191365,,,,
1670928438.201167,48.129307,726871.000000,1670928438.192365,,,,
1670928438.201181,48.364479,726872.000000,1670928438.193366,,,,
1670928438.201191,48.545380,726873.000000,1670928438.194366,,,,
1670928438.201200,48.744373,726874.000000,1670928438.195365,,,,
1670928438.201206,48.907185,726875.000000,1670928438.196366,,,,
1670928438.201354,49.088085,726876.000000,1670928438.197366,,,,
1670928438.201696,,,,0.042476,0.040497,711763.000000,1670928438.240711
1670928438.201910,,,,0.060218,0.057782,711764.000000,1670928438.241718
1670928438.202197,,,,0.088946,0.087736,711765.000000,1670928438.242725
1670928438.202266,,,,0.082695,0.083193,711766.000000,1670928438.243732
1670928438.202409,,,,0.070315,0.071004,711767.000000,1670928438.244740
1670928438.202574,,,,0.062453,0.062253,711768.000000,1670928438.245747
1670928438.202644,,,,0.066300,0.066508,711769.000000,1670928438.246754
1670928438.206586,,,,0.077983,0.075403,711770.000000,1670928438.247761
1670928438.206893,,,,0.080940,0.081005,711771.000000,1670928438.248768
1670928438.206917,,,,0.080460,0.079899,711772.000000,1670928438.249775
1670928438.209018,,,,0.094644,0.095141,711773.000000,1670928438.250782
1670928438.209164,,,,0.103370,0.105646,711774.000000,1670928438.251789
1670928438.209582,,,,0.097072,0.098050,711775.000000,1670928438.252796
1670928438.209730,,,,0.097120,0.096223,711776.000000,1670928438.253803
1670928438.214280,,,,0.103635,0.105550,711777.000000,1670928438.254810
1670928438.214560,,,,0.112987,0.115575,711778.000000,1670928438.255817
1670928438.214783,,,,0.109453,0.114181,711779.000000,1670928438.256824
1670928438.214795,,,,0.092167,0.094780,711780.000000,1670928438.257832
1670928438.214804,,,,0.082046,0.081293,711781.000000,1670928438.258839
1670928438.215028,,,,0.077142,0.077808,711782.000000,1670928438.259846
1670928438.215216,,,,0.093057,0.094107,711783.000000,1670928438.260853
1670928438.217308,,,,0.101663,0.102113,711784.000000,1670928438.261860
1670928438.217393,,,,0.091590,0.093506,711785.000000,1670928438.262867
1670928438.217413,,,,0.104284,0.106320,711786.000000,1670928438.263874
1670928438.217478,,,,0.107794,0.110455,711787.000000,1670928438.264881
1670928438.217494,,,,0.128469,0.128773,711788.000000,1670928438.265888
1670928438.217598,,,,0.171742,0.173441,711789.000000,1670928438.266895
1670928438.217609,,,,0.212298,0.212314,711790.000000,1670928438.267902
1670928438.217623,,,,0.217707,0.217507,711791.000000,1670928438.268909
1670928438.221838,,,,0.197441,0.196712,711792.000000,1670928438.269917
1670928438.221969,,,,0.167294,0.168633,711793.000000,1670928438.270924
1670928438.224330,,,,0.130151,0.131995,711794.000000,1670928438.271931
1670928438.224693,,,,0.097817,0.097425,711795.000000,1670928438.272938
1670928438.225285,,,,0.064016,0.063047,711796.000000,1670928438.273945
1670928438.225424,,,,0.040889,0.038597,711797.000000,1670928438.274952
1670928438.225451,,,,0.035840,0.036121,711798.000000,1670928438.275959
1670928438.225690,,,,0.023435,0.024582,711799.000000,1670928438.276966
1670928438.226113,,,,0.040793,0.042973,711800.000000,1670928438.277973
1670928438.226124,,,,0.066636,0.066749,711801.000000,1670928438.278980
1670928438.229365,,,,0.070026,0.067614,711802.000000,1670928438.279987
1670928438.229381,,,,0.059160,0.057830,711803.000000,1670928438.280994
1670928438.229656,,,,0.071060,0.069898,711804.000000,1670928438.282001
1670928438.232058,,,,0.081109,0.082519,711805.000000,1670928438.283009
1670928438.232518,,,,0.087816,0.089996,711806.000000,1670928438.284016
1670928438.232536,,,,0.130007,0.132356,711807.000000,1670928438.285023
1670928438.232669,,,,0.175901,0.176278,711808.000000,1670928438.286030
1670928438.232678,,,,0.207249,0.206929,711809.000000,1670928438.287037
1670928438.233027,,,,0.229487,0.228181,711810.000000,1670928438.288044
1670928438.233038,,,,0.194965,0.195462,711811.000000,1670928438.289051
1670928438.233045,,,,0.120054,0.119806,711812.000000,1670928438.290058
1670928438.245448,,,,0.032859,0.031722,711813.000000,1670928438.291065
1670928438.245673,,,,-0.002889,-0.006382,711814.000000,1670928438.292072
1670928438.245756,,,,0.027883,0.027106,711815.000000,1670928438.293079
1670928438.252679,,,,0.071012,0.070692,711816.000000,1670928438.294086
1670928438.252799,,,,0.084715,0.086222,711817.000000,1670928438.295094
1670928438.252926,,,,0.095365,0.096150,711818.000000,1670928438.296101
1670928438.253085,,,,0.081037,0.081053,711819.000000,1670928438.297108
1670928438.254876,56.722118,726928.000000,1670928438.244096,,,,
1670928438.254890,56.903027,726929.000000,1670928438.245096,,,,
1670928438.254895,56.993473,726930.000000,1670928438.246096,,,,
1670928438.254898,57.065826,726931.000000,1670928438.247096,,,,
1670928438.254909,57.210556,726932.000000,1670928438.248096,,,,
1670928438.254916,57.319092,726933.000000,1670928438.249096,,,,
1670928438.254920,57.445732,726934.000000,1670928438.250096,,,,
1670928438.254924,57.590443,726935.000000,1670928438.251096,,,,
1670928438.254946,57.753262,726936.000000,1670928438.252096,,,,
1670928438.254950,57.843708,726937.000000,1670928438.253096,,,,
1670928438.259293,,,,0.061780,0.062446,711820.000000,1670928438.298115
1670928438.259538,,,,0.060073,0.057974,711821.000000,1670928438.299122
1670928438.259786,,,,0.060314,0.061604,711822.000000,1670928438.300129
1670928438.259885,,,,0.052597,0.055233,711823.000000,1670928438.301136
1670928438.260047,,,,0.040456,0.042829,711824.000000,1670928438.302143
1670928438.260145,,,,0.033052,0.034438,711825.000000,1670928438.303150
1670928438.261469,,,,0.047139,0.046819,711826.000000,1670928438.304157
1670928438.261873,,,,0.060169,0.059176,711827.000000,1670928438.305164
1670928438.262058,,,,0.055866,0.051988,711828.000000,1670928438.306171
1670928438.262346,,,,0.053198,0.051363,711829.000000,1670928438.307178
1670928438.266561,,,,0.062694,0.065499,711830.000000,1670928438.308186
1670928438.266802,,,,0.088946,0.091607,711831.000000,1670928438.309193
1670928438.267142,,,,0.107650,0.108772,711832.000000,1670928438.310200
1670928438.267474,,,,0.125319,0.126466,711833.000000,1670928438.311207
1670928438.268958,,,,0.127771,0.129879,711834.000000,1670928438.312214
1670928438.269158,,,,0.145465,0.146179,711835.000000,1670928438.313221
1670928438.269418,,,,0.161428,0.162743,711836.000000,1670928438.314228
1670928438.274391,,,,0.129623,0.131730,711837.000000,1670928438.315235
1670928438.274598,,,,0.090893,0.091703,711838.000000,1670928438.316242
1670928438.274886,,,,0.077551,0.079683,711839.000000,1670928438.317249
1670928438.275076,,,,0.065362,0.066052,711840.000000,1670928438.318256
1670928438.275671,,,,0.062237,0.061628,711841.000000,1670928438.319263
1670928438.275685,,,,0.075579,0.075644,711842.000000,1670928438.320271
1670928438.275704,,,,0.096687,0.097304,711843.000000,1670928438.321278
1670928438.275753,,,,0.092672,0.090693,711844.000000,1670928438.322285
1670928438.276545,,,,0.075075,0.073072,711845.000000,1670928438.323292
1670928438.276703,,,,0.075099,0.073264,711846.000000,1670928438.324299
1670928438.276915,,,,0.064088,0.065379,711847.000000,1670928438.325306
1670928438.277141,,,,0.037451,0.036362,711848.000000,1670928438.326313
1670928438.281621,,,,0.020599,0.019702,711849.000000,1670928438.327320
1670928438.281718,,,,0.030672,0.031794,711850.000000,1670928438.328327
1670928438.284411,,,,0.045841,0.045209,711851.000000,1670928438.329334
1670928438.285134,,,,0.067165,0.068384,711852.000000,1670928438.330341
1670928438.285166,,,,0.088970,0.088866,711853.000000,1670928438.331348
1670928438.285212,,,,0.102577,0.102233,711854.000000,1670928438.332355
1670928438.285728,,,,0.108635,0.109084,711855.000000,1670928438.333363
1670928438.285747,,,,0.100365,0.102064,711856.000000,1670928438.334370
1670928438.286031,,,,0.091254,0.091991,711857.000000,1670928438.335377
1670928438.286343,,,,0.072021,0.071966,711858.000000,1670928438.336384
1670928438.289267,,,,0.060530,0.062518,711859.000000,1670928438.337391
1670928438.289701,,,,0.062093,0.064778,711860.000000,1670928438.338398
1670928438.290181,,,,0.067045,0.069153,711861.000000,1670928438.339405
1670928438.291604,,,,0.068920,0.069538,711862.000000,1670928438.340412
1670928438.291875,,,,0.067430,0.068913,711863.000000,1670928438.341419
1670928438.292175,,,,0.059785,0.060498,711864.000000,1670928438.342426
1670928438.292409,,,,0.050986,0.052397,711865.000000,1670928438.343433
1670928438.296905,,,,0.056924,0.057349,711866.000000,1670928438.344440
1670928438.297395,,,,0.065026,0.066004,711867.000000,1670928438.345448
1670928438.297924,,,,0.064136,0.064657,711868.000000,1670928438.346455
1670928438.297945,,,,0.067670,0.066148,711869.000000,1670928438.347462
1670928438.297953,,,,0.076469,0.078288,711870.000000,1670928438.348469
1670928438.298028,,,,0.082118,0.085885,711871.000000,1670928438.349476
1670928438.298281,,,,0.099500,0.101920,711872.000000,1670928438.350483
1670928438.298851,,,,0.098514,0.099156,711873.000000,1670928438.351490
1670928438.299115,,,,0.098706,0.101103,711874.000000,1670928438.352497
1670928438.299510,,,,0.091903,0.095045,711875.000000,1670928438.353504
1670928438.313286,,,,0.081950,0.084972,711876.000000,1670928438.354511
1670928438.313523,,,,0.085244,0.085669,711877.000000,1670928438.355518
1670928438.313705,,,,0.090989,0.090958,711878.000000,1670928438.356525
1670928438.313857,,,,0.091013,0.091751,711879.000000,1670928438.357533
1670928438.313865,,,,0.078200,0.079322,711880.000000,1670928438.358540
1670928438.320379,,,,0.069064,0.067975,711881.000000,1670928438.359547
1670928438.320498,,,,0.069137,0.066965,711882.000000,1670928438.360554
1670928438.320666,,,,0.059785,0.061412,711883.000000,1670928438.361561
1670928438.320825,,,,0.052116,0.052589,711884.000000,1670928438.362568
1670928438.320936,,,,0.053630,0.053070,711885.000000,1670928438.363575
1670928438.321117,,,,0.068872,0.067085,711886.000000,1670928438.364582
1670928438.326902,,,,0.077262,0.076726,711887.000000,1670928438.365589
1670928438.326965,,,,0.069858,0.068792,711888.000000,1670928438.366596
1670928438.326972,,,,0.078464,0.078793,711889.000000,1670928438.367603
1670928438.327039,,,,0.103851,0.106031,711890.000000,1670928438.368610
1670928438.329425,,,,0.124839,0.125528,711891.000000,1670928438.369617
1670928438.329749,,,,0.148711,0.147549,711892.000000,1670928438.370625
1670928438.330137,58.024612,726938.000000,1670928438.268618,,,,
1670928438.330379,,,,0.145489,0.147645,711893.000000,1670928438.371632
1670928438.330646,,,,0.155033,0.156132,711894.000000,1670928438.372639
1670928438.330670,,,,0.165587,0.165051,711895.000000,1670928438.373646
1670928438.330784,,,,0.146451,0.144424,711896.000000,1670928438.374653
1670928438.331134,,,,0.123877,0.123196,711897.000000,1670928438.375660
1670928438.331340,58.115059,726939.000000,1670928438.269618,,,,
1670928438.331465,58.205505,726940.000000,1670928438.270618,,,,
1670928438.332197,58.295967,726941.000000,1670928438.271618,,,,
1670928438.332214,58.513035,726942.000000,1670928438.272618,,,,
1670928438.332220,58.603497,726943.000000,1670928438.273618,,,,
1670928438.332230,58.730122,726944.000000,1670928438.274618,,,,
1670928438.332242,58.802475,726945.000000,1670928438.275618,,,,
1670928438.332250,58.947205,726946.000000,1670928438.276618,,,,
1670928438.332279,59.091919,726947.000000,1670928438.277618,,,,
1670928438.332289,61.877796,726989.000000,1670928438.319618,,,,
1670928438.332298,61.913994,726990.000000,1670928438.320618,,,,
1670928438.332302,61.913994,726991.000000,1670928438.321618,,,,
1670928438.332314,61.877796,726992.000000,1670928438.322618,,,,
1670928438.332337,61.932079,726993.000000,1670928438.323618,,,,
1670928438.332355,62.004436,726994.000000,1670928438.324618,,,,
1670928438.332364,62.004436,726995.000000,1670928438.325618,,,,
1670928438.332376,62.022526,726996.000000,1670928438.326618,,,,
1670928438.332387,62.004436,726997.000000,1670928438.327618,,,,
1670928438.332392,62.076794,726998.000000,1670928438.328618,,,,
1670928438.334103,,,,0.101856,0.103964,711898.000000,1670928438.376667
1670928438.334387,,,,0.096134,0.096848,711899.000000,1670928438.377674
1670928438.334401,,,,0.093946,0.095069,711900.000000,1670928438.378681
1670928438.334422,,,,0.080508,0.080404,711901.000000,1670928438.379688
1670928438.336562,,,,0.046178,0.047132,711902.000000,1670928438.380695
1670928438.336810,,,,0.027979,0.026144,711903.000000,1670928438.381702
1670928438.336992,,,,0.038293,0.038934,711904.000000,1670928438.382710
1670928438.337156,,,,0.048486,0.050185,711905.000000,1670928438.383717
1670928438.341743,,,,0.051707,0.051459,711906.000000,1670928438.384724
1670928438.342074,,,,0.053438,0.051844,711907.000000,1670928438.385731
1670928438.342620,,,,0.044303,0.043886,711908.000000,1670928438.386738
1670928438.342632,,,,0.034206,0.036169,711909.000000,1670928438.387745
1670928438.342732,,,,0.037932,0.038044,711910.000000,1670928438.388752
1670928438.342741,,,,0.049087,0.049632,711911.000000,1670928438.389759
1670928438.344008,,,,0.060145,0.061316,711912.000000,1670928438.390766
1670928438.344020,,,,0.073824,0.076630,711913.000000,1670928438.391773
1670928438.344150,,,,0.085628,0.086318,711914.000000,1670928438.392780
1670928438.344279,,,,0.097504,0.097160,711915.000000,1670928438.393787
1670928438.349338,,,,0.110438,0.109445,711916.000000,1670928438.394794
1670928438.349514,,,,0.125680,0.123557,711917.000000,1670928438.395802
1670928438.349657,,,,0.128469,0.128245,711918.000000,1670928438.396809
1670928438.351745,,,,0.125560,0.125432,711919.000000,1670928438.397816
1670928438.352123,,,,0.106928,0.104204,711920.000000,1670928438.398823
1670928438.352311,,,,0.089138,0.089227,711921.000000,1670928438.399830
1670928438.352649,,,,0.070675,0.070932,711922.000000,1670928438.400837
1670928438.352898,,,,0.079762,0.079995,711923.000000,1670928438.401844
1670928438.353226,,,,0.108515,0.109180,711924.000000,1670928438.402851
1670928438.353458,,,,0.130440,0.130264,711925.000000,1670928438.403858
1670928438.356767,,,,0.138205,0.141876,711926.000000,1670928438.404865
1670928438.356899,,,,0.122915,0.125528,711927.000000,1670928438.405872
1670928438.356978,,,,0.084979,0.085957,711928.000000,1670928438.406879
1670928438.357018,,,,0.075628,0.077327,711929.000000,1670928438.407887
1670928438.360913,,,,0.092720,0.095453,711930.000000,1670928438.408894
1670928438.361253,,,,0.100029,0.105526,711931.000000,1670928438.409901
1670928438.361362,,,,0.084258,0.086751,711932.000000,1670928438.410908
1670928438.361547,,,,0.066492,0.069033,711933.000000,1670928438.411915
1670928438.361560,,,,0.063295,0.064657,711934.000000,1670928438.412922
1670928438.361885,,,,0.080556,0.079202,711935.000000,1670928438.413929
1670928438.362057,,,,0.085340,0.084827,711936.000000,1670928438.414936
1670928438.362069,,,,0.070459,0.070427,711937.000000,1670928438.415943
1670928438.362294,,,,0.062766,0.063023,711938.000000,1670928438.416950
1670928438.362441,,,,0.060626,0.062614,711939.000000,1670928438.417957
1670928438.362498,,,,0.055914,0.057854,711940.000000,1670928438.418964
1670928438.362867,,,,0.054015,0.053695,711941.000000,1670928438.419971
1670928438.362960,,,,0.065074,0.062999,711942.000000,1670928438.420979
1670928438.363341,,,,0.063247,0.061292,711943.000000,1670928438.421986
1670928438.363346,,,,0.056467,0.058455,711944.000000,1670928438.422993
1670928438.363498,,,,0.056515,0.056820,711945.000000,1670928438.424000
1670928438.363557,,,,0.055193,0.054753,711946.000000,1670928438.425007
1670928438.363606,,,,0.057116,0.056916,711947.000000,1670928438.426014
1670928438.363758,,,,0.058126,0.057469,711948.000000,1670928438.427021
1670928438.363880,,,,0.058078,0.059080,711949.000000,1670928438.428028
1670928438.364081,,,,0.059977,0.063191,711950.000000,1670928438.429035
1670928438.364090,,,,0.070675,0.072014,711951.000000,1670928438.430042
1670928438.371644,,,,0.085196,0.086967,711952.000000,1670928438.431049
1670928438.371879,,,,0.096687,0.095694,711953.000000,1670928438.432056
1670928438.374244,,,,0.086398,0.087039,711954.000000,1670928438.433064
1670928438.374267,,,,0.119910,0.120984,711955.000000,1670928438.434071
1670928438.374401,,,,0.162486,0.161661,711956.000000,1670928438.435078
1670928438.374424,,,,0.149143,0.148535,711957.000000,1670928438.436085
1670928438.380516,,,,0.131329,0.132764,711958.000000,1670928438.437092
1670928438.381156,,,,0.126161,0.126682,711959.000000,1670928438.438099
1670928438.381181,,,,0.120776,0.122427,711960.000000,1670928438.439106
1670928438.381198,,,,0.093754,0.093073,711961.000000,1670928438.440113
1670928438.385292,62.094883,726999.000000,1670928438.324520,,,,
1670928438.385564,62.131062,727000.000000,1670928438.325520,,,,
1670928438.385584,62.167240,727001.000000,1670928438.326520,,,,
1670928438.386582,,,,0.078993,0.080716,711962.000000,1670928438.441120
1670928438.386672,62.149151,727002.000000,1670928438.327520,,,,
1670928438.387073,,,,0.081830,0.083457,711963.000000,1670928438.442127
1670928438.387092,,,,0.087888,0.088530,711964.000000,1670928438.443134
1670928438.387117,63.216469,727041.000000,1670928438.366520,,,,
1670928438.387135,63.234558,727042.000000,1670928438.367520,,,,
1670928438.387145,63.216469,727043.000000,1670928438.368520,,,,
1670928438.387179,63.234558,727044.000000,1670928438.369520,,,,
1670928438.387196,63.288826,727045.000000,1670928438.370520,,,,
1670928438.387613,63.288826,727046.000000,1670928438.371520,,,,
1670928438.387633,63.306931,727047.000000,1670928438.372520,,,,
1670928438.387643,63.343109,727048.000000,1670928438.373520,,,,
1670928438.387650,63.343109,727049.000000,1670928438.374520,,,,
1670928438.387658,63.361198,727050.000000,1670928438.375520,,,,
1670928438.387674,63.451645,727051.000000,1670928438.376520,,,,
1670928438.387715,63.469734,727052.000000,1670928438.377520,,,,
1670928438.387742,63.451645,727053.000000,1670928438.378520,,,,
1670928438.387749,63.469734,727054.000000,1670928438.379520,,,,
1670928438.387759,63.415466,727055.000000,1670928438.380520,,,,
1670928438.387825,63.469734,727056.000000,1670928438.381520,,,,
1670928438.387838,63.487823,727057.000000,1670928438.382520,,,,
1670928438.387845,63.487823,727058.000000,1670928438.383520,,,,
1670928438.387853,63.578266,727059.000000,1670928438.384520,,,,
1670928438.388911,,,,0.092215,0.091487,711965.000000,1670928438.444141
1670928438.389311,,,,0.085652,0.086606,711966.000000,1670928438.445148
1670928438.389483,,,,0.080388,0.081125,711967.000000,1670928438.446156
1670928438.389499,,,,0.089763,0.086126,711968.000000,1670928438.447163
1670928438.394064,,,,0.079426,0.079058,711969.000000,1670928438.448170
1670928438.394141,,,,0.061540,0.060498,711970.000000,1670928438.449177
1670928438.394346,,,,0.034518,0.035713,711971.000000,1670928438.450184
1670928438.394524,,,,0.025551,0.026481,711972.000000,1670928438.451191
1670928438.396578,,,,0.045865,0.044920,711973.000000,1670928438.452198
1670928438.396786,,,,0.056708,0.055450,711974.000000,1670928438.453205
1670928438.397012,,,,0.070146,0.069177,711975.000000,1670928438.454212
1670928438.401761,,,,0.077983,0.076557,711976.000000,1670928438.455219
1670928438.401778,,,,0.070579,0.073384,711977.000000,1670928438.456226
1670928438.401838,,,,0.074570,0.075524,711978.000000,1670928438.457233
1670928438.404287,,,,0.083513,0.081750,711979.000000,1670928438.458241
1670928438.404714,,,,0.079186,0.077086,711980.000000,1670928438.459248
1670928438.404737,,,,0.076349,0.076173,711981.000000,1670928438.460255
1670928438.404751,,,,0.074065,0.072495,711982.000000,1670928438.461262
1670928438.404765,,,,0.067983,0.067662,711983.000000,1670928438.462269
1670928438.409205,,,,0.072695,0.073168,711984.000000,1670928438.463276
1670928438.409225,,,,0.106231,0.104156,711985.000000,1670928438.464283
1670928438.411507,,,,0.140008,0.139976,711986.000000,1670928438.465290
1670928438.411687,,,,0.157245,0.155290,711987.000000,1670928438.466297
1670928438.411700,,,,0.155562,0.152790,711988.000000,1670928438.467304
1670928438.411746,,,,0.137508,0.138294,711989.000000,1670928438.468311
1670928438.416425,,,,0.117314,0.118797,711990.000000,1670928438.469318
1670928438.416514,,,,0.082792,0.084154,711991.000000,1670928438.470325
1670928438.416718,,,,0.053823,0.056291,711992.000000,1670928438.471333
1670928438.416730,,,,0.083345,0.086630,711993.000000,1670928438.472340
1670928438.419368,,,,0.129647,0.130504,711994.000000,1670928438.473347
1670928438.419379,,,,0.150249,0.149617,711995.000000,1670928438.474354
1670928438.419528,,,,0.150201,0.149953,711996.000000,1670928438.475361
1670928438.420018,,,,0.117458,0.117114,711997.000000,1670928438.476368
1670928438.420235,,,,0.055097,0.055570,711998.000000,1670928438.477375
1670928438.420550,,,,0.019733,0.018572,711999.000000,1670928438.478382
1670928438.420563,,,,0.043053,0.046435,712000.000000,1670928438.479389
1670928438.439825,,,,0.056900,0.058815,712001.000000,1670928438.480396
1670928438.439849,,,,0.067309,0.067302,712002.000000,1670928438.481403
1670928438.439856,,,,0.072286,0.071485,712003.000000,1670928438.482410
1670928438.439862,,,,0.062309,0.061941,712004.000000,1670928438.483418
1670928438.441308,63.505913,727060.000000,1670928438.380130,,,,
1670928438.441847,63.560177,727061.000000,1670928438.381130,,,,
1670928438.442008,,,,0.034037,0.034919,712005.000000,1670928438.484425
1670928438.442304,63.578266,727062.000000,1670928438.382130,,,,
1670928438.442546,,,,0.015694,0.014966,712006.000000,1670928438.485432
1670928438.442576,,,,0.048486,0.048550,712007.000000,1670928438.486439
1670928438.442613,,,,0.081950,0.081414,712008.000000,1670928438.487446
1670928438.442741,63.524002,727063.000000,1670928438.383130,,,,
1670928438.444208,63.578266,727064.000000,1670928438.384130,,,,
1670928438.444222,63.596375,727065.000000,1670928438.385130,,,,
1670928438.444238,63.578266,727066.000000,1670928438.386130,,,,
1670928438.444248,64.446609,727111.000000,1670928438.431130,,,,
1670928438.444253,64.446609,727112.000000,1670928438.432130,,,,
1670928438.444260,64.537056,727113.000000,1670928438.433130,,,,
1670928438.444265,64.627502,727114.000000,1670928438.434130,,,,
1670928438.444315,64.609413,727115.000000,1670928438.435130,,,,
1670928438.444324,64.754143,727116.000000,1670928438.436130,,,,
1670928438.444336,64.826492,727117.000000,1670928438.437130,,,,
1670928438.444345,64.880760,727118.000000,1670928438.438130,,,,
1670928438.444385,64.916939,727119.000000,1670928438.439130,,,,
1670928438.444396,64.971207,727120.000000,1670928438.440130,,,,
1670928438.447096,,,,0.092456,0.091991,712009.000000,1670928438.488453
1670928438.447105,,,,0.102433,0.105839,712010.000000,1670928438.489460
1670928438.447334,,,,0.109164,0.110647,712011.000000,1670928438.490467
1670928438.447557,,,,0.120151,0.121177,712012.000000,1670928438.491474
1670928438.447759,,,,0.115246,0.117066,712013.000000,1670928438.492481
1670928438.447999,,,,0.107577,0.106440,712014.000000,1670928438.493488
1670928438.448011,,,,0.097432,0.097280,712015.000000,1670928438.494495
1670928438.448991,,,,0.087383,0.088361,712016.000000,1670928438.495502
1670928438.449008,,,,0.073656,0.072687,712017.000000,1670928438.496510
1670928438.449181,,,,0.066684,0.066629,712018.000000,1670928438.497517
1670928438.454154,,,,0.063054,0.060691,712019.000000,1670928438.498524
1670928438.454427,,,,0.063295,0.062782,712020.000000,1670928438.499531
1670928438.454436,,,,0.060266,0.060835,712021.000000,1670928438.500538
1670928438.454454,,,,0.051178,0.051435,712022.000000,1670928438.501545
1670928438.457303,,,,0.042812,0.045377,712023.000000,1670928438.502552
1670928438.457325,,,,0.048029,0.050473,712024.000000,1670928438.503559
1670928438.457447,,,,0.063199,0.062686,712025.000000,1670928438.504566
1670928438.457505,,,,0.073344,0.071653,712026.000000,1670928438.505573
1670928438.457521,,,,0.055866,0.058335,712027.000000,1670928438.506580
1670928438.457530,,,,0.058943,0.060210,712028.000000,1670928438.507587
1670928438.457551,,,,0.060169,0.057758,712029.000000,1670928438.508595
1670928438.463076,,,,0.058318,0.056556,712030.000000,1670928438.509602
1670928438.463429,,,,0.073488,0.073528,712031.000000,1670928438.510609
1670928438.463774,,,,0.098730,0.100406,712032.000000,1670928438.511616
1670928438.464052,,,,0.110366,0.109541,712033.000000,1670928438.512623
1670928438.493078,,,,0.114910,0.114445,712034.000000,1670928438.513630
1670928438.493295,,,,0.122819,0.123797,712035.000000,1670928438.514637
1670928438.493305,,,,0.118251,0.117378,712036.000000,1670928438.515644
1670928438.493509,,,,0.104957,0.105887,712037.000000,1670928438.516651
1670928438.493553,,,,0.093249,0.093218,712038.000000,1670928438.517658
1670928438.493776,,,,0.080339,0.079514,712039.000000,1670928438.518665
1670928438.501393,,,,0.067718,0.066268,712040.000000,1670928438.519672
1670928438.501420,,,,0.075988,0.075307,712041.000000,1670928438.520679
1670928438.501452,,,,0.108178,0.108940,712042.000000,1670928438.521687
1670928438.501677,,,,0.111256,0.112618,712043.000000,1670928438.522694
1670928438.501919,,,,0.066252,0.068095,712044.000000,1670928438.523701
1670928438.502216,,,,0.016800,0.020735,712045.000000,1670928438.524708
1670928438.502762,,,,0.024397,0.024510,712046.000000,1670928438.525715
1670928438.502779,,,,0.061203,0.058551,712047.000000,1670928438.526722
1670928438.508127,,,,0.077671,0.077471,712048.000000,1670928438.527729
1670928438.508296,65.152115,727123.000000,1670928438.448563,,,,
1670928438.508620,,,,0.071012,0.068384,712049.000000,1670928438.528736
1670928438.508847,,,,0.068656,0.064850,712050.000000,1670928438.529743
1670928438.509140,,,,0.067983,0.069826,712051.000000,1670928438.530750
1670928438.509502,,,,0.062141,0.064537,712052.000000,1670928438.531757
1670928438.509848,65.242561,727124.000000,1670928438.449563,,,,
1670928438.509907,,,,0.064256,0.064080,712053.000000,1670928438.532764
1670928438.509938,,,,0.075002,0.073721,712054.000000,1670928438.533772
1670928438.510032,,,,0.082599,0.083265,712055.000000,1670928438.534779
1670928438.510049,,,,0.086061,0.086775,712056.000000,1670928438.535786
1670928438.510319,,,,0.084811,0.083481,712057.000000,1670928438.536793
1670928438.510435,,,,0.110510,0.107329,712058.000000,1670928438.537800
1670928438.510600,65.351112,727125.000000,1670928438.450563,,,,
1670928438.510610,65.369202,727126.000000,1670928438.451563,,,,
1670928438.510617,65.459648,727127.000000,1670928438.452563,,,,
1670928438.510697,65.513916,727128.000000,1670928438.453563,,,,
1670928438.510708,65.622459,727129.000000,1670928438.454563,,,,
1670928438.510714,65.712906,727130.000000,1670928438.455563,,,,
1670928438.510719,65.767174,727131.000000,1670928438.456563,,,,
1670928438.510724,65.911903,727132.000000,1670928438.457563,,,,
1670928438.510731,68.354073,727172.000000,1670928438.497563,,,,
1670928438.510744,68.444519,727173.000000,1670928438.498563,,,,
1670928438.510775,68.516876,727174.000000,1670928438.499563,,,,
1670928438.510781,68.571144,727175.000000,1670928438.500563,,,,
1670928438.510787,68.571144,727176.000000,1670928438.501563,,,,
1670928438.510794,68.607323,727177.000000,1670928438.502563,,,,
1670928438.510798,68.661606,727178.000000,1670928438.503563,,,,
1670928438.510810,68.715874,727179.000000,1670928438.504563,,,,
1670928438.510845,68.733963,727180.000000,1670928438.505563,,,,
1670928438.510852,68.788231,727181.000000,1670928438.506563,,,,
1670928438.510876,,,,0.141811,0.138582,712059.000000,1670928438.538807
1670928438.511040,,,,0.153495,0.153006,712060.000000,1670928438.539814
1670928438.511139,,,,0.176478,0.176037,712061.000000,1670928438.540821
1670928438.511260,,,,0.162967,0.163272,712062.000000,1670928438.541828
1670928438.511392,,,,0.107409,0.107642,712063.000000,1670928438.542835
1670928438.511515,,,,0.050265,0.051002,712064.000000,1670928438.543842
1670928438.511667,,,,0.049231,0.049271,712065.000000,1670928438.544849
1670928438.511792,,,,0.065771,0.063600,712066.000000,1670928438.545856
1670928438.512032,,,,0.055842,0.056532,712067.000000,1670928438.546864
1670928438.512163,,,,0.070988,0.070331,712068.000000,1670928438.547871
1670928438.512436,,,,0.080820,0.080332,712069.000000,1670928438.548878
1670928438.512795,,,,0.087696,0.088217,712070.000000,1670928438.549885
1670928438.512805,,,,0.093706,0.093794,712071.000000,1670928438.550892
1670928438.514424,,,,0.086758,0.085789,712072.000000,1670928438.551899
1670928438.514518,,,,0.067165,0.068456,712073.000000,1670928438.552906
1670928438.514525,,,,0.074425,0.073240,712074.000000,1670928438.553913
1670928438.514528,,,,0.071949,0.071894,712075.000000,1670928438.554920
1670928438.514774,,,,0.067093,0.069898,712076.000000,1670928438.555927
1670928438.514784,,,,0.089090,0.091583,712077.000000,1670928438.556934
1670928438.514847,,,,0.100798,0.101776,712078.000000,1670928438.557941
1670928438.514855,,,,0.083946,0.083673,712079.000000,1670928438.558949
1670928438.516596,,,,0.067526,0.064609,712080.000000,1670928438.559956
1670928438.516603,,,,0.046659,0.045305,712081.000000,1670928438.560963
1670928438.516803,,,,0.052068,0.050594,712082.000000,1670928438.561970
1670928438.516939,,,,0.080989,0.080500,712083.000000,1670928438.562977
1670928438.517115,,,,0.109380,0.109301,712084.000000,1670928438.563984
1670928438.517301,,,,0.136282,0.135769,712085.000000,1670928438.564991
1670928438.522512,,,,0.160899,0.159233,712086.000000,1670928438.565998
1670928438.522610,,,,0.164553,0.166229,712087.000000,1670928438.567005
1670928438.522737,,,,0.148567,0.151275,712088.000000,1670928438.568012
1670928438.522839,,,,0.131810,0.132356,712089.000000,1670928438.569019
1670928438.523091,,,,0.092480,0.091414,712090.000000,1670928438.570026
1670928438.523277,,,,0.088105,0.091414,712091.000000,1670928438.571033
1670928438.524015,,,,0.110823,0.110503,712092.000000,1670928438.572041
1670928438.524338,,,,0.104284,0.102834,712093.000000,1670928438.573048
1670928438.524663,,,,0.107577,0.106921,712094.000000,1670928438.574055
1670928438.524683,,,,0.100125,0.102786,712095.000000,1670928438.575062
1670928438.524694,,,,0.073440,0.073600,712096.000000,1670928438.576069
1670928438.524700,,,,0.044663,0.043237,712097.000000,1670928438.577076
1670928438.524723,,,,0.031321,0.032323,712098.000000,1670928438.578083
1670928438.524734,,,,0.043173,0.043478,712099.000000,1670928438.579090
1670928438.524740,,,,0.052068,0.052276,712100.000000,1670928438.580097
1670928438.524770,,,,0.042860,0.043454,712101.000000,1670928438.581104
1670928438.524775,,,,0.045769,0.047444,712102.000000,1670928438.582111
1670928438.525093,,,,0.052044,0.053719,712103.000000,1670928438.583118
1670928438.525108,,,,0.046827,0.047949,712104.000000,1670928438.584126
1670928438.525137,,,,0.044711,0.046699,712105.000000,1670928438.585133
1670928438.525186,,,,0.052789,0.053935,712106.000000,1670928438.586140
1670928438.525193,,,,0.052885,0.053575,712107.000000,1670928438.587147
1670928438.529759,,,,0.055962,0.057253,712108.000000,1670928438.588154
1670928438.529881,,,,0.054063,0.052733,712109.000000,1670928438.589161
1670928438.530069,,,,0.054784,0.055738,712110.000000,1670928438.590168
1670928438.530081,,,,0.047668,0.048430,712111.000000,1670928438.591175
1670928438.530107,,,,0.040120,0.041122,712112.000000,1670928438.592182
1670928438.530123,,,,0.060794,0.061027,712113.000000,1670928438.593189
1670928438.530432,,,,0.094499,0.094323,712114.000000,1670928438.594196
1670928438.531485,,,,0.118299,0.116224,712115.000000,1670928438.595203
1670928438.531632,,,,0.119646,0.119518,712116.000000,1670928438.596210
1670928438.531922,,,,0.132243,0.134062,712117.000000,1670928438.597218
1670928438.536677,,,,0.144672,0.144688,712118.000000,1670928438.598225
1670928438.537314,,,,0.148831,0.149689,712119.000000,1670928438.599232
1670928438.537381,,,,0.182776,0.184548,712120.000000,1670928438.600239
1670928438.537482,,,,0.172246,0.175941,712121.000000,1670928438.601246
1670928438.539355,,,,0.144696,0.145890,712122.000000,1670928438.602253
1670928438.539953,,,,0.122218,0.123268,712123.000000,1670928438.603260
1670928438.540070,,,,0.102024,0.102978,712124.000000,1670928438.604267
1670928438.540099,,,,0.067454,0.068624,712125.000000,1670928438.605274
1670928438.553216,,,,0.023411,0.023260,712126.000000,1670928438.606281
1670928438.553380,,,,0.032956,0.031025,712127.000000,1670928438.607288
1670928438.553596,,,,0.053366,0.056964,712128.000000,1670928438.608295
1670928438.553897,,,,0.056107,0.059993,712129.000000,1670928438.609303
1670928438.553939,,,,0.061179,0.061484,712130.000000,1670928438.610310
1670928438.554036,,,,0.068175,0.066484,712131.000000,1670928438.611317
1670928438.560413,,,,0.043029,0.045233,712132.000000,1670928438.612324
1670928438.560697,,,,0.046442,0.047925,712133.000000,1670928438.613331
1670928438.560800,,,,0.080003,0.080596,712134.000000,1670928438.614338
1670928438.561102,,,,0.110438,0.110815,712135.000000,1670928438.615345
1670928438.561341,,,,0.127098,0.129855,712136.000000,1670928438.616352
1670928438.563506,68.824409,727182.000000,1670928438.502673,,,,
1670928438.563921,68.914871,727183.000000,1670928438.503673,,,,
1670928438.563936,68.987228,727184.000000,1670928438.504673,,,,
1670928438.564132,69.041496,727185.000000,1670928438.505673,,,,
1670928438.565859,69.077667,727186.000000,1670928438.506673,,,,
1670928438.565874,69.095757,727187.000000,1670928438.507673,,,,
1670928438.565885,69.131935,727188.000000,1670928438.508673,,,,
1670928438.565893,69.240486,727189.000000,1670928438.509673,,,,
1670928438.565901,71.682640,727233.000000,1670928438.553673,,,,
1670928438.565919,71.809280,727234.000000,1670928438.554673,,,,
1670928438.565937,71.827370,727235.000000,1670928438.555673,,,,
1670928438.565959,71.845459,727236.000000,1670928438.556673,,,,
1670928438.566031,71.972099,727237.000000,1670928438.557673,,,,
1670928438.566040,72.008278,727238.000000,1670928438.558673,,,,
1670928438.566048,72.062546,727239.000000,1670928438.559673,,,,
1670928438.566052,72.134903,727240.000000,1670928438.560673,,,,
1670928438.566067,72.243439,727241.000000,1670928438.561673,,,,
1670928438.566085,72.243439,727242.000000,1670928438.562673,,,,
1670928438.566471,,,,0.148398,0.147958,712137.000000,1670928438.617359
1670928438.566636,,,,0.158567,0.158464,712138.000000,1670928438.618366
1670928438.569217,,,,0.138325,0.139592,712139.000000,1670928438.619373
1670928438.569478,,,,0.116424,0.117186,712140.000000,1670928438.620380
1670928438.569561,,,,0.114381,0.113291,712141.000000,1670928438.621387
1670928438.569726,,,,0.103995,0.102978,712142.000000,1670928438.622395
1670928438.570106,,,,0.075195,0.075283,712143.000000,1670928438.623402
1670928438.570116,,,,0.046370,0.045425,712144.000000,1670928438.624409
1670928438.570139,,,,0.045457,0.044415,712145.000000,1670928438.625416
1670928438.570144,,,,0.062982,0.063119,712146.000000,1670928438.626423
1670928438.573996,,,,0.071420,0.071148,712147.000000,1670928438.627430
1670928438.574301,,,,0.089018,0.090212,712148.000000,1670928438.628437
1670928438.574314,,,,0.089379,0.092064,712149.000000,1670928438.629444
1670928438.582284,,,,0.080748,0.081846,712150.000000,1670928438.630451
1670928438.582654,,,,0.073272,0.077014,712151.000000,1670928438.631458
1670928438.583184,,,,0.076132,0.075091,712152.000000,1670928438.632465
1670928438.583631,,,,0.080315,0.078240,712153.000000,1670928438.633472
1670928438.583930,,,,0.082719,0.083649,712154.000000,1670928438.634480
1670928438.584162,,,,0.081469,0.081774,712155.000000,1670928438.635487
1670928438.585011,,,,0.072070,0.074442,712156.000000,1670928438.636494
1670928438.585902,,,,0.070387,0.071148,712157.000000,1670928438.637501
1670928438.585931,,,,0.080989,0.079875,712158.000000,1670928438.638508
1670928438.585943,,,,0.093201,0.093097,712159.000000,1670928438.639515
1670928438.585965,,,,0.085893,0.088265,712160.000000,1670928438.640522
1670928438.586002,,,,0.086253,0.085428,712161.000000,1670928438.641529
1670928438.589260,,,,0.098899,0.098747,712162.000000,1670928438.642536
1670928438.589636,,,,0.100077,0.099829,712163.000000,1670928438.643543
1670928438.589657,,,,0.105871,0.105310,712164.000000,1670928438.644550
1670928438.592059,,,,0.129550,0.130096,712165.000000,1670928438.645557
