__time,/gdx/grip_force_stream/grip_force,/gdx/grip_force_stream/header/seq,/gdx/grip_force_stream/header/stamp,/shimmer0/emg_stream/emg_ch1,/shimmer0/emg_stream/emg_ch2,/shimmer0/emg_stream/header/seq,/shimmer0/emg_stream/header/stamp
1670929750.530533,,,,1.038091,1.040603,328909.000000,1670929750.536609
1670929750.530870,,,,1.038788,1.042334,328910.000000,1670929750.537616
1670929750.530942,,,,1.034413,1.034473,328911.000000,1670929750.538623
1670929750.533237,,,,1.032658,1.033079,328912.000000,1670929750.539630
1670929750.533361,,,,1.038163,1.038512,328913.000000,1670929750.540637
1670929750.533378,,,,1.041625,1.038199,328914.000000,1670929750.541644
1670929750.533391,,,,1.040880,1.041397,328915.000000,1670929750.542651
1670929750.538223,,,,1.034413,1.037190,328916.000000,1670929750.543658
1670929750.538289,,,,1.029004,1.028030,328917.000000,1670929750.544665
1670929750.538633,,,,1.031528,1.029136,328918.000000,1670929750.545672
1670929750.538836,,,,1.034605,1.036733,328919.000000,1670929750.546679
1670929750.540454,,,,1.039990,1.042791,328920.000000,1670929750.547687
1670929750.540778,,,,1.042827,1.042310,328921.000000,1670929750.548694
1670929750.540937,,,,1.040976,1.040555,328922.000000,1670929750.549701
1670929750.545764,,,,1.038740,1.037767,328923.000000,1670929750.550708
1670929750.546317,,,,1.040134,1.041301,328924.000000,1670929750.551715
1670929750.546417,,,,1.042106,1.042791,328925.000000,1670929750.552722
1670929750.548615,,,,1.041072,1.044642,328926.000000,1670929750.553729
1670929750.548918,,,,1.035951,1.038560,328927.000000,1670929750.554736
1670929750.548936,,,,1.035134,1.038151,328928.000000,1670929750.555743
1670929750.548983,,,,1.042538,1.040724,328929.000000,1670929750.556750
1670929750.561741,,,,1.049078,1.046517,328930.000000,1670929750.557757
1670929750.562347,,,,1.052083,1.049450,328931.000000,1670929750.558764
1670929750.562374,,,,1.047226,1.048970,328932.000000,1670929750.559772
1670929750.569551,,,,1.048116,1.047816,328933.000000,1670929750.560779
1670929750.569775,,,,1.049678,1.048777,328934.000000,1670929750.561786
1670929750.570119,,,,1.050039,1.048224,328935.000000,1670929750.562793
1670929750.570234,,,,1.048524,1.046878,328936.000000,1670929750.563800
1670929750.575668,2.823103,111072.000000,1670929750.565162,,,,
1670929750.575723,,,,1.045784,1.045940,328937.000000,1670929750.564807
1670929750.575817,2.786925,111073.000000,1670929750.566163,,,,
1670929750.575826,2.768836,111074.000000,1670929750.567163,,,,
1670929750.575833,2.805014,111075.000000,1670929750.568162,,,,
1670929750.575837,2.786925,111076.000000,1670929750.569162,,,,
1670929750.575840,2.768836,111077.000000,1670929750.570163,,,,
1670929750.575847,2.750738,111078.000000,1670929750.571162,,,,
1670929750.575861,2.823103,111079.000000,1670929750.572162,,,,
1670929750.575864,2.750738,111080.000000,1670929750.573163,,,,
1670929750.575917,2.768836,111081.000000,1670929750.574162,,,,
1670929750.575962,,,,1.042082,1.040051,328938.000000,1670929750.565814
1670929750.575971,,,,1.038259,1.035555,328939.000000,1670929750.566821
1670929750.575977,,,,1.037370,1.033968,328940.000000,1670929750.567828
1670929750.578091,,,,1.042827,1.041493,328941.000000,1670929750.568835
1670929750.578254,,,,1.049005,1.048897,328942.000000,1670929750.569842
1670929750.578588,,,,1.044606,1.043801,328943.000000,1670929750.570849
1670929750.578601,,,,1.034293,1.035603,328944.000000,1670929750.571856
1670929750.578892,,,,1.033451,1.036565,328945.000000,1670929750.572864
1670929750.578903,,,,1.035230,1.036517,328946.000000,1670929750.573871
1670929750.583356,,,,1.034100,1.034425,328947.000000,1670929750.574878
1670929750.583576,,,,1.033692,1.035459,328948.000000,1670929750.575885
1670929750.583700,,,,1.037466,1.038055,328949.000000,1670929750.576892
1670929750.583903,,,,1.038091,1.038464,328950.000000,1670929750.577899
1670929750.584084,,,,1.033499,1.033079,328951.000000,1670929750.578906
1670929750.584233,,,,1.030446,1.029953,328952.000000,1670929750.579913
1670929750.584519,,,,1.034533,1.033103,328953.000000,1670929750.580920
1670929750.584554,,,,1.039990,1.038824,328954.000000,1670929750.581927
1670929750.585658,,,,1.040639,1.042022,328955.000000,1670929750.582934
1670929750.585776,,,,1.043043,1.041998,328956.000000,1670929750.583941
1670929750.586128,,,,1.042106,1.042959,328957.000000,1670929750.584949
1670929750.586294,,,,1.043091,1.043729,328958.000000,1670929750.585956
1670929750.586523,,,,1.047948,1.047239,328959.000000,1670929750.586963
1670929750.586799,,,,1.053068,1.053850,328960.000000,1670929750.587970
1670929750.586810,,,,1.051674,1.053633,328961.000000,1670929750.588977
1670929750.590598,,,,1.048356,1.051350,328962.000000,1670929750.589984
1670929750.590950,,,,1.047924,1.047070,328963.000000,1670929750.590991
1670929750.591213,,,,1.045664,1.044234,328964.000000,1670929750.591998
1670929750.591532,,,,1.045952,1.046541,328965.000000,1670929750.593005
1670929750.593311,,,,1.045279,1.047671,328966.000000,1670929750.594012
1670929750.593327,,,,1.045568,1.048152,328967.000000,1670929750.595019
1670929750.593527,,,,1.047563,1.046614,328968.000000,1670929750.596026
1670929750.593679,,,,1.044942,1.045339,328969.000000,1670929750.597034
1670929750.593946,,,,1.041264,1.044017,328970.000000,1670929750.598041
1670929750.594125,,,,1.036865,1.038680,328971.000000,1670929750.599048
1670929750.598407,,,,1.037057,1.038320,328972.000000,1670929750.600055
1670929750.598839,,,,1.040759,1.041132,328973.000000,1670929750.601062
1670929750.599024,,,,1.037586,1.038632,328974.000000,1670929750.602069
1670929750.599472,,,,1.034942,1.035170,328975.000000,1670929750.603076
1670929750.599494,,,,1.041384,1.040291,328976.000000,1670929750.604083
1670929750.599507,,,,1.042635,1.045315,328977.000000,1670929750.605090
1670929750.599535,,,,1.044991,1.045724,328978.000000,1670929750.606097
1670929750.600423,,,,1.043885,1.043440,328979.000000,1670929750.607104
1670929750.600950,,,,1.046986,1.047287,328980.000000,1670929750.608111
1670929750.600994,,,,1.047515,1.048561,328981.000000,1670929750.609118
1670929750.601002,,,,1.051674,1.053345,328982.000000,1670929750.610126
1670929750.605435,,,,1.054318,1.054595,328983.000000,1670929750.611133
1670929750.605680,,,,1.054487,1.054234,328984.000000,1670929750.612140
1670929750.605730,,,,1.056506,1.057312,328985.000000,1670929750.613147
1670929750.605981,,,,1.055929,1.055220,328986.000000,1670929750.614154
1670929750.608044,,,,1.044918,1.046758,328987.000000,1670929750.615161
1670929750.608053,,,,1.038452,1.042455,328988.000000,1670929750.616168
1670929750.608062,,,,1.048116,1.049258,328989.000000,1670929750.617175
1670929750.608251,,,,1.053212,1.054138,328990.000000,1670929750.618182
1670929750.621978,,,,1.051481,1.051662,328991.000000,1670929750.619189
1670929750.621992,,,,1.053717,1.054283,328992.000000,1670929750.620196
1670929750.622008,,,,1.056891,1.057913,328993.000000,1670929750.621203
1670929750.622040,,,,1.054847,1.054499,328994.000000,1670929750.622211
1670929750.627962,2.768836,111082.000000,1670929750.567219,,,,
1670929750.627998,2.750738,111083.000000,1670929750.568219,,,,
1670929750.628009,2.732649,111084.000000,1670929750.569219,,,,
1670929750.628016,2.805014,111085.000000,1670929750.570220,,,,
1670929750.628046,2.841192,111086.000000,1670929750.571219,,,,
1670929750.628056,2.805014,111087.000000,1670929750.572219,,,,
1670929750.628061,2.750738,111088.000000,1670929750.573220,,,,
1670929750.628066,2.841192,111089.000000,1670929750.574219,,,,
1670929750.628248,2.786925,111090.000000,1670929750.575219,,,,
1670929750.628894,2.895459,111124.000000,1670929750.609220,,,,
1670929750.629055,2.913556,111125.000000,1670929750.610219,,,,
1670929750.629108,,,,1.053188,1.052407,328995.000000,1670929750.623218
1670929750.629315,2.913556,111126.000000,1670929750.611219,,,,
1670929750.629330,2.967824,111127.000000,1670929750.612219,,,,
1670929750.629337,2.985913,111128.000000,1670929750.613219,,,,
1670929750.629341,2.967824,111129.000000,1670929750.614219,,,,
1670929750.629360,2.985913,111130.000000,1670929750.615219,,,,
1670929750.629367,3.004002,111131.000000,1670929750.616220,,,,
1670929750.629514,2.985913,111132.000000,1670929750.617219,,,,
1670929750.629524,3.040180,111133.000000,1670929750.618219,,,,
1670929750.629533,2.985913,111134.000000,1670929750.619220,,,,
1670929750.629537,3.022091,111135.000000,1670929750.620219,,,,
1670929750.629546,3.022091,111136.000000,1670929750.621219,,,,
1670929750.629550,3.022091,111137.000000,1670929750.622219,,,,
1670929750.629552,3.040180,111138.000000,1670929750.623219,,,,
1670929750.629555,3.058277,111139.000000,1670929750.624219,,,,
1670929750.629566,3.112544,111140.000000,1670929750.625219,,,,
1670929750.629571,3.022091,111141.000000,1670929750.626220,,,,
1670929750.629578,3.094455,111142.000000,1670929750.627219,,,,
1670929750.629607,,,,1.051818,1.053657,328996.000000,1670929750.624225
1670929750.629612,,,,1.041649,1.044330,328997.000000,1670929750.625232
1670929750.635830,,,,1.030927,1.031612,328998.000000,1670929750.626239
1670929750.636164,,,,1.034701,1.035940,328999.000000,1670929750.627246
1670929750.636175,,,,1.048837,1.048657,329000.000000,1670929750.628253
1670929750.636253,,,,1.050520,1.053008,329001.000000,1670929750.629260
1670929750.636321,,,,1.048404,1.049787,329002.000000,1670929750.630267
1670929750.636356,,,,1.045664,1.044931,329003.000000,1670929750.631274
1670929750.638256,,,,1.041937,1.039930,329004.000000,1670929750.632281
1670929750.638951,,,,1.039557,1.038127,329005.000000,1670929750.633288
1670929750.639085,,,,1.038788,1.038560,329006.000000,1670929750.634295
1670929750.639106,,,,1.039654,1.042142,329007.000000,1670929750.635303
1670929750.639230,,,,1.040110,1.040507,329008.000000,1670929750.636310
1670929750.639240,,,,1.044101,1.043176,329009.000000,1670929750.637317
1670929750.639294,,,,1.044726,1.045484,329010.000000,1670929750.638324
1670929750.639312,,,,1.038259,1.038488,329011.000000,1670929750.639331
1670929750.643567,,,,1.033523,1.036877,329012.000000,1670929750.640338
1670929750.644040,,,,1.032297,1.034425,329013.000000,1670929750.641345
1670929750.644060,,,,1.032033,1.034641,329014.000000,1670929750.642352
1670929750.644324,,,,1.037466,1.037118,329015.000000,1670929750.643359
1670929750.644562,,,,1.044101,1.043080,329016.000000,1670929750.644366
1670929750.644576,,,,1.051145,1.050460,329017.000000,1670929750.645373
1670929750.644909,,,,1.054006,1.056278,329018.000000,1670929750.646380
1670929750.645477,,,,1.055737,1.058850,329019.000000,1670929750.647388
1670929750.645863,,,,1.054751,1.055605,329020.000000,1670929750.648395
1670929750.645882,,,,1.052371,1.053826,329021.000000,1670929750.649402
1670929750.647135,,,,1.055232,1.055460,329022.000000,1670929750.650409
1670929750.650638,,,,1.059535,1.060317,329023.000000,1670929750.651416
1670929750.651200,,,,1.056097,1.055845,329024.000000,1670929750.652423
1670929750.651229,,,,1.050087,1.052864,329025.000000,1670929750.653430
1670929750.653522,,,,1.054727,1.058369,329026.000000,1670929750.654437
1670929750.653967,,,,1.056290,1.057840,329027.000000,1670929750.655444
1670929750.653988,,,,1.053188,1.051109,329028.000000,1670929750.656451
1670929750.653999,,,,1.049390,1.049210,329029.000000,1670929750.657458
1670929750.654068,,,,1.045760,1.047407,329030.000000,1670929750.658465
1670929750.654356,,,,1.042635,1.040243,329031.000000,1670929750.659472
1670929750.654645,,,,1.045640,1.043440,329032.000000,1670929750.660480
1670929750.654862,,,,1.045111,1.046517,329033.000000,1670929750.661487
1670929750.658252,,,,1.048765,1.050099,329034.000000,1670929750.662494
1670929750.658378,,,,1.051530,1.050172,329035.000000,1670929750.663501
1670929750.658585,,,,1.049799,1.049210,329036.000000,1670929750.664508
1670929750.660893,,,,1.045495,1.045989,329037.000000,1670929750.665515
1670929750.660912,,,,1.049727,1.048729,329038.000000,1670929750.666522
1670929750.661078,,,,1.050832,1.049498,329039.000000,1670929750.667529
1670929750.666024,,,,1.054174,1.053032,329040.000000,1670929750.668536
1670929750.666234,,,,1.056602,1.059259,329041.000000,1670929750.669543
1670929750.666663,,,,1.058333,1.056470,329042.000000,1670929750.670550
1670929750.666865,,,,1.057347,1.055797,329043.000000,1670929750.671557
1670929750.666873,,,,1.056770,1.057672,329044.000000,1670929750.672565
1670929750.667192,,,,1.055881,1.055749,329045.000000,1670929750.673572
1670929750.667552,,,,1.055641,1.057384,329046.000000,1670929750.674579
1670929750.668316,,,,1.060016,1.061639,329047.000000,1670929750.675586
1670929750.668464,,,,1.058501,1.060004,329048.000000,1670929750.676593
1670929750.668496,,,,1.050087,1.051326,329049.000000,1670929750.677600
1670929750.668502,,,,1.044654,1.046950,329050.000000,1670929750.678607
1670929750.682027,,,,1.045303,1.046109,329051.000000,1670929750.679614
1670929750.682034,,,,1.041577,1.043368,329052.000000,1670929750.680621
1670929750.682036,,,,1.045568,1.045003,329053.000000,1670929750.681628
1670929750.682056,,,,1.049246,1.046493,329054.000000,1670929750.682635
1670929750.690204,,,,1.040952,1.037911,329055.000000,1670929750.683642
1670929750.690219,,,,1.032538,1.033487,329056.000000,1670929750.684649
1670929750.690225,,,,1.030614,1.031059,329057.000000,1670929750.685657
1670929750.690229,,,,1.033571,1.033920,329058.000000,1670929750.686664
1670929750.690247,,,,1.034773,1.034353,329059.000000,1670929750.687671
1670929750.690326,,,,1.044726,1.042887,329060.000000,1670929750.688678
1670929750.692298,3.076366,111143.000000,1670929750.631622,,,,
1670929750.692466,3.040180,111144.000000,1670929750.632622,,,,
1670929750.694628,3.130633,111145.000000,1670929750.633622,,,,
1670929750.694665,3.076366,111146.000000,1670929750.634622,,,,
1670929750.694681,3.962780,111194.000000,1670929750.682622,,,,
1670929750.694690,3.998957,111195.000000,1670929750.683622,,,,
1670929750.694705,4.053233,111196.000000,1670929750.684622,,,,
1670929750.694715,4.071322,111197.000000,1670929750.685622,,,,
1670929750.694771,4.143678,111198.000000,1670929750.686622,,,,
1670929750.694784,4.089411,111199.000000,1670929750.687622,,,,
1670929750.694803,4.125589,111200.000000,1670929750.688622,,,,
1670929750.694844,4.216043,111201.000000,1670929750.689622,,,,
1670929750.694860,4.270310,111202.000000,1670929750.690622,,,,
1670929750.694869,4.234132,111203.000000,1670929750.691622,,,,
1670929750.696481,,,,1.057756,1.055268,329061.000000,1670929750.689685
1670929750.696509,,,,1.059775,1.058153,329062.000000,1670929750.690692
1670929750.697083,,,,1.054511,1.057817,329063.000000,1670929750.691699
1670929750.697746,,,,1.055761,1.055436,329064.000000,1670929750.692706
1670929750.697759,,,,1.053453,1.052696,329065.000000,1670929750.693713
1670929750.697945,,,,1.052010,1.049667,329066.000000,1670929750.694720
1670929750.698206,,,,1.050953,1.048849,329067.000000,1670929750.695727
1670929750.698377,,,,1.048356,1.048609,329068.000000,1670929750.696734
1670929750.698619,,,,1.046024,1.047695,329069.000000,1670929750.697742
1670929750.698810,,,,1.051481,1.053970,329070.000000,1670929750.698749
1670929750.698931,,,,1.059559,1.059980,329071.000000,1670929750.699756
1670929750.699154,,,,1.063502,1.060317,329072.000000,1670929750.700763
1670929750.702909,,,,1.059727,1.061278,329073.000000,1670929750.701770
1670929750.703193,,,,1.061579,1.063634,329074.000000,1670929750.702777
1670929750.703253,,,,1.061338,1.063033,329075.000000,1670929750.703784
1670929750.705604,,,,1.061627,1.062264,329076.000000,1670929750.704791
1670929750.705977,,,,1.062083,1.062096,329077.000000,1670929750.705798
1670929750.706038,,,,1.059848,1.060773,329078.000000,1670929750.706805
1670929750.706153,,,,1.054895,1.052311,329079.000000,1670929750.707812
1670929750.706197,,,,1.044029,1.042431,329080.000000,1670929750.708819
1670929750.706440,,,,1.042875,1.043777,329081.000000,1670929750.709826
1670929750.706473,,,,1.054679,1.056614,329082.000000,1670929750.710834
1670929750.710894,,,,1.052732,1.055076,329083.000000,1670929750.711841
1670929750.711091,,,,1.044942,1.047936,329084.000000,1670929750.712848
1670929750.711107,,,,1.046144,1.045508,329085.000000,1670929750.713855
1670929750.714090,,,,1.046601,1.048224,329086.000000,1670929750.714862
1670929750.714105,,,,1.048885,1.048080,329087.000000,1670929750.715869
1670929750.714355,,,,1.049270,1.048296,329088.000000,1670929750.716876
1670929750.714469,,,,1.045039,1.045772,329089.000000,1670929750.717883
1670929750.714514,,,,1.044630,1.044137,329090.000000,1670929750.718890
1670929750.714526,,,,1.045183,1.042118,329091.000000,1670929750.719897
1670929750.714542,,,,1.046313,1.044883,329092.000000,1670929750.720904
1670929750.719320,,,,1.051890,1.052600,329093.000000,1670929750.721911
1670929750.719683,,,,1.053261,1.053393,329094.000000,1670929750.722919
1670929750.719719,,,,1.040976,1.041926,329095.000000,1670929750.723926
1670929750.720026,,,,1.036072,1.038344,329096.000000,1670929750.724933
1670929750.720081,,,,1.050592,1.049811,329097.000000,1670929750.725940
1670929750.720204,,,,1.052083,1.051614,329098.000000,1670929750.726947
1670929750.720214,,,,1.047323,1.047888,329099.000000,1670929750.727954
1670929750.720345,,,,1.053693,1.051903,329100.000000,1670929750.728961
1670929750.721027,,,,1.043187,1.045099,329105.000000,1670929750.733996
1670929750.721067,,,,1.045495,1.047527,329106.000000,1670929750.735003
1670929750.721112,,,,1.047924,1.048585,329107.000000,1670929750.736011
1670929750.721118,,,,1.052972,1.053056,329108.000000,1670929750.737018
1670929750.721127,,,,1.055761,1.057720,329109.000000,1670929750.738025
1670929750.721144,,,,1.056362,1.056638,329110.000000,1670929750.739032
1670929750.721148,,,,1.052635,1.053032,329111.000000,1670929750.740039
1670929750.721183,,,,1.054318,1.052864,329112.000000,1670929750.741046
1670929750.721217,,,,1.065377,1.064476,329113.000000,1670929750.742053
1670929750.721293,,,,1.077566,1.080078,329114.000000,1670929750.743060
1670929750.725888,,,,1.089297,1.087579,329115.000000,1670929750.744067
1670929750.725983,,,,1.086052,1.085920,329116.000000,1670929750.745074
1670929750.726371,,,,1.068069,1.071087,329117.000000,1670929750.746081
1670929750.726467,,,,1.050279,1.053105,329118.000000,1670929750.747088
1670929750.726629,,,,1.042779,1.044282,329119.000000,1670929750.748096
1670929750.726762,,,,1.047755,1.048681,329120.000000,1670929750.749103
1670929750.726825,,,,1.048669,1.048585,329121.000000,1670929750.750110
1670929750.728256,,,,1.055905,1.055052,329122.000000,1670929750.751117
1670929750.728415,,,,1.056530,1.057023,329123.000000,1670929750.752124
1670929750.728889,,,,1.050929,1.050412,329124.000000,1670929750.753131
1670929750.728900,,,,1.048020,1.048344,329125.000000,1670929750.754138
1670929750.728911,,,,1.046121,1.048272,329126.000000,1670929750.755145
1670929750.728963,,,,1.046794,1.046662,329127.000000,1670929750.756152
1670929750.728968,,,,1.050039,1.052888,329128.000000,1670929750.757159
1670929750.728985,,,,1.054847,1.054763,329129.000000,1670929750.758166
1670929750.733583,,,,1.050183,1.051422,329130.000000,1670929750.759173
1670929750.734037,,,,1.046866,1.047455,329131.000000,1670929750.760180
1670929750.734056,,,,1.040543,1.043032,329132.000000,1670929750.761188
1670929750.734136,,,,1.039029,1.041757,329133.000000,1670929750.762195
1670929750.734185,,,,1.043476,1.045868,329134.000000,1670929750.763202
1670929750.734194,,,,1.048380,1.051566,329135.000000,1670929750.764209
1670929750.736023,,,,1.058357,1.061158,329136.000000,1670929750.765216
1670929750.736133,,,,1.066315,1.067288,329137.000000,1670929750.766223
1670929750.736190,,,,1.072974,1.071976,329138.000000,1670929750.767230
1670929750.736511,,,,1.080931,1.080078,329139.000000,1670929750.768237
1670929750.736693,,,,1.077998,1.075150,329140.000000,1670929750.769244
1670929750.736897,,,,1.074008,1.071568,329141.000000,1670929750.770251
1670929750.737070,,,,1.067420,1.064812,329142.000000,1670929750.771258
1670929750.737252,,,,1.057924,1.057312,329143.000000,1670929750.772265
1670929750.737494,,,,1.053717,1.054186,329144.000000,1670929750.773273
1670929750.750189,,,,1.047515,1.049090,329145.000000,1670929750.774280
1670929750.750389,,,,1.040567,1.041637,329146.000000,1670929750.775287
1670929750.751133,,,,1.033692,1.035266,329147.000000,1670929750.776294
1670929750.751158,,,,1.038452,1.038776,329148.000000,1670929750.777301
1670929750.751463,,,,1.044678,1.045243,329149.000000,1670929750.778308
1670929750.752174,,,,1.046986,1.047455,329150.000000,1670929750.779315
1670929750.752212,,,,1.047419,1.048633,329151.000000,1670929750.780322
1670929750.753172,,,,1.051554,1.050244,329152.000000,1670929750.781329
1670929750.753288,,,,1.050135,1.048946,329153.000000,1670929750.782336
1670929750.753313,,,,1.051097,1.051926,329154.000000,1670929750.783343
1670929750.757299,,,,1.054126,1.055773,329155.000000,1670929750.784350
1670929750.757638,4.270310,111204.000000,1670929750.696738,,,,
1670929750.757668,,,,1.053285,1.055629,329156.000000,1670929750.785357
1670929750.757760,,,,1.052058,1.053153,329157.000000,1670929750.786365
1670929750.757901,,,,1.060978,1.061278,329158.000000,1670929750.787372
1670929750.758237,,,,1.071147,1.071544,329159.000000,1670929750.788379
1670929750.758250,,,,1.075763,1.075655,329160.000000,1670929750.789386
1670929750.758257,,,,1.085571,1.086040,329161.000000,1670929750.790393
1670929750.759100,6.531574,111255.000000,1670929750.747738,,,,
1670929750.759143,6.603939,111256.000000,1670929750.748738,,,,
1670929750.759149,6.658206,111257.000000,1670929750.749738,,,,
1670929750.759162,6.676295,111258.000000,1670929750.750738,,,,
1670929750.759175,6.766748,111259.000000,1670929750.751738,,,,
1670929750.759182,6.766748,111260.000000,1670929750.752738,,,,
1670929750.759191,6.857202,111261.000000,1670929750.753738,,,,
1670929750.759201,6.893380,111262.000000,1670929750.754738,,,,
1670929750.759209,7.001923,111263.000000,1670929750.755738,,,,
1670929750.759224,7.092368,111264.000000,1670929750.756738,,,,
1670929750.763317,,,,1.100043,1.100969,329162.000000,1670929750.791400
1670929750.763375,,,,1.104924,1.105561,329163.000000,1670929750.792407
1670929750.763567,,,,1.095043,1.094863,329164.000000,1670929750.793414
1670929750.763718,,,,1.084682,1.086569,329165.000000,1670929750.794421
1670929750.763921,,,,1.089393,1.086978,329166.000000,1670929750.795428
1670929750.764066,,,,1.083648,1.081641,329167.000000,1670929750.796435
1670929750.765464,,,,1.057684,1.059668,329168.000000,1670929750.797442
1670929750.765740,,,,1.049654,1.051326,329169.000000,1670929750.798450
1670929750.765768,,,,1.032369,1.033127,329170.000000,1670929750.799457
1670929750.765775,,,,1.018378,1.018895,329171.000000,1670929750.800464
1670929750.771072,,,,1.032730,1.031757,329172.000000,1670929750.801471
1670929750.771089,,,,1.050424,1.047455,329173.000000,1670929750.802478
1670929750.771102,,,,1.050808,1.051374,329174.000000,1670929750.803485
1670929750.773060,,,,1.043091,1.045267,329175.000000,1670929750.804492
1670929750.773075,,,,1.027609,1.027213,329176.000000,1670929750.805499
1670929750.773082,,,,1.024075,1.026996,329177.000000,1670929750.806506
1670929750.773086,,,,1.038404,1.039906,329178.000000,1670929750.807513
1670929750.778541,,,,1.040495,1.040291,329179.000000,1670929750.808520
1670929750.778562,,,,1.037466,1.037719,329180.000000,1670929750.809527
1670929750.778671,,,,1.036649,1.035146,329181.000000,1670929750.810534
1670929750.778786,,,,1.036384,1.037142,329182.000000,1670929750.811542
1670929750.778906,,,,1.048597,1.047743,329183.000000,1670929750.812549
1670929750.779011,,,,1.055448,1.056711,329184.000000,1670929750.813556
1670929750.779135,,,,1.059415,1.059211,329185.000000,1670929750.814563
1670929750.779279,,,,1.060232,1.062841,329186.000000,1670929750.815570
1670929750.780186,,,,1.061026,1.063394,329187.000000,1670929750.816577
1670929750.780318,,,,1.057636,1.057456,329188.000000,1670929750.817584
1670929750.785768,,,,1.052972,1.053826,329189.000000,1670929750.818591
1670929750.785918,,,,1.055544,1.057456,329190.000000,1670929750.819598
1670929750.786424,,,,1.055977,1.057552,329191.000000,1670929750.820605
1670929750.786750,,,,1.048549,1.050220,329192.000000,1670929750.821612
1670929750.787120,,,,1.044029,1.044546,329193.000000,1670929750.822619
1670929750.787140,,,,1.045976,1.045267,329194.000000,1670929750.823627
1670929750.787615,,,,1.049414,1.050099,329195.000000,1670929750.824634
1670929750.787804,,,,1.051289,1.050196,329196.000000,1670929750.825641
1670929750.787995,,,,1.046265,1.046493,329197.000000,1670929750.826648
1670929750.788326,,,,1.045423,1.043897,329198.000000,1670929750.827655
1670929750.788668,,,,1.047924,1.048248,329199.000000,1670929750.828662
1670929750.793229,,,,1.050616,1.051975,329200.000000,1670929750.829669
1670929750.793334,,,,1.052034,1.053080,329201.000000,1670929750.830676
1670929750.793507,,,,1.053164,1.055028,329202.000000,1670929750.831683
1670929750.793730,,,,1.049991,1.049979,329203.000000,1670929750.832690
1670929750.809678,,,,1.049799,1.051350,329204.000000,1670929750.833697
1670929750.810201,,,,1.052708,1.053561,329205.000000,1670929750.834704
1670929750.810512,,,,1.053044,1.054427,329206.000000,1670929750.835711
1670929750.810768,,,,1.046890,1.049979,329207.000000,1670929750.836719
1670929750.811212,,,,1.046241,1.048994,329208.000000,1670929750.837726
1670929750.811511,,,,1.044269,1.045147,329209.000000,1670929750.838733
1670929750.811962,,,,1.040255,1.041661,329210.000000,1670929750.839740
1670929750.816866,,,,1.031600,1.033584,329211.000000,1670929750.840747
1670929750.816876,,,,1.026479,1.028415,329212.000000,1670929750.841754
1670929750.816985,,,,1.027513,1.026852,329213.000000,1670929750.842761
1670929750.821741,7.092368,111265.000000,1670929750.760908,,,,
1670929750.822185,7.164732,111266.000000,1670929750.761908,,,,
1670929750.824032,,,,1.038379,1.038824,329214.000000,1670929750.843768
1670929750.824050,,,,1.051938,1.052672,329215.000000,1670929750.844775
1670929750.824410,,,,1.066050,1.066207,329216.000000,1670929750.845782
1670929750.824672,,,,1.064584,1.064452,329217.000000,1670929750.846789
1670929750.824873,7.237097,111267.000000,1670929750.762908,,,,
1670929750.824892,7.273275,111268.000000,1670929750.763908,,,,
1670929750.824900,7.363720,111269.000000,1670929750.764908,,,,
1670929750.824919,7.381817,111270.000000,1670929750.765908,,,,
1670929750.824933,7.472262,111271.000000,1670929750.766908,,,,
1670929750.824940,7.544627,111272.000000,1670929750.767908,,,,
1670929750.824979,7.562716,111273.000000,1670929750.768908,,,,
1670929750.825074,11.578726,111316.000000,1670929750.811908,,,,
1670929750.825095,11.524450,111317.000000,1670929750.812908,,,,
1670929750.825109,11.705349,111318.000000,1670929750.813908,,,,
1670929750.825120,11.741536,111319.000000,1670929750.814908,,,,
1670929750.825132,11.886256,111320.000000,1670929750.815908,,,,
1670929750.825145,11.940523,111321.000000,1670929750.816908,,,,
1670929750.825154,12.103333,111322.000000,1670929750.817908,,,,
1670929750.825172,12.157609,111323.000000,1670929750.818908,,,,
1670929750.825222,12.266143,111324.000000,1670929750.819908,,,,
1670929750.825238,12.356597,111325.000000,1670929750.820908,,,,
1670929750.825543,,,,1.059896,1.062144,329218.000000,1670929750.847796
1670929750.826000,,,,1.055881,1.057720,329219.000000,1670929750.848804
1670929750.826322,,,,1.054919,1.055292,329220.000000,1670929750.849811
1670929750.826359,,,,1.064103,1.062552,329221.000000,1670929750.850818
1670929750.830834,,,,1.066507,1.066110,329222.000000,1670929750.851825
1670929750.831032,,,,1.055905,1.057191,329223.000000,1670929750.852832
1670929750.831187,,,,1.045063,1.045339,329224.000000,1670929750.853839
1670929750.831379,,,,1.038019,1.040075,329225.000000,1670929750.854846
1670929750.831574,,,,1.035975,1.037358,329226.000000,1670929750.855853
1670929750.831720,,,,1.032850,1.036324,329227.000000,1670929750.856860
1670929750.831914,,,,1.029244,1.031180,329228.000000,1670929750.857867
1670929750.832820,,,,1.034413,1.031805,329229.000000,1670929750.858874
1670929750.832983,,,,1.049246,1.046974,329230.000000,1670929750.859881
1670929750.833139,,,,1.064872,1.065101,329231.000000,1670929750.860888
1670929750.833301,,,,1.063261,1.062961,329232.000000,1670929750.861896
1670929750.837870,,,,1.063694,1.063995,329233.000000,1670929750.862903
1670929750.838126,,,,1.060617,1.062913,329234.000000,1670929750.863910
1670929750.838230,,,,1.064872,1.067216,329235.000000,1670929750.864917
1670929750.840847,,,,1.071724,1.070077,329236.000000,1670929750.865924
1670929750.841172,,,,1.075738,1.075198,329237.000000,1670929750.866931
1670929750.841385,,,,1.089898,1.089766,329238.000000,1670929750.867938
1670929750.841835,,,,1.099322,1.097339,329239.000000,1670929750.868945
1670929750.842023,,,,1.099947,1.099743,329240.000000,1670929750.869952
1670929750.842597,,,,1.085523,1.088396,329241.000000,1670929750.870959
1670929750.842657,,,,1.078239,1.079188,329242.000000,1670929750.871966
1670929750.846128,,,,1.063165,1.063971,329243.000000,1670929750.872973
1670929750.846144,,,,1.046986,1.047166,329244.000000,1670929750.873981
1670929750.846151,,,,1.041937,1.041325,329245.000000,1670929750.874988
1670929750.848174,,,,1.040110,1.038872,329246.000000,1670929750.875995
1670929750.848536,,,,1.032850,1.033103,329247.000000,1670929750.877002
1670929750.848549,,,,1.030350,1.028968,329248.000000,1670929750.878009
1670929750.848878,,,,1.030278,1.027934,329249.000000,1670929750.879016
1670929750.853059,,,,1.034894,1.034906,329250.000000,1670929750.880023
1670929750.853279,,,,1.036192,1.038223,329251.000000,1670929750.881030
1670929750.853647,,,,1.032393,1.033800,329252.000000,1670929750.882037
1670929750.853966,,,,1.028739,1.028054,329253.000000,1670929750.883044
1670929750.855523,,,,1.035759,1.038031,329254.000000,1670929750.884051
1670929750.855618,,,,1.044918,1.046614,329255.000000,1670929750.885058
1670929750.855810,,,,1.054318,1.051734,329256.000000,1670929750.886065
1670929750.869308,,,,1.056891,1.058081,329257.000000,1670929750.887073
1670929750.869605,,,,1.056867,1.056638,329258.000000,1670929750.888080
1670929750.869619,,,,1.065834,1.066231,329259.000000,1670929750.889087
1670929750.878498,12.428961,111326.000000,1670929750.817342,,,,
1670929750.878511,12.501317,111327.000000,1670929750.818342,,,,
1670929750.878519,12.573682,111328.000000,1670929750.819342,,,,
1670929750.878543,12.664127,111329.000000,1670929750.820342,,,,
1670929750.878552,12.808847,111330.000000,1670929750.821342,,,,
1670929750.878558,12.808847,111331.000000,1670929750.822342,,,,
1670929750.878648,12.917391,111332.000000,1670929750.823342,,,,
1670929750.879384,12.935479,111333.000000,1670929750.824342,,,,
1670929750.879480,13.912346,111348.000000,1670929750.839342,,,,
1670929750.879664,13.966621,111349.000000,1670929750.840342,,,,
1670929750.880172,14.075156,111350.000000,1670929750.841342,,,,
1670929750.880186,,,,1.076844,1.076784,329260.000000,1670929750.890094
1670929750.880431,,,,1.086893,1.086088,329261.000000,1670929750.891101
1670929750.880553,,,,1.096317,1.095945,329262.000000,1670929750.892108
1670929750.880806,,,,1.098865,1.099719,329263.000000,1670929750.893115
1670929750.881071,14.129432,111351.000000,1670929750.842342,,,,
1670929750.881089,14.147520,111352.000000,1670929750.843342,,,,
1670929750.881097,14.183699,111353.000000,1670929750.844342,,,,
1670929750.881103,14.310330,111354.000000,1670929750.845342,,,,
1670929750.881110,14.310330,111355.000000,1670929750.846342,,,,
1670929750.881143,14.382694,111356.000000,1670929750.847342,,,,
1670929750.881149,14.436962,111357.000000,1670929750.848342,,,,
1670929750.881218,15.649003,111377.000000,1670929750.868342,,,,
1670929750.881230,15.667092,111378.000000,1670929750.869342,,,,
1670929750.881238,15.793724,111379.000000,1670929750.870342,,,,
1670929750.881247,15.847991,111380.000000,1670929750.871342,,,,
1670929750.881294,15.902258,111381.000000,1670929750.872342,,,,
1670929750.881371,15.992711,111382.000000,1670929750.873342,,,,
1670929750.881502,,,,1.087278,1.085559,329264.000000,1670929750.894122
1670929750.881584,,,,1.065641,1.064692,329265.000000,1670929750.895129
1670929750.881646,,,,1.057804,1.057913,329266.000000,1670929750.896136
1670929750.881685,16.046988,111383.000000,1670929750.874342,,,,
1670929750.881700,16.065077,111384.000000,1670929750.875342,,,,
1670929750.881713,16.155521,111385.000000,1670929750.876342,,,,
1670929750.881719,16.155521,111386.000000,1670929750.877342,,,,
1670929750.883367,,,,1.043909,1.043849,329267.000000,1670929750.897143
1670929750.883523,,,,1.037706,1.037983,329268.000000,1670929750.898150
1670929750.883865,,,,1.036576,1.038680,329269.000000,1670929750.899158
1670929750.884353,,,,1.042394,1.042839,329270.000000,1670929750.900165
1670929750.884360,,,,1.048044,1.047094,329271.000000,1670929750.901172
1670929750.884387,,,,1.040134,1.042695,329272.000000,1670929750.902179
1670929750.884475,,,,1.040423,1.040796,329273.000000,1670929750.903186
1670929750.884487,,,,1.042923,1.042959,329274.000000,1670929750.904193
1670929750.887399,,,,1.039293,1.040243,329275.000000,1670929750.905200
1670929750.887464,,,,1.041889,1.044041,329276.000000,1670929750.906207
1670929750.887729,,,,1.050183,1.049210,329277.000000,1670929750.907214
1670929750.887898,,,,1.050135,1.050700,329278.000000,1670929750.908221
1670929750.890538,,,,1.050352,1.053273,329279.000000,1670929750.909228
1670929750.890548,,,,1.050760,1.053657,329280.000000,1670929750.910235
1670929750.890588,,,,1.054150,1.055965,329281.000000,1670929750.911242
1670929750.895148,,,,1.061170,1.059043,329282.000000,1670929750.912250
1670929750.895165,,,,1.062853,1.059595,329283.000000,1670929750.913257
1670929750.895178,,,,1.066411,1.065029,329284.000000,1670929750.914264
1670929750.895342,,,,1.071483,1.073347,329285.000000,1670929750.915271
1670929750.898429,,,,1.083888,1.086593,329286.000000,1670929750.916278
1670929750.898708,,,,1.089946,1.090656,329287.000000,1670929750.917285
1670929750.899392,,,,1.082999,1.082626,329288.000000,1670929750.918292
1670929750.899667,,,,1.073358,1.074909,329289.000000,1670929750.919299
1670929750.899695,,,,1.062636,1.065077,329290.000000,1670929750.920306
1670929750.899820,,,,1.046193,1.048537,329291.000000,1670929750.921313
1670929750.902870,,,,1.041216,1.041229,329292.000000,1670929750.922320
1670929750.902898,,,,1.051890,1.051710,329293.000000,1670929750.923327
1670929750.903055,,,,1.055256,1.052864,329294.000000,1670929750.924335
1670929750.903179,,,,1.046048,1.045724,329295.000000,1670929750.925342
1670929750.905623,,,,1.047274,1.049739,329296.000000,1670929750.926349
1670929750.905994,,,,1.051506,1.054258,329297.000000,1670929750.927356
1670929750.906219,,,,1.040351,1.042527,329298.000000,1670929750.928363
1670929750.906539,,,,1.034317,1.036637,329299.000000,1670929750.929370
1670929750.908278,,,,1.035615,1.038872,329300.000000,1670929750.930377
1670929750.908527,,,,1.027609,1.026900,329301.000000,1670929750.931384
1670929750.908754,,,,1.016911,1.018871,329302.000000,1670929750.932391
1670929750.909204,,,,1.016743,1.019207,329303.000000,1670929750.933398
1670929750.909290,,,,1.031528,1.032838,329304.000000,1670929750.934405
1670929750.909544,,,,1.043764,1.043512,329305.000000,1670929750.935412
1670929750.909763,,,,1.042611,1.044258,329306.000000,1670929750.936419
1670929750.913049,,,,1.052587,1.053513,329307.000000,1670929750.937427
1670929750.913607,,,,1.072709,1.074212,329308.000000,1670929750.938434
1670929750.913693,,,,1.089249,1.089189,329309.000000,1670929750.939441
1670929750.913711,,,,1.091701,1.089430,329310.000000,1670929750.940448
1670929750.915387,,,,1.082133,1.081040,329311.000000,1670929750.941455
1670929750.915518,,,,1.069656,1.070294,329312.000000,1670929750.942462
1670929750.915616,,,,1.066026,1.069212,329313.000000,1670929750.943469
1670929750.930283,,,,1.060184,1.063995,329314.000000,1670929750.944476
1670929750.930309,,,,1.045111,1.047623,329315.000000,1670929750.945483
1670929750.930681,,,,1.051818,1.051253,329316.000000,1670929750.946490
1670929750.931025,,,,1.065641,1.064524,329317.000000,1670929750.947497
1670929750.931269,,,,1.069344,1.071928,329318.000000,1670929750.948504
1670929750.932126,,,,1.066964,1.065413,329319.000000,1670929750.949512
1670929750.932243,,,,1.056578,1.056711,329320.000000,1670929750.950519
1670929750.937098,,,,1.045928,1.045003,329321.000000,1670929750.951526
1670929750.937326,,,,1.043741,1.044209,329322.000000,1670929750.952533
1670929750.937553,,,,1.044558,1.042286,329323.000000,1670929750.953540
1670929750.943507,,,,1.051121,1.050652,329324.000000,1670929750.954547
1670929750.943710,,,,1.052515,1.052023,329325.000000,1670929750.955554
1670929750.944201,,,,1.054799,1.055028,329326.000000,1670929750.956561
1670929750.944322,16.264063,111387.000000,1670929750.883209,,,,
1670929750.944336,,,,1.064704,1.064211,329327.000000,1670929750.957568
1670929750.944355,,,,1.094226,1.095752,329328.000000,1670929750.958575
1670929750.944362,,,,1.153990,1.154676,329329.000000,1670929750.959582
1670929750.944494,,,,1.180411,1.181818,329330.000000,1670929750.960589
1670929750.944509,,,,1.174425,1.176240,329331.000000,1670929750.961596
1670929750.945616,,,,1.178247,1.180039,329332.000000,1670929750.962604
1670929750.945845,,,,1.173103,1.175014,329333.000000,1670929750.963611
1670929750.946011,16.354517,111388.000000,1670929750.884208,,,,
1670929750.946026,16.408785,111389.000000,1670929750.885208,,,,
1670929750.946032,16.517326,111390.000000,1670929750.886209,,,,
1670929750.946037,16.571594,111391.000000,1670929750.887208,,,,
1670929750.946061,16.589684,111392.000000,1670929750.888208,,,,
1670929750.946074,16.607780,111393.000000,1670929750.889209,,,,
1670929750.946091,16.752501,111394.000000,1670929750.890208,,,,
1670929750.946103,16.752501,111395.000000,1670929750.891208,,,,
1670929750.946153,16.861036,111396.000000,1670929750.892208,,,,
1670929750.946178,19.357473,111438.000000,1670929750.934208,,,,
1670929750.946213,19.447927,111439.000000,1670929750.935209,,,,
1670929750.946219,19.502195,111440.000000,1670929750.936208,,,,
1670929750.946222,19.538372,111441.000000,1670929750.937208,,,,
1670929750.946238,19.628826,111442.000000,1670929750.938208,,,,
1670929750.946263,19.646915,111443.000000,1670929750.939209,,,,
1670929750.946269,19.737370,111444.000000,1670929750.940208,,,,
1670929750.946273,19.791636,111445.000000,1670929750.941208,,,,
1670929750.946292,19.882090,111446.000000,1670929750.942209,,,,
1670929750.946301,19.972544,111447.000000,1670929750.943208,,,,
1670929750.946600,,,,1.144687,1.147824,329334.000000,1670929750.964618
1670929750.946795,,,,1.076532,1.080559,329335.000000,1670929750.965625
1670929750.947057,,,,1.015853,1.018775,329336.000000,1670929750.966632
1670929750.947215,,,,1.007800,1.010264,329337.000000,1670929750.967639
1670929750.947469,,,,1.018690,1.024328,329338.000000,1670929750.968646
1670929750.950809,,,,1.029917,1.033463,329339.000000,1670929750.969653
1670929750.951055,,,,1.029148,1.030555,329340.000000,1670929750.970660
1670929750.951077,,,,1.034773,1.031829,329341.000000,1670929750.971667
1670929750.953297,,,,1.040014,1.040171,329342.000000,1670929750.972674
1670929750.953539,,,,1.034773,1.034882,329343.000000,1670929750.973681
1670929750.953570,,,,1.030230,1.032093,329344.000000,1670929750.974689
1670929750.953765,,,,1.034653,1.037646,329345.000000,1670929750.975696
1670929750.953895,,,,1.037177,1.037190,329346.000000,1670929750.976703
1670929750.953902,,,,1.037850,1.039498,329347.000000,1670929750.977710
1670929750.953986,,,,1.039750,1.041012,329348.000000,1670929750.978717
1670929750.954065,,,,1.039125,1.037502,329349.000000,1670929750.979724
1670929750.958578,,,,1.021960,1.022741,329350.000000,1670929750.980731
1670929750.958673,,,,1.019243,1.024376,329351.000000,1670929750.981738
1670929750.958827,,,,1.021671,1.025891,329352.000000,1670929750.982745
1670929750.958986,,,,1.029412,1.029304,329353.000000,1670929750.983752
1670929750.959105,,,,1.038331,1.037935,329354.000000,1670929750.984759
1670929750.959231,,,,1.055568,1.055845,329355.000000,1670929750.985766
1670929750.959419,,,,1.090451,1.091762,329356.000000,1670929750.986773
1670929750.959538,,,,1.109251,1.111210,329357.000000,1670929750.987781
1670929750.959617,,,,1.113001,1.116139,329358.000000,1670929750.988788
1670929750.959713,,,,1.107808,1.109143,329359.000000,1670929750.989795
1670929750.965447,,,,1.096197,1.097844,329360.000000,1670929750.990802
1670929750.965577,,,,1.082566,1.083876,329361.000000,1670929750.991809
1670929750.965681,,,,1.061530,1.061038,329362.000000,1670929750.992816
1670929750.968395,,,,1.033499,1.031660,329363.000000,1670929750.993823
1670929750.969038,,,,1.021864,1.021539,329364.000000,1670929750.994830
1670929750.969057,,,,1.038452,1.039882,329365.000000,1670929750.995837
1670929750.969395,,,,1.047827,1.049258,329366.000000,1670929750.996844
1670929750.969444,,,,1.052948,1.053826,329367.000000,1670929750.997851
1670929750.969666,,,,1.065617,1.066591,329368.000000,1670929750.998858
1670929750.969687,,,,1.058814,1.061110,329369.000000,1670929750.999866
1670929750.969766,,,,1.042226,1.044041,329370.000000,1670929751.000873
1670929750.969779,,,,1.034918,1.034617,329371.000000,1670929751.001880
1670929750.969816,,,,1.037562,1.036949,329372.000000,1670929751.002887
1670929750.969825,,,,1.054823,1.055533,329373.000000,1670929751.003894
1670929750.973733,,,,1.070762,1.072361,329374.000000,1670929751.004901
1670929750.974123,,,,1.063285,1.064476,329375.000000,1670929751.005908
1670929750.975070,,,,1.052996,1.050869,329376.000000,1670929751.006915
1670929750.975436,,,,1.044245,1.040291,329377.000000,1670929751.007922
1670929750.975832,,,,1.036023,1.032959,329378.000000,1670929751.008929
1670929750.975848,,,,1.049246,1.047215,329379.000000,1670929751.009936
1670929750.975861,,,,1.069824,1.070173,329380.000000,1670929751.010943
1670929750.975870,,,,1.074777,1.077698,329381.000000,1670929751.011950
1670929750.975921,,,,1.080114,1.081713,329382.000000,1670929751.012958
1670929750.976012,,,,1.090331,1.092219,329383.000000,1670929751.013965
1670929750.976024,,,,1.102327,1.101642,329384.000000,1670929751.014972
1670929750.976757,,,,1.105765,1.105753,329385.000000,1670929751.015979
1670929750.989401,,,,1.088215,1.088324,329386.000000,1670929751.016986
1670929750.989932,,,,1.071724,1.069164,329387.000000,1670929751.017993
1670929750.989944,,,,1.058285,1.059788,329388.000000,1670929751.019000
1670929750.997444,,,,1.058213,1.061230,329389.000000,1670929751.020007
1670929750.997556,,,,1.058477,1.060197,329390.000000,1670929751.021014
1670929750.997567,,,,1.051938,1.054114,329391.000000,1670929751.022021
1670929750.997581,,,,1.052419,1.053441,329392.000000,1670929751.023028
1670929750.997664,,,,1.053525,1.052816,329393.000000,1670929751.024035
1670929750.997761,,,,1.041505,1.042070,329394.000000,1670929751.025043
1670929750.999306,25.182497,111499.000000,1670929750.988911,,,,
1670929750.999316,25.345306,111500.000000,1670929750.989911,,,,
1670929750.999320,25.417671,111501.000000,1670929750.990911,,,,
1670929750.999322,25.526205,111502.000000,1670929750.991911,,,,
1670929750.999336,25.616659,111503.000000,1670929750.992911,,,,
1670929750.999351,25.725201,111504.000000,1670929750.993911,,,,
1670929750.999354,25.924189,111505.000000,1670929750.994911,,,,
1670929750.999360,26.032732,111506.000000,1670929750.995911,,,,
1670929750.999374,26.195541,111507.000000,1670929750.996911,,,,
1670929750.999383,26.304085,111508.000000,1670929750.997911,,,,
1670929751.003869,,,,1.031023,1.031396,329395.000000,1670929751.026050
1670929751.004088,,,,1.027874,1.029064,329396.000000,1670929751.027057
1670929751.004096,,,,1.034581,1.035964,329397.000000,1670929751.028064
1670929751.004267,,,,1.042587,1.044041,329398.000000,1670929751.029071
1670929751.004537,,,,1.047443,1.048272,329399.000000,1670929751.030078
1670929751.004714,,,,1.049510,1.050388,329400.000000,1670929751.031085
1670929751.005178,,,,1.046241,1.047022,329401.000000,1670929751.032092
1670929751.005194,,,,1.037490,1.037959,329402.000000,1670929751.033099
1670929751.005704,,,,1.041913,1.041685,329403.000000,1670929751.034106
1670929751.006093,,,,1.054679,1.056013,329404.000000,1670929751.035113
1670929751.006286,,,,1.052010,1.052984,329405.000000,1670929751.036120
1670929751.006474,,,,1.026191,1.026924,329406.000000,1670929751.037127
1670929751.006680,,,,1.021022,1.020217,329407.000000,1670929751.038135
1670929751.007063,,,,1.056987,1.053681,329408.000000,1670929751.039142
1670929751.007080,,,,1.089033,1.088516,329409.000000,1670929751.040149
1670929751.010632,,,,1.104539,1.103421,329410.000000,1670929751.041156
1670929751.010907,,,,1.100717,1.100128,329411.000000,1670929751.042163
1670929751.011224,,,,1.077854,1.076015,329412.000000,1670929751.043170
1670929751.011295,,,,1.065738,1.068010,329413.000000,1670929751.044177
1670929751.013098,,,,1.063935,1.066447,329414.000000,1670929751.045184
1670929751.013287,,,,1.047226,1.047984,329415.000000,1670929751.046191
1670929751.013729,,,,1.014363,1.017765,329416.000000,1670929751.047198
1670929751.014152,,,,0.993736,0.997643,329417.000000,1670929751.048205
1670929751.018067,,,,0.997583,0.997282,329418.000000,1670929751.049212
1670929751.018419,,,,1.010324,1.008918,329419.000000,1670929751.050220
1670929751.021047,,,,1.016214,1.016491,329420.000000,1670929751.051227
1670929751.021285,,,,1.015180,1.017116,329421.000000,1670929751.052234
1670929751.021542,,,,1.039173,1.039690,329422.000000,1670929751.053241
1670929751.021838,,,,1.070498,1.069452,329423.000000,1670929751.054248
1670929751.022116,,,,1.101438,1.102364,329424.000000,1670929751.055255
1670929751.022364,,,,1.144687,1.147704,329425.000000,1670929751.056262
1670929751.022673,,,,1.143893,1.147416,329426.000000,1670929751.057269
1670929751.022962,,,,1.116463,1.117605,329427.000000,1670929751.058276
1670929751.025878,,,,1.082854,1.083636,329428.000000,1670929751.059283
1670929751.026064,,,,1.070257,1.070919,329429.000000,1670929751.060290
1670929751.026325,,,,1.073406,1.073226,329430.000000,1670929751.061297
1670929751.026574,,,,1.092831,1.092170,329431.000000,1670929751.062304
1670929751.026836,,,,1.116391,1.116307,329432.000000,1670929751.063312
1670929751.027045,,,,1.120213,1.118447,329433.000000,1670929751.064319
1670929751.027321,,,,1.111943,1.111307,329434.000000,1670929751.065326
1670929751.027886,,,,1.107760,1.108758,329435.000000,1670929751.066333
1670929751.028102,,,,1.098096,1.099070,329436.000000,1670929751.067340
1670929751.028219,,,,1.088576,1.088564,329437.000000,1670929751.068347
1670929751.028375,,,,1.077397,1.078563,329438.000000,1670929751.069354
1670929751.033062,,,,1.046072,1.046758,329439.000000,1670929751.070361
1670929751.033443,,,,1.031360,1.031540,329440.000000,1670929751.071368
1670929751.033650,,,,1.030638,1.031588,329441.000000,1670929751.072375
1670929751.033663,,,,1.032273,1.030699,329442.000000,1670929751.073382
1670929751.049404,,,,1.019892,1.019904,329443.000000,1670929751.074389
1670929751.049754,,,,1.017224,1.017597,329444.000000,1670929751.075397
1670929751.057681,,,,1.026503,1.025193,329445.000000,1670929751.076404
1670929751.057703,,,,1.034100,1.031348,329446.000000,1670929751.077411
1670929751.058013,,,,1.038668,1.040411,329447.000000,1670929751.078418
1670929751.058251,,,,1.045423,1.046998,329448.000000,1670929751.079425
1670929751.058280,,,,1.046265,1.046974,329449.000000,1670929751.080432
1670929751.058798,,,,1.067685,1.067144,329450.000000,1670929751.081439
1670929751.059086,,,,1.108746,1.107003,329451.000000,1670929751.082446
1670929751.063401,28.782433,111527.000000,1670929751.019576,,,,
1670929751.064164,,,,1.137523,1.139362,329452.000000,1670929751.083453
1670929751.064347,28.963333,111528.000000,1670929751.020576,,,,
1670929751.064730,,,,1.166035,1.169917,329453.000000,1670929751.084460
1670929751.064740,,,,1.183632,1.184366,329454.000000,1670929751.085467
1670929751.065167,,,,1.192960,1.194102,329455.000000,1670929751.086474
1670929751.065187,,,,1.174569,1.174461,329456.000000,1670929751.087481
1670929751.065200,,,,1.107520,1.106426,329457.000000,1670929751.088489
1670929751.065463,29.108053,111529.000000,1670929751.021576,,,,
1670929751.065488,29.270863,111530.000000,1670929751.022576,,,,
1670929751.065497,29.307041,111531.000000,1670929751.023576,,,,
1670929751.065504,29.451761,111532.000000,1670929751.024576,,,,
1670929751.065631,29.596481,111533.000000,1670929751.025576,,,,
1670929751.065641,29.705025,111534.000000,1670929751.026576,,,,
1670929751.065654,29.867834,111535.000000,1670929751.027576,,,,
1670929751.065670,29.958288,111536.000000,1670929751.028576,,,,
1670929751.065676,32.762257,111560.000000,1670929751.052576,,,,
1670929751.065681,32.870800,111561.000000,1670929751.053576,,,,
1670929751.065826,32.979343,111562.000000,1670929751.054576,,,,
1670929751.065857,33.069786,111563.000000,1670929751.055576,,,,
1670929751.065865,33.160240,111564.000000,1670929751.056576,,,,
1670929751.065871,33.286873,111565.000000,1670929751.057576,,,,
1670929751.065933,33.395416,111566.000000,1670929751.058576,,,,
1670929751.065942,33.449680,111567.000000,1670929751.059576,,,,
1670929751.065947,33.630581,111568.000000,1670929751.060576,,,,
1670929751.065976,33.702946,111569.000000,1670929751.061576,,,,
1670929751.066007,,,,1.041913,1.043392,329458.000000,1670929751.089496
1670929751.066012,,,,1.033451,1.035627,329459.000000,1670929751.090503
1670929751.066185,,,,1.026431,1.025193,329460.000000,1670929751.091510
1670929751.066542,,,,1.022224,1.022044,329461.000000,1670929751.092517
1670929751.066553,,,,1.026119,1.026540,329462.000000,1670929751.093524
1670929751.070412,,,,1.027369,1.025987,329463.000000,1670929751.094531
1670929751.070534,,,,1.027898,1.025867,329464.000000,1670929751.095538
1670929751.070643,,,,1.036023,1.036228,329465.000000,1670929751.096545
1670929751.070858,,,,1.051001,1.052720,329466.000000,1670929751.097552
1670929751.072812,,,,1.045135,1.047743,329467.000000,1670929751.098559
1670929751.072917,,,,1.027201,1.028054,329468.000000,1670929751.099566
1670929751.073109,,,,1.045135,1.047743,329469.000000,1670929751.100574
1670929751.073162,,,,1.037177,1.036925,329470.000000,1670929751.101581
1670929751.077977,,,,1.028162,1.027549,329471.000000,1670929751.102588
1670929751.078097,,,,1.030326,1.030338,329472.000000,1670929751.103595
1670929751.078214,,,,1.039702,1.037911,329473.000000,1670929751.104602
1670929751.078413,,,,1.039966,1.039113,329474.000000,1670929751.105609
1670929751.080697,,,,1.040856,1.038656,329475.000000,1670929751.106616
1670929751.081130,,,,1.043260,1.042959,329476.000000,1670929751.107623
1670929751.081526,,,,1.045544,1.047407,329477.000000,1670929751.108630
1670929751.081763,,,,1.051241,1.052455,329478.000000,1670929751.109637
1670929751.082162,,,,1.047924,1.046397,329479.000000,1670929751.110644
1670929751.082619,,,,1.046577,1.046349,329480.000000,1670929751.111651
1670929751.086207,,,,1.056650,1.055677,329481.000000,1670929751.112659
1670929751.086626,,,,1.057035,1.058706,329482.000000,1670929751.113666
1670929751.087086,,,,1.055256,1.055941,329483.000000,1670929751.114673
1670929751.087123,,,,1.056939,1.056254,329484.000000,1670929751.115680
1670929751.087132,,,,1.061939,1.060004,329485.000000,1670929751.116687
1670929751.087226,,,,1.058934,1.058658,329486.000000,1670929751.117694
1670929751.087419,,,,1.050520,1.051758,329487.000000,1670929751.118701
1670929751.088980,,,,1.058309,1.059547,329488.000000,1670929751.119708
1670929751.088992,,,,1.073238,1.074092,329489.000000,1670929751.120715
1670929751.089020,,,,1.080811,1.080919,329490.000000,1670929751.121722
1670929751.089120,,,,1.080378,1.078588,329491.000000,1670929751.122729
1670929751.089172,,,,1.069560,1.069140,329492.000000,1670929751.123736
1670929751.091352,,,,1.070161,1.071496,329493.000000,1670929751.124743
1670929751.091362,,,,1.077445,1.079237,329494.000000,1670929751.125751
1670929751.092849,,,,1.066411,1.067457,329495.000000,1670929751.126758
1670929751.092982,,,,1.049799,1.050628,329496.000000,1670929751.127765
1670929751.093185,,,,1.054294,1.052936,329497.000000,1670929751.128772
1670929751.093209,,,,1.059607,1.059764,329498.000000,1670929751.129779
1670929751.095312,,,,1.063237,1.060749,329499.000000,1670929751.130786
1670929751.095506,,,,1.062901,1.062961,329500.000000,1670929751.131793
1670929751.095662,,,,1.064271,1.062552,329501.000000,1670929751.132800
1670929751.109391,,,,1.059054,1.060197,329502.000000,1670929751.133807
1670929751.109406,,,,1.058718,1.060629,329503.000000,1670929751.134814
1670929751.109415,,,,1.066747,1.066928,329504.000000,1670929751.135821
1670929751.109516,,,,1.063959,1.065317,329505.000000,1670929751.136828
1670929751.117505,,,,1.060160,1.063081,329506.000000,1670929751.137836
1670929751.117526,,,,1.059463,1.059547,329507.000000,1670929751.138843
1670929751.117819,,,,1.051217,1.049739,329508.000000,1670929751.139850
1670929751.118237,,,,1.044558,1.044642,329509.000000,1670929751.140857
1670929751.118454,33.865757,111570.000000,1670929751.057198,,,,
1670929751.118472,33.938110,111571.000000,1670929751.058197,,,,
1670929751.118478,34.028564,111572.000000,1670929751.059197,,,,
1670929751.118615,34.082840,111573.000000,1670929751.060198,,,,
1670929751.118635,34.209465,111574.000000,1670929751.061198,,,,
1670929751.118647,34.336094,111575.000000,1670929751.062197,,,,
1670929751.118663,34.372280,111576.000000,1670929751.063198,,,,
1670929751.118809,,,,1.057131,1.057119,329510.000000,1670929751.141864
1670929751.118858,,,,1.070113,1.071592,329511.000000,1670929751.142871
1670929751.118865,,,,1.074969,1.077602,329512.000000,1670929751.143878
1670929751.118995,34.444637,111577.000000,1670929751.064198,,,,
1670929751.119012,34.571270,111578.000000,1670929751.065197,,,,
1670929751.120398,37.375240,111612.000000,1670929751.099198,,,,
1670929751.120413,37.501869,111613.000000,1670929751.100198,,,,
1670929751.120418,37.501869,111614.000000,1670929751.101197,,,,
1670929751.120423,37.592323,111615.000000,1670929751.102197,,,,
1670929751.120441,37.610413,111616.000000,1670929751.103198,,,,
1670929751.120455,37.737045,111617.000000,1670929751.104198,,,,
1670929751.120465,37.755135,111618.000000,1670929751.105197,,,,
1670929751.120491,37.845577,111619.000000,1670929751.106198,,,,
1670929751.120502,37.881763,111620.000000,1670929751.107198,,,,
1670929751.120574,37.917942,111621.000000,1670929751.108197,,,,
1670929751.120627,38.008396,111622.000000,1670929751.109198,,,,
1670929751.121172,38.008396,111623.000000,1670929751.110198,,,,
1670929751.121188,38.153118,111624.000000,1670929751.111197,,,,
1670929751.121196,38.225475,111625.000000,1670929751.112197,,,,
1670929751.121223,38.261650,111626.000000,1670929751.113198,,,,
1670929751.121230,38.225475,111627.000000,1670929751.114197,,,,
1670929751.121240,38.297836,111628.000000,1670929751.115197,,,,
1670929751.121258,38.352104,111629.000000,1670929751.116198,,,,
1670929751.121277,38.352104,111630.000000,1670929751.117198,,,,
1670929751.125869,,,,1.071267,1.072073,329513.000000,1670929751.144885
1670929751.126129,,,,1.073238,1.073299,329514.000000,1670929751.145892
1670929751.126432,,,,1.067276,1.068250,329515.000000,1670929751.146899
1670929751.126620,,,,1.064776,1.065966,329516.000000,1670929751.147906
1670929751.126771,,,,1.068815,1.068971,329517.000000,1670929751.148913
1670929751.126877,,,,1.083143,1.083708,329518.000000,1670929751.149920
1670929751.127230,,,,1.102856,1.103373,329519.000000,1670929751.150928
1670929751.127332,,,,1.100380,1.102412,329520.000000,1670929751.151935
1670929751.130512,,,,1.097976,1.097579,329521.000000,1670929751.152942
1670929751.130847,,,,1.103674,1.103998,329522.000000,1670929751.153949
1670929751.132948,,,,1.113073,1.115538,329523.000000,1670929751.154956
1670929751.133261,,,,1.112112,1.113879,329524.000000,1670929751.155963
1670929751.133333,,,,1.073695,1.071544,329525.000000,1670929751.156970
1670929751.133657,,,,1.038860,1.038560,329526.000000,1670929751.157977
1670929751.138065,,,,1.044125,1.046181,329527.000000,1670929751.158984
1670929751.138298,,,,1.053453,1.052816,329528.000000,1670929751.159991
1670929751.138506,,,,1.049510,1.049186,329529.000000,1670929751.160998
1670929751.138763,,,,1.043620,1.043320,329530.000000,1670929751.162005
1670929751.142643,,,,1.036793,1.036997,329531.000000,1670929751.163013
1670929751.142666,,,,1.026383,1.025169,329532.000000,1670929751.164020
1670929751.143045,,,,1.018979,1.019640,329533.000000,1670929751.165027
1670929751.143240,,,,1.008401,1.010240,329534.000000,1670929751.166034
1670929751.143630,,,,1.003016,1.006105,329535.000000,1670929751.167041
1670929751.143846,,,,1.008160,1.009110,329536.000000,1670929751.168048
1670929751.144116,,,,1.006454,1.006995,329537.000000,1670929751.169055
1670929751.145798,,,,1.009218,1.011466,329538.000000,1670929751.170062
1670929751.146176,,,,1.025686,1.027429,329539.000000,1670929751.171069
1670929751.146333,,,,1.051626,1.052455,329540.000000,1670929751.172076
1670929751.146345,,,,1.077806,1.077818,329541.000000,1670929751.173083
1670929751.146359,,,,1.092759,1.092267,329542.000000,1670929751.174090
1670929751.146695,,,,1.109780,1.109287,329543.000000,1670929751.175097
1670929751.146724,,,,1.122593,1.122582,329544.000000,1670929751.176105
1670929751.149812,,,,1.098841,1.101138,329545.000000,1670929751.177112
1670929751.150070,,,,1.062973,1.062360,329546.000000,1670929751.178119
1670929751.150082,,,,1.041336,1.041084,329547.000000,1670929751.179126
1670929751.153186,,,,1.035062,1.033944,329548.000000,1670929751.180133
1670929751.153306,,,,1.039077,1.039041,329549.000000,1670929751.181140
1670929751.153322,,,,1.029436,1.029545,329550.000000,1670929751.182147
1670929751.153327,,,,1.005420,1.007355,329551.000000,1670929751.183154
1670929751.157453,,,,1.007319,1.009110,329552.000000,1670929751.184161
1670929751.157625,,,,1.015589,1.017428,329553.000000,1670929751.185168
1670929751.157758,,,,1.010516,1.012091,329554.000000,1670929751.186175
1670929751.171160,,,,1.016046,1.017380,329555.000000,1670929751.187182
1670929751.171711,,,,1.023739,1.023847,329556.000000,1670929751.188190
1670929751.172266,,,,1.031095,1.030651,329557.000000,1670929751.189197
1670929751.172329,,,,1.034605,1.037574,329558.000000,1670929751.190204
1670929751.177389,,,,1.044630,1.046638,329559.000000,1670929751.191211
1670929751.177408,,,,1.052419,1.054186,329560.000000,1670929751.192218
1670929751.177902,,,,1.046289,1.049306,329561.000000,1670929751.193225
1670929751.178148,,,,1.036336,1.037430,329562.000000,1670929751.194232
1670929751.183721,,,,1.030206,1.035627,329563.000000,1670929751.195239
1670929751.184718,,,,1.034028,1.037310,329564.000000,1670929751.196246
1670929751.184774,,,,1.036120,1.038656,329565.000000,1670929751.197253
1670929751.184896,,,,1.038812,1.038921,329566.000000,1670929751.198260
1670929751.185253,38.460648,111631.000000,1670929751.123781,,,,
1670929751.185275,38.460648,111632.000000,1670929751.124781,,,,
1670929751.185288,38.533005,111633.000000,1670929751.125781,,,,
1670929751.185356,,,,1.039533,1.038849,329567.000000,1670929751.199267
1670929751.185367,38.442558,111634.000000,1670929751.126781,,,,
1670929751.185704,,,,1.034773,1.034930,329568.000000,1670929751.200274
1670929751.185869,,,,1.030638,1.029064,329569.000000,1670929751.201282
1670929751.185887,,,,1.034821,1.035988,329570.000000,1670929751.202289
1670929751.186053,38.514915,111635.000000,1670929751.127781,,,,
1670929751.186068,38.533005,111636.000000,1670929751.128781,,,,
1670929751.186074,38.496826,111637.000000,1670929751.129781,,,,
1670929751.186544,,,,1.038019,1.040796,329571.000000,1670929751.203296
1670929751.186568,,,,1.033379,1.033415,329572.000000,1670929751.204303
1670929751.186607,,,,1.023354,1.022501,329573.000000,1670929751.205310
1670929751.186743,38.569191,111638.000000,1670929751.130781,,,,
1670929751.187063,,,,1.027681,1.029929,329574.000000,1670929751.206317
1670929751.187446,,,,1.046144,1.048873,329575.000000,1670929751.207324
1670929751.187626,,,,1.046457,1.046638,329576.000000,1670929751.208331
1670929751.187989,38.623459,111639.000000,1670929751.131781,,,,
1670929751.188012,38.605370,111640.000000,1670929751.132781,,,,
1670929751.188354,38.587280,111641.000000,1670929751.133781,,,,
1670929751.188374,38.641548,111642.000000,1670929751.134781,,,,
1670929751.188384,38.695824,111643.000000,1670929751.135781,,,,
1670929751.188392,38.677723,111644.000000,1670929751.136781,,,,
1670929751.188439,38.731998,111645.000000,1670929751.137781,,,,
1670929751.188459,38.713913,111682.000000,1670929751.174781,,,,
1670929751.188464,38.695824,111683.000000,1670929751.175781,,,,
1670929751.188484,38.695824,111684.000000,1670929751.176781,,,,
1670929751.188494,38.695824,111685.000000,1670929751.177781,,,,
1670929751.188544,38.695824,111686.000000,1670929751.178781,,,,
1670929751.188560,38.695824,111687.000000,1670929751.179781,,,,
1670929751.188568,38.713913,111688.000000,1670929751.180781,,,,
1670929751.188588,38.677723,111689.000000,1670929751.181781,,,,
1670929751.188607,38.677723,111690.000000,1670929751.182781,,,,
1670929751.188629,38.677723,111691.000000,1670929751.183781,,,,
1670929751.190821,,,,1.049318,1.049763,329577.000000,1670929751.209338
1670929751.191045,,,,1.061987,1.061951,329578.000000,1670929751.210345
1670929751.191101,,,,1.070426,1.071255,329579.000000,1670929751.211352
1670929751.193392,,,,1.077686,1.075823,329580.000000,1670929751.212359
1670929751.193399,,,,1.083696,1.084670,329581.000000,1670929751.213367
1670929751.193645,,,,1.070546,1.072649,329582.000000,1670929751.214374
1670929751.193753,,,,1.053212,1.052191,329583.000000,1670929751.215381
1670929751.193911,,,,1.036168,1.035218,329584.000000,1670929751.216388
1670929751.194124,,,,1.031384,1.029593,329585.000000,1670929751.217395
1670929751.194315,,,,1.043187,1.043849,329586.000000,1670929751.218402
1670929751.194517,,,,1.050496,1.051926,329587.000000,1670929751.219409
1670929751.198115,,,,1.046866,1.048104,329588.000000,1670929751.220416
1670929751.198294,,,,1.041384,1.042839,329589.000000,1670929751.221423
1670929751.198579,,,,1.044341,1.044931,329590.000000,1670929751.222430
1670929751.200354,,,,1.043789,1.044570,329591.000000,1670929751.223437
1670929751.200680,,,,1.047563,1.046998,329592.000000,1670929751.224444
1670929751.200991,,,,1.050448,1.050220,329593.000000,1670929751.225451
1670929751.201033,,,,1.043308,1.044859,329594.000000,1670929751.226459
1670929751.205445,,,,1.045880,1.046301,329595.000000,1670929751.227466
1670929751.205619,,,,1.058261,1.060004,329596.000000,1670929751.228473
1670929751.205726,,,,1.059535,1.061879,329597.000000,1670929751.229480
1670929751.208008,,,,1.055977,1.058586,329598.000000,1670929751.230487
1670929751.208121,,,,1.073214,1.074549,329599.000000,1670929751.231494
1670929751.208225,,,,1.086749,1.088588,329600.000000,1670929751.232501
1670929751.208354,,,,1.080811,1.081617,329601.000000,1670929751.233508
1670929751.212936,,,,1.076003,1.074573,329602.000000,1670929751.234515
1670929751.213272,,,,1.078936,1.078227,329603.000000,1670929751.235522
1670929751.213633,,,,1.072926,1.073226,329604.000000,1670929751.236529
1670929751.215744,,,,1.056650,1.056783,329605.000000,1670929751.237536
1670929751.216117,,,,1.037225,1.038151,329606.000000,1670929751.238544
1670929751.216137,,,,1.027201,1.028703,329607.000000,1670929751.239551
1670929751.216625,,,,1.040495,1.040291,329608.000000,1670929751.240558
1670929751.216643,,,,1.048765,1.048825,329609.000000,1670929751.241565
1670929751.216810,,,,1.048308,1.048417,329610.000000,1670929751.242572
1670929751.216892,,,,1.052443,1.052383,329611.000000,1670929751.243579
1670929751.221478,,,,1.051458,1.054066,329612.000000,1670929751.244586
1670929751.221510,,,,1.031792,1.034617,329613.000000,1670929751.245593
1670929751.221521,,,,1.025109,1.027958,329614.000000,1670929751.246600
1670929751.221820,,,,1.034701,1.036781,329615.000000,1670929751.247607
1670929751.222113,,,,1.048837,1.050893,329616.000000,1670929751.248614
1670929751.222441,,,,1.069103,1.071688,329617.000000,1670929751.249621
1670929751.222453,,,,1.065137,1.067865,329618.000000,1670929751.250628
1670929751.222932,,,,1.051049,1.051999,329619.000000,1670929751.251636
1670929751.223345,,,,1.053501,1.052600,329620.000000,1670929751.252643
1670929751.223368,,,,1.071363,1.067889,329621.000000,1670929751.253650
1670929751.223564,,,,1.089033,1.089334,329622.000000,1670929751.254657
1670929751.223756,,,,1.087086,1.089839,329623.000000,1670929751.255664
1670929751.244559,,,,1.073527,1.077145,329624.000000,1670929751.256671
1670929751.244578,,,,1.069584,1.070606,329625.000000,1670929751.257678
1670929751.244943,,,,1.055088,1.053321,329626.000000,1670929751.258685
1670929751.251141,,,,1.038259,1.037406,329627.000000,1670929751.259692
1670929751.251174,,,,1.029004,1.027381,329628.000000,1670929751.260699
1670929751.251526,,,,1.038908,1.037887,329629.000000,1670929751.261706
1670929751.251540,,,,1.055208,1.054138,329630.000000,1670929751.262713
1670929751.251879,,,,1.054054,1.054811,329631.000000,1670929751.263721
1670929751.252136,38.659637,111694.000000,1670929751.192841,,,,
1670929751.252241,,,,1.059896,1.061206,329632.000000,1670929751.264728
1670929751.252256,,,,1.072108,1.072097,329633.000000,1670929751.265735
1670929751.253115,,,,1.073070,1.074356,329634.000000,1670929751.266742
1670929751.253387,,,,1.075907,1.077073,329635.000000,1670929751.267749
1670929751.253620,38.659637,111695.000000,1670929751.193841,,,,
1670929751.253780,,,,1.085571,1.086689,329636.000000,1670929751.268756
1670929751.253946,,,,1.086941,1.088132,329637.000000,1670929751.269763
1670929751.254057,38.677723,111696.000000,1670929751.194841,,,,
1670929751.254073,38.605370,111697.000000,1670929751.195841,,,,
1670929751.254078,38.569191,111698.000000,1670929751.196841,,,,
1670929751.254103,38.551094,111699.000000,1670929751.197841,,,,
1670929751.254159,38.623459,111700.000000,1670929751.198841,,,,
1670929751.254171,38.569191,111701.000000,1670929751.199841,,,,
1670929751.254179,38.569191,111702.000000,1670929751.200841,,,,
1670929751.254277,38.605370,111703.000000,1670929751.201841,,,,
1670929751.254285,37.936031,111743.000000,1670929751.241841,,,,
1670929751.254293,37.954121,111744.000000,1670929751.242841,,,,
1670929751.254312,37.936031,111745.000000,1670929751.243841,,,,
1670929751.254319,37.936031,111746.000000,1670929751.244841,,,,
1670929751.254326,37.863674,111747.000000,1670929751.245841,,,,
1670929751.254332,37.881763,111748.000000,1670929751.246841,,,,
1670929751.254374,37.863674,111749.000000,1670929751.247841,,,,
1670929751.254379,37.845577,111750.000000,1670929751.248841,,,,
1670929751.254388,37.827488,111751.000000,1670929751.249841,,,,
1670929751.254397,37.845577,111752.000000,1670929751.250841,,,,
1670929751.254460,,,,1.063646,1.062072,329638.000000,1670929751.270770
1670929751.254467,,,,1.045207,1.047215,329639.000000,1670929751.271777
1670929751.254561,,,,1.041192,1.042382,329640.000000,1670929751.272784
1670929751.259381,,,,1.037610,1.039546,329641.000000,1670929751.273791
1670929751.259615,,,,1.044414,1.045580,329642.000000,1670929751.274798
1670929751.259693,,,,1.048308,1.051903,329643.000000,1670929751.275805
1670929751.259885,,,,1.042514,1.045772,329644.000000,1670929751.276813
1670929751.260070,,,,1.041986,1.041493,329645.000000,1670929751.277820
1670929751.260269,,,,1.040231,1.042046,329646.000000,1670929751.278827
1670929751.260593,,,,1.040182,1.042671,329647.000000,1670929751.279834
1670929751.260821,,,,1.032153,1.035122,329648.000000,1670929751.280841
1670929751.260973,,,,1.038668,1.041998,329649.000000,1670929751.281848
1670929751.261791,,,,1.049991,1.052383,329650.000000,1670929751.282855
1670929751.262139,,,,1.093601,1.095055,329653.000000,1670929751.285876
1670929751.262150,,,,1.094803,1.095079,329654.000000,1670929751.286883
1670929751.262196,,,,1.101798,1.100969,329655.000000,1670929751.287890
1670929751.262271,,,,1.110140,1.110489,329656.000000,1670929751.288898
1670929751.262300,,,,1.104226,1.105801,329657.000000,1670929751.289905
1670929751.262373,,,,1.084008,1.084381,329658.000000,1670929751.290912
1670929751.262460,,,,1.059607,1.062480,329659.000000,1670929751.291919
1670929751.262547,,,,1.043933,1.046662,329660.000000,1670929751.292926
1670929751.262598,,,,1.044510,1.045676,329661.000000,1670929751.293933
1670929751.263336,,,,1.052371,1.055629,329662.000000,1670929751.294940
1670929751.266179,,,,1.055040,1.057312,329663.000000,1670929751.295947
1670929751.266426,,,,1.056169,1.056470,329664.000000,1670929751.296954
1670929751.266440,,,,1.047274,1.049066,329665.000000,1670929751.297961
1670929751.266615,,,,1.039750,1.040099,329666.000000,1670929751.298968
1670929751.266824,,,,1.033643,1.034786,329667.000000,1670929751.299975
1670929751.267098,,,,1.031552,1.035387,329668.000000,1670929751.300982
1670929751.267261,,,,1.038524,1.040627,329669.000000,1670929751.301990
1670929751.267417,,,,1.042226,1.044811,329670.000000,1670929751.302997
1670929751.267807,,,,1.042875,1.044306,329671.000000,1670929751.304004
1670929751.267998,,,,1.045544,1.047503,329672.000000,1670929751.305011
1670929751.268008,,,,1.041937,1.044282,329673.000000,1670929751.306018
1670929751.269655,,,,1.040687,1.043849,329674.000000,1670929751.307025
1670929751.269865,,,,1.046096,1.048849,329675.000000,1670929751.308032
1670929751.270065,,,,1.052155,1.051301,329676.000000,1670929751.309039
1670929751.270074,,,,1.047467,1.047960,329677.000000,1670929751.310046
1670929751.270221,,,,1.043885,1.043272,329678.000000,1670929751.311053
1670929751.270397,,,,1.040471,1.041878,329679.000000,1670929751.312060
1670929751.270605,,,,1.052395,1.053946,329680.000000,1670929751.313067
1670929751.283114,,,,1.056963,1.057961,329681.000000,1670929751.314075
1670929751.283611,,,,1.057900,1.057720,329682.000000,1670929751.315082
1670929751.284129,,,,1.074344,1.073924,329683.000000,1670929751.316089
1670929751.298109,,,,1.086004,1.084093,329684.000000,1670929751.317096
1670929751.298666,,,,1.086028,1.085992,329685.000000,1670929751.318103
1670929751.299025,,,,1.071459,1.070534,329686.000000,1670929751.319110
1670929751.299430,,,,1.057540,1.056590,329687.000000,1670929751.320117
1670929751.299983,,,,1.053501,1.054162,329688.000000,1670929751.321124
1670929751.300211,,,,1.049871,1.053465,329689.000000,1670929751.322131
1670929751.300605,,,,1.055376,1.057071,329690.000000,1670929751.323138
1670929751.300970,,,,1.076748,1.077818,329691.000000,1670929751.324145
1670929751.301878,,,,1.094947,1.097748,329692.000000,1670929751.325152
1670929751.303039,,,,1.112112,1.112413,329693.000000,1670929751.326159
1670929751.303172,,,,1.123675,1.124866,329694.000000,1670929751.327167
1670929751.303360,,,,1.123435,1.121788,329695.000000,1670929751.328174
1670929751.303365,,,,1.107760,1.106282,329696.000000,1670929751.329181
1670929751.303490,,,,1.074753,1.077385,329697.000000,1670929751.330188
1670929751.304019,,,,1.046914,1.049018,329698.000000,1670929751.331195
1670929751.304101,,,,1.045063,1.046397,329699.000000,1670929751.332202
1670929751.304200,,,,1.053982,1.053826,329700.000000,1670929751.333209
1670929751.304278,,,,1.052804,1.051494,329701.000000,1670929751.334216
1670929751.306702,37.791313,111753.000000,1670929751.246081,,,,
1670929751.306901,37.718956,111754.000000,1670929751.247081,,,,
1670929751.307664,37.664680,111755.000000,1670929751.248080,,,,
1670929751.307678,37.773224,111756.000000,1670929751.249081,,,,
1670929751.307687,37.700859,111757.000000,1670929751.250081,,,,
1670929751.307691,37.700859,111758.000000,1670929751.251081,,,,
1670929751.307695,37.700859,111759.000000,1670929751.252081,,,,
1670929751.307697,37.664680,111760.000000,1670929751.253081,,,,
1670929751.307720,37.592323,111761.000000,1670929751.254081,,,,
1670929751.307724,37.610413,111804.000000,1670929751.297081,,,,
1670929751.307726,37.592323,111805.000000,1670929751.298081,,,,
1670929751.307738,37.628502,111806.000000,1670929751.299081,,,,
1670929751.307754,37.664680,111807.000000,1670929751.300081,,,,
1670929751.307758,37.628502,111808.000000,1670929751.301080,,,,
1670929751.307763,37.628502,111809.000000,1670929751.302081,,,,
1670929751.307770,37.646591,111810.000000,1670929751.303081,,,,
1670929751.307774,37.646591,111811.000000,1670929751.304080,,,,
1670929751.307779,37.556137,111812.000000,1670929751.305081,,,,
1670929751.307793,37.574226,111813.000000,1670929751.306081,,,,
1670929751.310926,,,,1.054823,1.053970,329702.000000,1670929751.335223
1670929751.311048,,,,1.052275,1.054379,329703.000000,1670929751.336230
1670929751.311184,,,,1.047467,1.051494,329704.000000,1670929751.337237
1670929751.311365,,,,1.043212,1.044618,329705.000000,1670929751.338244
1670929751.311577,,,,1.032105,1.030915,329706.000000,1670929751.339252
1670929751.311585,,,,1.029797,1.027982,329707.000000,1670929751.340259
1670929751.312780,,,,1.037754,1.040075,329708.000000,1670929751.341266
1670929751.312932,,,,1.053333,1.055412,329709.000000,1670929751.342273
1670929751.313160,,,,1.056290,1.055509,329710.000000,1670929751.343280
1670929751.313304,,,,1.056602,1.056542,329711.000000,1670929751.344287
1670929751.317915,,,,1.104251,1.106595,329712.000000,1670929751.345294
1670929751.318067,,,,1.150841,1.153041,329713.000000,1670929751.346301
1670929751.318140,,,,1.171444,1.174918,329714.000000,1670929751.347308
1670929751.318368,,,,1.180507,1.182274,329715.000000,1670929751.348315
1670929751.326212,,,,1.173391,1.174942,329716.000000,1670929751.349322
1670929751.326243,,,,1.170458,1.169509,329717.000000,1670929751.350329
1670929751.326404,,,,1.140143,1.141886,329718.000000,1670929751.351336
1670929751.328011,,,,1.100717,1.100657,329719.000000,1670929751.352344
1670929751.328359,,,,1.069824,1.067962,329720.000000,1670929751.353351
1670929751.328739,,,,1.037947,1.036925,329721.000000,1670929751.354358
1670929751.328880,,,,1.031047,1.031540,329722.000000,1670929751.355365
1670929751.333155,,,,1.015829,1.015842,329723.000000,1670929751.356372
1670929751.333603,,,,0.992053,0.992883,329724.000000,1670929751.357379
1670929751.333614,,,,0.984961,0.986440,329725.000000,1670929751.358386
1670929751.333983,,,,0.980273,0.980334,329726.000000,1670929751.359393
1670929751.335875,,,,0.963277,0.960981,329727.000000,1670929751.360400
1670929751.336007,,,,0.956041,0.953480,329728.000000,1670929751.361407
1670929751.336339,,,,0.959550,0.957664,329729.000000,1670929751.362414
1670929751.336525,,,,0.962051,0.960356,329730.000000,1670929751.363421
1670929751.336751,,,,0.964527,0.964948,329731.000000,1670929751.364429
1670929751.337042,,,,0.975297,0.975021,329732.000000,1670929751.365436
1670929751.337062,,,,0.986428,0.984901,329733.000000,1670929751.366443
1670929751.341128,,,,0.999121,0.999807,329734.000000,1670929751.367450
1670929751.341144,,,,0.995515,0.996345,329735.000000,1670929751.368457
1670929751.341334,,,,0.999025,0.998773,329736.000000,1670929751.369464
1670929751.341581,,,,1.007079,1.008990,329737.000000,1670929751.370471
1670929751.341948,,,,0.997823,0.999783,329738.000000,1670929751.371478
1670929751.342261,,,,0.991404,0.991825,329739.000000,1670929751.372485
1670929751.343134,,,,0.995155,0.998268,329740.000000,1670929751.373492
1670929751.343160,,,,1.009146,1.011082,329741.000000,1670929751.374499
1670929751.343189,,,,1.020541,1.019832,329742.000000,1670929751.375506
1670929751.343637,,,,1.023114,1.021515,329743.000000,1670929751.376513
1670929751.357449,,,,1.027080,1.027237,329744.000000,1670929751.377521
1670929751.357646,,,,1.036168,1.037358,329745.000000,1670929751.378528
1670929751.358367,,,,1.055376,1.054763,329746.000000,1670929751.379535
1670929751.358394,,,,1.062372,1.062480,329747.000000,1670929751.380542
1670929751.358702,,,,1.050159,1.051926,329748.000000,1670929751.381549
1670929751.358989,,,,1.024268,1.025097,329749.000000,1670929751.382556
1670929751.359566,,,,1.018282,1.018294,329750.000000,1670929751.383563
1670929751.370562,37.592323,111814.000000,1670929751.309836,,,,
1670929751.370578,,,,1.018498,1.017861,329751.000000,1670929751.384570
1670929751.370606,37.538048,111815.000000,1670929751.310836,,,,
1670929751.370611,37.556137,111816.000000,1670929751.311836,,,,
1670929751.370799,,,,1.018546,1.018198,329752.000000,1670929751.385577
1670929751.370980,,,,1.023715,1.022886,329753.000000,1670929751.386584
1670929751.371015,,,,1.023162,1.026011,329754.000000,1670929751.387591
1670929751.371087,37.610413,111817.000000,1670929751.312836,,,,
1670929751.371095,37.574226,111818.000000,1670929751.313836,,,,
1670929751.371896,37.519958,111819.000000,1670929751.314836,,,,
1670929751.371924,37.538048,111820.000000,1670929751.315836,,,,
1670929751.371938,37.519958,111821.000000,1670929751.316836,,,,
1670929751.371946,38.225475,111865.000000,1670929751.360836,,,,
1670929751.372058,38.279751,111866.000000,1670929751.361836,,,,
1670929751.372072,38.388283,111867.000000,1670929751.362836,,,,
1670929751.372147,38.406372,111868.000000,1670929751.363836,,,,
1670929751.372160,38.442558,111869.000000,1670929751.364836,,,,
1670929751.372170,38.496826,111870.000000,1670929751.365836,,,,
1670929751.372178,38.551094,111871.000000,1670929751.366836,,,,
1670929751.372184,38.587280,111872.000000,1670929751.367836,,,,
1670929751.372211,38.587280,111873.000000,1670929751.368836,,,,
1670929751.372232,38.569191,111874.000000,1670929751.369836,,,,
1670929751.372871,,,,1.024220,1.026299,329755.000000,1670929751.388598
1670929751.373187,,,,1.023426,1.025698,329756.000000,1670929751.389606
1670929751.373561,,,,1.028090,1.026227,329757.000000,1670929751.390613
1670929751.373568,,,,1.032249,1.030675,329758.000000,1670929751.391620
1670929751.378226,,,,1.024388,1.025674,329759.000000,1670929751.392627
1670929751.378655,,,,1.019219,1.016539,329760.000000,1670929751.393634
1670929751.378670,,,,1.020421,1.019328,329761.000000,1670929751.394641
1670929751.378691,,,,1.011742,1.011707,329762.000000,1670929751.395648
1670929751.380694,,,,1.008377,1.007788,329763.000000,1670929751.396655
1670929751.380703,,,,1.009146,1.008870,329764.000000,1670929751.397662
1670929751.386062,,,,1.007175,1.009182,329765.000000,1670929751.398669
1670929751.386080,,,,1.013618,1.015818,329766.000000,1670929751.399676
1670929751.386689,,,,1.043212,1.042671,329767.000000,1670929751.400683
1670929751.386710,,,,1.077469,1.078467,329768.000000,1670929751.401690
1670929751.386734,,,,1.082590,1.081953,329769.000000,1670929751.402698
1670929751.387267,,,,1.079537,1.080631,329770.000000,1670929751.403705
1670929751.387470,,,,1.064199,1.065678,329771.000000,1670929751.404712
1670929751.387493,,,,1.060929,1.063682,329772.000000,1670929751.405719
1670929751.388744,,,,1.057588,1.057744,329773.000000,1670929751.406726
1670929751.388757,,,,1.027032,1.028607,329774.000000,1670929751.407733
1670929751.388798,,,,1.035086,1.034810,329775.000000,1670929751.408740
1670929751.388834,,,,1.053044,1.051350,329776.000000,1670929751.409747
1670929751.388844,,,,1.050039,1.048104,329777.000000,1670929751.410754
1670929751.388852,,,,1.042298,1.044979,329778.000000,1670929751.411761
1670929751.388898,,,,1.037538,1.039522,329779.000000,1670929751.412768
1670929751.393472,,,,1.033090,1.033007,329780.000000,1670929751.413775
1670929751.393719,,,,1.036336,1.038440,329781.000000,1670929751.414783
1670929751.393731,,,,1.039702,1.041325,329782.000000,1670929751.415790
1670929751.393749,,,,1.034341,1.034810,329783.000000,1670929751.416797
1670929751.395389,,,,1.022921,1.027069,329784.000000,1670929751.417804
1670929751.395673,,,,1.008713,1.010961,329785.000000,1670929751.418811
1670929751.395914,,,,1.008449,1.009182,329786.000000,1670929751.419818
1670929751.401068,,,,1.019027,1.018678,329787.000000,1670929751.420825
1670929751.401303,,,,1.036624,1.040123,329788.000000,1670929751.421832
1670929751.401434,,,,1.042298,1.045243,329789.000000,1670929751.422839
1670929751.401443,,,,1.037610,1.038007,329790.000000,1670929751.423846
1670929751.403842,,,,1.029845,1.028824,329791.000000,1670929751.424853
1670929751.403871,,,,1.039149,1.039113,329792.000000,1670929751.425860
1670929751.404078,,,,1.058742,1.061206,329793.000000,1670929751.426867
1670929751.404371,,,,1.068238,1.068130,329794.000000,1670929751.427875
1670929751.404395,,,,1.058549,1.058225,329795.000000,1670929751.428882
1670929751.404549,,,,1.064584,1.064476,329796.000000,1670929751.429889
1670929751.404563,,,,1.093120,1.094526,329797.000000,1670929751.430896
1670929751.416989,,,,1.107736,1.107556,329798.000000,1670929751.431903
1670929751.417003,,,,1.075306,1.073443,329799.000000,1670929751.432910
1670929751.417202,,,,1.042707,1.042887,329800.000000,1670929751.433917
1670929751.423875,38.677723,111875.000000,1670929751.363353,,,,
1670929751.423888,38.677723,111876.000000,1670929751.364353,,,,
1670929751.424045,38.659637,111877.000000,1670929751.365353,,,,
1670929751.424131,38.677723,111878.000000,1670929751.366353,,,,
1670929751.424139,38.804356,111879.000000,1670929751.367353,,,,
1670929751.424154,38.804356,111880.000000,1670929751.368353,,,,
1670929751.424157,38.894810,111881.000000,1670929751.369353,,,,
1670929751.424162,38.967167,111882.000000,1670929751.370353,,,,
1670929751.424197,38.985264,111883.000000,1670929751.371353,,,,
1670929751.424214,38.967167,111884.000000,1670929751.372353,,,,
1670929751.424465,,,,1.011694,1.015265,329801.000000,1670929751.434924
1670929751.424594,,,,1.016935,1.020001,329802.000000,1670929751.435931
1670929751.424760,,,,1.018185,1.019736,329803.000000,1670929751.436938
1670929751.424812,39.944035,111914.000000,1670929751.402353,,,,
1670929751.425005,39.998310,111915.000000,1670929751.403353,,,,
1670929751.425013,,,,1.018041,1.018919,329804.000000,1670929751.437945
1670929751.425092,,,,1.019436,1.019472,329805.000000,1670929751.438952
1670929751.425149,,,,1.006934,1.008077,329806.000000,1670929751.439960
1670929751.425165,39.980221,111916.000000,1670929751.404353,,,,
1670929751.425169,40.016396,111917.000000,1670929751.405353,,,,
1670929751.425180,40.070663,111918.000000,1670929751.406353,,,,
1670929751.425184,40.070663,111919.000000,1670929751.407353,,,,
1670929751.425201,40.034485,111920.000000,1670929751.408353,,,,
1670929751.425205,40.124939,111921.000000,1670929751.409353,,,,
1670929751.425223,40.070663,111922.000000,1670929751.410353,,,,
1670929751.425230,40.179207,111923.000000,1670929751.411353,,,,
1670929751.425235,40.161118,111926.000000,1670929751.414353,,,,
1670929751.425239,40.233482,111927.000000,1670929751.415353,,,,
1670929751.425243,40.251572,111928.000000,1670929751.416353,,,,
1670929751.425256,40.305840,111929.000000,1670929751.417353,,,,
1670929751.425259,40.233482,111930.000000,1670929751.418353,,,,
1670929751.425269,40.287750,111931.000000,1670929751.419353,,,,
1670929751.425273,40.342018,111932.000000,1670929751.420353,,,,
1670929751.425281,40.287750,111933.000000,1670929751.421353,,,,
1670929751.425284,40.342018,111934.000000,1670929751.422353,,,,
1670929751.425299,40.432472,111935.000000,1670929751.423353,,,,
1670929751.425528,,,,0.999915,1.002331,329807.000000,1670929751.440967
1670929751.430751,,,,0.995707,0.995359,329808.000000,1670929751.441974
1670929751.430771,,,,0.993063,0.996080,329809.000000,1670929751.442981
1670929751.430975,,,,0.984721,0.987522,329810.000000,1670929751.443988
1670929751.432998,,,,0.982990,0.982906,329811.000000,1670929751.444995
1670929751.433171,,,,0.995227,0.995023,329812.000000,1670929751.446002
1670929751.433314,,,,1.028715,1.028463,329813.000000,1670929751.447009
1670929751.433509,,,,1.073695,1.074212,329814.000000,1670929751.448016
1670929751.433666,,,,1.072806,1.075174,329815.000000,1670929751.449023
1670929751.437996,,,,1.062132,1.064572,329816.000000,1670929751.450030
1670929751.438326,,,,1.058165,1.060100,329817.000000,1670929751.451037
1670929751.438643,,,,1.065233,1.068442,329818.000000,1670929751.452044
1670929751.440498,,,,1.075113,1.073972,329819.000000,1670929751.453052
1670929751.440688,,,,1.090283,1.090968,329820.000000,1670929751.454059
1670929751.440912,,,,1.097327,1.099695,329821.000000,1670929751.455066
1670929751.446398,,,,1.086100,1.087939,329822.000000,1670929751.456073
1670929751.446428,,,,1.063959,1.064476,329823.000000,1670929751.457080
1670929751.446439,,,,1.047755,1.047191,329824.000000,1670929751.458087
1670929751.446465,,,,1.058742,1.056927,329825.000000,1670929751.459094
1670929751.446773,,,,1.072613,1.069933,329826.000000,1670929751.460101
1670929751.447054,,,,1.067829,1.065485,329827.000000,1670929751.461108
1670929751.447603,,,,1.059223,1.060509,329828.000000,1670929751.462115
1670929751.447615,,,,1.058670,1.057408,329829.000000,1670929751.463122
1670929751.448279,,,,1.058862,1.058634,329830.000000,1670929751.464129
1670929751.448313,,,,1.054775,1.053249,329831.000000,1670929751.465137
1670929751.448333,,,,1.054078,1.051253,329832.000000,1670929751.466144
1670929751.454226,,,,1.053838,1.053657,329833.000000,1670929751.467151
1670929751.454403,,,,1.052852,1.053177,329834.000000,1670929751.468158
1670929751.454422,,,,1.060256,1.061399,329835.000000,1670929751.469165
1670929751.454431,,,,1.057275,1.059211,329836.000000,1670929751.470172
1670929751.454534,,,,1.056963,1.057480,329837.000000,1670929751.471179
1670929751.454543,,,,1.048476,1.049859,329838.000000,1670929751.472186
1670929751.454573,,,,1.041601,1.041733,329839.000000,1670929751.473193
1670929751.454579,,,,1.074008,1.075703,329840.000000,1670929751.474200
1670929751.455350,,,,1.107063,1.106595,329841.000000,1670929751.475207
1670929751.455538,,,,1.110501,1.111499,329842.000000,1670929751.476214
1670929751.455824,,,,1.101606,1.100825,329843.000000,1670929751.477221
1670929751.463180,,,,1.083528,1.084838,329844.000000,1670929751.478229
1670929751.463280,,,,1.063454,1.064331,329845.000000,1670929751.479236
1670929751.463290,,,,1.036576,1.035603,329846.000000,1670929751.480243
1670929751.485378,,,,1.003497,1.005673,329847.000000,1670929751.481250
1670929751.485405,,,,1.001549,1.004831,329848.000000,1670929751.482257
1670929751.485691,,,,1.007127,1.007283,329849.000000,1670929751.483264
1670929751.486023,,,,0.998953,0.996561,329850.000000,1670929751.484271
1670929751.486451,,,,0.998833,0.996393,329851.000000,1670929751.485278
1670929751.486861,,,,0.997607,0.996633,329852.000000,1670929751.486285
1670929751.487362,,,,1.010565,1.008365,329853.000000,1670929751.487292
1670929751.487399,,,,1.017464,1.017356,329854.000000,1670929751.488299
1670929751.489592,40.342018,111987.000000,1670929751.478357,,,,
1670929751.489621,40.378204,111988.000000,1670929751.479357,,,,
1670929751.489632,40.360107,111989.000000,1670929751.480357,,,,
1670929751.489644,40.360107,111990.000000,1670929751.481357,,,,
1670929751.489769,40.360107,111991.000000,1670929751.482357,,,,
1670929751.489807,40.396294,111992.000000,1670929751.483357,,,,
1670929751.489841,40.396294,111993.000000,1670929751.484357,,,,
1670929751.489855,40.360107,111994.000000,1670929751.485357,,,,
1670929751.489859,40.378204,111995.000000,1670929751.486357,,,,
1670929751.489866,40.414383,111996.000000,1670929751.487357,,,,
1670929751.490768,,,,1.020541,1.021972,329855.000000,1670929751.489306
1670929751.491396,,,,1.024147,1.023799,329856.000000,1670929751.490314
1670929751.491409,,,,1.022681,1.020481,329857.000000,1670929751.491321
1670929751.491483,,,,1.020085,1.019015,329858.000000,1670929751.492328
1670929751.491566,,,,1.022585,1.020842,329859.000000,1670929751.493335
1670929751.491587,,,,1.015204,1.016683,329860.000000,1670929751.494342
1670929751.491592,,,,1.019099,1.020073,329861.000000,1670929751.495349
1670929751.492876,,,,1.019387,1.020337,329862.000000,1670929751.496356
1670929751.492950,,,,1.021479,1.019616,329863.000000,1670929751.497363
1670929751.493244,,,,1.019676,1.017597,329864.000000,1670929751.498370
1670929751.493291,,,,1.016551,1.017380,329865.000000,1670929751.499377
1670929751.497822,,,,1.007608,1.008942,329866.000000,1670929751.500384
1670929751.497997,,,,1.010685,1.010961,329867.000000,1670929751.501391
1670929751.500421,,,,1.025325,1.025530,329868.000000,1670929751.502398
1670929751.500529,,,,1.046072,1.045436,329869.000000,1670929751.503406
1670929751.500781,,,,1.059175,1.058153,329870.000000,1670929751.504413
1670929751.501014,,,,1.067276,1.067072,329871.000000,1670929751.505420
1670929751.506203,,,,1.073310,1.072866,329872.000000,1670929751.506427
1670929751.506663,,,,1.072180,1.072770,329873.000000,1670929751.507434
1670929751.506921,,,,1.085547,1.085223,329874.000000,1670929751.508441
1670929751.506981,,,,1.092495,1.091978,329875.000000,1670929751.509448
1670929751.507412,,,,1.074801,1.074933,329876.000000,1670929751.510455
1670929751.507725,,,,1.056097,1.056879,329877.000000,1670929751.511462
1670929751.508051,,,,1.048957,1.049066,329878.000000,1670929751.512469
1670929751.508277,,,,1.051554,1.050220,329879.000000,1670929751.513476
1670929751.508454,,,,1.054919,1.053513,329880.000000,1670929751.514483
1670929751.508867,,,,1.054054,1.053177,329881.000000,1670929751.515491
1670929751.509186,,,,1.046649,1.048465,329882.000000,1670929751.516498
1670929751.509341,,,,1.038548,1.044258,329883.000000,1670929751.517505
1670929751.509364,,,,1.032297,1.037238,329884.000000,1670929751.518512
1670929751.509701,,,,1.027465,1.026444,329885.000000,1670929751.519519
1670929751.510002,,,,1.016502,1.017068,329886.000000,1670929751.520526
1670929751.513671,,,,1.018065,1.016250,329887.000000,1670929751.521533
1670929751.513926,,,,1.027753,1.024352,329888.000000,1670929751.522540
1670929751.514353,,,,1.032465,1.034665,329889.000000,1670929751.523547
1670929751.514572,,,,1.039221,1.042166,329890.000000,1670929751.524554
1670929751.514849,,,,1.041913,1.042527,329891.000000,1670929751.525561
1670929751.514863,,,,1.046144,1.045964,329892.000000,1670929751.526568
1670929751.515425,,,,1.056939,1.059067,329893.000000,1670929751.527575
1670929751.515671,,,,1.066555,1.066038,329894.000000,1670929751.528583
1670929751.515958,,,,1.063526,1.062288,329895.000000,1670929751.529590
1670929751.515997,,,,1.056578,1.056206,329896.000000,1670929751.530597
1670929751.522893,,,,1.042995,1.045820,329897.000000,1670929751.531604
1670929751.523172,,,,1.043524,1.045772,329898.000000,1670929751.532611
1670929751.523178,,,,1.053813,1.053417,329899.000000,1670929751.533618
1670929751.529207,,,,1.056891,1.056013,329900.000000,1670929751.534625
1670929751.529471,,,,1.058862,1.055941,329901.000000,1670929751.535632
1670929751.529546,,,,1.061891,1.058898,329902.000000,1670929751.536639
1670929751.529598,,,,1.058117,1.056903,329903.000000,1670929751.537646
1670929751.538547,,,,1.039461,1.041685,329904.000000,1670929751.538653
1670929751.539601,,,,1.030254,1.031997,329905.000000,1670929751.539660
1670929751.539629,,,,1.031119,1.030675,329906.000000,1670929751.540668
1670929751.539639,,,,1.034389,1.034617,329907.000000,1670929751.541675
1670929751.539656,,,,1.038500,1.039594,329908.000000,1670929751.542682
1670929751.539672,,,,1.035447,1.036180,329909.000000,1670929751.543689
1670929751.539683,,,,1.033475,1.037069,329910.000000,1670929751.544696
1670929751.539691,,,,1.038452,1.040123,329911.000000,1670929751.545703
1670929751.551234,,,,1.044510,1.044618,329912.000000,1670929751.546710
1670929751.551759,,,,1.044269,1.043272,329913.000000,1670929751.547717
1670929751.552182,,,,1.036216,1.035411,329914.000000,1670929751.548724
1670929751.552206,,,,1.035879,1.036757,329915.000000,1670929751.549731
1670929751.552559,,,,1.038259,1.041998,329916.000000,1670929751.550738
1670929751.552911,,,,1.041937,1.043272,329917.000000,1670929751.551745
1670929751.553122,40.414383,111997.000000,1670929751.491900,,,,
1670929751.554864,40.396294,111998.000000,1670929751.492900,,,,
1670929751.554878,40.396294,111999.000000,1670929751.493900,,,,
1670929751.554882,40.504826,112048.000000,1670929751.542900,,,,
1670929751.554916,40.522923,112049.000000,1670929751.543900,,,,
1670929751.554923,40.486736,112050.000000,1670929751.544900,,,,
1670929751.554949,40.504826,112051.000000,1670929751.545900,,,,
1670929751.554966,40.522923,112052.000000,1670929751.546900,,,,
1670929751.554988,40.504826,112053.000000,1670929751.547900,,,,
1670929751.554998,40.450558,112054.000000,1670929751.548900,,,,
1670929751.555014,40.486736,112055.000000,1670929751.549900,,,,
1670929751.555239,40.541012,112056.000000,1670929751.550900,,,,
1670929751.555259,40.450558,112057.000000,1670929751.551900,,,,
1670929751.555338,,,,1.060737,1.063658,329918.000000,1670929751.552752
1670929751.555349,,,,1.079970,1.082482,329919.000000,1670929751.553760
1670929751.555559,,,,1.087590,1.088011,329920.000000,1670929751.554767
1670929751.555715,,,,1.092951,1.092411,329921.000000,1670929751.555774
1670929751.555909,,,,1.091942,1.093805,329922.000000,1670929751.556781
1670929751.557990,,,,1.089754,1.092771,329923.000000,1670929751.557788
1670929751.558029,,,,1.077205,1.078660,329924.000000,1670929751.558795
1670929751.562572,,,,1.054799,1.057840,329925.000000,1670929751.559802
1670929751.562775,,,,1.058814,1.059115,329926.000000,1670929751.560809
1670929751.562899,,,,1.088889,1.085776,329927.000000,1670929751.561816
1670929751.562908,,,,1.097567,1.095873,329928.000000,1670929751.562823
1670929751.565735,,,,1.074729,1.073900,329929.000000,1670929751.563830
1670929751.565865,,,,1.056530,1.054523,329930.000000,1670929751.564837
1670929751.565874,,,,1.052876,1.055629,329931.000000,1670929751.565845
1670929751.566145,,,,1.052443,1.053778,329932.000000,1670929751.566852
1670929751.570163,,,,1.047683,1.048128,329933.000000,1670929751.567859
1670929751.570631,,,,1.039101,1.041397,329934.000000,1670929751.568866
1670929751.570723,,,,1.049078,1.051301,329935.000000,1670929751.569873
1670929751.570884,,,,1.037971,1.038969,329936.000000,1670929751.570880
1670929751.571011,,,,1.019700,1.019568,329937.000000,1670929751.571887
1670929751.571037,,,,1.021118,1.020986,329938.000000,1670929751.572894
1670929751.571127,,,,1.028907,1.027718,329939.000000,1670929751.573901
1670929751.573148,,,,1.028691,1.027766,329940.000000,1670929751.574908
1670929751.573840,,,,1.032562,1.027622,329941.000000,1670929751.575915
1670929751.573850,,,,1.035447,1.034786,329942.000000,1670929751.576922
1670929751.574087,,,,1.039870,1.041180,329943.000000,1670929751.577929
1670929751.580952,,,,1.040110,1.042455,329944.000000,1670929751.578937
1670929751.581006,,,,1.042418,1.042695,329945.000000,1670929751.579944
1670929751.581312,,,,1.046505,1.048489,329946.000000,1670929751.580951
1670929751.585004,,,,1.064175,1.066615,329947.000000,1670929751.581958
1670929751.585273,,,,1.078719,1.077217,329948.000000,1670929751.582965
1670929751.585627,,,,1.087903,1.089213,329949.000000,1670929751.583972
1670929751.598708,,,,1.103169,1.104912,329950.000000,1670929751.584979
1670929751.598726,,,,1.105765,1.105513,329951.000000,1670929751.585986
1670929751.598977,,,,1.105020,1.105873,329952.000000,1670929751.586993
1670929751.599131,,,,1.112520,1.114071,329953.000000,1670929751.588000
1670929751.599230,,,,1.104563,1.106258,329954.000000,1670929751.589007
1670929751.599266,,,,1.096557,1.096522,329955.000000,1670929751.590014
1670929751.599300,,,,1.074440,1.074549,329956.000000,1670929751.591022
1670929751.604214,,,,1.036817,1.036156,329957.000000,1670929751.592029
1670929751.604547,,,,0.999794,1.000672,329958.000000,1670929751.593036
1670929751.604784,,,,1.005588,1.005360,329959.000000,1670929751.594043
1670929751.604934,,,,1.023354,1.023823,329960.000000,1670929751.595050
1670929751.610452,40.504826,112109.000000,1670929751.598216,,,,
1670929751.610471,40.577190,112110.000000,1670929751.599216,,,,
1670929751.610483,40.541012,112111.000000,1670929751.600216,,,,
1670929751.610516,40.559101,112112.000000,1670929751.601216,,,,
1670929751.610526,40.577190,112113.000000,1670929751.602216,,,,
1670929751.610535,40.595280,112114.000000,1670929751.603216,,,,
1670929751.610542,40.595280,112115.000000,1670929751.604216,,,,
1670929751.610551,40.649548,112116.000000,1670929751.605216,,,,
1670929751.610564,40.649548,112117.000000,1670929751.606216,,,,
1670929751.610580,40.595280,112118.000000,1670929751.607216,,,,
1670929751.610832,,,,1.033307,1.031492,329961.000000,1670929751.596057
1670929751.610950,,,,1.032273,1.032838,329962.000000,1670929751.597064
1670929751.611044,,,,1.024989,1.028824,329963.000000,1670929751.598071
1670929751.611057,,,,1.017729,1.020001,329964.000000,1670929751.599078
1670929751.612865,,,,1.005612,1.006346,329965.000000,1670929751.600085
1670929751.612872,,,,1.002367,1.002812,329966.000000,1670929751.601092
1670929751.613109,,,,1.004987,1.004519,329967.000000,1670929751.602099
1670929751.613116,,,,1.007776,1.008605,329968.000000,1670929751.603106
1670929751.618428,,,,1.015373,1.017452,329969.000000,1670929751.604114
1670929751.618534,,,,1.023763,1.024496,329970.000000,1670929751.605121
1670929751.618543,,,,1.031432,1.032670,329971.000000,1670929751.606128
1670929751.618547,,,,1.034749,1.033391,329972.000000,1670929751.607135
1670929751.618556,,,,1.033499,1.034978,329973.000000,1670929751.608142
1670929751.618617,,,,1.055256,1.056182,329974.000000,1670929751.609149
1670929751.620246,,,,1.069512,1.071351,329975.000000,1670929751.610156
1670929751.620648,,,,1.067252,1.065726,329976.000000,1670929751.611163
1670929751.620660,,,,1.070065,1.067409,329977.000000,1670929751.612170
1670929751.620677,,,,1.074200,1.073900,329978.000000,1670929751.613177
1670929751.626077,,,,1.072757,1.075198,329979.000000,1670929751.614184
1670929751.626549,,,,1.050712,1.049811,329980.000000,1670929751.615191
1670929751.626734,,,,1.025109,1.027694,329981.000000,1670929751.616199
1670929751.626904,,,,1.025325,1.026107,329982.000000,1670929751.617206
1670929751.627047,,,,1.026600,1.027982,329983.000000,1670929751.618213
1670929751.627279,,,,1.027802,1.027285,329984.000000,1670929751.619220
1670929751.627432,,,,1.031528,1.032333,329985.000000,1670929751.620227
1670929751.628314,,,,1.040567,1.042647,329986.000000,1670929751.621234
1670929751.628466,,,,1.055857,1.056062,329987.000000,1670929751.622241
1670929751.628582,,,,1.056722,1.054860,329988.000000,1670929751.623248
1670929751.628750,,,,1.037057,1.036805,329989.000000,1670929751.624255
1670929751.628878,,,,1.029508,1.033223,329990.000000,1670929751.625262
1670929751.629044,,,,1.040423,1.043584,329991.000000,1670929751.626269
1670929751.629268,,,,1.045471,1.046974,329992.000000,1670929751.627276
1670929751.629436,,,,1.038812,1.041974,329993.000000,1670929751.628284
1670929751.629566,,,,1.035254,1.037574,329994.000000,1670929751.629291
1670929751.632906,,,,1.029629,1.031155,329995.000000,1670929751.630298
1670929751.634366,,,,1.029124,1.031204,329996.000000,1670929751.631305
1670929751.634777,,,,1.027273,1.029569,329997.000000,1670929751.632312
1670929751.634888,,,,1.027633,1.029064,329998.000000,1670929751.633319
1670929751.635185,,,,1.033980,1.033752,329999.000000,1670929751.634326
1670929751.635195,,,,1.046121,1.046782,330000.000000,1670929751.635333
1670929751.635207,,,,1.044918,1.044931,330001.000000,1670929751.636340
1670929751.635367,,,,1.044269,1.041012,330002.000000,1670929751.637347
1670929751.642240,,,,1.055040,1.053177,330003.000000,1670929751.638354
1670929751.642242,,,,1.055376,1.054956,330004.000000,1670929751.639361
1670929751.642249,,,,1.051121,1.053032,330005.000000,1670929751.640368
1670929751.642251,,,,1.059583,1.063610,330006.000000,1670929751.641376
1670929751.642260,,,,1.080426,1.083540,330007.000000,1670929751.642383
1670929751.642262,,,,1.100356,1.101498,330008.000000,1670929751.643390
1670929751.642267,,,,1.082927,1.083083,330009.000000,1670929751.644397
1670929751.642275,,,,1.056410,1.054234,330010.000000,1670929751.645404
1670929751.642849,,,,1.042418,1.042791,330011.000000,1670929751.646411
1670929751.642853,,,,1.049390,1.050917,330012.000000,1670929751.647418
1670929751.643015,,,,1.054919,1.056446,330013.000000,1670929751.648425
1670929751.643106,,,,1.038307,1.040531,330014.000000,1670929751.649432
1670929751.648256,,,,1.019195,1.019039,330015.000000,1670929751.650439
1670929751.648266,,,,1.036096,1.037983,330016.000000,1670929751.651446
1670929751.648278,,,,1.060208,1.059836,330017.000000,1670929751.652453
1670929751.650233,,,,1.051481,1.055412,330018.000000,1670929751.653461
1670929751.650439,,,,1.038500,1.041325,330019.000000,1670929751.654468
1670929751.650450,,,,1.036528,1.038512,330020.000000,1670929751.655475
1670929751.664890,,,,1.039894,1.040195,330021.000000,1670929751.656482
1670929751.665653,,,,1.040158,1.043104,330022.000000,1670929751.657489
1670929751.666012,,,,1.038067,1.038993,330023.000000,1670929751.658496
1670929751.666026,,,,1.048044,1.045892,330024.000000,1670929751.659503
1670929751.666479,,,,1.046625,1.047623,330025.000000,1670929751.660510
1670929751.672081,,,,1.045039,1.047287,330026.000000,1670929751.661517
1670929751.672252,,,,1.050087,1.051133,330027.000000,1670929751.662524
1670929751.672356,,,,1.062059,1.060437,330028.000000,1670929751.663531
1670929751.675669,40.179207,112170.000000,1670929751.664300,,,,
1670929751.675700,40.179207,112171.000000,1670929751.665300,,,,
1670929751.675712,40.197296,112172.000000,1670929751.666300,,,,
1670929751.675728,40.215385,112173.000000,1670929751.667300,,,,
1670929751.675760,40.215385,112174.000000,1670929751.668300,,,,
1670929751.675778,40.215385,112175.000000,1670929751.669300,,,,
1670929751.675795,40.179207,112176.000000,1670929751.670300,,,,
1670929751.675806,40.179207,112177.000000,1670929751.671300,,,,
1670929751.675817,40.179207,112178.000000,1670929751.672300,,,,
1670929751.675832,40.161118,112179.000000,1670929751.673300,,,,
1670929751.678654,,,,1.076628,1.073683,330029.000000,1670929751.664538
1670929751.678667,,,,1.074969,1.079669,330030.000000,1670929751.665545
1670929751.678685,,,,1.072036,1.075799,330031.000000,1670929751.666553
1670929751.680827,,,,1.072397,1.072457,330032.000000,1670929751.667560
1670929751.681201,,,,1.075931,1.074789,330033.000000,1670929751.668567
1670929751.681442,,,,1.071916,1.073082,330034.000000,1670929751.669574
1670929751.681700,,,,1.069680,1.072553,330035.000000,1670929751.670581
1670929751.681823,,,,1.078287,1.080222,330036.000000,1670929751.671588
1670929751.681952,,,,1.095187,1.092892,330037.000000,1670929751.672595
1670929751.681966,,,,1.090451,1.093060,330038.000000,1670929751.673602
1670929751.685598,,,,1.083287,1.085872,330039.000000,1670929751.674609
1670929751.685612,,,,1.064031,1.063851,330040.000000,1670929751.675616
1670929751.685952,,,,1.051458,1.052624,330041.000000,1670929751.676623
1670929751.686185,,,,1.044462,1.042575,330042.000000,1670929751.677630
1670929751.687896,,,,1.039269,1.040099,330043.000000,1670929751.678638
1670929751.688065,,,,1.031456,1.032382,330044.000000,1670929751.679645
1670929751.688208,,,,1.021960,1.022573,330045.000000,1670929751.680652
1670929751.688420,,,,1.028763,1.026612,330046.000000,1670929751.681659
1670929751.693439,,,,1.029052,1.029088,330047.000000,1670929751.682666
1670929751.693929,,,,1.034365,1.036084,330048.000000,1670929751.683673
1670929751.693948,,,,1.042418,1.045339,330049.000000,1670929751.684680
1670929751.694293,,,,1.055184,1.055605,330050.000000,1670929751.685687
1670929751.694314,,,,1.057732,1.056735,330051.000000,1670929751.686694
1670929751.694322,,,,1.064872,1.065317,330052.000000,1670929751.687701
1670929751.696031,,,,1.068021,1.068707,330053.000000,1670929751.688708
1670929751.696101,,,,1.073791,1.073299,330054.000000,1670929751.689715
1670929751.696341,,,,1.081845,1.080847,330055.000000,1670929751.690722
1670929751.696412,,,,1.090307,1.090223,330056.000000,1670929751.691730
1670929751.696581,,,,1.087110,1.088805,330057.000000,1670929751.692737
1670929751.696589,,,,1.060905,1.061062,330058.000000,1670929751.693744
1670929751.696592,,,,1.031720,1.028126,330059.000000,1670929751.694751
1670929751.696921,,,,1.037682,1.037166,330060.000000,1670929751.695758
1670929751.696929,,,,1.052034,1.052071,330061.000000,1670929751.696765
1670929751.697101,,,,1.060304,1.058297,330062.000000,1670929751.697772
1670929751.697206,,,,1.068478,1.069981,330063.000000,1670929751.698779
1670929751.700756,,,,1.063189,1.065846,330064.000000,1670929751.699786
1670929751.700972,,,,1.056891,1.057263,330065.000000,1670929751.700793
1670929751.701136,,,,1.063622,1.062168,330066.000000,1670929751.701800
1670929751.701246,,,,1.069440,1.069692,330067.000000,1670929751.702807
1670929751.701255,,,,1.067060,1.066736,330068.000000,1670929751.703815
1670929751.701262,,,,1.053982,1.052600,330069.000000,1670929751.704822
1670929751.701267,,,,1.044197,1.044522,330070.000000,1670929751.705829
1670929751.701285,,,,1.045327,1.044738,330071.000000,1670929751.706836
1670929751.702766,,,,1.040976,1.041252,330072.000000,1670929751.707843
1670929751.702931,,,,1.036408,1.035026,330073.000000,1670929751.708850
1670929751.703017,,,,1.027393,1.027429,330074.000000,1670929751.709857
1670929751.708084,,,,1.039966,1.040387,330075.000000,1670929751.710864
1670929751.708509,,,,1.042274,1.042743,330076.000000,1670929751.711871
1670929751.708521,,,,1.040351,1.039353,330077.000000,1670929751.712878
1670929751.710419,,,,1.042683,1.043440,330078.000000,1670929751.713885
1670929751.710811,,,,1.046794,1.046878,330079.000000,1670929751.714892
1670929751.710822,,,,1.058982,1.055581,330080.000000,1670929751.715899
1670929751.710953,,,,1.067324,1.067072,330081.000000,1670929751.716907
1670929751.711133,,,,1.071627,1.074717,330082.000000,1670929751.717914
1670929751.724706,,,,1.070618,1.072337,330083.000000,1670929751.718921
1670929751.725459,,,,1.071531,1.070101,330084.000000,1670929751.719928
1670929751.731892,,,,1.068983,1.067793,330085.000000,1670929751.720935
1670929751.732056,,,,1.055304,1.055773,330086.000000,1670929751.721942
1670929751.732410,,,,1.040591,1.042166,330087.000000,1670929751.722949
1670929751.732483,,,,1.043620,1.045051,330088.000000,1670929751.723956
1670929751.738142,,,,1.053597,1.054307,330089.000000,1670929751.724963
1670929751.738198,,,,1.052924,1.052359,330090.000000,1670929751.725970
1670929751.738506,,,,1.049390,1.051061,330091.000000,1670929751.726977
1670929751.738698,,,,1.047539,1.050412,330092.000000,1670929751.727984
1670929751.740499,39.980221,112231.000000,1670929751.729510,,,,
1670929751.740516,39.998310,112232.000000,1670929751.730510,,,,
1670929751.740522,39.962132,112233.000000,1670929751.731510,,,,
1670929751.740532,39.980221,112234.000000,1670929751.732510,,,,
1670929751.740709,39.980221,112235.000000,1670929751.733510,,,,
1670929751.740722,39.980221,112236.000000,1670929751.734510,,,,
1670929751.740746,39.944035,112237.000000,1670929751.735510,,,,
1670929751.740760,39.925945,112238.000000,1670929751.736510,,,,
1670929751.740777,39.889767,112239.000000,1670929751.737510,,,,
1670929751.740783,,,,1.055761,1.056783,330093.000000,1670929751.728992
1670929751.740785,39.907856,112240.000000,1670929751.738510,,,,
1670929751.740793,,,,1.066266,1.063490,330094.000000,1670929751.729999
1670929751.740878,,,,1.076099,1.075727,330095.000000,1670929751.731006
1670929751.745475,,,,1.070906,1.071207,330096.000000,1670929751.732013
1670929751.745780,,,,1.064271,1.064836,330097.000000,1670929751.733020
1670929751.745865,,,,1.066122,1.065437,330098.000000,1670929751.734027
1670929751.748314,,,,1.062901,1.063009,330099.000000,1670929751.735034
1670929751.748386,,,,1.054727,1.055677,330100.000000,1670929751.736041
1670929751.748534,,,,1.043957,1.043609,330101.000000,1670929751.737048
1670929751.748723,,,,1.041481,1.041252,330102.000000,1670929751.738055
1670929751.748849,,,,1.043236,1.044137,330103.000000,1670929751.739062
1670929751.748991,,,,1.063141,1.061326,330104.000000,1670929751.740069
1670929751.749445,,,,1.077325,1.076760,330105.000000,1670929751.741076
1670929751.749460,,,,1.074993,1.077073,330106.000000,1670929751.742084
1670929751.753351,,,,1.075979,1.080270,330107.000000,1670929751.743091
1670929751.753512,,,,1.093432,1.097748,330108.000000,1670929751.744098
1670929751.753770,,,,1.109179,1.110513,330109.000000,1670929751.745105
1670929751.754319,,,,1.097111,1.096546,330110.000000,1670929751.746112
1670929751.754329,,,,1.079585,1.078756,330111.000000,1670929751.747119
1670929751.754351,,,,1.080691,1.079357,330112.000000,1670929751.748126
1670929751.754643,,,,1.085186,1.085872,330113.000000,1670929751.749133
1670929751.755889,,,,1.077373,1.078780,330114.000000,1670929751.750140
1670929751.756135,,,,1.059054,1.059043,330115.000000,1670929751.751147
1670929751.756340,,,,1.068094,1.068322,330116.000000,1670929751.752154
1670929751.756421,,,,1.077566,1.079068,330117.000000,1670929751.753161
1670929751.756432,,,,1.068069,1.066543,330118.000000,1670929751.754169
1670929751.756626,,,,1.042130,1.042094,330119.000000,1670929751.755176
1670929751.756781,,,,1.022176,1.020578,330120.000000,1670929751.756183
1670929751.760866,,,,1.023282,1.025218,330121.000000,1670929751.757190
1670929751.761356,,,,1.030374,1.031660,330122.000000,1670929751.758197
1670929751.761369,,,,1.027465,1.027694,330123.000000,1670929751.759204
1670929751.761382,,,,1.026047,1.026804,330124.000000,1670929751.760211
1670929751.761588,,,,1.034870,1.037238,330125.000000,1670929751.761218
1670929751.761614,,,,1.039894,1.037887,330126.000000,1670929751.762225
1670929751.761936,,,,1.042779,1.042959,330127.000000,1670929751.763232
1670929751.762809,,,,1.020950,1.020818,330128.000000,1670929751.764239
1670929751.762955,,,,1.022441,1.022044,330129.000000,1670929751.765246
1670929751.763152,,,,1.048909,1.047984,330130.000000,1670929751.766253
1670929751.768501,,,,1.059992,1.061134,330131.000000,1670929751.767261
1670929751.768524,,,,1.065112,1.064692,330132.000000,1670929751.768268
1670929751.768939,,,,1.064199,1.065005,330133.000000,1670929751.769275
1670929751.769236,,,,1.066242,1.065870,330134.000000,1670929751.770282
1670929751.771531,,,,1.074969,1.074717,330135.000000,1670929751.771289
1670929751.771769,,,,1.085667,1.083900,330136.000000,1670929751.772296
1670929751.772542,,,,1.101702,1.101739,330137.000000,1670929751.773303
1670929751.773102,,,,1.113698,1.112316,330138.000000,1670929751.774310
1670929751.773360,,,,1.093841,1.095536,330139.000000,1670929751.775317
1670929751.773387,,,,1.066339,1.070726,330140.000000,1670929751.776324
1670929751.773673,,,,1.057876,1.057817,330141.000000,1670929751.777331
1670929751.773837,,,,1.052660,1.050869,330142.000000,1670929751.778338
1670929751.773856,,,,1.046553,1.043777,330143.000000,1670929751.779346
1670929751.773870,,,,1.040375,1.040555,330144.000000,1670929751.780353
1670929751.773898,,,,1.039389,1.036829,330145.000000,1670929751.781360
1670929751.774066,,,,1.041986,1.037959,330146.000000,1670929751.782367
1670929751.774328,,,,1.043957,1.043007,330147.000000,1670929751.783374
1670929751.774626,,,,1.046169,1.046061,330148.000000,1670929751.784381
1670929751.774727,,,,1.048044,1.049907,330149.000000,1670929751.785388
1670929751.784912,,,,1.050808,1.051686,330150.000000,1670929751.786395
1670929751.784937,,,,1.055136,1.055052,330151.000000,1670929751.787402
1670929751.785173,,,,1.058285,1.058417,330152.000000,1670929751.788409
1670929751.785186,,,,1.060737,1.061759,330153.000000,1670929751.789416
1670929751.791875,,,,1.062877,1.061399,330154.000000,1670929751.790423
1670929751.792326,,,,1.063141,1.063947,330155.000000,1670929751.791430
1670929751.792474,,,,1.063574,1.065942,330156.000000,1670929751.792438
1670929751.792487,,,,1.058573,1.060990,330157.000000,1670929751.793445
1670929751.792494,,,,1.056650,1.057384,330158.000000,1670929751.794452
1670929751.792552,,,,1.060232,1.060317,330159.000000,1670929751.795459
1670929751.793605,39.564148,112278.000000,1670929751.769396,,,,
1670929751.793746,39.527962,112279.000000,1670929751.770396,,,,
1670929751.793806,39.419426,112280.000000,1670929751.771396,,,,
1670929751.794141,39.473694,112281.000000,1670929751.772396,,,,
1670929751.794150,39.419426,112282.000000,1670929751.773396,,,,
1670929751.794158,39.401337,112283.000000,1670929751.774396,,,,
1670929751.794167,39.383240,112284.000000,1670929751.775396,,,,
1670929751.794172,39.365150,112285.000000,1670929751.776396,,,,
1670929751.794180,39.383240,112286.000000,1670929751.777395,,,,
1670929751.794185,39.365150,112287.000000,1670929751.778396,,,,
1670929751.794202,39.274704,112292.000000,1670929751.783396,,,,
1670929751.794208,39.310883,112293.000000,1670929751.784396,,,,
1670929751.794225,39.310883,112294.000000,1670929751.785396,,,,
1670929751.794230,39.292793,112295.000000,1670929751.786396,,,,
1670929751.794233,39.202339,112296.000000,1670929751.787395,,,,
1670929751.794239,39.238518,112297.000000,1670929751.788396,,,,
1670929751.794269,39.220428,112298.000000,1670929751.789396,,,,
1670929751.794276,39.202339,112299.000000,1670929751.790395,,,,
1670929751.794291,39.148075,112300.000000,1670929751.791396,,,,
1670929751.794295,39.184250,112301.000000,1670929751.792396,,,,
1670929751.798826,,,,1.062468,1.063466,330160.000000,1670929751.796466
1670929751.798943,,,,1.066771,1.066399,330161.000000,1670929751.797473
1670929751.798977,,,,1.068863,1.068539,330162.000000,1670929751.798480
1670929751.798983,,,,1.064656,1.066303,330163.000000,1670929751.799487
1670929751.798992,,,,1.062420,1.063274,330164.000000,1670929751.800494
1670929751.798997,,,,1.063983,1.062456,330165.000000,1670929751.801501
1670929751.799001,,,,1.061098,1.061230,330166.000000,1670929751.802508
1670929751.800524,,,,1.049390,1.052864,330167.000000,1670929751.803515
1670929751.800531,,,,1.050832,1.054186,330168.000000,1670929751.804523
1670929751.800656,,,,1.059247,1.063322,330169.000000,1670929751.805530
1670929751.800876,,,,1.064704,1.067986,330170.000000,1670929751.806537
1670929751.805574,,,,1.068767,1.067721,330171.000000,1670929751.807544
1670929751.806059,,,,1.075546,1.075029,330172.000000,1670929751.808551
1670929751.806076,,,,1.078191,1.080246,330173.000000,1670929751.809558
1670929751.806093,,,,1.075859,1.075078,330174.000000,1670929751.810565
1670929751.808186,,,,1.084008,1.085319,330175.000000,1670929751.811572
1670929751.808762,,,,1.105453,1.106402,330176.000000,1670929751.812579
1670929751.809104,,,,1.115838,1.116620,330177.000000,1670929751.813586
1670929751.809125,,,,1.125526,1.123423,330178.000000,1670929751.814593
1670929751.809526,,,,1.142763,1.141381,330179.000000,1670929751.815600
1670929751.809552,,,,1.148990,1.150517,330180.000000,1670929751.816607
1670929751.814275,,,,1.145528,1.145997,330181.000000,1670929751.817615
1670929751.814754,,,,1.136224,1.135564,330182.000000,1670929751.818622
1670929751.815134,,,,1.126704,1.123808,330183.000000,1670929751.819629
1670929751.815180,,,,1.101919,1.101979,330184.000000,1670929751.820636
1670929751.815439,,,,1.057083,1.055436,330185.000000,1670929751.821643
1670929751.815453,,,,1.007391,1.005120,330186.000000,1670929751.822650
1670929751.815791,,,,1.017777,1.016130,330187.000000,1670929751.823657
1670929751.815865,,,,1.030278,1.030699,330188.000000,1670929751.824664
1670929751.816102,,,,1.031167,1.033031,330189.000000,1670929751.825671
1670929751.816484,,,,1.031624,1.031107,330190.000000,1670929751.826678
1670929751.816758,,,,1.036480,1.039353,330191.000000,1670929751.827685
1670929751.820475,,,,1.047803,1.046830,330192.000000,1670929751.828692
1670929751.820681,,,,1.051674,1.050340,330193.000000,1670929751.829700
1670929751.821103,,,,1.048356,1.048224,330194.000000,1670929751.830707
1670929751.821158,,,,1.048501,1.049234,330195.000000,1670929751.831714
1670929751.823510,,,,1.054294,1.056254,330196.000000,1670929751.832721
1670929751.823530,,,,1.052876,1.054355,330197.000000,1670929751.833728
1670929751.824059,,,,1.050881,1.052624,330198.000000,1670929751.834735
1670929751.824073,,,,1.048260,1.051686,330199.000000,1670929751.835742
1670929751.824084,,,,1.059391,1.060269,330200.000000,1670929751.836749
1670929751.824180,,,,1.078287,1.078588,330201.000000,1670929751.837756
1670929751.824187,,,,1.085186,1.084886,330202.000000,1670929751.838763
1670929751.828186,,,,1.094418,1.093108,330203.000000,1670929751.839770
1670929751.828386,,,,1.096942,1.096858,330204.000000,1670929751.840777
1670929751.828824,,,,1.087590,1.087482,330205.000000,1670929751.841784
1670929751.830488,,,,1.095452,1.096594,330206.000000,1670929751.842792
1670929751.830860,,,,1.093408,1.096546,330207.000000,1670929751.843799
1670929751.831091,,,,1.067661,1.068635,330208.000000,1670929751.844806
1670929751.831353,,,,1.045640,1.045147,330209.000000,1670929751.845813
1670929751.831563,,,,1.045736,1.045676,330210.000000,1670929751.846820
1670929751.844262,,,,1.048332,1.049426,330211.000000,1670929751.847827
1670929751.844857,,,,1.043764,1.044378,330212.000000,1670929751.848834
1670929751.855316,,,,1.042683,1.044546,330213.000000,1670929751.849841
1670929751.855446,,,,1.050472,1.052912,330214.000000,1670929751.850848
1670929751.855455,,,,1.060689,1.059932,330215.000000,1670929751.851855
1670929751.855475,,,,1.059463,1.060677,330216.000000,1670929751.852862
1670929751.855522,,,,1.057371,1.057191,330217.000000,1670929751.853869
1670929751.855612,,,,1.054919,1.056062,330218.000000,1670929751.854877
1670929751.855702,,,,1.050592,1.051638,330219.000000,1670929751.855884
1670929751.855815,,,,1.051193,1.050604,330220.000000,1670929751.856891
1670929751.857580,38.569191,112353.000000,1670929751.847187,,,,
1670929751.857593,38.496826,112354.000000,1670929751.848187,,,,
1670929751.857598,38.533005,112355.000000,1670929751.849187,,,,
1670929751.857602,38.496826,112356.000000,1670929751.850187,,,,
1670929751.857606,38.442558,112357.000000,1670929751.851187,,,,
1670929751.857614,38.533005,112358.000000,1670929751.852187,,,,
1670929751.857646,38.460648,112359.000000,1670929751.853187,,,,
1670929751.857649,38.478737,112360.000000,1670929751.854187,,,,
1670929751.857671,38.478737,112361.000000,1670929751.855187,,,,
1670929751.857674,38.496826,112362.000000,1670929751.856187,,,,
1670929751.858244,,,,1.049895,1.048657,330221.000000,1670929751.857898
1670929751.858418,,,,1.048020,1.048537,330222.000000,1670929751.858905
1670929751.858556,,,,1.050352,1.050484,330223.000000,1670929751.859912
1670929751.858858,,,,1.048957,1.051061,330224.000000,1670929751.860919
1670929751.859232,,,,1.051530,1.051301,330225.000000,1670929751.861926
1670929751.859405,,,,1.050279,1.053465,330226.000000,1670929751.862933
1670929751.859605,,,,1.059727,1.063322,330227.000000,1670929751.863940
1670929751.859617,,,,1.079513,1.080919,330228.000000,1670929751.864947
1670929751.862481,,,,1.100308,1.103710,330229.000000,1670929751.865954
1670929751.863125,,,,1.109900,1.114336,330230.000000,1670929751.866961
1670929751.863380,,,,1.113747,1.112773,330231.000000,1670929751.867969
1670929751.863654,,,,1.108698,1.106955,330232.000000,1670929751.868976
1670929751.863667,,,,1.103962,1.104720,330233.000000,1670929751.869983
1670929751.863676,,,,1.107953,1.109263,330234.000000,1670929751.870990
1670929751.864181,,,,1.085932,1.087482,330235.000000,1670929751.871997
1670929751.864268,,,,1.057227,1.058442,330236.000000,1670929751.873004
1670929751.864284,,,,1.050063,1.049018,330237.000000,1670929751.874011
1670929751.865822,,,,1.055088,1.053393,330238.000000,1670929751.875018
1670929751.866540,,,,1.058958,1.058297,330239.000000,1670929751.876025
1670929751.866611,,,,1.061891,1.062432,330240.000000,1670929751.877032
1670929751.866619,,,,1.059415,1.059355,330241.000000,1670929751.878039
1670929751.866624,,,,1.053693,1.053056,330242.000000,1670929751.879046
1670929751.866629,,,,1.045640,1.047094,330243.000000,1670929751.880054
1670929751.866662,,,,1.045832,1.050172,330244.000000,1670929751.881061
1670929751.870050,,,,1.052635,1.054427,330245.000000,1670929751.882068
1670929751.870222,,,,1.054847,1.053778,330246.000000,1670929751.883075
1670929751.870641,,,,1.054342,1.053970,330247.000000,1670929751.884082
1670929751.870655,,,,1.051914,1.053465,330248.000000,1670929751.885089
1670929751.870673,,,,1.054222,1.053225,330249.000000,1670929751.886096
1670929751.870823,,,,1.051866,1.050989,330250.000000,1670929751.887103
1670929751.871118,,,,1.051169,1.051782,330251.000000,1670929751.888110
1670929751.871315,,,,1.057395,1.057744,330252.000000,1670929751.889117
1670929751.873530,,,,1.065185,1.063730,330253.000000,1670929751.890124
1670929751.873544,,,,1.068671,1.068418,330254.000000,1670929751.891131
1670929751.873911,,,,1.076892,1.076496,330255.000000,1670929751.892138
1670929751.874038,,,,1.080090,1.079309,330256.000000,1670929751.893146
