__time,/gdx/grip_force_stream/grip_force,/gdx/grip_force_stream/header/seq,/gdx/grip_force_stream/header/stamp,/shimmer0/emg_stream/emg_ch1,/shimmer0/emg_stream/emg_ch2,/shimmer0/emg_stream/header/seq,/shimmer0/emg_stream/header/stamp
1670930376.194775,,,,-10.223461,-10.227608,949605.000000,1670929864.199206
1670930376.194808,,,,-10.223942,-10.229627,949606.000000,1670929864.200213
1670930376.194816,,,,-10.220456,-10.226045,949607.000000,1670929864.201221
1670930376.196541,,,,-10.217643,-10.223521,949608.000000,1670929864.202228
1670930376.196890,,,,-10.220480,-10.224483,949609.000000,1670929864.203235
1670930376.196910,,,,-10.222812,-10.227752,949610.000000,1670929864.204242
1670930376.201651,,,,-10.226274,-10.231647,949611.000000,1670929864.205249
1670930376.201977,,,,-10.229784,-10.235181,949612.000000,1670929864.206256
1670930376.202207,,,,-10.232116,-10.235998,949613.000000,1670929864.207263
1670930376.202390,,,,-10.233317,-10.237176,949614.000000,1670929864.208270
1670930376.204374,,,,-10.234664,-10.237609,949615.000000,1670929864.209277
1670930376.204486,,,,-10.232163,-10.236983,949616.000000,1670929864.210284
1670930376.204811,,,,-10.249208,-10.252345,949617.000000,1670929864.211291
1670930376.205229,,,,-10.266470,-10.270520,949618.000000,1670929864.212298
1670930376.205637,,,,-10.271734,-10.274078,949619.000000,1670929864.213305
1670930376.205655,,,,-10.265700,-10.267828,949620.000000,1670929864.214313
1670930376.205714,,,,-10.252310,-10.254413,949621.000000,1670929864.215320
1670930376.209309,,,,-10.232284,-10.236647,949622.000000,1670929864.216327
1670930376.209335,,,,-10.227813,-10.230493,949623.000000,1670929864.217334
1670930376.209673,,,,-10.222788,-10.226310,949624.000000,1670929864.218341
1670930376.211309,,,,-10.204854,-10.208303,949625.000000,1670929864.219348
1670930376.211442,,,,-10.187280,-10.191066,949626.000000,1670929864.220355
1670930376.211555,,,,-10.198435,-10.203856,949627.000000,1670929864.221362
1670930376.211588,,,,-10.223749,-10.228449,949628.000000,1670929864.222369
1670930376.225173,,,,-10.235168,-10.237296,949629.000000,1670929864.223376
1670930376.225444,,,,-10.233871,-10.236599,949630.000000,1670929864.224383
1670930376.225452,,,,-10.221874,-10.225468,949631.000000,1670929864.225390
1670930376.232706,,,,-10.220648,-10.223425,949632.000000,1670929864.226398
1670930376.232716,,,,-10.224687,-10.228594,949633.000000,1670929864.227405
1670930376.232949,,,,-10.226250,-10.230276,949634.000000,1670929864.228412
1670930376.232960,,,,-10.230385,-10.235205,949635.000000,1670929864.229419
1670930376.238749,,,,-10.241804,-10.246864,949636.000000,1670929864.230426
1670930376.238795,0.507563,734248.000000,1670930376.228548,,,,
1670930376.238801,0.471385,734249.000000,1670930376.229548,,,,
1670930376.238811,0.489474,734250.000000,1670930376.230548,,,,
1670930376.238823,0.489474,734251.000000,1670930376.231548,,,,
1670930376.238893,0.543750,734252.000000,1670930376.232548,,,,
1670930376.238900,0.525652,734253.000000,1670930376.233548,,,,
1670930376.238906,0.579928,734254.000000,1670930376.234548,,,,
1670930376.238911,0.507563,734255.000000,1670930376.235548,,,,
1670930376.238922,0.543750,734256.000000,1670930376.236548,,,,
1670930376.238929,0.507563,734257.000000,1670930376.237548,,,,
1670930376.239202,,,,-10.242814,-10.246648,949637.000000,1670929864.231433
1670930376.239211,,,,-10.228148,-10.231406,949638.000000,1670929864.232440
1670930376.239268,,,,-10.220360,-10.224434,949639.000000,1670929864.233447
1670930376.241061,,,,-10.225697,-10.228882,949640.000000,1670929864.234454
1670930376.241195,,,,-10.231178,-10.234675,949641.000000,1670929864.235461
1670930376.241398,,,,-10.230673,-10.233907,949642.000000,1670929864.236468
1670930376.246393,,,,-10.227740,-10.229603,949643.000000,1670929864.237475
1670930376.246400,,,,-10.221105,-10.221934,949644.000000,1670929864.238482
1670930376.246404,,,,-10.214326,-10.216933,949645.000000,1670929864.239490
1670930376.249423,,,,-10.210912,-10.215178,949646.000000,1670929864.240497
1670930376.249445,,,,-10.215480,-10.219362,949647.000000,1670929864.241504
1670930376.250429,,,,-10.221561,-10.224699,949648.000000,1670929864.242511
1670930376.250451,,,,-10.222451,-10.226646,949649.000000,1670929864.243518
1670930376.250468,,,,-10.222331,-10.222919,949650.000000,1670929864.244525
1670930376.251143,,,,-10.223437,-10.225444,949651.000000,1670929864.245532
1670930376.251158,,,,-10.225745,-10.228088,949652.000000,1670929864.246539
1670930376.254065,,,,-10.227716,-10.229892,949653.000000,1670929864.247546
1670930376.254368,,,,-10.225529,-10.228329,949654.000000,1670929864.248553
1670930376.254738,,,,-10.226874,-10.228449,949655.000000,1670929864.249560
1670930376.254815,,,,-10.237285,-10.239772,949656.000000,1670929864.250567
1670930376.256416,,,,-10.241732,-10.247201,949657.000000,1670929864.251575
1670930376.256425,,,,-10.242477,-10.247561,949658.000000,1670929864.252582
1670930376.256685,,,,-10.258945,-10.263356,949659.000000,1670929864.253589
1670930376.256758,,,,-10.263272,-10.266602,949660.000000,1670929864.254596
1670930376.256891,,,,-10.253680,-10.255279,949661.000000,1670929864.255603
1670930376.256992,,,,-10.247838,-10.249269,949662.000000,1670929864.256610
1670930376.257035,,,,-10.243847,-10.248115,949663.000000,1670929864.257617
1670930376.261699,,,,-10.241684,-10.245687,949664.000000,1670929864.258624
1670930376.261759,,,,-10.241828,-10.243186,949665.000000,1670929864.259631
1670930376.261851,,,,-10.240001,-10.245638,949666.000000,1670929864.260638
1670930376.262005,,,,-10.231395,-10.235613,949667.000000,1670929864.261645
1670930376.262093,,,,-10.223774,-10.224723,949668.000000,1670929864.262652
1670930376.262210,,,,-10.220407,-10.222535,949669.000000,1670929864.263659
1670930376.262323,,,,-10.217812,-10.222198,949670.000000,1670929864.264667
1670930376.262408,,,,-10.221057,-10.226190,949671.000000,1670929864.265674
1670930376.266116,,,,-10.227571,-10.232080,949672.000000,1670929864.266681
1670930376.266381,,,,-10.227451,-10.231046,949673.000000,1670929864.267688
1670930376.266561,,,,-10.227860,-10.232968,949674.000000,1670929864.268695
1670930376.266870,,,,-10.232669,-10.237103,949675.000000,1670929864.269702
1670930376.266881,,,,-10.235145,-10.238570,949676.000000,1670929864.270709
1670930376.266891,,,,-10.238126,-10.240205,949677.000000,1670929864.271716
1670930376.267117,,,,-10.235072,-10.237993,949678.000000,1670929864.272723
1670930376.267341,,,,-10.234400,-10.238450,949679.000000,1670929864.273730
1670930376.267579,,,,-10.225817,-10.231237,949680.000000,1670929864.274737
1670930376.267712,,,,-10.213364,-10.219073,949681.000000,1670929864.275744
1670930376.267967,,,,-10.202209,-10.209217,949682.000000,1670929864.276752
1670930376.268259,,,,-10.209373,-10.213544,949683.000000,1670929864.277759
1670930376.268396,,,,-10.226057,-10.231719,949684.000000,1670929864.278766
1670930376.268573,,,,-10.234471,-10.241407,949685.000000,1670929864.279773
1670930376.268687,,,,-10.229111,-10.235181,949686.000000,1670929864.280780
1670930376.268799,,,,-10.219086,-10.223449,949687.000000,1670929864.281787
1670930376.269037,,,,-10.213172,-10.219434,949688.000000,1670929864.282794
1670930376.269216,,,,-10.212835,-10.217463,949689.000000,1670929864.283801
1670930376.269389,,,,-10.219831,-10.223689,949690.000000,1670929864.284808
1670930376.269763,,,,-10.222884,-10.226646,949691.000000,1670929864.285815
1670930376.269905,,,,-10.224928,-10.227488,949692.000000,1670929864.286822
1670930376.269921,,,,-10.234063,-10.236359,949693.000000,1670929864.287829
1670930376.270153,,,,-10.250315,-10.252514,949694.000000,1670929864.288836
1670930376.270161,,,,-10.257430,-10.258764,949695.000000,1670929864.289844
1670930376.270169,,,,-10.260315,-10.261048,949696.000000,1670929864.290851
1670930376.270268,,,,-10.254209,-10.256433,949697.000000,1670929864.291858
1670930376.270547,,,,-10.240962,-10.245301,949698.000000,1670929864.292865
1670930376.270636,,,,-10.231827,-10.234219,949699.000000,1670929864.293872
1670930376.270725,,,,-10.224855,-10.226911,949700.000000,1670929864.294879
1670930376.278255,,,,-10.218389,-10.222295,949701.000000,1670929864.295886
1670930376.278465,,,,-10.211561,-10.214674,949702.000000,1670929864.296893
1670930376.278546,,,,-10.212090,-10.212486,949703.000000,1670929864.297900
1670930376.278708,,,,-10.222211,-10.222271,949704.000000,1670929864.298907
1670930376.279003,,,,-10.221538,-10.224603,949705.000000,1670929864.299914
1670930376.279025,,,,-10.220648,-10.226165,949706.000000,1670929864.300921
1670930376.279033,,,,-10.224062,-10.226526,949707.000000,1670929864.301929
1670930376.279316,,,,-10.220336,-10.223953,949708.000000,1670929864.302936
1670930376.279731,,,,-10.218966,-10.221549,949709.000000,1670929864.303943
1670930376.285854,,,,-10.218917,-10.220877,949710.000000,1670929864.304950
1670930376.286128,,,,-10.226418,-10.227391,949711.000000,1670929864.305957
1670930376.286158,,,,-10.237476,-10.241503,949712.000000,1670929864.306964
1670930376.286308,,,,-10.241972,-10.246480,949713.000000,1670929864.307971
1670930376.286527,,,,-10.245650,-10.247754,949714.000000,1670929864.308978
1670930376.286904,,,,-10.247141,-10.248859,949715.000000,1670929864.309985
1670930376.287071,,,,-10.241708,-10.244917,949716.000000,1670929864.310992
1670930376.287088,,,,-10.240602,-10.244700,949717.000000,1670929864.311999
1670930376.291841,,,,-10.241755,-10.246360,949718.000000,1670929864.313006
1670930376.291988,,,,-10.232524,-10.236863,949719.000000,1670929864.314013
1670930376.292006,0.543750,734258.000000,1670930376.230622,,,,
1670930376.292076,0.598017,734259.000000,1670930376.231622,,,,
1670930376.292086,0.489474,734260.000000,1670930376.232622,,,,
1670930376.292141,0.561839,734261.000000,1670930376.233622,,,,
1670930376.292150,0.543750,734262.000000,1670930376.234622,,,,
1670930376.292408,,,,-10.219783,-10.221213,949720.000000,1670929864.315021
1670930376.292640,,,,-10.214998,-10.216645,949721.000000,1670929864.316028
1670930376.292922,,,,-10.215431,-10.219266,949722.000000,1670929864.317035
1670930376.293068,0.507563,734263.000000,1670930376.235622,,,,
1670930376.293184,,,,-10.219735,-10.221622,949723.000000,1670929864.318042
1670930376.293235,,,,-10.218725,-10.221766,949724.000000,1670929864.319049
1670930376.293807,0.561839,734264.000000,1670930376.236622,,,,
1670930376.293827,0.561839,734265.000000,1670930376.237622,,,,
1670930376.294315,0.543750,734266.000000,1670930376.238622,,,,
1670930376.294338,0.688470,734309.000000,1670930376.281622,,,,
1670930376.294348,0.652284,734310.000000,1670930376.282622,,,,
1670930376.294355,0.634195,734311.000000,1670930376.283622,,,,
1670930376.294375,0.652284,734312.000000,1670930376.284622,,,,
1670930376.294386,0.652284,734313.000000,1670930376.285622,,,,
1670930376.294430,0.688470,734314.000000,1670930376.286622,,,,
1670930376.294438,0.706559,734315.000000,1670930376.287622,,,,
1670930376.294445,0.652284,734316.000000,1670930376.288622,,,,
1670930376.294463,0.688470,734317.000000,1670930376.289622,,,,
1670930376.294491,0.652284,734318.000000,1670930376.290622,,,,
1670930376.294653,,,,-10.218316,-10.222919,949725.000000,1670929864.320056
1670930376.294887,,,,-10.218292,-10.220757,949726.000000,1670929864.321063
1670930376.295183,,,,-10.216081,-10.217992,949727.000000,1670929864.322070
1670930376.295492,,,,-10.218845,-10.221790,949728.000000,1670929864.323077
1670930376.295516,,,,-10.222043,-10.224073,949729.000000,1670929864.324084
1670930376.295547,,,,-10.220720,-10.224627,949730.000000,1670929864.325091
1670930376.295744,,,,-10.223076,-10.227078,949731.000000,1670929864.326098
1670930376.295978,,,,-10.226851,-10.230926,949732.000000,1670929864.327106
1670930376.296216,,,,-10.233534,-10.239051,949733.000000,1670929864.328113
1670930376.296402,,,,-10.235481,-10.239772,949734.000000,1670929864.329120
1670930376.299388,,,,-10.237669,-10.241551,949735.000000,1670929864.330127
1670930376.299404,,,,-10.238366,-10.243979,949736.000000,1670929864.331134
1670930376.299597,,,,-10.230505,-10.235205,949737.000000,1670929864.332141
1670930376.299606,,,,-10.227139,-10.230108,949738.000000,1670929864.333148
1670930376.299615,,,,-10.237885,-10.241623,949739.000000,1670929864.334155
1670930376.299783,,,,-10.243631,-10.247201,949740.000000,1670929864.335162
1670930376.300149,,,,-10.238270,-10.239147,949741.000000,1670929864.336169
1670930376.300159,,,,-10.228702,-10.230949,949742.000000,1670929864.337176
1670930376.301714,,,,-10.219999,-10.225372,949743.000000,1670929864.338183
1670930376.301769,,,,-10.225576,-10.229195,949744.000000,1670929864.339190
1670930376.301777,,,,-10.236395,-10.239652,949745.000000,1670929864.340198
1670930376.301810,,,,-10.237765,-10.240469,949746.000000,1670929864.341205
1670930376.301820,,,,-10.228341,-10.233954,949747.000000,1670929864.342212
1670930376.301825,,,,-10.227788,-10.234796,949748.000000,1670929864.343219
1670930376.306271,,,,-10.227596,-10.232080,949749.000000,1670929864.344226
1670930376.306579,,,,-10.228534,-10.233185,949750.000000,1670929864.345233
1670930376.306591,,,,-10.229856,-10.232056,949751.000000,1670929864.346240
1670930376.306865,,,,-10.223365,-10.224843,949752.000000,1670929864.347247
1670930376.309117,,,,-10.218629,-10.220997,949753.000000,1670929864.348254
1670930376.309828,,,,-10.223894,-10.224242,949754.000000,1670929864.349261
1670930376.309960,,,,-10.225432,-10.227175,949755.000000,1670929864.350268
1670930376.309968,,,,-10.225168,-10.229171,949756.000000,1670929864.351275
1670930376.310050,,,,-10.228630,-10.232512,949757.000000,1670929864.352283
1670930376.310094,,,,-10.227620,-10.232440,949758.000000,1670929864.353290
1670930376.310217,,,,-10.228028,-10.230083,949759.000000,1670929864.354297
1670930376.313878,,,,-10.224591,-10.227728,949760.000000,1670929864.355304
1670930376.314022,,,,-10.218004,-10.220275,949761.000000,1670929864.356311
1670930376.314272,,,,-10.217668,-10.220516,949762.000000,1670929864.357318
1670930376.314351,,,,-10.218845,-10.223449,949763.000000,1670929864.358325
1670930376.316192,,,,-10.217475,-10.221141,949764.000000,1670929864.359332
1670930376.316203,,,,-10.214206,-10.215948,949765.000000,1670929864.360339
1670930376.316207,,,,-10.217379,-10.220516,949766.000000,1670929864.361346
1670930376.316268,,,,-10.216994,-10.220997,949767.000000,1670929864.362353
1670930376.321603,,,,-10.216152,-10.221645,949768.000000,1670929864.363360
1670930376.321791,,,,-10.216922,-10.221742,949769.000000,1670929864.364367
1670930376.322232,,,,-10.222980,-10.224339,949770.000000,1670929864.365375
1670930376.322511,,,,-10.229351,-10.230204,949771.000000,1670929864.366382
1670930376.323750,,,,-10.229255,-10.230949,949772.000000,1670929864.367389
1670930376.324355,,,,-10.231827,-10.235205,949773.000000,1670929864.368396
1670930376.324596,,,,-10.244665,-10.246912,949774.000000,1670929864.369403
1670930376.338285,,,,-10.258392,-10.262058,949775.000000,1670929864.370410
1670930376.338314,,,,-10.265532,-10.272082,949776.000000,1670929864.371417
1670930376.338751,,,,-10.258921,-10.262515,949777.000000,1670929864.372424
1670930376.339172,,,,-10.252814,-10.255615,949778.000000,1670929864.373431
1670930376.345381,,,,-10.259305,-10.262490,949779.000000,1670929864.374438
1670930376.345868,,,,-10.272047,-10.274992,949780.000000,1670929864.375445
1670930376.346363,,,,-10.269379,-10.274246,949781.000000,1670929864.376452
1670930376.346446,,,,-10.250892,-10.255279,949782.000000,1670929864.377460
1670930376.346580,,,,-10.224735,-10.228232,949783.000000,1670929864.378467
1670930376.346674,,,,-10.200574,-10.205610,949784.000000,1670929864.379474
1670930376.348410,0.706559,734370.000000,1670930376.337310,,,,
1670930376.348423,0.778916,734371.000000,1670930376.338310,,,,
1670930376.348433,0.797005,734372.000000,1670930376.339310,,,,
1670930376.348440,0.760827,734373.000000,1670930376.340310,,,,
1670930376.348447,0.797005,734374.000000,1670930376.341310,,,,
1670930376.348453,0.778916,734375.000000,1670930376.342310,,,,
1670930376.348485,0.778916,734376.000000,1670930376.343310,,,,
1670930376.348495,0.778916,734377.000000,1670930376.344310,,,,
1670930376.348504,0.797005,734378.000000,1670930376.345310,,,,
1670930376.348529,0.815102,734379.000000,1670930376.346310,,,,
1670930376.351785,,,,-10.188963,-10.194167,949785.000000,1670929864.380481
1670930376.351964,,,,-10.200093,-10.205947,949786.000000,1670929864.381488
1670930376.352046,,,,-10.208893,-10.213256,949787.000000,1670929864.382495
1670930376.352123,,,,-10.227019,-10.231647,949788.000000,1670929864.383502
1670930376.352279,,,,-10.237885,-10.243907,949789.000000,1670929864.384509
1670930376.352533,,,,-10.237116,-10.243138,949790.000000,1670929864.385516
1670930376.352560,,,,-10.235769,-10.238066,949791.000000,1670929864.386523
1670930376.352674,,,,-10.235842,-10.240061,949792.000000,1670929864.387530
1670930376.353913,,,,-10.236563,-10.241839,949793.000000,1670929864.388537
1670930376.354121,,,,-10.233991,-10.238186,949794.000000,1670929864.389544
1670930376.354462,,,,-10.230024,-10.233545,949795.000000,1670929864.390552
1670930376.354564,,,,-10.221658,-10.225083,949796.000000,1670929864.391559
1670930376.354578,,,,-10.216634,-10.218737,949797.000000,1670929864.392566
1670930376.354612,,,,-10.212619,-10.215684,949798.000000,1670929864.393573
1670930376.354619,,,,-10.205503,-10.211260,949799.000000,1670929864.394580
1670930376.358891,,,,-10.203003,-10.210491,949800.000000,1670929864.395587
1670930376.359273,,,,-10.209998,-10.214962,949801.000000,1670929864.396594
1670930376.359503,,,,-10.214206,-10.218424,949802.000000,1670929864.397601
1670930376.359739,,,,-10.220889,-10.222319,949803.000000,1670929864.398608
1670930376.361072,,,,-10.225384,-10.226501,949804.000000,1670929864.399615
1670930376.361403,,,,-10.215263,-10.220107,949805.000000,1670929864.400622
1670930376.366415,,,,-10.213436,-10.217559,949806.000000,1670929864.401629
1670930376.366595,,,,-10.225336,-10.227488,949807.000000,1670929864.402637
1670930376.367014,,,,-10.257479,-10.259702,949808.000000,1670929864.403644
1670930376.367316,,,,-10.292409,-10.294320,949809.000000,1670929864.404651
1670930376.369193,,,,-10.303732,-10.307494,949810.000000,1670929864.405658
1670930376.369436,,,,-10.295463,-10.296821,949811.000000,1670929864.406665
1670930376.369470,,,,-10.271518,-10.274632,949812.000000,1670929864.407672
1670930376.369484,,,,-10.241107,-10.242465,949813.000000,1670929864.408679
1670930376.376569,,,,-10.219374,-10.222222,949814.000000,1670929864.409686
1670930376.376643,,,,-10.202497,-10.204649,949815.000000,1670929864.410693
1670930376.377168,,,,-10.181222,-10.184839,949816.000000,1670929864.411700
1670930376.381575,,,,-10.166725,-10.168756,949817.000000,1670929864.412707
1670930376.382164,,,,-10.185020,-10.186499,949818.000000,1670929864.413714
1670930376.382463,,,,-10.203940,-10.207534,949819.000000,1670929864.414721
1670930376.382526,,,,-10.215215,-10.220180,949820.000000,1670929864.415729
1670930376.384286,,,,-10.214638,-10.219723,949821.000000,1670929864.416736
1670930376.385127,,,,-10.216850,-10.220877,949822.000000,1670929864.417743
1670930376.385723,,,,-10.220456,-10.223232,949823.000000,1670929864.418750
1670930376.386426,,,,-10.219951,-10.225156,949824.000000,1670929864.419757
1670930376.386451,,,,-10.230649,-10.235012,949825.000000,1670929864.420764
1670930376.386627,,,,-10.235745,-10.239556,949826.000000,1670929864.421771
1670930376.386640,,,,-10.239087,-10.241648,949827.000000,1670929864.422778
1670930376.398261,,,,-10.250939,-10.254653,949828.000000,1670929864.423785
1670930376.398274,,,,-10.249496,-10.254893,949829.000000,1670929864.424792
1670930376.398286,,,,-10.236202,-10.238378,949830.000000,1670929864.425799
1670930376.398450,,,,-10.222932,-10.224723,949831.000000,1670929864.426806
1670930376.398635,,,,-10.220817,-10.223953,949832.000000,1670929864.427814
1670930376.398806,,,,-10.228534,-10.235061,949833.000000,1670929864.428821
1670930376.398967,,,,-10.231153,-10.237489,949834.000000,1670929864.429828
1670930376.404937,,,,-10.229231,-10.233450,949835.000000,1670929864.430835
1670930376.405238,,,,-10.228894,-10.232031,949836.000000,1670929864.431842
1670930376.405250,,,,-10.227019,-10.230012,949837.000000,1670929864.432849
1670930376.410765,0.851280,734380.000000,1670930376.350132,,,,
1670930376.411601,0.760827,734381.000000,1670930376.351132,,,,
1670930376.411610,,,,-10.223533,-10.227608,949838.000000,1670929864.433856
1670930376.411796,,,,-10.225143,-10.231070,949839.000000,1670929864.434863
1670930376.411888,0.833191,734382.000000,1670930376.352132,,,,
1670930376.411895,0.815102,734383.000000,1670930376.353132,,,,
1670930376.411897,0.923636,734427.000000,1670930376.397132,,,,
1670930376.411922,0.815102,734428.000000,1670930376.398132,,,,
1670930376.411930,0.869369,734429.000000,1670930376.399132,,,,
1670930376.411941,0.905547,734430.000000,1670930376.400132,,,,
1670930376.411947,0.851280,734431.000000,1670930376.401132,,,,
1670930376.411980,0.923636,734432.000000,1670930376.402132,,,,
1670930376.411984,0.923636,734433.000000,1670930376.403132,,,,
1670930376.412009,,,,-10.230433,-10.234724,949840.000000,1670929864.435870
1670930376.412012,,,,-10.234640,-10.238186,949841.000000,1670929864.436877
1670930376.412118,,,,-10.227187,-10.231935,949842.000000,1670929864.437884
1670930376.412334,0.905547,734434.000000,1670930376.404132,,,,
1670930376.412351,0.941725,734435.000000,1670930376.405132,,,,
1670930376.412364,0.923636,734436.000000,1670930376.406132,,,,
1670930376.412375,0.923636,734437.000000,1670930376.407132,,,,
1670930376.412521,0.996001,734438.000000,1670930376.408132,,,,
1670930376.412536,0.996001,734439.000000,1670930376.409132,,,,
1670930376.412544,0.996001,734440.000000,1670930376.410132,,,,
1670930376.412592,,,,-10.220119,-10.223833,949843.000000,1670929864.438891
1670930376.412683,,,,-10.219086,-10.220420,949844.000000,1670929864.439898
1670930376.413976,,,,-10.207739,-10.211620,949845.000000,1670929864.440906
1670930376.414164,,,,-10.202401,-10.207270,949846.000000,1670929864.441913
1670930376.414317,,,,-10.214086,-10.217967,949847.000000,1670929864.442920
1670930376.414529,,,,-10.218966,-10.222511,949848.000000,1670929864.443927
1670930376.414752,,,,-10.226082,-10.229531,949849.000000,1670929864.444934
1670930376.415016,,,,-10.228485,-10.231454,949850.000000,1670929864.445941
1670930376.415268,,,,-10.229182,-10.230083,949851.000000,1670929864.446948
1670930376.415505,,,,-10.232884,-10.236526,949852.000000,1670929864.447955
1670930376.419224,,,,-10.231395,-10.234772,949853.000000,1670929864.448962
1670930376.419270,,,,-10.221634,-10.228689,949854.000000,1670929864.449969
1670930376.419332,,,,-10.222620,-10.227921,949855.000000,1670929864.450976
1670930376.419339,,,,-10.226754,-10.226911,949856.000000,1670929864.451983
1670930376.421232,,,,-10.225120,-10.228714,949857.000000,1670929864.452991
1670930376.421613,,,,-10.222715,-10.225660,949858.000000,1670929864.453998
1670930376.421639,,,,-10.220913,-10.224194,949859.000000,1670929864.455005
1670930376.421708,,,,-10.219590,-10.222271,949860.000000,1670929864.456012
1670930376.426278,,,,-10.221658,-10.223785,949861.000000,1670929864.457019
1670930376.426652,,,,-10.221610,-10.222295,949862.000000,1670929864.458026
1670930376.428868,,,,-10.222956,-10.224867,949863.000000,1670929864.459033
1670930376.429058,,,,-10.227476,-10.229195,949864.000000,1670929864.460040
1670930376.429441,,,,-10.230745,-10.233088,949865.000000,1670929864.461047
1670930376.429739,,,,-10.227644,-10.230902,949866.000000,1670929864.462054
1670930376.434300,,,,-10.215407,-10.218184,949867.000000,1670929864.463061
1670930376.434471,,,,-10.217956,-10.220468,949868.000000,1670929864.464068
1670930376.434841,,,,-10.218100,-10.223112,949869.000000,1670929864.465075
1670930376.435110,,,,-10.215407,-10.218232,949870.000000,1670929864.466083
1670930376.435625,,,,-10.212042,-10.216549,949871.000000,1670929864.467090
1670930376.435638,,,,-10.208652,-10.214578,949872.000000,1670929864.468097
1670930376.435691,,,,-10.214470,-10.217222,949873.000000,1670929864.469104
1670930376.436247,,,,-10.232596,-10.235085,949874.000000,1670929864.470111
1670930376.436618,,,,-10.248968,-10.251744,949875.000000,1670929864.471118
1670930376.436904,,,,-10.249376,-10.252153,949876.000000,1670929864.472125
1670930376.437270,,,,-10.245843,-10.249653,949877.000000,1670929864.473132
1670930376.441828,,,,-10.231395,-10.236094,949878.000000,1670929864.474139
1670930376.442236,,,,-10.240602,-10.245470,949879.000000,1670929864.475146
1670930376.442315,,,,-10.234857,-10.238137,949880.000000,1670929864.476153
1670930376.442322,,,,-10.215407,-10.220732,949881.000000,1670929864.477160
1670930376.442708,,,,-10.205983,-10.210876,949882.000000,1670929864.478168
1670930376.442964,,,,-10.207954,-10.212967,949883.000000,1670929864.479175
1670930376.443328,,,,-10.221250,-10.224795,949884.000000,1670929864.480182
1670930376.443783,,,,-10.234615,-10.236695,949885.000000,1670929864.481189
1670930376.444247,,,,-10.269403,-10.273838,949886.000000,1670929864.482196
1670930376.444261,,,,-10.302506,-10.304802,949887.000000,1670929864.483203
1670930376.457377,,,,-10.317147,-10.320668,949888.000000,1670929864.484210
1670930376.457497,,,,-10.320897,-10.325982,949889.000000,1670929864.485217
1670930376.457661,,,,-10.304381,-10.311149,949890.000000,1670929864.486224
1670930376.457716,,,,-10.269379,-10.272684,949891.000000,1670929864.487231
1670930376.465487,1.502519,734492.000000,1670930376.455076,,,,
1670930376.465492,1.448252,734493.000000,1670930376.456076,,,,
1670930376.465560,1.538706,734494.000000,1670930376.457076,,,,
1670930376.465568,1.502519,734495.000000,1670930376.458076,,,,
1670930376.465578,1.502519,734496.000000,1670930376.459075,,,,
1670930376.465585,1.538706,734497.000000,1670930376.460076,,,,
1670930376.465590,1.556795,734498.000000,1670930376.461076,,,,
1670930376.465595,1.556795,734499.000000,1670930376.462075,,,,
1670930376.465599,1.538706,734500.000000,1670930376.463076,,,,
1670930376.465605,1.574884,734501.000000,1670930376.464076,,,,
1670930376.471554,,,,-10.243391,-10.245831,949892.000000,1670929864.488238
1670930376.471771,,,,-10.220817,-10.225709,949893.000000,1670929864.489245
1670930376.471908,,,,-10.183674,-10.186931,949894.000000,1670929864.490252
1670930376.472002,,,,-10.153383,-10.155366,949895.000000,1670929864.491260
1670930376.472178,,,,-10.173456,-10.175776,949896.000000,1670929864.492267
1670930376.472317,,,,-10.218340,-10.219337,949897.000000,1670929864.493274
1670930376.472331,,,,-10.231395,-10.234772,949898.000000,1670929864.494281
1670930376.475955,,,,-10.231009,-10.234820,949899.000000,1670929864.495288
1670930376.475962,,,,-10.219254,-10.225276,949900.000000,1670929864.496295
1670930376.475977,,,,-10.209108,-10.213304,949901.000000,1670929864.497302
1670930376.476000,,,,-10.204829,-10.211429,949902.000000,1670929864.498309
1670930376.476012,,,,-10.203507,-10.208688,949903.000000,1670929864.499316
1670930376.476135,,,,-10.204589,-10.208327,949904.000000,1670929864.500323
1670930376.476258,,,,-10.202401,-10.205202,949905.000000,1670929864.501330
1670930376.476371,,,,-10.194083,-10.197341,949906.000000,1670929864.502337
1670930376.478646,,,,-10.201296,-10.205851,949907.000000,1670929864.503345
1670930376.478922,,,,-10.214951,-10.219987,949908.000000,1670929864.504352
1670930376.483959,,,,-10.228365,-10.230420,949909.000000,1670929864.505359
1670930376.484148,,,,-10.225817,-10.230589,949910.000000,1670929864.506366
1670930376.484263,,,,-10.233558,-10.237513,949911.000000,1670929864.507373
1670930376.484279,,,,-10.283947,-10.289392,949912.000000,1670929864.508380
1670930376.486309,,,,-10.328206,-10.332376,949913.000000,1670929864.509387
1670930376.486626,,,,-10.351766,-10.354999,949914.000000,1670929864.510394
1670930376.487153,,,,-10.356502,-10.360576,949915.000000,1670929864.511401
1670930376.487171,,,,-10.345395,-10.349638,949916.000000,1670929864.512408
1670930376.490748,,,,-10.310151,-10.313504,949917.000000,1670929864.513415
1670930376.490916,,,,-10.278201,-10.281339,949918.000000,1670929864.514422
1670930376.491224,,,,-10.240434,-10.245783,949919.000000,1670929864.515429
1670930376.493733,,,,-10.208531,-10.212150,949920.000000,1670929864.516437
1670930376.494212,,,,-10.180621,-10.184599,949921.000000,1670929864.517444
1670930376.494231,,,,-10.179226,-10.180921,949922.000000,1670929864.518451
1670930376.494253,,,,-10.193242,-10.193590,949923.000000,1670929864.519458
1670930376.498299,,,,-10.215095,-10.219193,949924.000000,1670929864.520465
1670930376.498317,,,,-10.228991,-10.232296,949925.000000,1670929864.521472
1670930376.498418,,,,-10.229808,-10.232584,949926.000000,1670929864.522479
1670930376.498554,,,,-10.229302,-10.231334,949927.000000,1670929864.523486
1670930376.501449,,,,-10.227236,-10.230204,949928.000000,1670929864.524493
1670930376.501649,,,,-10.229087,-10.230108,949929.000000,1670929864.525500
1670930376.501691,,,,-10.227091,-10.228569,949930.000000,1670929864.526507
1670930376.501914,,,,-10.221922,-10.227415,949931.000000,1670929864.527514
1670930376.501925,,,,-10.221057,-10.226646,949932.000000,1670929864.528522
1670930376.502045,,,,-10.241852,-10.243859,949933.000000,1670929864.529529
1670930376.509356,,,,-10.252694,-10.254869,949934.000000,1670929864.530536
1670930376.509653,,,,-10.250290,-10.253764,949935.000000,1670929864.531543
1670930376.510083,,,,-10.252237,-10.258260,949936.000000,1670929864.532550
1670930376.510262,,,,-10.266157,-10.272491,949937.000000,1670929864.533557
1670930376.510693,,,,-10.290174,-10.292806,949938.000000,1670929864.534564
1670930376.510941,,,,-10.310271,-10.313793,949939.000000,1670929864.535571
1670930376.511269,,,,-10.323926,-10.327400,949940.000000,1670929864.536578
1670930376.511500,,,,-10.300006,-10.302711,949941.000000,1670929864.537585
1670930376.511791,,,,-10.271350,-10.273309,949942.000000,1670929864.538592
1670930376.512136,,,,-10.229904,-10.231526,949943.000000,1670929864.539599
1670930376.512343,,,,-10.209397,-10.212317,949944.000000,1670929864.540606
1670930376.525860,,,,-10.222980,-10.226670,949945.000000,1670929864.541614
1670930376.525886,,,,-10.217763,-10.223665,949946.000000,1670929864.542621
1670930376.526276,,,,-10.213003,-10.218664,949947.000000,1670929864.543628
1670930376.526463,,,,-10.229856,-10.234315,949948.000000,1670929864.544635
1670930376.527081,,,,-10.236948,-10.239484,949949.000000,1670929864.545642
1670930376.527234,,,,-10.234471,-10.237248,949950.000000,1670929864.546649
1670930376.527270,,,,-10.241371,-10.244436,949951.000000,1670929864.547656
1670930376.527319,,,,-10.256276,-10.255567,949952.000000,1670929864.548663
1670930376.532886,,,,-10.271566,-10.274510,949953.000000,1670929864.549670
1670930376.533096,,,,-10.267528,-10.271867,949954.000000,1670929864.550677
1670930376.533351,,,,-10.262503,-10.263043,949955.000000,1670929864.551684
1670930376.533464,,,,-10.258151,-10.261505,949956.000000,1670929864.552691
1670930376.538941,,,,-10.252790,-10.259341,949957.000000,1670929864.553699
1670930376.539215,,,,-10.256757,-10.262010,949958.000000,1670929864.554706
1670930376.539279,,,,-10.254377,-10.258572,949959.000000,1670929864.555713
1670930376.541854,2.407030,734553.000000,1670930376.529225,,,,
1670930376.541885,2.479386,734554.000000,1670930376.530226,,,,
1670930376.541898,2.443208,734555.000000,1670930376.531225,,,,
1670930376.541904,2.479386,734556.000000,1670930376.532225,,,,
1670930376.541914,2.533661,734557.000000,1670930376.533225,,,,
1670930376.541920,2.587929,734558.000000,1670930376.534225,,,,
1670930376.541927,2.606018,734559.000000,1670930376.535225,,,,
1670930376.541953,2.642204,734560.000000,1670930376.536225,,,,
1670930376.541972,2.696471,734561.000000,1670930376.537225,,,,
1670930376.541999,2.732649,734562.000000,1670930376.538225,,,,
1670930376.548697,,,,-10.242862,-10.247272,949960.000000,1670929864.556720
1670930376.548985,,,,-10.236515,-10.240782,949961.000000,1670929864.557727
1670930376.548995,,,,-10.241852,-10.245903,949962.000000,1670929864.558734
1670930376.549010,,,,-10.246516,-10.248595,949963.000000,1670929864.559741
1670930376.553725,,,,-10.246757,-10.251744,949964.000000,1670929864.560748
1670930376.553908,,,,-10.257694,-10.262394,949965.000000,1670929864.561755
1670930376.556521,,,,-10.271254,-10.275833,949966.000000,1670929864.562762
1670930376.556703,,,,-10.285365,-10.290281,949967.000000,1670929864.563769
1670930376.557056,,,,-10.304911,-10.306653,949968.000000,1670929864.564776
1670930376.557213,,,,-10.315392,-10.318360,949969.000000,1670929864.565784
1670930376.557223,,,,-10.316498,-10.323842,949970.000000,1670929864.566791
1670930376.557680,,,,-10.315056,-10.321607,949971.000000,1670929864.567798
1670930376.557694,,,,-10.302483,-10.306629,949972.000000,1670929864.568805
1670930376.557705,,,,-10.285605,-10.291002,949973.000000,1670929864.569812
1670930376.561579,,,,-10.268345,-10.271025,949974.000000,1670929864.570819
1670930376.562095,,,,-10.256060,-10.259269,949975.000000,1670929864.571826
1670930376.562269,,,,-10.246780,-10.253788,949976.000000,1670929864.572833
1670930376.562435,,,,-10.243198,-10.246912,949977.000000,1670929864.573840
1670930376.562459,,,,-10.237813,-10.241455,949978.000000,1670929864.574847
1670930376.562543,,,,-10.230096,-10.233834,949979.000000,1670929864.575854
1670930376.562551,,,,-10.231346,-10.236887,949980.000000,1670929864.576861
1670930376.563734,,,,-10.232236,-10.237320,949981.000000,1670929864.577868
1670930376.564141,,,,-10.242862,-10.247177,949982.000000,1670929864.578876
1670930376.564391,,,,-10.255459,-10.261986,949983.000000,1670929864.579883
1670930376.564415,,,,-10.272817,-10.278358,949984.000000,1670929864.580890
1670930376.568986,,,,-10.287313,-10.290305,949985.000000,1670929864.581897
1670930376.569291,,,,-10.286832,-10.291195,949986.000000,1670929864.582904
1670930376.569491,,,,-10.275028,-10.278718,949987.000000,1670929864.583911
1670930376.571491,,,,-10.275028,-10.278814,949988.000000,1670929864.584918
1670930376.571513,,,,-10.283875,-10.284488,949989.000000,1670929864.585925
1670930376.571519,,,,-10.278441,-10.280136,949990.000000,1670929864.586932
1670930376.585385,,,,-10.272528,-10.276530,949991.000000,1670929864.587939
1670930376.586250,,,,-10.289837,-10.293118,949992.000000,1670929864.588946
1670930376.586289,,,,-10.316281,-10.320236,949993.000000,1670929864.589953
1670930376.586336,,,,-10.319263,-10.324707,949994.000000,1670929864.590961
1670930376.592618,,,,-10.293612,-10.298888,949995.000000,1670929864.591968
1670930376.592631,,,,-10.285798,-10.290041,949996.000000,1670929864.592975
1670930376.592642,,,,-10.283081,-10.287084,949997.000000,1670929864.593982
1670930376.594390,4.107500,734614.000000,1670930376.584219,,,,
1670930376.594398,4.053233,734615.000000,1670930376.585219,,,,
1670930376.594447,4.107500,734616.000000,1670930376.586219,,,,
1670930376.594454,4.089411,734617.000000,1670930376.587219,,,,
1670930376.594460,4.107500,734618.000000,1670930376.588219,,,,
1670930376.594463,4.179864,734619.000000,1670930376.589219,,,,
1670930376.594469,4.216043,734620.000000,1670930376.590219,,,,
1670930376.594475,4.234132,734621.000000,1670930376.591219,,,,
1670930376.594502,4.234132,734622.000000,1670930376.592219,,,,
1670930376.594512,4.234132,734623.000000,1670930376.593219,,,,
1670930376.607793,,,,-10.257310,-10.262803,949998.000000,1670929864.594989
1670930376.608167,,,,-10.226226,-10.232031,949999.000000,1670929864.595996
1670930376.608555,,,,-10.235097,-10.240349,950000.000000,1670929864.597003
1670930376.608700,,,,-10.252934,-10.255639,950001.000000,1670929864.598010
1670930376.608968,,,,-10.245914,-10.248547,950002.000000,1670929864.599017
1670930376.609297,,,,-10.246324,-10.249846,950003.000000,1670929864.600024
1670930376.609441,,,,-10.270724,-10.275160,950004.000000,1670929864.601031
1670930376.609846,,,,-10.292145,-10.298792,950005.000000,1670929864.602038
1670930376.609938,,,,-10.318325,-10.323169,950006.000000,1670929864.603045
1670930376.610214,,,,-10.337029,-10.339396,950007.000000,1670929864.604053
1670930376.610342,,,,-10.340514,-10.344709,950008.000000,1670929864.605060
1670930376.610349,,,,-10.368666,-10.375265,950009.000000,1670929864.606067
1670930376.610600,,,,-10.426123,-10.432553,950010.000000,1670929864.607074
1670930376.610797,,,,-10.459660,-10.465008,950011.000000,1670929864.608081
1670930376.610990,,,,-10.453673,-10.458229,950012.000000,1670929864.609088
1670930376.611230,,,,-10.457159,-10.459840,950013.000000,1670929864.610095
1670930376.611386,,,,-10.451509,-10.454094,950014.000000,1670929864.611102
1670930376.611616,,,,-10.440763,-10.443732,950015.000000,1670929864.612109
1670930376.611760,,,,-10.418815,-10.423081,950016.000000,1670929864.613116
1670930376.612051,,,,-10.373450,-10.379255,950017.000000,1670929864.614123
1670930376.612104,,,,-10.323782,-10.328626,950018.000000,1670929864.615130
1670930376.612113,,,,-10.282023,-10.285906,950019.000000,1670929864.616138
1670930376.613767,,,,-10.226707,-10.228930,950020.000000,1670929864.617145
1670930376.613924,,,,-10.178000,-10.179983,950021.000000,1670929864.618152
1670930376.614090,,,,-10.144487,-10.146688,950022.000000,1670929864.619159
1670930376.616200,,,,-10.125809,-10.127382,950023.000000,1670929864.620166
1670930376.616362,,,,-10.128452,-10.129354,950024.000000,1670929864.621173
1670930376.616489,,,,-10.198531,-10.201644,950025.000000,1670929864.622180
1670930376.616499,,,,-10.298659,-10.302374,950026.000000,1670929864.623187
1670930376.621672,,,,-10.381408,-10.382861,950027.000000,1670929864.624194
1670930376.622178,,,,-10.446437,-10.448805,950028.000000,1670929864.625201
1670930376.622203,,,,-10.468049,-10.473278,950029.000000,1670929864.626208
1670930376.622213,,,,-10.462232,-10.466763,950030.000000,1670929864.627215
1670930376.624007,,,,-10.439777,-10.444333,950031.000000,1670929864.628222
1670930376.624027,,,,-10.398188,-10.403200,950032.000000,1670929864.629230
1670930376.624215,,,,-10.356525,-10.360624,950033.000000,1670929864.630237
1670930376.628921,,,,-10.314359,-10.316341,950034.000000,1670929864.631244
1670930376.629473,,,,-10.256396,-10.259846,950035.000000,1670929864.632251
1670930376.629494,,,,-10.188002,-10.193254,950036.000000,1670929864.633258
1670930376.631666,,,,-10.151411,-10.156183,950037.000000,1670929864.634265
1670930376.631725,,,,-10.117009,-10.121372,950038.000000,1670929864.635272
1670930376.632187,,,,-10.093041,-10.097044,950039.000000,1670929864.636279
1670930376.632547,,,,-10.109581,-10.112983,950040.000000,1670929864.637286
1670930376.632716,,,,-10.159585,-10.164141,950041.000000,1670929864.638293
1670930376.632744,,,,-10.246660,-10.248980,950042.000000,1670929864.639300
1670930376.633183,,,,-10.427686,-10.432217,950043.000000,1670929864.640307
1670930376.633226,,,,-10.471824,-10.476788,950044.000000,1670929864.641315
1670930376.645174,,,,-10.450716,-10.454021,950045.000000,1670929864.642322
1670930376.645351,,,,-10.397394,-10.401324,950046.000000,1670929864.643329
1670930376.645579,,,,-10.346092,-10.352114,950047.000000,1670929864.644336
1670930376.658708,4.216043,734624.000000,1670930376.597409,,,,
1670930376.659773,4.396942,734637.000000,1670930376.610409,,,,
1670930376.660717,4.415030,734638.000000,1670930376.611409,,,,
1670930376.660737,4.433120,734639.000000,1670930376.612409,,,,
1670930376.660745,4.469306,734640.000000,1670930376.613409,,,,
1670930376.660767,4.559751,734641.000000,1670930376.614409,,,,
1670930376.660773,4.541662,734642.000000,1670930376.615409,,,,
1670930376.660789,4.505484,734643.000000,1670930376.616409,,,,
1670930376.660821,4.577840,734644.000000,1670930376.617409,,,,
1670930376.660849,4.559751,734645.000000,1670930376.618409,,,,
1670930376.660896,4.577840,734646.000000,1670930376.619409,,,,
1670930376.660917,5.012011,734675.000000,1670930376.648409,,,,
1670930376.660925,5.066278,734676.000000,1670930376.649409,,,,
1670930376.660949,5.012011,734677.000000,1670930376.650409,,,,
1670930376.660981,5.048189,734678.000000,1670930376.651409,,,,
1670930376.660992,5.030100,734679.000000,1670930376.652409,,,,
1670930376.661001,5.066278,734680.000000,1670930376.653409,,,,
1670930376.661007,5.102456,734681.000000,1670930376.654409,,,,
1670930376.661021,5.066278,734682.000000,1670930376.655409,,,,
1670930376.661029,5.120545,734683.000000,1670930376.656409,,,,
1670930376.661048,5.048189,734684.000000,1670930376.657409,,,,
1670930376.661624,,,,-10.318132,-10.324155,950048.000000,1670929864.645343
1670930376.661861,,,,-10.276807,-10.281146,950049.000000,1670929864.646350
1670930376.662029,,,,-10.250050,-10.253956,950050.000000,1670929864.647357
1670930376.662209,,,,-10.227908,-10.233931,950051.000000,1670929864.648364
1670930376.662667,,,,-10.201849,-10.206909,950052.000000,1670929864.649371
1670930376.662677,,,,-10.169634,-10.173902,950053.000000,1670929864.650378
1670930376.662913,,,,-10.125279,-10.129258,950054.000000,1670929864.651385
1670930376.663094,,,,-10.109292,-10.112886,950055.000000,1670929864.652392
1670930376.666309,,,,-10.135425,-10.137071,950056.000000,1670929864.653399
1670930376.666445,,,,-10.173745,-10.174887,950057.000000,1670929864.654407
1670930376.666661,,,,-10.198819,-10.202461,950058.000000,1670929864.655414
1670930376.666804,,,,-10.203435,-10.207510,950059.000000,1670929864.656421
1670930376.668560,,,,-10.217835,-10.221381,950060.000000,1670929864.657428
1670930376.668840,,,,-10.248439,-10.251191,950061.000000,1670929864.658435
1670930376.669038,,,,-10.311209,-10.314201,950062.000000,1670929864.659442
1670930376.673939,,,,-10.388619,-10.389954,950063.000000,1670929864.660449
1670930376.674535,,,,-10.427109,-10.431520,950064.000000,1670929864.661456
1670930376.674558,,,,-10.442542,-10.445920,950065.000000,1670929864.662463
1670930376.674697,,,,-10.433046,-10.433851,950066.000000,1670929864.663470
1670930376.676282,,,,-10.408549,-10.407576,950067.000000,1670929864.664477
1670930376.676442,,,,-10.377393,-10.379135,950068.000000,1670929864.665484
1670930376.681506,,,,-10.333614,-10.335429,950069.000000,1670929864.666492
1670930376.681736,,,,-10.289524,-10.294393,950070.000000,1670929864.667499
1670930376.682198,,,,-10.233317,-10.236983,950071.000000,1670929864.668506
1670930376.682222,,,,-10.197594,-10.203207,950072.000000,1670929864.669513
1670930376.684310,,,,-10.182256,-10.187989,950073.000000,1670929864.670520
1670930376.684331,,,,-10.159104,-10.164838,950074.000000,1670929864.671527
1670930376.684640,,,,-10.142228,-10.146615,950075.000000,1670929864.672534
1670930376.684707,,,,-10.168216,-10.172362,950076.000000,1670929864.673541
1670930376.689719,,,,-10.227981,-10.232993,950077.000000,1670929864.674548
1670930376.689752,,,,-10.253777,-10.257418,950078.000000,1670929864.675555
1670930376.689800,,,,-10.237765,-10.242200,950079.000000,1670929864.676562
1670930376.690049,,,,-10.215528,-10.220948,950080.000000,1670929864.677569
1670930376.690484,,,,-10.204878,-10.209289,950081.000000,1670929864.678576
1670930376.691032,,,,-10.203387,-10.206212,950082.000000,1670929864.679584
1670930376.691050,,,,-10.208436,-10.212823,950083.000000,1670929864.680591
1670930376.691724,,,,-10.217812,-10.221405,950084.000000,1670929864.681598
1670930376.691732,,,,-10.217715,-10.220420,950085.000000,1670929864.682605
1670930376.691752,,,,-10.212859,-10.217655,950086.000000,1670929864.683612
1670930376.691820,,,,-10.221105,-10.227560,950087.000000,1670929864.684619
1670930376.705614,,,,-10.260435,-10.266361,950088.000000,1670929864.685626
1670930376.705631,,,,-10.337942,-10.341464,950089.000000,1670929864.686633
1670930376.705770,,,,-10.409823,-10.414018,950090.000000,1670929864.687640
1670930376.705797,,,,-10.441990,-10.444862,950091.000000,1670929864.688647
1670930376.705827,,,,-10.461702,-10.465344,950092.000000,1670929864.689654
1670930376.706046,,,,-10.448071,-10.453397,950093.000000,1670929864.690661
1670930376.714017,5.102456,734685.000000,1670930376.653060,,,,
1670930376.715464,5.066278,734686.000000,1670930376.654060,,,,
1670930376.716213,5.084367,734687.000000,1670930376.655060,,,,
1670930376.716228,5.120545,734688.000000,1670930376.656060,,,,
1670930376.716244,6.006967,734736.000000,1670930376.704060,,,,
1670930376.716348,6.025055,734737.000000,1670930376.705060,,,,
1670930376.716358,6.097412,734738.000000,1670930376.706060,,,,
1670930376.716364,6.079323,734739.000000,1670930376.707060,,,,
1670930376.716377,6.115501,734740.000000,1670930376.708060,,,,
1670930376.716391,6.242133,734741.000000,1670930376.709060,,,,
1670930376.716403,6.260230,734742.000000,1670930376.710060,,,,
1670930376.716409,6.296408,734743.000000,1670930376.711060,,,,
1670930376.716490,6.386853,734744.000000,1670930376.712060,,,,
1670930376.716566,6.350675,734745.000000,1670930376.713060,,,,
1670930376.719622,,,,-10.406409,-10.407527,950094.000000,1670929864.691669
1670930376.719842,,,,-10.366094,-10.367716,950095.000000,1670929864.692676
1670930376.720520,,,,-10.339000,-10.341392,950096.000000,1670929864.693683
1670930376.720541,,,,-10.292842,-10.296147,950097.000000,1670929864.694690
1670930376.720553,,,,-10.221466,-10.226045,950098.000000,1670929864.695697
1670930376.720586,,,,-10.164225,-10.168396,950099.000000,1670929864.696704
1670930376.720598,,,,-10.153744,-10.156713,950100.000000,1670929864.697711
1670930376.720717,,,,-10.186246,-10.189575,950101.000000,1670929864.698718
1670930376.720728,,,,-10.212715,-10.216429,950102.000000,1670929864.699725
1670930376.720868,,,,-10.248704,-10.254052,950103.000000,1670929864.700732
1670930376.720878,,,,-10.285702,-10.291916,950104.000000,1670929864.701739
1670930376.722068,,,,-10.314479,-10.321125,950105.000000,1670929864.702746
1670930376.722263,,,,-10.330562,-10.335238,950106.000000,1670929864.703753
1670930376.722513,,,,-10.321907,-10.326077,950107.000000,1670929864.704761
1670930376.722847,,,,-10.283418,-10.287709,950108.000000,1670929864.705768
1670930376.723052,,,,-10.258824,-10.260423,950109.000000,1670929864.706775
1670930376.723087,,,,-10.236828,-10.240181,950110.000000,1670929864.707782
1670930376.723295,,,,-10.239016,-10.240951,950111.000000,1670929864.708789
1670930376.723610,,,,-10.249906,-10.248956,950112.000000,1670929864.709796
1670930376.723834,,,,-10.241755,-10.243979,950113.000000,1670929864.710803
1670930376.724118,,,,-10.229038,-10.233882,950114.000000,1670929864.711810
1670930376.724126,,,,-10.209685,-10.212053,950115.000000,1670929864.712817
1670930376.724135,,,,-10.194709,-10.198566,950116.000000,1670929864.713824
1670930376.724334,,,,-10.207907,-10.209769,950117.000000,1670929864.714831
1670930376.724476,,,,-10.216609,-10.218184,950118.000000,1670929864.715838
1670930376.724577,,,,-10.222307,-10.223232,950119.000000,1670929864.716846
1670930376.727123,,,,-10.220768,-10.223112,950120.000000,1670929864.717853
1670930376.727302,,,,-10.225505,-10.230853,950121.000000,1670929864.718860
1670930376.727569,,,,-10.236588,-10.241695,950122.000000,1670929864.719867
1670930376.727708,,,,-10.229664,-10.232368,950123.000000,1670929864.720874
1670930376.728577,,,,-10.231683,-10.237056,950124.000000,1670929864.721881
1670930376.728729,,,,-10.283154,-10.288911,950125.000000,1670929864.722888
1670930376.728742,,,,-10.346789,-10.353484,950126.000000,1670929864.723895
1670930376.728763,,,,-10.438985,-10.444189,950127.000000,1670929864.724902
1670930376.728772,,,,-10.574117,-10.576027,950128.000000,1670929864.725909
1670930376.728785,,,,-10.661384,-10.663175,950129.000000,1670929864.726916
1670930376.728800,,,,-10.725884,-10.726858,950130.000000,1670929864.727923
1670930376.728809,,,,-10.730764,-10.734070,950131.000000,1670929864.728930
1670930376.728814,,,,-10.683717,-10.687719,950132.000000,1670929864.729938
1670930376.728827,,,,-10.575174,-10.580331,950133.000000,1670929864.730945
1670930376.729105,,,,-10.446004,-10.450849,950134.000000,1670929864.731952
1670930376.729362,,,,-10.317291,-10.320236,950135.000000,1670929864.732959
1670930376.729600,,,,-10.182904,-10.184479,950136.000000,1670929864.733966
1670930376.729796,,,,-10.092440,-10.091466,950137.000000,1670929864.734973
1670930376.730028,,,,-10.013130,-10.013791,950138.000000,1670929864.735980
1670930376.730169,,,,-9.927234,-9.929409,950139.000000,1670929864.736987
1670930376.730375,,,,-9.927666,-9.932054,950140.000000,1670929864.737994
1670930376.734340,,,,-10.033854,-10.037976,950141.000000,1670929864.739001
1670930376.735067,,,,-10.126963,-10.133754,950142.000000,1670929864.740008
1670930376.735077,,,,-10.166509,-10.171714,950143.000000,1670929864.741015
1670930376.735081,,,,-10.169033,-10.174142,950144.000000,1670929864.742023
1670930376.735098,,,,-10.158215,-10.163973,950145.000000,1670929864.743030
1670930376.735117,,,,-10.154849,-10.158564,950146.000000,1670929864.744037
1670930376.735231,,,,-10.166245,-10.168036,950147.000000,1670929864.745044
1670930376.736696,,,,-10.180068,-10.184648,950148.000000,1670929864.746051
1670930376.736959,,,,-10.194516,-10.197822,950149.000000,1670929864.747058
1670930376.737030,,,,-10.205695,-10.208279,950150.000000,1670929864.748065
1670930376.737609,,,,-10.225937,-10.229916,950151.000000,1670929864.749072
1670930376.737617,,,,-10.244496,-10.246600,950152.000000,1670929864.750079
1670930376.737634,,,,-10.252863,-10.256529,950153.000000,1670929864.751086
1670930376.737643,,,,-10.264282,-10.267226,950154.000000,1670929864.752093
1670930376.737745,,,,-10.262503,-10.264221,950155.000000,1670929864.753100
1670930376.737758,,,,-10.243896,-10.246912,950156.000000,1670929864.754107
1670930376.737786,,,,-10.240794,-10.242585,950157.000000,1670929864.755115
1670930376.741544,,,,-10.249569,-10.251600,950158.000000,1670929864.756122
1670930376.741817,,,,-10.254401,-10.255615,950159.000000,1670929864.757129
1670930376.741938,,,,-10.243366,-10.244100,950160.000000,1670929864.758136
1670930376.742140,,,,-10.228510,-10.231959,950161.000000,1670929864.759143
1670930376.742363,,,,-10.234111,-10.237584,950162.000000,1670929864.760150
1670930376.742580,,,,-10.253800,-10.257250,950163.000000,1670929864.761157
1670930376.742746,,,,-10.283731,-10.287349,950164.000000,1670929864.762164
1670930376.742943,,,,-10.299068,-10.302518,950165.000000,1670929864.763171
1670930376.743891,,,,-10.295222,-10.298768,950166.000000,1670929864.764178
1670930376.744399,,,,-10.290534,-10.292589,950167.000000,1670929864.765185
1670930376.744408,,,,-10.291568,-10.291796,950168.000000,1670929864.766192
1670930376.744472,,,,-10.295077,-10.298335,950169.000000,1670929864.767200
1670930376.744478,,,,-10.296833,-10.301413,950170.000000,1670929864.768207
1670930376.744484,,,,-10.282023,-10.287156,950171.000000,1670929864.769214
1670930376.744490,,,,-10.266229,-10.269799,950172.000000,1670929864.770221
1670930376.749024,,,,-10.247550,-10.250446,950173.000000,1670929864.771228
1670930376.749151,,,,-10.233558,-10.236359,950174.000000,1670929864.772235
1670930376.749300,,,,-10.218725,-10.222391,950175.000000,1670929864.773242
1670930376.749474,,,,-10.215384,-10.218208,950176.000000,1670929864.774249
1670930376.749611,,,,-10.230361,-10.232080,950177.000000,1670929864.775256
1670930376.749670,,,,-10.245482,-10.248115,950178.000000,1670929864.776263
1670930376.749825,,,,-10.254354,-10.259582,950179.000000,1670929864.777270
1670930376.751011,,,,-10.257719,-10.261192,950180.000000,1670929864.778277
1670930376.751266,,,,-10.270364,-10.274920,950181.000000,1670929864.779284
1670930376.751336,,,,-10.287481,-10.291941,950182.000000,1670929864.780292
1670930376.765150,,,,-10.324335,-10.328938,950183.000000,1670929864.781299
1670930376.765455,,,,-10.355876,-10.358748,950184.000000,1670929864.782306
1670930376.766084,,,,-10.342606,-10.346392,950185.000000,1670929864.783313
1670930376.766187,,,,-10.341620,-10.344589,950186.000000,1670929864.784320
1670930376.773954,,,,-10.389461,-10.395844,950187.000000,1670929864.785327
1670930376.774229,,,,-10.517117,-10.521383,950188.000000,1670929864.786334
1670930376.774481,,,,-10.654893,-10.653798,950189.000000,1670929864.787341
1670930376.774733,,,,-10.783005,-10.782872,950190.000000,1670929864.788348
1670930376.774746,,,,-10.819185,-10.822611,950191.000000,1670929864.789355
1670930376.775221,,,,-10.758603,-10.763135,950192.000000,1670929864.790362
1670930376.775402,,,,-10.648330,-10.651731,950193.000000,1670929864.791369
1670930376.776121,,,,-10.542143,-10.543909,950194.000000,1670929864.792377
1670930376.776137,,,,-10.425353,-10.426616,950195.000000,1670929864.793384
1670930376.776154,,,,-10.237260,-10.238883,950196.000000,1670929864.794391
1670930376.779073,,,,-10.059745,-10.063098,950197.000000,1670929864.795398
1670930376.779084,,,,-9.909612,-9.916812,950198.000000,1670929864.796405
1670930376.779293,,,,-9.859222,-9.866279,950199.000000,1670929864.797412
1670930376.779510,6.477307,734746.000000,1670930376.718399,,,,
1670930376.779532,,,,-9.912208,-9.917460,950200.000000,1670929864.798419
1670930376.781501,9.661170,734797.000000,1670930376.769399,,,,
1670930376.781529,9.715438,734798.000000,1670930376.770399,,,,
1670930376.781540,9.769713,734799.000000,1670930376.771399,,,,
1670930376.781547,9.896345,734800.000000,1670930376.772399,,,,
1670930376.781552,10.004879,734801.000000,1670930376.773399,,,,
1670930376.781561,10.113421,734802.000000,1670930376.774399,,,,
1670930376.781592,10.221964,734803.000000,1670930376.775399,,,,
1670930376.781601,10.312409,734804.000000,1670930376.776399,,,,
1670930376.781612,10.402863,734805.000000,1670930376.777399,,,,
1670930376.781643,10.475227,734806.000000,1670930376.778399,,,,
1670930376.781647,,,,-9.963102,-9.967730,950201.000000,1670929864.799426
1670930376.781650,,,,-10.005029,-10.008334,950202.000000,1670929864.800433
1670930376.781905,,,,-10.073568,-10.077306,950203.000000,1670929864.801440
1670930376.782033,,,,-10.130592,-10.133441,950204.000000,1670929864.802447
1670930376.782212,,,,-10.130328,-10.134739,950205.000000,1670929864.803454
1670930376.782460,,,,-10.140497,-10.144620,950206.000000,1670929864.804461
1670930376.782532,,,,-10.157397,-10.160366,950207.000000,1670929864.805469
1670930376.786488,,,,-10.163840,-10.168107,950208.000000,1670929864.806476
1670930376.786595,,,,-10.185718,-10.188421,950209.000000,1670929864.807483
1670930376.786776,,,,-10.178962,-10.183133,950210.000000,1670929864.808490
1670930376.786927,,,,-10.184875,-10.187797,950211.000000,1670929864.809497
1670930376.787085,,,,-10.215215,-10.217752,950212.000000,1670929864.810504
1670930376.787200,,,,-10.285414,-10.291796,950213.000000,1670929864.811511
1670930376.787348,,,,-10.370300,-10.378245,950214.000000,1670929864.812518
1670930376.787530,,,,-10.442110,-10.446280,950215.000000,1670929864.813525
1670930376.788895,,,,-10.581401,-10.584778,950216.000000,1670929864.814532
1670930376.789141,,,,-10.725692,-10.729454,950217.000000,1670929864.815539
1670930376.789152,,,,-10.712590,-10.718155,950218.000000,1670929864.816546
1670930376.789358,,,,-10.605057,-10.610694,950219.000000,1670929864.817554
1670930376.789450,,,,-10.499230,-10.503545,950220.000000,1670929864.818561
1670930376.789602,,,,-10.381191,-10.384761,950221.000000,1670929864.819568
1670930376.789915,,,,-10.261373,-10.264462,950222.000000,1670929864.820575
1670930376.793952,,,,-10.136891,-10.139860,950223.000000,1670929864.821582
1670930376.794178,,,,-10.029334,-10.033937,950224.000000,1670929864.822589
1670930376.794435,,,,-9.973103,-9.976168,950225.000000,1670929864.823596
1670930376.794689,,,,-9.957597,-9.961720,950226.000000,1670929864.824603
1670930376.796295,,,,-10.020223,-10.024056,950227.000000,1670929864.825610
1670930376.796583,,,,-10.116072,-10.117069,950228.000000,1670929864.826617
1670930376.809204,,,,-10.238510,-10.242152,950229.000000,1670929864.827624
1670930376.809217,,,,-10.283803,-10.288935,950230.000000,1670929864.828631
1670930376.809313,,,,-10.257334,-10.261577,950231.000000,1670929864.829638
1670930376.809409,,,,-10.212955,-10.216068,950232.000000,1670929864.830646
1670930376.831652,,,,-10.171846,-10.173685,950233.000000,1670929864.831653
1670930376.831940,,,,-10.170115,-10.173059,950234.000000,1670929864.832660
1670930376.832229,,,,-10.184347,-10.186739,950235.000000,1670929864.833667
1670930376.832493,,,,-10.170236,-10.172459,950236.000000,1670929864.834674
1670930376.833857,,,,-10.155450,-10.159357,950237.000000,1670929864.835681
1670930376.833951,,,,-10.196487,-10.200442,950238.000000,1670929864.836688
1670930376.834331,,,,-10.259161,-10.264534,950239.000000,1670929864.837695
1670930376.834350,,,,-10.317339,-10.324203,950240.000000,1670929864.838702
1670930376.834803,10.565673,734807.000000,1670930376.773947,,,,
1670930376.835209,10.710394,734808.000000,1670930376.774947,,,,
1670930376.836763,16.824858,734858.000000,1670930376.824947,,,,
1670930376.836788,16.969578,734859.000000,1670930376.825947,,,,
1670930376.836808,17.132387,734860.000000,1670930376.826947,,,,
1670930376.836818,17.259020,734861.000000,1670930376.827947,,,,
1670930376.836826,17.458015,734862.000000,1670930376.828947,,,,
1670930376.836862,17.584648,734863.000000,1670930376.829947,,,,
1670930376.836869,17.765547,734864.000000,1670930376.830947,,,,
1670930376.836888,17.946445,734865.000000,1670930376.831947,,,,
1670930376.836901,18.127344,734866.000000,1670930376.832947,,,,
1670930376.836926,18.308250,734867.000000,1670930376.833947,,,,
1670930376.838973,,,,-10.363810,-10.368389,950241.000000,1670929864.839709
1670930376.839044,,,,-10.367945,-10.374086,950242.000000,1670929864.840716
1670930376.839102,,,,-10.383691,-10.390507,950243.000000,1670929864.841723
1670930376.841503,,,,-10.407612,-10.413826,950244.000000,1670929864.842731
1670930376.841787,,,,-10.406506,-10.411999,950245.000000,1670929864.843738
1670930376.841812,,,,-10.380469,-10.385145,950246.000000,1670929864.844745
1670930376.842032,,,,-10.358353,-10.361826,950247.000000,1670929864.845752
1670930376.842246,,,,-10.347198,-10.347474,950248.000000,1670929864.846759
1670930376.842561,,,,-10.424632,-10.426807,950249.000000,1670929864.847766
1670930376.842793,,,,-10.511058,-10.515421,950250.000000,1670929864.848773
1670930376.842976,,,,-10.499855,-10.504362,950251.000000,1670929864.849780
1670930376.846269,,,,-10.511082,-10.515397,950252.000000,1670929864.850787
1670930376.846723,,,,-10.501466,-10.505108,950253.000000,1670929864.851794
1670930376.849470,,,,-10.423622,-10.426543,950254.000000,1670929864.852801
1670930376.850238,,,,-10.310127,-10.312903,950255.000000,1670929864.853808
1670930376.850342,,,,-10.224206,-10.224266,950256.000000,1670929864.854815
1670930376.850457,,,,-10.198098,-10.197798,950257.000000,1670929864.855823
1670930376.850521,,,,-10.138237,-10.141999,950258.000000,1670929864.856830
1670930376.851033,,,,-10.076766,-10.083004,950259.000000,1670929864.857837
1670930376.851662,,,,-10.037483,-10.038914,950260.000000,1670929864.858844
1670930376.851807,,,,-9.996181,-9.998453,950261.000000,1670929864.859851
1670930376.851931,,,,-10.056090,-10.059925,950262.000000,1670929864.860858
1670930376.851949,,,,-10.164730,-10.170007,950263.000000,1670929864.861865
1670930376.851966,,,,-10.275773,-10.280185,950264.000000,1670929864.862872
1670930376.856179,,,,-10.395952,-10.400989,950265.000000,1670929864.863879
1670930376.856277,,,,-10.523198,-10.528403,950266.000000,1670929864.864886
1670930376.856534,,,,-10.614240,-10.618266,950267.000000,1670929864.865893
1670930376.856613,,,,-10.637271,-10.639590,950268.000000,1670929864.866900
1670930376.861180,,,,-10.608446,-10.611198,950269.000000,1670929864.867908
1670930376.861356,,,,-10.508533,-10.514316,950270.000000,1670929864.868915
1670930376.861498,,,,-10.400663,-10.404642,950271.000000,1670929864.869922
1670930376.861506,,,,-10.257959,-10.260568,950272.000000,1670929864.870929
1670930376.863916,,,,-10.086790,-10.087307,950273.000000,1670929864.871936
1670930376.864036,,,,-10.013371,-10.013383,950274.000000,1670929864.872943
1670930376.864087,,,,-9.977165,-9.976601,950275.000000,1670929864.873950
1670930376.864130,,,,-9.971540,-9.971961,950276.000000,1670929864.874957
1670930376.868854,,,,-10.010053,-10.013310,950277.000000,1670929864.875964
1670930376.868867,,,,-10.085348,-10.088557,950278.000000,1670929864.876971
1670930376.871213,,,,-10.165307,-10.171064,950279.000000,1670929864.877978
1670930376.871415,,,,-10.178865,-10.183926,950280.000000,1670929864.878985
1670930376.871441,,,,-10.166077,-10.167603,950281.000000,1670929864.879992
1670930376.871771,,,,-10.148118,-10.150317,950282.000000,1670929864.881000
1670930376.893610,,,,-10.143189,-10.147552,950283.000000,1670929864.882007
1670930376.893632,,,,-10.129655,-10.134691,950284.000000,1670929864.883014
1670930376.893764,,,,-10.109797,-10.113824,950285.000000,1670929864.884021
1670930376.899438,,,,-10.145883,-10.151183,950286.000000,1670929864.885028
1670930376.899467,,,,-10.225312,-10.230516,950287.000000,1670929864.886035
1670930376.899705,,,,-10.337005,-10.340935,950288.000000,1670929864.887042
1670930376.900063,,,,-10.522333,-10.528500,950289.000000,1670929864.888049
1670930376.900462,18.489149,734868.000000,1670930376.839031,,,,
1670930376.900512,18.561514,734869.000000,1670930376.840031,,,,
1670930376.900520,18.796680,734870.000000,1670930376.841031,,,,
1670930376.902429,28.348270,734919.000000,1670930376.890031,,,,
1670930376.902447,28.547258,734920.000000,1670930376.891031,,,,
1670930376.902458,28.818611,734921.000000,1670930376.892031,,,,
1670930376.902463,29.035688,734922.000000,1670930376.893031,,,,
1670930376.902469,29.198507,734923.000000,1670930376.894031,,,,
1670930376.902485,29.524126,734924.000000,1670930376.895031,,,,
1670930376.902493,29.632669,734925.000000,1670930376.896031,,,,
1670930376.902509,29.867834,734926.000000,1670930376.897031,,,,
1670930376.902517,30.103008,734927.000000,1670930376.898031,,,,
1670930376.902524,30.320093,734928.000000,1670930376.899031,,,,
1670930376.906479,,,,-10.726822,-10.732266,950290.000000,1670929864.889056
1670930376.906494,,,,-10.789063,-10.793931,950291.000000,1670929864.890063
1670930376.906701,,,,-10.780745,-10.784699,950292.000000,1670929864.891070
1670930376.906713,,,,-10.740717,-10.742941,950293.000000,1670929864.892077
1670930376.908721,,,,-10.640132,-10.640961,950294.000000,1670929864.893085
1670930376.908832,,,,-10.474468,-10.474504,950295.000000,1670929864.894092
1670930376.909062,,,,-10.240458,-10.241672,950296.000000,1670929864.895099
1670930376.909157,,,,-9.998826,-10.003093,950297.000000,1670929864.896106
1670930376.913880,,,,-9.891052,-9.894791,950298.000000,1670929864.897113
1670930376.914018,,,,-9.884562,-9.886713,950299.000000,1670929864.898120
1670930376.914140,,,,-9.922257,-9.927895,950300.000000,1670929864.899127
1670930376.916200,,,,-9.974713,-9.979029,950301.000000,1670929864.900134
1670930376.916335,,,,-10.051956,-10.053746,950302.000000,1670929864.901141
1670930376.916340,,,,-10.096695,-10.100024,950303.000000,1670929864.902148
1670930376.916530,,,,-10.117826,-10.121781,950304.000000,1670929864.903155
1670930376.921595,,,,-10.146892,-10.151303,950305.000000,1670929864.904162
1670930376.921945,,,,-10.179131,-10.180729,950306.000000,1670929864.905169
1670930376.922332,,,,-10.201079,-10.204240,950307.000000,1670929864.906177
1670930376.922339,,,,-10.224615,-10.227391,950308.000000,1670929864.907184
1670930376.923605,,,,-10.248608,-10.250976,950309.000000,1670929864.908191
1670930376.923797,,,,-10.268778,-10.269630,950310.000000,1670929864.909198
1670930376.932464,,,,-10.276278,-10.279920,950311.000000,1670929864.910205
1670930376.932563,,,,-10.279908,-10.283286,950312.000000,1670929864.911212
1670930376.932779,,,,-10.301713,-10.304538,950313.000000,1670929864.912219
1670930376.933018,,,,-10.372151,-10.377813,950314.000000,1670929864.913226
1670930376.933033,,,,-10.406554,-10.410701,950315.000000,1670929864.914233
1670930376.933051,,,,-10.442182,-10.446353,950316.000000,1670929864.915240
1670930376.933273,,,,-10.444538,-10.448252,950317.000000,1670929864.916247
1670930376.933394,,,,-10.431171,-10.434958,950318.000000,1670929864.917254
1670930376.953501,,,,-10.397563,-10.402238,950319.000000,1670929864.918262
1670930376.953722,,,,-10.396216,-10.399209,950320.000000,1670929864.919269
1670930376.953951,,,,-10.361598,-10.366201,950321.000000,1670929864.920276
1670930376.954105,,,,-10.300295,-10.304970,950322.000000,1670929864.921283
1670930376.954360,,,,-10.236346,-10.240374,950323.000000,1670929864.922290
1670930376.954505,,,,-10.181943,-10.184575,950324.000000,1670929864.923297
1670930376.954653,,,,-10.157085,-10.159212,950325.000000,1670929864.924304
1670930376.954905,,,,-10.207474,-10.207390,950326.000000,1670929864.925311
1670930376.954963,,,,-10.216393,-10.217631,950327.000000,1670929864.926318
1670930376.955104,,,,-10.166101,-10.171017,950328.000000,1670929864.927325
1670930376.956512,41.662601,734980.000000,1670930376.945409,,,,
1670930376.956551,41.897766,734981.000000,1670930376.946409,,,,
1670930376.956558,42.132942,734982.000000,1670930376.947409,,,,
1670930376.956608,42.313839,734983.000000,1670930376.948409,,,,
1670930376.956619,42.603279,734984.000000,1670930376.949409,,,,
1670930376.956627,42.820366,734985.000000,1670930376.950409,,,,
1670930376.956634,43.073631,734986.000000,1670930376.951409,,,,
1670930376.956638,43.272617,734987.000000,1670930376.952409,,,,
1670930376.956678,43.543968,734988.000000,1670930376.953409,,,,
1670930376.956685,43.797234,734989.000000,1670930376.954409,,,,
1670930376.958856,,,,-10.103234,-10.107574,950329.000000,1670929864.928332
1670930376.958868,,,,-10.108090,-10.109448,950330.000000,1670929864.929339
1670930376.959048,,,,-10.169803,-10.172699,950331.000000,1670929864.930346
1670930376.959379,,,,-10.239160,-10.241695,950332.000000,1670929864.931354
1670930376.976920,,,,-10.247814,-10.250399,950333.000000,1670929864.932361
1670930376.977269,,,,-10.254930,-10.257730,950334.000000,1670929864.933368
1670930376.977532,,,,-10.273922,-10.273958,950335.000000,1670929864.934375
1670930376.977546,,,,-10.341428,-10.342569,950336.000000,1670929864.935382
1670930376.978090,,,,-10.415280,-10.418970,950337.000000,1670929864.936389
1670930376.978266,,,,-10.416290,-10.421518,950338.000000,1670929864.937396
1670930376.978592,,,,-10.387489,-10.392118,950339.000000,1670929864.938403
1670930376.978608,,,,-10.340202,-10.345166,950340.000000,1670929864.939410
1670930376.978615,,,,-10.271086,-10.275329,950341.000000,1670929864.940417
1670930376.978821,,,,-10.227813,-10.228569,950342.000000,1670929864.941424
1670930376.979043,,,,-10.241203,-10.245301,950343.000000,1670929864.942431
1670930376.979420,,,,-10.220600,-10.226069,950344.000000,1670929864.943439
1670930376.979603,,,,-10.145714,-10.148178,950345.000000,1670929864.944446
1670930376.979704,,,,-10.125207,-10.129210,950346.000000,1670929864.945453
1670930376.979866,,,,-10.148022,-10.150461,950347.000000,1670929864.946460
1670930376.980675,,,,-10.144487,-10.147625,950348.000000,1670929864.947467
1670930376.980958,,,,-10.150930,-10.153683,950349.000000,1670929864.948474
1670930376.981367,,,,-10.158407,-10.164237,950350.000000,1670929864.949481
1670930376.981567,,,,-10.183169,-10.186186,950351.000000,1670929864.950488
1670930376.981833,,,,-10.221177,-10.224771,950352.000000,1670929864.951495
1670930376.982079,,,,-10.220432,-10.223593,950353.000000,1670929864.952502
1670930376.982088,,,,-10.255242,-10.259101,950354.000000,1670929864.953509
1670930376.982092,,,,-10.426483,-10.433827,950355.000000,1670929864.954516
1670930376.982705,,,,-10.629337,-10.636008,950356.000000,1670929864.955523
1670930376.982797,,,,-10.780144,-10.785348,950357.000000,1670929864.956531
1670930376.983201,,,,-10.866113,-10.871582,950358.000000,1670929864.957538
1670930376.983217,,,,-10.879888,-10.884443,950359.000000,1670929864.958545
1670930376.983237,,,,-10.850270,-10.852422,950360.000000,1670929864.959552
1670930376.983265,,,,-10.728048,-10.731281,950361.000000,1670929864.960559
1670930376.983428,,,,-10.497018,-10.502367,950362.000000,1670929864.961566
1670930376.983447,,,,-10.248655,-10.252874,950363.000000,1670929864.962573
1670930376.983463,,,,-10.122587,-10.124954,950364.000000,1670929864.963580
1670930376.983474,,,,-10.002000,-10.003935,950365.000000,1670929864.964587
1670930376.983489,,,,-9.904659,-9.908662,950366.000000,1670929864.965594
1670930376.983495,,,,-9.941489,-9.944434,950367.000000,1670929864.966601
1670930376.983531,,,,-10.082271,-10.085937,950368.000000,1670929864.967608
1670930376.983547,,,,-10.282023,-10.283406,950369.000000,1670929864.968616
1670930376.983556,,,,-10.412395,-10.415965,950370.000000,1670929864.969623
1670930376.983924,,,,-10.415424,-10.422168,950371.000000,1670929864.970630
1670930376.983943,,,,-10.337773,-10.343940,950372.000000,1670929864.971637
1670930376.983952,,,,-10.224687,-10.227560,950373.000000,1670929864.972644
1670930376.984170,,,,-10.154898,-10.159092,950374.000000,1670929864.973651
1670930376.984417,,,,-10.089724,-10.093750,950375.000000,1670929864.974658
1670930376.991355,,,,-9.989186,-9.989631,950376.000000,1670929864.975665
1670930376.991585,,,,-9.964208,-9.968427,950377.000000,1670929864.976672
1670930376.991745,,,,-10.069313,-10.073580,950378.000000,1670929864.977679
1670930376.991921,,,,-10.192232,-10.194360,950379.000000,1670929864.978686
1670930376.992095,,,,-10.289813,-10.292613,950380.000000,1670929864.979693
1670930376.992271,,,,-10.318276,-10.322832,950381.000000,1670929864.980700
1670930376.996621,,,,-10.314406,-10.317712,950382.000000,1670929864.981708
1670930376.996924,,,,-10.329264,-10.331126,950383.000000,1670929864.982715
1670930376.997188,,,,-10.335875,-10.337400,950384.000000,1670929864.983722
1670930376.997813,,,,-10.298635,-10.302374,950385.000000,1670929864.984729
1670930376.997838,,,,-10.202690,-10.208688,950386.000000,1670929864.985736
1670930376.997849,,,,-10.168937,-10.174142,950387.000000,1670929864.986743
1670930376.998321,,,,-10.218076,-10.223256,950388.000000,1670929864.987750
1670930377.019132,,,,-10.220984,-10.225516,950389.000000,1670929864.988757
1670930377.019143,,,,-10.136002,-10.140124,950390.000000,1670929864.989764
1670930377.019154,,,,-10.096911,-10.100866,950391.000000,1670929864.990771
1670930377.019159,,,,-10.106119,-10.108655,950392.000000,1670929864.991778
1670930377.019167,,,,-10.144343,-10.147216,950393.000000,1670929864.992785
1670930377.019172,,,,-10.207979,-10.211645,950394.000000,1670929864.993793
1670930377.019175,,,,-10.261397,-10.267587,950395.000000,1670929864.994800
1670930377.019192,,,,-10.304718,-10.308721,950396.000000,1670929864.995807
1670930377.019646,56.532681,735041.000000,1670930377.009397,,,,
1670930377.019652,56.785942,735042.000000,1670930377.010397,,,,
1670930377.019654,56.948753,735043.000000,1670930377.011397,,,,
1670930377.019719,57.165836,735044.000000,1670930377.012397,,,,
1670930377.019724,57.364834,735045.000000,1670930377.013397,,,,
1670930377.019728,57.599991,735046.000000,1670930377.014397,,,,
1670930377.019736,57.817078,735047.000000,1670930377.015397,,,,
1670930377.019751,57.979897,735048.000000,1670930377.016397,,,,
1670930377.019754,58.233158,735049.000000,1670930377.017397,,,,
1670930377.019770,58.359783,735050.000000,1670930377.018397,,,,
1670930377.020181,,,,-10.396601,-10.400700,950397.000000,1670929864.996814
1670930377.020308,,,,-10.486297,-10.489049,950398.000000,1670929864.997821
1670930377.020466,,,,-10.509423,-10.514171,950399.000000,1670929864.998828
1670930377.020550,,,,-10.564139,-10.570714,950400.000000,1670929864.999835
1670930377.020676,,,,-10.574188,-10.576820,950401.000000,1670929865.000842
1670930377.020771,,,,-10.555894,-10.559151,950402.000000,1670929865.001849
1670930377.020897,,,,-10.638762,-10.639519,950403.000000,1670929865.002856
1670930377.026326,,,,-10.690640,-10.692624,950404.000000,1670929865.003863
1670930377.026393,,,,-10.740789,-10.742892,950405.000000,1670929865.004870
1670930377.026485,,,,-10.754877,-10.756524,950406.000000,1670929865.005877
1670930377.033986,,,,-10.588636,-10.592904,950407.000000,1670929865.006885
1670930377.034627,,,,-10.342101,-10.348051,950408.000000,1670929865.007892
1670930377.034643,,,,-10.217091,-10.219554,950409.000000,1670929865.008899
1670930377.034879,,,,-10.079001,-10.082860,950410.000000,1670929865.009906
1670930377.035346,,,,-9.913939,-9.917870,950411.000000,1670929865.010913
1670930377.036599,,,,-9.888336,-9.890679,950412.000000,1670929865.011920
1670930377.036622,,,,-9.930912,-9.935636,950413.000000,1670929865.012927
1670930377.041898,,,,-9.992071,-9.996626,950414.000000,1670929865.013934
1670930377.042228,,,,-10.106889,-10.110675,950415.000000,1670929865.014941
1670930377.042252,,,,-10.215961,-10.220997,950416.000000,1670929865.015948
1670930377.042385,,,,-10.259233,-10.263476,950417.000000,1670929865.016955
1670930377.057515,,,,-10.245217,-10.247634,950418.000000,1670929865.017962
1670930377.057540,,,,-10.143887,-10.145774,950419.000000,1670929865.018970
1670930377.057697,,,,-10.042916,-10.048025,950420.000000,1670929865.019977
1670930377.057713,,,,-9.973488,-9.976504,950421.000000,1670929865.020984
1670930377.081115,,,,-9.923940,-9.928399,950422.000000,1670929865.021991
1670930377.081145,,,,-9.933604,-9.936164,950423.000000,1670929865.022998
1670930377.081163,,,,-10.014044,-10.016556,950424.000000,1670929865.024005
1670930377.081175,,,,-10.096599,-10.099135,950425.000000,1670929865.025012
1670930377.084431,66.138535,735102.000000,1670930377.073167,,,,
1670930377.084445,66.265160,735103.000000,1670930377.074167,,,,
1670930377.084450,66.427979,735104.000000,1670930377.075167,,,,
1670930377.084455,66.536514,735105.000000,1670930377.076167,,,,
1670930377.084460,66.608887,735106.000000,1670930377.077167,,,,
1670930377.084466,66.735512,735107.000000,1670930377.078167,,,,
1670930377.084484,66.807869,735108.000000,1670930377.079167,,,,
1670930377.084502,66.916420,735109.000000,1670930377.080167,,,,
1670930377.084510,67.043037,735110.000000,1670930377.081167,,,,
1670930377.084534,67.133484,735111.000000,1670930377.082167,,,,
1670930377.086257,,,,-10.156436,-10.158684,950426.000000,1670929865.026019
1670930377.086488,,,,-10.193315,-10.196018,950427.000000,1670929865.027026
1670930377.086665,,,,-10.205671,-10.209361,950428.000000,1670929865.028033
1670930377.094166,,,,-10.233317,-10.238859,950429.000000,1670929865.029040
1670930377.094716,,,,-10.273081,-10.276050,950430.000000,1670929865.030047
1670930377.094745,,,,-10.281375,-10.285401,950431.000000,1670929865.031054
1670930377.095033,,,,-10.262959,-10.265664,950432.000000,1670929865.032062
1670930377.098066,,,,-10.267551,-10.269919,950433.000000,1670929865.033069
1670930377.098722,,,,-10.277528,-10.283767,950434.000000,1670929865.034076
1670930377.100016,,,,-10.264234,-10.270304,950435.000000,1670929865.035083
1670930377.100966,,,,-10.231395,-10.239388,950444.000000,1670929865.044147
1670930377.100983,,,,-10.214397,-10.221549,950445.000000,1670929865.045154
1670930377.101115,,,,-10.180332,-10.181594,950446.000000,1670929865.046161
1670930377.101131,,,,-10.176582,-10.181810,950447.000000,1670929865.047168
1670930377.101204,,,,-10.200069,-10.205923,950448.000000,1670929865.048175
1670930377.101386,,,,-10.201632,-10.203832,950449.000000,1670929865.049182
1670930377.101407,,,,-10.209108,-10.211164,950450.000000,1670929865.050189
1670930377.101578,,,,-10.261061,-10.261649,950451.000000,1670929865.051196
1670930377.101600,,,,-10.315296,-10.317543,950452.000000,1670929865.052203
1670930377.101955,,,,-10.307026,-10.311413,950453.000000,1670929865.053210
1670930377.102258,,,,-10.291808,-10.298431,950454.000000,1670929865.054217
1670930377.102366,,,,-10.390519,-10.395555,950455.000000,1670929865.055224
1670930377.102374,,,,-10.586353,-10.590596,950456.000000,1670929865.056231
1670930377.102406,,,,-10.710499,-10.713275,950457.000000,1670929865.057239
1670930377.104271,,,,-10.782019,-10.786671,950458.000000,1670929865.058246
1670930377.104291,,,,-10.808825,-10.814269,950459.000000,1670929865.059253
1670930377.104300,,,,-10.731510,-10.735368,950460.000000,1670929865.060260
1670930377.104616,,,,-10.607893,-10.608170,950461.000000,1670929865.061267
1670930377.104744,,,,-10.455645,-10.455705,950462.000000,1670929865.062274
1670930377.104842,,,,-10.249882,-10.254413,950463.000000,1670929865.063281
1670930377.109050,,,,-10.050970,-10.056920,950464.000000,1670929865.064288
1670930377.109070,,,,-9.912881,-9.917846,950465.000000,1670929865.065295
1670930377.109084,,,,-9.806718,-9.809639,950466.000000,1670929865.066302
1670930377.109346,,,,-9.816959,-9.822741,950467.000000,1670929865.067309
1670930377.133247,,,,-9.949062,-9.952752,950468.000000,1670929865.068316
1670930377.134291,,,,-10.054816,-10.057233,950469.000000,1670929865.069324
1670930377.134316,,,,-10.099845,-10.102308,950470.000000,1670929865.070331
1670930377.134326,,,,-10.116000,-10.119425,950471.000000,1670929865.071338
1670930377.134363,,,,-10.141579,-10.147552,950472.000000,1670929865.072345
1670930377.134373,,,,-10.155306,-10.158900,950473.000000,1670929865.073352
1670930377.134434,,,,-10.200502,-10.202991,950474.000000,1670929865.074359
1670930377.147141,,,,-10.239760,-10.242873,950475.000000,1670929865.075366
1670930377.147318,,,,-10.224855,-10.228642,950476.000000,1670929865.076373
1670930377.147339,,,,-10.142805,-10.148322,950477.000000,1670929865.077380
1670930377.147517,,,,-10.063519,-10.066368,950478.000000,1670929865.078387
1670930377.147892,,,,-10.091022,-10.094567,950479.000000,1670929865.079394
1670930377.147903,,,,-10.140257,-10.144187,950480.000000,1670929865.080401
1670930377.148021,,,,-10.181414,-10.182988,950481.000000,1670929865.081409
1670930377.148077,67.658104,735115.000000,1670930377.090002,,,,
1670930377.148085,,,,-10.216561,-10.219914,950482.000000,1670929865.082416
1670930377.148523,,,,-10.247141,-10.251600,950483.000000,1670929865.083423
1670930377.148531,,,,-10.309958,-10.314250,950484.000000,1670929865.084430
1670930377.149222,67.712387,735116.000000,1670930377.091002,,,,
1670930377.149236,67.820915,735117.000000,1670930377.092002,,,,
1670930377.149241,67.965630,735118.000000,1670930377.093002,,,,
1670930377.149249,68.038002,735119.000000,1670930377.094002,,,,
1670930377.149256,68.110359,735120.000000,1670930377.095002,,,,
1670930377.149259,68.291267,735121.000000,1670930377.096002,,,,
1670930377.149435,68.273178,735122.000000,1670930377.097002,,,,
1670930377.149446,68.399803,735123.000000,1670930377.098002,,,,
1670930377.149455,68.508339,735124.000000,1670930377.099002,,,,
1670930377.149464,73.266037,735163.000000,1670930377.138002,,,,
1670930377.149468,73.338409,735164.000000,1670930377.139002,,,,
1670930377.149471,73.555481,735165.000000,1670930377.140002,,,,
1670930377.149491,73.664032,735166.000000,1670930377.141002,,,,
1670930377.149511,73.808746,735167.000000,1670930377.142002,,,,
1670930377.149515,74.007736,735168.000000,1670930377.143002,,,,
1670930377.149522,74.170555,735169.000000,1670930377.144002,,,,
1670930377.149527,74.261002,735170.000000,1670930377.145002,,,,
1670930377.149532,74.441910,735171.000000,1670930377.146002,,,,
1670930377.149543,74.568535,735172.000000,1670930377.147002,,,,
1670930377.154394,,,,-10.369171,-10.374663,950485.000000,1670929865.085437
1670930377.154634,,,,-10.369843,-10.373582,950486.000000,1670929865.086444
1670930377.155125,,,,-10.375036,-10.378078,950487.000000,1670929865.087451
1670930377.155299,,,,-10.377393,-10.382429,950488.000000,1670929865.088458
1670930377.155308,,,,-10.347150,-10.353580,950489.000000,1670929865.089465
1670930377.155342,,,,-10.325994,-10.332112,950490.000000,1670929865.090472
1670930377.155349,,,,-10.294693,-10.300186,950491.000000,1670929865.091479
1670930377.155363,,,,-10.263921,-10.270737,950492.000000,1670929865.092486
1670930377.155369,,,,-10.266662,-10.271602,950493.000000,1670929865.093493
1670930377.155375,,,,-10.270292,-10.274030,950494.000000,1670929865.094501
1670930377.155384,,,,-10.266878,-10.269318,950495.000000,1670929865.095508
1670930377.156412,,,,-10.274788,-10.278598,950496.000000,1670929865.096515
1670930377.156590,,,,-10.235385,-10.238066,950497.000000,1670929865.097522
1670930377.156748,,,,-10.160571,-10.163203,950498.000000,1670929865.098529
1670930377.156851,,,,-10.157614,-10.159958,950499.000000,1670929865.099536
1670930377.156996,,,,-10.311594,-10.315981,950500.000000,1670929865.100543
1670930377.157208,,,,-10.459948,-10.464190,950501.000000,1670929865.101550
1670930377.157216,,,,-10.547287,-10.550112,950502.000000,1670929865.102557
1670930377.157327,,,,-10.580367,-10.585547,950503.000000,1670929865.103564
1670930377.161353,,,,-10.547359,-10.553357,950504.000000,1670929865.104571
1670930377.161377,,,,-10.436100,-10.443492,950505.000000,1670929865.105578
1670930377.161682,,,,-10.328422,-10.332449,950506.000000,1670929865.106586
1670930377.161754,,,,-10.226057,-10.227992,950507.000000,1670929865.107593
1670930377.164087,,,,-10.132179,-10.134331,950508.000000,1670929865.108600
1670930377.164098,,,,-10.027795,-10.032062,950509.000000,1670929865.109607
1670930377.164253,,,,-9.952909,-9.955469,950510.000000,1670929865.110614
1670930377.164341,,,,-10.051811,-10.055069,950511.000000,1670929865.111621
1670930377.164587,,,,-10.203027,-10.205730,950512.000000,1670929865.112628
1670930377.164596,,,,-10.238318,-10.239868,950513.000000,1670929865.113635
1670930377.164620,,,,-10.204949,-10.209889,950514.000000,1670929865.114642
1670930377.169217,,,,-10.188867,-10.191306,950515.000000,1670929865.115649
1670930377.169488,,,,-10.166533,-10.168853,950516.000000,1670929865.116656
1670930377.169728,,,,-10.110351,-10.113584,950517.000000,1670929865.117663
1670930377.169978,,,,-10.070971,-10.075455,950518.000000,1670929865.118670
1670930377.170243,,,,-10.100253,-10.106083,950519.000000,1670929865.119678
1670930377.170521,,,,-10.140473,-10.146495,950520.000000,1670929865.120685
1670930377.177363,,,,-10.158360,-10.165247,950521.000000,1670929865.121692
1670930377.177764,,,,-10.137877,-10.141903,950522.000000,1670929865.122699
1670930377.178466,,,,-10.095493,-10.102958,950523.000000,1670929865.123706
1670930377.178820,,,,-10.095157,-10.101515,950524.000000,1670929865.124713
1670930377.179122,,,,-10.158600,-10.162602,950525.000000,1670929865.125720
1670930377.179224,,,,-10.242838,-10.247826,950526.000000,1670929865.126727
1670930377.179466,,,,-10.314936,-10.319827,950527.000000,1670929865.127734
1670930377.179622,,,,-10.399558,-10.402383,950528.000000,1670929865.128741
1670930377.179798,,,,-10.454683,-10.457747,950529.000000,1670929865.129748
1670930377.179968,,,,-10.474588,-10.475995,950530.000000,1670929865.130755
1670930377.180094,,,,-10.528511,-10.530566,950531.000000,1670929865.131763
1670930377.180211,,,,-10.616067,-10.617978,950532.000000,1670929865.132770
1670930377.180545,,,,-10.639266,-10.641730,950533.000000,1670929865.133777
1670930377.180680,,,,-10.546879,-10.552467,950534.000000,1670929865.134784
1670930377.180835,,,,-10.448889,-10.452459,950535.000000,1670929865.135791
1670930377.181589,,,,-10.302915,-10.304778,950538.000000,1670929865.138812
1670930377.181667,,,,-10.309694,-10.313866,950539.000000,1670929865.139819
1670930377.181936,,,,-10.301977,-10.305427,950540.000000,1670929865.140826
1670930377.181947,,,,-10.289212,-10.291699,950541.000000,1670929865.141833
1670930377.182074,,,,-10.252478,-10.256289,950542.000000,1670929865.142840
1670930377.182109,,,,-10.209854,-10.212173,950543.000000,1670929865.143847
1670930377.182284,,,,-10.141122,-10.144019,950544.000000,1670929865.144855
1670930377.182293,,,,-10.050249,-10.053578,950545.000000,1670929865.145862
1670930377.182299,,,,-10.023564,-10.025499,950546.000000,1670929865.146869
1670930377.182311,,,,-9.980772,-9.983019,950547.000000,1670929865.147876
1670930377.182417,,,,-9.913097,-9.919191,950548.000000,1670929865.148883
1670930377.182429,,,,-9.921271,-9.925418,950549.000000,1670929865.149890
1670930377.182499,,,,-10.004476,-10.009921,950550.000000,1670929865.150897
1670930377.182805,,,,-10.109653,-10.113295,950551.000000,1670929865.151904
1670930377.182880,,,,-10.201993,-10.202605,950552.000000,1670929865.152911
1670930377.182973,,,,-10.270292,-10.274583,950553.000000,1670929865.153918
1670930377.183003,,,,-10.383716,-10.384737,950554.000000,1670929865.154925
1670930377.183007,,,,-10.486921,-10.492606,950555.000000,1670929865.155932
1670930377.183021,,,,-10.573660,-10.577878,950556.000000,1670929865.156940
1670930377.203796,74.821793,735173.000000,1670930377.142213,,,,
1670930377.203962,74.966507,735174.000000,1670930377.143213,,,,
1670930377.204154,75.129326,735175.000000,1670930377.144212,,,,
1670930377.205738,75.219772,735176.000000,1670930377.145213,,,,
1670930377.205750,75.400681,735177.000000,1670930377.146213,,,,
1670930377.205755,75.563499,735178.000000,1670930377.147213,,,,
1670930377.205780,75.708206,735179.000000,1670930377.148213,,,,
1670930377.205787,82.690994,735224.000000,1670930377.193213,,,,
1670930377.205799,82.853813,735225.000000,1670930377.194213,,,,
1670930377.205807,82.980438,735226.000000,1670930377.195213,,,,
1670930377.205816,83.179436,735227.000000,1670930377.196213,,,,
1670930377.205825,83.306061,735228.000000,1670930377.197212,,,,
1670930377.205842,83.523148,735229.000000,1670930377.198213,,,,
1670930377.205856,83.631676,735230.000000,1670930377.199213,,,,
1670930377.205935,83.848763,735231.000000,1670930377.200212,,,,
1670930377.205952,83.975403,735232.000000,1670930377.201213,,,,
1670930377.205959,84.120117,735233.000000,1670930377.202213,,,,
1670930377.222097,,,,-10.615322,-10.617930,950557.000000,1670929865.157947
1670930377.222437,,,,-10.593949,-10.597784,950558.000000,1670929865.158954
1670930377.222839,,,,-10.532213,-10.537851,950559.000000,1670929865.159961
1670930377.222952,,,,-10.354602,-10.359254,950560.000000,1670929865.160968
1670930377.223147,,,,-10.144247,-10.150004,950561.000000,1670929865.161975
1670930377.223728,,,,-10.008370,-10.012469,950562.000000,1670929865.162982
1670930377.223747,,,,-9.916246,-9.919047,950563.000000,1670929865.163989
1670930377.223970,,,,-9.904803,-9.907652,950564.000000,1670929865.164996
1670930377.227490,,,,-9.873672,-9.878539,950565.000000,1670929865.166003
1670930377.227722,,,,-9.926080,-9.930274,950566.000000,1670929865.167010
1670930377.227747,,,,-10.031040,-10.033913,950567.000000,1670929865.168017
1670930377.228470,,,,-10.108138,-10.111636,950568.000000,1670929865.169024
1670930377.228909,,,,-10.133670,-10.138370,950569.000000,1670929865.170032
1670930377.228932,,,,-10.174610,-10.180777,950570.000000,1670929865.171039
1670930377.228949,,,,-10.198483,-10.205419,950571.000000,1670929865.172046
1670930377.229353,,,,-10.201176,-10.208279,950572.000000,1670929865.173053
1670930377.229467,,,,-10.187232,-10.193133,950573.000000,1670929865.174060
1670930377.229477,,,,-10.211946,-10.212919,950574.000000,1670929865.175067
1670930377.229498,,,,-10.226009,-10.229098,950575.000000,1670929865.176074
1670930377.229515,,,,-10.202786,-10.208327,950576.000000,1670929865.177081
1670930377.229576,,,,-10.219759,-10.225083,950577.000000,1670929865.178088
1670930377.229584,,,,-10.225288,-10.227992,950578.000000,1670929865.179095
1670930377.229985,,,,-10.249569,-10.250399,950579.000000,1670929865.180102
1670930377.230310,,,,-10.314334,-10.316269,950580.000000,1670929865.181109
1670930377.230616,,,,-10.377152,-10.381106,950581.000000,1670929865.182117
1670930377.230826,,,,-10.422036,-10.425389,950582.000000,1670929865.183124
1670930377.231095,,,,-10.444946,-10.446016,950583.000000,1670929865.184131
1670930377.231341,,,,-10.444418,-10.445343,950584.000000,1670929865.185138
1670930377.231487,,,,-10.490023,-10.492606,950585.000000,1670929865.186145
1670930377.231642,,,,-10.591113,-10.593024,950586.000000,1670929865.187152
1670930377.231879,,,,-10.740693,-10.741667,950587.000000,1670929865.188159
1670930377.232038,,,,-10.730020,-10.731065,950588.000000,1670929865.189166
1670930377.232332,,,,-10.601210,-10.602136,950589.000000,1670929865.190173
1670930377.232571,,,,-10.408646,-10.409547,950590.000000,1670929865.191180
1670930377.232742,,,,-10.184419,-10.186378,950591.000000,1670929865.192187
1670930377.232880,,,,-10.041378,-10.043986,950592.000000,1670929865.193194
1670930377.233141,,,,-9.934012,-9.940636,950593.000000,1670929865.194201
1670930377.233366,,,,-9.957621,-9.962705,950594.000000,1670929865.195209
1670930377.233538,,,,-9.995605,-9.999223,950595.000000,1670929865.196216
1670930377.233763,,,,-10.014957,-10.017757,950596.000000,1670929865.197223
1670930377.233934,,,,-10.038613,-10.043770,950597.000000,1670929865.198230
1670930377.234044,,,,-10.110230,-10.117935,950598.000000,1670929865.199237
1670930377.234374,,,,-10.184275,-10.186138,950599.000000,1670929865.200244
1670930377.234381,,,,-10.239857,-10.240253,950600.000000,1670929865.201251
1670930377.234944,,,,-10.273297,-10.276146,950601.000000,1670929865.202258
1670930377.234964,,,,-10.307146,-10.310524,950602.000000,1670929865.203265
1670930377.235387,,,,-10.352439,-10.355071,950603.000000,1670929865.204272
1670930377.235454,,,,-10.391000,-10.394209,950604.000000,1670929865.205279
1670930377.235503,,,,-10.394798,-10.397671,950605.000000,1670929865.206286
1670930377.235660,,,,-10.605369,-10.610887,950606.000000,1670929865.207294
1670930377.235670,,,,-10.903039,-10.908316,950607.000000,1670929865.208301
1670930377.235691,,,,-10.970761,-10.976302,950608.000000,1670929865.209308
1670930377.235703,,,,-10.883109,-10.885501,950609.000000,1670929865.210315
1670930377.236204,,,,-10.741534,-10.743782,950610.000000,1670929865.211322
1670930377.236491,,,,-10.543297,-10.545929,950611.000000,1670929865.212329
1670930377.236921,,,,-10.295126,-10.297374,950612.000000,1670929865.213336
1670930377.236974,,,,-10.112418,-10.117166,950613.000000,1670929865.214343
1670930377.236987,,,,-9.940408,-9.945084,950614.000000,1670929865.215350
1670930377.237208,,,,-9.802006,-9.805480,950615.000000,1670929865.216357
1670930377.237219,,,,-9.719811,-9.722107,950616.000000,1670929865.217364
1670930377.237316,,,,-9.695868,-9.698956,950617.000000,1670929865.218371
1670930377.237397,,,,-9.772244,-9.776126,950618.000000,1670929865.219378
1670930377.237421,,,,-9.921872,-9.926355,950619.000000,1670929865.220386
1670930377.237657,,,,-10.037267,-10.042567,950620.000000,1670929865.221393
1670930377.237673,,,,-10.063207,-10.067906,950621.000000,1670929865.222400
1670930377.237722,,,,-10.065250,-10.068700,950622.000000,1670929865.223407
1670930377.237886,,,,-10.061068,-10.064925,950623.000000,1670929865.224414
1670930377.238039,,,,-10.091502,-10.095097,950624.000000,1670929865.225421
1670930377.238214,,,,-10.097248,-10.101418,950625.000000,1670929865.226428
1670930377.238420,,,,-10.084411,-10.085216,950626.000000,1670929865.227435
1670930377.238541,,,,-10.087512,-10.087884,950627.000000,1670929865.228442
1670930377.238732,,,,-10.115784,-10.117262,950628.000000,1670929865.229449
1670930377.239049,,,,-10.157085,-10.160295,950629.000000,1670929865.230456
1670930377.239152,,,,-10.199420,-10.205490,950630.000000,1670929865.231463
1670930377.239164,,,,-10.248919,-10.252465,950631.000000,1670929865.232471
1670930377.243788,,,,-10.322147,-10.325477,950632.000000,1670929865.233478
1670930377.243973,,,,-10.433767,-10.437722,950633.000000,1670929865.234485
1670930377.243999,,,,-10.537935,-10.541529,950634.000000,1670929865.235492
1670930377.246569,,,,-10.626741,-10.630864,950635.000000,1670929865.236499
1670930377.246585,,,,-10.604311,-10.606439,950636.000000,1670929865.237506
1670930377.246591,,,,-10.550918,-10.552804,950637.000000,1670929865.238513
1670930377.246600,,,,-10.454394,-10.457459,950638.000000,1670929865.239520
1670930377.246607,,,,-10.346453,-10.350719,950639.000000,1670929865.240527
1670930377.246706,,,,-10.240722,-10.244052,950640.000000,1670929865.241534
1670930377.246711,,,,-10.089098,-10.091899,950641.000000,1670929865.242541
1670930377.261674,,,,-9.972982,-9.975350,950642.000000,1670929865.243548
1670930377.261693,,,,-9.909876,-9.913590,950643.000000,1670929865.244555
1670930377.261711,,,,-9.911896,-9.916812,950644.000000,1670929865.245563
1670930377.267529,,,,-9.988873,-9.993886,950645.000000,1670929865.246570
1670930377.268019,,,,-10.113764,-10.116901,950646.000000,1670929865.247577
1670930377.268164,,,,-10.179082,-10.183013,950647.000000,1670929865.248584
1670930377.268186,,,,-10.157830,-10.162890,950648.000000,1670929865.249591
1670930377.270373,90.089867,735285.000000,1670930377.259109,,,,
1670930377.270396,90.107956,735286.000000,1670930377.260109,,,,
1670930377.270417,90.216492,735287.000000,1670930377.261109,,,,
1670930377.270425,90.325027,735288.000000,1670930377.262109,,,,
1670930377.270439,90.451668,735289.000000,1670930377.263108,,,,
1670930377.270452,90.524025,735290.000000,1670930377.264109,,,,
1670930377.270490,90.668747,735291.000000,1670930377.265109,,,,
1670930377.270524,90.704926,735292.000000,1670930377.266109,,,,
1670930377.270535,90.795372,735293.000000,1670930377.267109,,,,
1670930377.270559,90.849640,735294.000000,1670930377.268109,,,,
1670930377.273811,,,,-10.153167,-10.155149,950649.000000,1670929865.250598
1670930377.274169,,,,-10.194083,-10.197412,950650.000000,1670929865.251605
1670930377.274301,,,,-10.222932,-10.228041,950651.000000,1670929865.252612
1670930377.274312,,,,-10.304982,-10.308144,950652.000000,1670929865.253619
1670930377.289819,,,,-10.366334,-10.369543,950653.000000,1670929865.254626
1670930377.289857,,,,-10.397538,-10.401566,950654.000000,1670929865.255633
1670930377.289910,,,,-10.450788,-10.452194,950655.000000,1670929865.256640
1670930377.296500,,,,-10.563562,-10.568671,950656.000000,1670929865.257648
1670930377.296987,,,,-10.792524,-10.800013,950657.000000,1670929865.258655
1670930377.297579,,,,-10.927608,-10.935674,950658.000000,1670929865.259662
1670930377.297680,,,,-10.843298,-10.850162,950659.000000,1670929865.260669
1670930377.301600,,,,-10.772932,-10.777175,950660.000000,1670929865.261676
1670930377.301926,,,,-10.821950,-10.824775,950661.000000,1670929865.262683
1670930377.302257,,,,-10.737712,-10.740826,950662.000000,1670929865.263690
1670930377.302803,,,,-10.493989,-10.496261,950663.000000,1670929865.264697
1670930377.302814,,,,-10.215672,-10.217078,950664.000000,1670929865.265704
1670930377.302846,,,,-10.070323,-10.075047,950665.000000,1670929865.266711
1670930377.303112,,,,-10.014091,-10.017253,950666.000000,1670929865.267718
1670930377.303480,,,,-9.846145,-9.847960,950667.000000,1670929865.268725
1670930377.303991,,,,-9.678823,-9.682128,950668.000000,1670929865.269732
1670930377.304003,,,,-9.720388,-9.723814,950669.000000,1670929865.270740
1670930377.304027,,,,-9.856241,-9.859547,950670.000000,1670929865.271747
1670930377.304358,,,,-9.942259,-9.947319,950671.000000,1670929865.272754
1670930377.304372,,,,-10.129438,-10.134643,950672.000000,1670929865.273761
1670930377.304801,,,,-10.291495,-10.297109,950673.000000,1670929865.274768
1670930377.304960,,,,-10.368930,-10.375145,950674.000000,1670929865.275775
1670930377.306373,,,,-10.005365,-10.007588,950680.000000,1670929865.281817
1670930377.306623,,,,-9.912208,-9.917605,950681.000000,1670929865.282825
1670930377.306644,,,,-9.840856,-9.845652,950682.000000,1670929865.283832
1670930377.306652,,,,-9.886124,-9.888468,950683.000000,1670929865.284839
1670930377.306672,,,,-10.026304,-10.030235,950684.000000,1670929865.285846
1670930377.306827,,,,-10.130039,-10.133634,950685.000000,1670929865.286853
1670930377.306845,,,,-10.203074,-10.207077,950686.000000,1670929865.287860
1670930377.306854,,,,-10.229279,-10.232608,950687.000000,1670929865.288867
1670930377.306872,,,,-10.315224,-10.320573,950688.000000,1670929865.289874
1670930377.306878,,,,-10.462616,-10.467388,950689.000000,1670929865.290881
1670930377.306894,,,,-10.580968,-10.585908,950690.000000,1670929865.291888
1670930377.306916,,,,-10.615297,-10.618772,950691.000000,1670929865.292895
1670930377.324320,,,,-10.614264,-10.617978,950692.000000,1670929865.293902
1670930377.324341,,,,-10.612701,-10.618507,950693.000000,1670929865.294909
1670930377.324642,,,,-10.636982,-10.644135,950694.000000,1670929865.295917
1670930377.324994,90.976280,735295.000000,1670930377.262900,,,,
1670930377.325068,90.958191,735296.000000,1670930377.263900,,,,
1670930377.326547,91.120995,735297.000000,1670930377.264900,,,,
1670930377.326562,91.193367,735298.000000,1670930377.265900,,,,
1670930377.326568,91.247635,735299.000000,1670930377.266900,,,,
1670930377.326652,91.410431,735300.000000,1670930377.267900,,,,
1670930377.326663,91.428520,735301.000000,1670930377.268900,,,,
1670930377.326670,91.464699,735302.000000,1670930377.269900,,,,
1670930377.326863,91.609428,735303.000000,1670930377.270900,,,,
1670930377.326903,91.663696,735304.000000,1670930377.271900,,,,
1670930377.326911,95.299812,735346.000000,1670930377.313900,,,,
1670930377.326923,95.354080,735347.000000,1670930377.314900,,,,
1670930377.326929,95.498810,735348.000000,1670930377.315900,,,,
1670930377.326984,95.516899,735349.000000,1670930377.316900,,,,
1670930377.326994,95.553078,735350.000000,1670930377.317900,,,,
1670930377.327000,95.625435,735351.000000,1670930377.318900,,,,
1670930377.327045,95.643524,735352.000000,1670930377.319900,,,,
1670930377.327057,95.697807,735353.000000,1670930377.320900,,,,
1670930377.327066,95.770164,735354.000000,1670930377.321900,,,,
1670930377.327073,95.752075,735355.000000,1670930377.322900,,,,
1670930377.327121,,,,-10.553441,-10.558910,950695.000000,1670929865.296924
1670930377.327131,,,,-10.347054,-10.350863,950696.000000,1670929865.297931
1670930377.327141,,,,-10.145426,-10.148706,950697.000000,1670929865.298938
1670930377.327146,,,,-9.964497,-9.969989,950698.000000,1670929865.299945
1670930377.334785,,,,-9.850857,-9.856662,950699.000000,1670929865.300952
1670930377.334799,,,,-9.791212,-9.798941,950700.000000,1670929865.301959
1670930377.334808,,,,-9.856001,-9.861037,950701.000000,1670929865.302966
1670930377.334970,,,,-9.983945,-9.989631,950702.000000,1670929865.303973
1670930377.335140,,,,-10.088089,-10.090361,950703.000000,1670929865.304980
1670930377.335289,,,,-10.150450,-10.152674,950704.000000,1670929865.305987
1670930377.335545,,,,-10.176077,-10.178036,950705.000000,1670929865.306994
1670930377.336235,,,,-10.150570,-10.151351,950706.000000,1670929865.308002
1670930377.336248,,,,-10.206320,-10.208424,950707.000000,1670929865.309009
1670930377.336274,,,,-10.243703,-10.246624,950708.000000,1670929865.310016
1670930377.342797,,,,-10.257719,-10.258524,950709.000000,1670929865.311023
1670930377.343037,,,,-10.237645,-10.238979,950710.000000,1670929865.312030
1670930377.343167,,,,-10.262815,-10.266698,950711.000000,1670929865.313037
1670930377.343227,,,,-10.261662,-10.265664,950712.000000,1670929865.314044
1670930377.343297,,,,-10.294837,-10.299008,950713.000000,1670929865.315051
1670930377.343381,,,,-10.511731,-10.514844,950714.000000,1670929865.316058
1670930377.343399,,,,-10.666504,-10.669641,950715.000000,1670929865.317065
1670930377.343404,,,,-10.745141,-10.747340,950716.000000,1670929865.318072
1670930377.343423,,,,-10.784639,-10.786622,950717.000000,1670929865.319079
1670930377.343431,,,,-10.737207,-10.741835,950718.000000,1670929865.320086
1670930377.343468,,,,-10.582771,-10.584273,950719.000000,1670929865.321094
1670930377.343493,,,,-10.356958,-10.359230,950720.000000,1670929865.322101
1670930377.344001,,,,-10.103642,-10.104280,950721.000000,1670929865.323108
1670930377.344251,,,,-9.921439,-9.926260,950722.000000,1670929865.324115
1670930377.344653,,,,-9.837418,-9.843127,950723.000000,1670929865.325122
1670930377.344835,,,,-9.744333,-9.749610,950724.000000,1670929865.326129
1670930377.344848,,,,-9.789577,-9.795792,950725.000000,1670929865.327136
1670930377.345142,,,,-10.005245,-10.008622,950726.000000,1670929865.328143
1670930377.349251,,,,-10.110975,-10.115651,950727.000000,1670929865.329150
1670930377.349366,,,,-10.152854,-10.157650,950728.000000,1670929865.330157
1670930377.349628,,,,-10.168192,-10.171594,950729.000000,1670929865.331164
1670930377.349876,,,,-10.184948,-10.187076,950730.000000,1670929865.332171
1670930377.350343,,,,-10.149705,-10.153972,950731.000000,1670929865.333179
1670930377.350360,,,,-10.114533,-10.119257,950732.000000,1670929865.334186
1670930377.350404,,,,-10.090301,-10.094736,950733.000000,1670929865.335193
1670930377.350418,,,,-10.047893,-10.054900,950734.000000,1670929865.336200
1670930377.351113,,,,-10.042388,-10.048698,950735.000000,1670929865.337207
1670930377.351385,,,,-10.098162,-10.102572,950736.000000,1670929865.338214
1670930377.351446,,,,-10.140714,-10.144235,950737.000000,1670929865.339221
1670930377.359730,,,,-10.188362,-10.192869,950738.000000,1670929865.340228
1670930377.360088,,,,-10.246420,-10.250446,950739.000000,1670929865.341235
1670930377.360100,,,,-10.278057,-10.282613,950740.000000,1670929865.342242
1670930377.360153,,,,-10.323662,-10.328194,950741.000000,1670929865.343249
1670930377.360683,,,,-10.413453,-10.416927,950742.000000,1670929865.344256
1670930377.361772,,,,-10.513895,-10.515854,950743.000000,1670929865.345263
1670930377.361791,,,,-10.554860,-10.556410,950744.000000,1670929865.346271
1670930377.361804,,,,-10.538585,-10.541721,950745.000000,1670929865.347278
1670930377.372631,,,,-10.465069,-10.468278,950746.000000,1670929865.348285
1670930377.372839,,,,-10.391697,-10.393151,950747.000000,1670929865.349292
1670930377.372853,,,,-10.303588,-10.305572,950748.000000,1670929865.350299
1670930377.378491,95.806343,735356.000000,1670930377.317979,,,,
1670930377.378504,95.842514,735357.000000,1670930377.318979,,,,
1670930377.379480,97.271637,735407.000000,1670930377.368979,,,,
1670930377.379488,97.307816,735408.000000,1670930377.369979,,,,
1670930377.379491,97.362099,735409.000000,1670930377.370979,,,,
1670930377.379544,97.344009,735410.000000,1670930377.371979,,,,
1670930377.379575,97.344009,735411.000000,1670930377.372979,,,,
1670930377.379580,97.325905,735412.000000,1670930377.373979,,,,
1670930377.379585,97.344009,735413.000000,1670930377.374979,,,,
1670930377.379602,97.344009,735414.000000,1670930377.375979,,,,
1670930377.379612,97.380188,735415.000000,1670930377.376979,,,,
1670930377.379616,97.362099,735416.000000,1670930377.377979,,,,
1670930377.379898,,,,-10.220552,-10.223882,950749.000000,1670929865.351306
1670930377.380030,,,,-10.110446,-10.112718,950750.000000,1670929865.352313
1670930377.380156,,,,-10.019453,-10.022085,950751.000000,1670929865.353320
1670930377.396118,,,,-9.981229,-9.982875,950752.000000,1670929865.354327
1670930377.396932,,,,-9.983055,-9.985423,950753.000000,1670929865.355334
1670930377.396964,,,,-10.070010,-10.072690,950754.000000,1670929865.356341
1670930377.396979,,,,-10.150619,-10.152986,950755.000000,1670929865.357348
1670930377.409002,,,,-10.120423,-10.122526,950756.000000,1670929865.358356
1670930377.409449,,,,-10.108138,-10.110723,950757.000000,1670929865.359363
1670930377.409465,,,,-10.209181,-10.210899,950758.000000,1670929865.360370
1670930377.411497,,,,-10.286759,-10.288791,950759.000000,1670929865.361377
1670930377.411514,,,,-10.328878,-10.332424,950760.000000,1670929865.362384
1670930377.411537,,,,-10.349866,-10.355287,950761.000000,1670929865.363391
1670930377.411668,,,,-10.368714,-10.372837,950762.000000,1670929865.364398
1670930377.416937,,,,-10.387898,-10.392598,950763.000000,1670929865.365405
1670930377.417501,,,,-10.374268,-10.377645,950764.000000,1670929865.366412
1670930377.417677,,,,-10.313012,-10.316895,950765.000000,1670929865.367419
1670930377.417697,,,,-10.269403,-10.276578,950766.000000,1670929865.368426
1670930377.420455,,,,-10.217715,-10.222126,950767.000000,1670929865.369433
1670930377.420798,,,,-10.169850,-10.174382,950768.000000,1670929865.370440
1670930377.421174,,,,-10.277888,-10.280689,950769.000000,1670929865.371448
1670930377.422372,,,,-10.524761,-10.528571,950770.000000,1670929865.372455
1670930377.422718,,,,-10.802261,-10.806144,950771.000000,1670929865.373462
1670930377.422743,,,,-10.995331,-10.997362,950772.000000,1670929865.374469
1670930377.423025,,,,-10.999610,-11.003276,950773.000000,1670929865.375476
1670930377.423158,,,,-10.785913,-10.789989,950774.000000,1670929865.376483
1670930377.423359,,,,-10.563154,-10.566772,950775.000000,1670929865.377490
1670930377.423369,,,,-10.352487,-10.358100,950776.000000,1670929865.378497
1670930377.423859,,,,-9.832273,-9.834496,950778.000000,1670929865.380511
1670930377.423936,,,,-9.578116,-9.580677,950779.000000,1670929865.381518
1670930377.423946,,,,-9.436927,-9.439727,950780.000000,1670929865.382525
1670930377.423950,,,,-9.568140,-9.571012,950781.000000,1670929865.383533
1670930377.423979,,,,-9.844894,-9.848007,950782.000000,1670929865.384540
1670930377.423988,,,,-10.068832,-10.072018,950783.000000,1670929865.385547
1670930377.423993,,,,-10.181246,-10.186859,950784.000000,1670929865.386554
1670930377.423997,,,,-10.201367,-10.206452,950785.000000,1670929865.387561
1670930377.424114,,,,-10.206825,-10.211645,950786.000000,1670929865.388568
1670930377.424175,,,,-10.214397,-10.217295,950787.000000,1670929865.389575
1670930377.429634,,,,-10.214566,-10.217775,950788.000000,1670929865.390582
1670930377.429640,,,,-10.196175,-10.200033,950789.000000,1670929865.391589
1670930377.429847,,,,-10.145185,-10.149669,950790.000000,1670929865.392596
1670930377.430022,,,,-10.113139,-10.115891,950791.000000,1670929865.393603
1670930377.430192,,,,-10.134704,-10.136566,950792.000000,1670929865.394610
1670930377.430387,,,,-10.175620,-10.178638,950793.000000,1670929865.395617
1670930377.430504,,,,-10.181943,-10.184959,950794.000000,1670929865.396625
1670930377.430694,,,,-10.209758,-10.212366,950795.000000,1670929865.397632
1670930377.430850,,,,-10.281326,-10.286195,950796.000000,1670929865.398639
1670930377.431001,,,,-10.306593,-10.310331,950797.000000,1670929865.399646
1670930377.431232,,,,-10.264714,-10.268380,950798.000000,1670929865.400653
1670930377.431325,,,,-10.234784,-10.238017,950799.000000,1670929865.401660
1670930377.431382,,,,-10.256349,-10.260135,950800.000000,1670929865.402667
1670930377.431518,,,,-10.294500,-10.296315,950801.000000,1670929865.403674
1670930377.431526,,,,-10.261685,-10.264918,950802.000000,1670929865.404681
1670930377.431713,,,,-10.238750,-10.242729,950803.000000,1670929865.405688
1670930377.431902,,,,-10.228630,-10.232824,950804.000000,1670929865.406695
1670930377.432560,,,,-10.211465,-10.214578,950805.000000,1670929865.407702
1670930377.432566,,,,-10.270965,-10.272924,950806.000000,1670929865.408710
1670930377.432584,,,,-10.307723,-10.312159,950807.000000,1670929865.409717
1670930377.432604,,,,-10.301136,-10.308504,950808.000000,1670929865.410724
1670930377.432692,,,,-10.304982,-10.310259,950809.000000,1670929865.411731
1670930377.432700,,,,-10.301641,-10.306942,950810.000000,1670929865.412738
1670930377.432720,,,,-10.246997,-10.249340,950811.000000,1670929865.413745
1670930377.432725,,,,-10.168119,-10.171545,950812.000000,1670929865.414752
1670930377.432743,,,,-10.135785,-10.138922,950813.000000,1670929865.415759
1670930377.432771,,,,-10.152133,-10.156063,950814.000000,1670929865.416766
1670930377.432780,,,,-10.242285,-10.247946,950815.000000,1670929865.417773
1670930377.433048,,,,-10.301857,-10.308023,950816.000000,1670929865.418780
1670930377.433367,,,,-10.337726,-10.342065,950817.000000,1670929865.419787
1670930377.433468,,,,-10.323926,-10.326222,950818.000000,1670929865.420794
1670930377.433568,,,,-10.266951,-10.271385,950819.000000,1670929865.421802
1670930377.433578,,,,-10.234207,-10.235685,950820.000000,1670929865.422809
1670930377.433637,,,,-10.181462,-10.182844,950821.000000,1670929865.423816
1670930377.433650,,,,-10.140594,-10.142913,950822.000000,1670929865.424823
1670930377.433760,,,,-10.165043,-10.171665,950823.000000,1670929865.425830
1670930377.440061,,,,-10.229182,-10.232656,950824.000000,1670929865.426837
1670930377.440082,,,,-10.333591,-10.338099,950825.000000,1670929865.427844
1670930377.440320,,,,-10.469396,-10.474095,950826.000000,1670929865.428851
1670930377.440493,,,,-10.586113,-10.588505,950827.000000,1670929865.429858
1670930377.453965,,,,-10.656311,-10.659160,950828.000000,1670929865.430865
1670930377.454249,97.362099,735420.000000,1670930377.395439,,,,
1670930377.454478,,,,-10.636525,-10.639976,950829.000000,1670929865.431872
1670930377.454675,97.380188,735421.000000,1670930377.396439,,,,
1670930377.456399,,,,-10.617558,-10.622907,950830.000000,1670929865.432879
1670930377.456542,97.362099,735422.000000,1670930377.397439,,,,
1670930377.456569,97.307816,735423.000000,1670930377.398439,,,,
1670930377.456609,97.307816,735424.000000,1670930377.399439,,,,
1670930377.456631,97.253548,735425.000000,1670930377.400439,,,,
1670930377.456650,97.199280,735426.000000,1670930377.401439,,,,
1670930377.456710,97.289726,735427.000000,1670930377.402439,,,,
1670930377.456748,97.271637,735428.000000,1670930377.403439,,,,
1670930377.456764,97.253548,735429.000000,1670930377.404439,,,,
1670930377.456811,96.222404,735468.000000,1670930377.443439,,,,
1670930377.456826,96.204315,735469.000000,1670930377.444439,,,,
1670930377.456843,96.150047,735470.000000,1670930377.445439,,,,
1670930377.456861,96.113869,735471.000000,1670930377.446439,,,,
1670930377.456877,96.023422,735472.000000,1670930377.447439,,,,
1670930377.456925,96.077690,735473.000000,1670930377.448439,,,,
1670930377.456936,96.005333,735474.000000,1670930377.449439,,,,
1670930377.456947,95.969154,735475.000000,1670930377.450439,,,,
1670930377.456955,95.951065,735476.000000,1670930377.451439,,,,
1670930377.456985,95.824425,735477.000000,1670930377.452439,,,,
1670930377.457012,,,,-10.591954,-10.595163,950831.000000,1670929865.433887
1670930377.457240,,,,-10.453794,-10.458157,950832.000000,1670929865.434894
1670930377.457606,,,,-10.247285,-10.250013,950833.000000,1670929865.435901
1670930377.461422,,,,-10.058495,-10.058290,950834.000000,1670929865.436908
1670930377.461436,,,,-9.934254,-9.937943,950835.000000,1670929865.437915
1670930377.461673,,,,-9.920310,-9.924000,950836.000000,1670929865.438922
1670930377.461679,,,,-9.917833,-9.920995,950837.000000,1670929865.439929
1670930377.463596,,,,-9.946947,-9.951791,950838.000000,1670929865.440936
1670930377.463976,,,,-10.027603,-10.031774,950839.000000,1670929865.441943
1670930377.463984,,,,-10.099003,-10.105242,950840.000000,1670929865.442950
1670930377.468981,,,,-10.117105,-10.120892,950841.000000,1670929865.443957
1670930377.468988,,,,-10.123693,-10.126590,950842.000000,1670929865.444964
1670930377.469025,,,,-10.072078,-10.075647,950843.000000,1670929865.445971
1670930377.469029,,,,-10.022482,-10.027662,950844.000000,1670929865.446979
1670930377.472669,,,,-10.062149,-10.064854,950845.000000,1670929865.447986
1670930377.472682,,,,-10.085781,-10.088268,950846.000000,1670929865.448993
1670930377.472848,,,,-10.093306,-10.096635,950847.000000,1670929865.450000
1670930377.473088,,,,-10.139511,-10.145510,950848.000000,1670929865.451007
1670930377.473302,,,,-10.205647,-10.209722,950849.000000,1670929865.452014
1670930377.473688,,,,-10.231058,-10.233762,950850.000000,1670929865.453021
1670930377.474516,,,,-10.213917,-10.219146,950851.000000,1670929865.454028
1670930377.474540,,,,-10.192088,-10.197822,950852.000000,1670929865.455035
1670930377.474595,,,,-10.222404,-10.228112,950853.000000,1670929865.456042
1670930377.474691,,,,-10.252310,-10.255976,950854.000000,1670929865.457049
1670930377.474707,,,,-10.267888,-10.269342,950855.000000,1670929865.458056
1670930377.474866,,,,-10.327413,-10.329684,950856.000000,1670929865.459064
1670930377.475035,,,,-10.380878,-10.382741,950857.000000,1670929865.460071
1670930377.475382,,,,-10.385158,-10.388030,950858.000000,1670929865.461078
1670930377.475497,,,,-10.389966,-10.392429,950859.000000,1670929865.462085
1670930377.475675,,,,-10.419848,-10.420076,950860.000000,1670929865.463092
1670930377.475722,,,,-10.408766,-10.412768,950861.000000,1670929865.464099
1670930377.479976,,,,-10.358112,-10.361538,950862.000000,1670929865.465106
1670930377.480363,,,,-10.286351,-10.286579,950863.000000,1670929865.466113
1670930377.480581,,,,-10.266157,-10.269654,950864.000000,1670929865.467120
1670930377.480592,,,,-10.284451,-10.286675,950865.000000,1670929865.468127
1670930377.480701,,,,-10.299068,-10.302374,950866.000000,1670929865.469134
1670930377.480710,,,,-10.343688,-10.346440,950867.000000,1670929865.470141
1670930377.480729,,,,-10.318686,-10.323482,950868.000000,1670929865.471148
1670930377.480904,,,,-10.242886,-10.248595,950869.000000,1670929865.472156
1670930377.481112,,,,-10.250146,-10.253572,950870.000000,1670929865.473163
1670930377.481233,,,,-10.248367,-10.249460,950871.000000,1670929865.474170
1670930377.481245,,,,-10.178168,-10.182460,950872.000000,1670929865.475177
1670930377.481252,,,,-10.214446,-10.217390,950873.000000,1670929865.476184
1670930377.481486,,,,-10.184395,-10.190705,950874.000000,1670929865.477191
1670930377.481828,,,,-10.132564,-10.138321,950875.000000,1670929865.478198
1670930377.482107,,,,-10.302627,-10.306942,950876.000000,1670929865.479205
1670930377.482211,,,,-10.604047,-10.608891,950877.000000,1670929865.480212
1670930377.482222,,,,-10.722374,-10.725752,950878.000000,1670929865.481219
1670930377.482346,,,,-10.645877,-10.649062,950879.000000,1670929865.482226
1670930377.482501,,,,-10.534426,-10.539630,950880.000000,1670929865.483233
1670930377.486439,,,,-10.393932,-10.398439,950881.000000,1670929865.484241
1670930377.486448,,,,-10.204277,-10.206669,950882.000000,1670929865.485248
1670930377.486457,,,,-10.075587,-10.080984,950883.000000,1670929865.486255
1670930377.486536,,,,-9.934445,-9.937438,950884.000000,1670929865.487262
1670930377.500663,,,,-9.847131,-9.851638,950885.000000,1670929865.488269
1670930377.500690,,,,-9.851458,-9.854426,950886.000000,1670929865.489276
1670930377.508103,,,,-9.923988,-9.927197,950887.000000,1670929865.490283
1670930377.508283,,,,-10.133309,-10.137287,950888.000000,1670929865.491290
1670930377.508428,,,,-10.304694,-10.310259,950889.000000,1670929865.492297
1670930377.508444,,,,-10.296184,-10.301773,950890.000000,1670929865.493304
1670930377.508820,,,,-10.221538,-10.226958,950891.000000,1670929865.494311
1670930377.508835,,,,-10.162133,-10.165895,950892.000000,1670929865.495318
1670930377.508971,,,,-10.113451,-10.117213,950893.000000,1670929865.496325
1670930377.508981,,,,-10.133574,-10.137456,950894.000000,1670929865.497333
1670930377.509817,95.896782,735478.000000,1670930377.449101,,,,
1670930377.509951,95.806343,735479.000000,1670930377.450101,,,,
1670930377.510944,94.286774,735519.000000,1670930377.490101,,,,
1670930377.510974,94.232491,735520.000000,1670930377.491102,,,,
1670930377.511038,94.196312,735521.000000,1670930377.492101,,,,
1670930377.511499,94.123955,735522.000000,1670930377.493101,,,,
1670930377.511511,94.105865,735523.000000,1670930377.494101,,,,
1670930377.511516,94.123955,735524.000000,1670930377.495101,,,,
1670930377.511531,94.069695,735525.000000,1670930377.496101,,,,
1670930377.511539,94.015427,735526.000000,1670930377.497101,,,,
1670930377.511597,93.997337,735527.000000,1670930377.498101,,,,
1670930377.511606,93.924965,735528.000000,1670930377.499101,,,,
1670930377.511619,93.888786,735529.000000,1670930377.500101,,,,
1670930377.511633,93.870697,735530.000000,1670930377.501101,,,,
1670930377.511638,93.834518,735531.000000,1670930377.502101,,,,
1670930377.511662,93.725983,735532.000000,1670930377.503101,,,,
1670930377.511676,93.689789,735533.000000,1670930377.504101,,,,
1670930377.511709,93.689789,735534.000000,1670930377.505101,,,,
1670930377.511716,93.653610,735535.000000,1670930377.506101,,,,
1670930377.511726,93.617432,735536.000000,1670930377.507101,,,,
1670930377.511731,93.563164,735537.000000,1670930377.508101,,,,
1670930377.511749,93.490807,735538.000000,1670930377.509101,,,,
1670930377.516621,,,,-10.165043,-10.168853,950895.000000,1670929865.498340
1670930377.517116,,,,-10.149825,-10.154765,950896.000000,1670929865.499347
1670930377.517229,,,,-10.120207,-10.125700,950897.000000,1670929865.500354
1670930377.517242,,,,-10.122010,-10.129642,950898.000000,1670929865.501361
1670930377.517276,,,,-10.142084,-10.144547,950899.000000,1670929865.502368
1670930377.517550,,,,-10.177977,-10.178926,950900.000000,1670929865.503375
1670930377.517733,,,,-10.215672,-10.220083,950901.000000,1670929865.504382
1670930377.521381,,,,-10.194973,-10.200153,950902.000000,1670929865.505389
1670930377.521597,,,,-10.180789,-10.187292,950903.000000,1670929865.506396
1670930377.521863,,,,-10.183938,-10.189744,950904.000000,1670929865.507403
1670930377.521909,,,,-10.195333,-10.199384,950905.000000,1670929865.508410
1670930377.523843,,,,-10.208941,-10.212991,950906.000000,1670929865.509418
1670930377.523943,,,,-10.227788,-10.232031,950907.000000,1670929865.510425
1670930377.523951,,,,-10.210359,-10.214890,950908.000000,1670929865.511432
1670930377.529139,,,,-10.171918,-10.177435,950909.000000,1670929865.512439
1670930377.529299,,,,-10.153551,-10.157001,950910.000000,1670929865.513446
1670930377.529313,,,,-10.156749,-10.159164,950911.000000,1670929865.514453
1670930377.529819,,,,-10.188386,-10.192989,950912.000000,1670929865.515460
1670930377.529961,,,,-10.228630,-10.235878,950913.000000,1670929865.516467
1670930377.529973,,,,-10.271975,-10.276603,950914.000000,1670929865.517474
1670930377.530092,,,,-10.275076,-10.277275,950915.000000,1670929865.518481
1670930377.530262,,,,-10.263080,-10.264101,950916.000000,1670929865.519488
1670930377.530965,,,,-10.271807,-10.273309,950917.000000,1670929865.520495
1670930377.531216,,,,-10.269787,-10.271505,950918.000000,1670929865.521502
1670930377.531230,,,,-10.292674,-10.295667,950919.000000,1670929865.522510
1670930377.536441,,,,-10.372921,-10.376876,950920.000000,1670929865.523517
1670930377.536571,,,,-10.456486,-10.459311,950921.000000,1670929865.524524
1670930377.536717,,,,-10.494590,-10.500372,950922.000000,1670929865.525531
1670930377.536907,,,,-10.464323,-10.470057,950923.000000,1670929865.526538
1670930377.536938,,,,-10.417781,-10.422769,950924.000000,1670929865.527545
1670930377.537033,,,,-10.386360,-10.388391,950925.000000,1670929865.528552
1670930377.537130,,,,-10.365781,-10.367908,950926.000000,1670929865.529559
1670930377.538498,,,,-10.278658,-10.281363,950927.000000,1670929865.530566
1670930377.538603,,,,-10.192809,-10.196259,950928.000000,1670929865.531573
1670930377.538709,,,,-10.126073,-10.129042,950929.000000,1670929865.532580
1670930377.543858,,,,-10.062822,-10.066488,950930.000000,1670929865.533587
1670930377.544061,,,,-10.041402,-10.043770,950931.000000,1670929865.534595
1670930377.544067,,,,-10.122972,-10.126878,950932.000000,1670929865.535602
1670930377.544163,,,,-10.204854,-10.208952,950933.000000,1670929865.536609
1670930377.546750,,,,-10.162590,-10.167939,950934.000000,1670929865.537616
1670930377.546793,,,,-10.100782,-10.106010,950935.000000,1670929865.538623
1670930377.546895,,,,-10.141579,-10.143874,950936.000000,1670929865.539630
1670930377.546910,,,,-10.186342,-10.188421,950937.000000,1670929865.540637
1670930377.546915,,,,-10.194853,-10.197869,950938.000000,1670929865.541644
1670930377.546926,,,,-10.190550,-10.197869,950939.000000,1670929865.542651
1670930377.546937,,,,-10.224903,-10.231935,950940.000000,1670929865.543658
1670930377.560337,,,,-10.328831,-10.331583,950941.000000,1670929865.544665
1670930377.561022,,,,-10.393139,-10.397911,950942.000000,1670929865.545672
1670930377.561055,,,,-10.435018,-10.440607,950943.000000,1670929865.546679
1670930377.561571,,,,-10.461751,-10.466955,950944.000000,1670929865.547687
1670930377.568574,,,,-10.429440,-10.434212,950945.000000,1670929865.548694
1670930377.568590,,,,-10.288755,-10.293743,950946.000000,1670929865.549701
1670930377.568602,,,,-10.121481,-10.128128,950947.000000,1670929865.550708
1670930377.568607,,,,-10.014573,-10.019561,950948.000000,1670929865.551715
1670930377.568944,,,,-9.988729,-9.993068,950949.000000,1670929865.552722
1670930377.568951,,,,-10.004355,-10.009945,950950.000000,1670929865.553729
1670930377.568953,,,,-10.020343,-10.023744,950951.000000,1670929865.554736
1670930377.569136,,,,-10.074890,-10.078028,950952.000000,1670929865.555743
1670930377.569166,,,,-10.116120,-10.119377,950953.000000,1670929865.556750
1670930377.569171,,,,-10.133430,-10.135580,950954.000000,1670929865.557757
1670930377.574352,,,,-10.140834,-10.142817,950955.000000,1670929865.558764
1670930377.574373,,,,-10.138430,-10.140869,950956.000000,1670929865.559772
1670930377.574708,,,,-10.149849,-10.151880,950957.000000,1670929865.560779
