__time,/gdx/grip_force_stream/grip_force,/gdx/grip_force_stream/header/seq,/gdx/grip_force_stream/header/stamp,/shimmer0/emg_stream/emg_ch1,/shimmer0/emg_stream/emg_ch2,/shimmer0/emg_stream/header/seq,/shimmer0/emg_stream/header/stamp
1670930494.138024,-0.903466,852111.000000,1670930494.078123,,,,
1670930494.139798,-0.939644,852161.000000,1670930494.128123,,,,
1670930494.139806,-0.975822,852162.000000,1670930494.129123,,,,
1670930494.139815,-0.993911,852163.000000,1670930494.130123,,,,
1670930494.139822,-0.975822,852164.000000,1670930494.131123,,,,
1670930494.139829,-0.957733,852165.000000,1670930494.132123,,,,
1670930494.139840,-1.012008,852166.000000,1670930494.133123,,,,
1670930494.139864,-1.012008,852167.000000,1670930494.134123,,,,
1670930494.139870,-0.993911,852168.000000,1670930494.135123,,,,
1670930494.139879,-1.048186,852169.000000,1670930494.136123,,,,
1670930494.139900,-1.030097,852170.000000,1670930494.137123,,,,
1670930494.142341,,,,-12.922084,-12.926519,1066670.000000,1670929982.133319
1670930494.142357,,,,-12.918839,-12.925438,1066671.000000,1670929982.134326
1670930494.142629,,,,-12.915064,-12.920533,1066672.000000,1670929982.135333
1670930494.143474,,,,-12.923286,-12.924668,1066673.000000,1670929982.136340
1670930494.143484,,,,-12.932446,-12.935751,1066674.000000,1670929982.137347
1670930494.143624,,,,-12.940210,-12.943131,1066675.000000,1670929982.138354
1670930494.143784,,,,-12.946677,-12.951257,1066676.000000,1670929982.139361
1670930494.143798,,,,-12.953794,-12.957556,1066677.000000,1670929982.140368
1670930494.143809,,,,-12.958217,-12.961546,1066678.000000,1670929982.141376
1670930494.143815,,,,-12.956991,-12.963446,1066679.000000,1670929982.142383
1670930494.144085,,,,-12.953841,-12.962388,1066680.000000,1670929982.143390
1670930494.144216,,,,-12.950885,-12.956762,1066681.000000,1670929982.144397
1670930494.144294,,,,-12.941917,-12.947988,1066682.000000,1670929982.145404
1670930494.144475,,,,-12.934586,-12.938684,1066683.000000,1670929982.146411
1670930494.144486,,,,-12.921964,-12.924284,1066684.000000,1670929982.147418
1670930494.144826,,,,-12.905832,-12.908753,1066685.000000,1670929982.148425
1670930494.144895,,,,-12.908092,-12.912696,1066686.000000,1670929982.149432
1670930494.144995,,,,-12.921267,-12.925317,1066687.000000,1670929982.150439
1670930494.145084,,,,-12.918358,-12.920774,1066688.000000,1670929982.151446
1670930494.145093,,,,-12.909776,-12.916951,1066689.000000,1670929982.152453
1670930494.145117,,,,-12.913502,-12.918899,1066690.000000,1670929982.153461
1670930494.145395,,,,-12.922685,-12.925365,1066691.000000,1670929982.154468
1670930494.145607,,,,-12.930354,-12.934020,1066692.000000,1670929982.155475
1670930494.145777,,,,-12.930185,-12.936376,1066693.000000,1670929982.156482
1670930494.145923,,,,-12.935018,-12.941617,1066694.000000,1670929982.157489
1670930494.146147,,,,-12.949658,-12.953901,1066695.000000,1670929982.158496
1670930494.146494,,,,-12.942134,-12.944766,1066696.000000,1670929982.159503
1670930494.146513,,,,-12.936941,-12.940944,1066697.000000,1670929982.160510
1670930494.146599,,,,-12.940667,-12.945030,1066698.000000,1670929982.161517
1670930494.147584,,,,-12.944682,-12.951281,1066699.000000,1670929982.162524
1670930494.148015,,,,-12.947038,-12.955104,1066700.000000,1670929982.163531
1670930494.148025,,,,-12.941317,-12.946304,1066701.000000,1670929982.164538
1670930494.148054,,,,-12.924488,-12.929428,1066702.000000,1670929982.165545
1670930494.148061,,,,-12.922276,-12.927264,1066703.000000,1670929982.166553
1670930494.148118,,,,-12.924656,-12.929668,1066704.000000,1670929982.167560
1670930494.148182,,,,-12.925258,-12.930078,1066705.000000,1670929982.168567
1670930494.148190,,,,-12.923238,-12.927457,1066706.000000,1670929982.169574
1670930494.150176,,,,-12.919680,-12.925726,1066707.000000,1670929982.170581
1670930494.150323,,,,-12.917276,-12.922120,1066708.000000,1670929982.171588
1670930494.150677,,,,-12.916170,-12.921855,1066709.000000,1670929982.172595
1670930494.150685,,,,-12.921723,-12.929861,1066710.000000,1670929982.173602
1670930494.150844,,,,-12.917901,-12.924043,1066711.000000,1670929982.174609
1670930494.151006,,,,-12.918141,-12.923827,1066712.000000,1670929982.175616
1670930494.151154,,,,-12.921916,-12.925125,1066713.000000,1670929982.176623
1670930494.151270,,,,-12.926051,-12.928178,1066714.000000,1670929982.177630
1670930494.151469,,,,-12.930210,-12.936376,1066715.000000,1670929982.178638
1670930494.151612,,,,-12.937061,-12.943035,1066716.000000,1670929982.179645
1670930494.155542,,,,-12.941388,-12.946521,1066717.000000,1670929982.180652
1670930494.155549,,,,-12.939874,-12.944573,1066718.000000,1670929982.181659
1670930494.155563,,,,-12.941845,-12.948348,1066719.000000,1670929982.182666
1670930494.155650,,,,-12.939778,-12.946016,1066720.000000,1670929982.183673
1670930494.155682,,,,-12.944249,-12.946569,1066721.000000,1670929982.184680
1670930494.155807,,,,-12.945163,-12.947434,1066722.000000,1670929982.185687
1670930494.155979,,,,-12.947014,-12.950752,1066723.000000,1670929982.186694
1670930494.158269,,,,-12.946797,-12.951137,1066724.000000,1670929982.187701
1670930494.158500,,,,-12.938696,-12.943852,1066725.000000,1670929982.188708
1670930494.158772,,,,-12.931292,-12.934837,1066726.000000,1670929982.189715
1670930494.158832,,,,-12.932950,-12.938516,1066727.000000,1670929982.190722
1670930494.159217,,,,-12.936628,-12.942098,1066728.000000,1670929982.191730
1670930494.159470,,,,-12.932542,-12.935631,1066729.000000,1670929982.192737
1670930494.159487,,,,-12.931869,-12.936279,1066730.000000,1670929982.193744
1670930494.159655,,,,-12.930305,-12.936208,1066731.000000,1670929982.194751
1670930494.159986,,,,-12.930979,-12.934717,1066732.000000,1670929982.195758
1670930494.160192,,,,-12.937951,-12.940824,1066733.000000,1670929982.196765
1670930494.160642,,,,-12.939826,-12.943588,1066734.000000,1670929982.197772
1670930494.160908,,,,-12.939874,-12.945727,1066735.000000,1670929982.198779
1670930494.160922,,,,-12.945235,-12.949382,1066736.000000,1670929982.199786
1670930494.160940,,,,-12.952063,-12.954959,1066737.000000,1670929982.200793
1670930494.161081,,,,-12.953650,-12.958204,1066738.000000,1670929982.201800
1670930494.162445,,,,-12.953650,-12.959118,1066739.000000,1670929982.202807
1670930494.162529,,,,-12.956342,-12.959647,1066740.000000,1670929982.203815
1670930494.162541,,,,-12.954418,-12.957964,1066741.000000,1670929982.204822
1670930494.170567,,,,-12.951293,-12.957387,1066742.000000,1670929982.205829
1670930494.170583,,,,-12.945572,-12.952194,1066743.000000,1670929982.206836
1670930494.170598,,,,-12.942999,-12.949069,1066744.000000,1670929982.207843
1670930494.171124,,,,-12.943048,-12.945776,1066745.000000,1670929982.208850
1670930494.171606,,,,-12.941581,-12.948252,1066746.000000,1670929982.209857
1670930494.171723,,,,-12.939417,-12.948421,1066747.000000,1670929982.210864
1670930494.171869,,,,-12.940619,-12.946881,1066748.000000,1670929982.211871
1670930494.172316,,,,-12.939153,-12.946617,1066749.000000,1670929982.212878
1670930494.172392,,,,-12.934753,-12.940174,1066750.000000,1670929982.213885
1670930494.172625,,,,-12.927156,-12.933707,1066751.000000,1670929982.214892
1670930494.186190,,,,-12.923671,-12.927384,1066752.000000,1670929982.215899
1670930494.186885,,,,-12.923935,-12.928154,1066753.000000,1670929982.216907
1670930494.186933,,,,-12.929753,-12.934284,1066754.000000,1670929982.217914
1670930494.186944,,,,-12.940884,-12.944453,1066755.000000,1670929982.218921
1670930494.193643,,,,-12.952351,-12.955921,1066756.000000,1670929982.219928
1670930494.193652,,,,-12.958939,-12.961378,1066757.000000,1670929982.220935
1670930494.193802,,,,-12.964252,-12.966811,1066758.000000,1670929982.221942
1670930494.193969,,,,-12.962280,-12.968302,1066759.000000,1670929982.222949
1670930494.200301,,,,-12.956943,-12.963133,1066760.000000,1670929982.223956
1670930494.200368,,,,-12.956775,-12.960585,1066761.000000,1670929982.224963
1670930494.200655,,,,-12.958145,-12.960008,1066762.000000,1670929982.225970
1670930494.200831,,,,-12.954250,-12.960008,1066763.000000,1670929982.226977
1670930494.201169,,,,-12.952784,-12.960224,1066764.000000,1670929982.227984
1670930494.201184,,,,-12.953866,-12.960608,1066765.000000,1670929982.228992
1670930494.202612,-0.957733,852171.000000,1670930494.141776,,,,
1670930494.204059,-0.993911,852172.000000,1670930494.142776,,,,
1670930494.204076,-0.993911,852173.000000,1670930494.143776,,,,
1670930494.204083,-0.957733,852174.000000,1670930494.144776,,,,
1670930494.204114,-1.030097,852175.000000,1670930494.145776,,,,
1670930494.204163,-0.993911,852176.000000,1670930494.146776,,,,
1670930494.204179,-0.975822,852177.000000,1670930494.147776,,,,
1670930494.204364,-1.030097,852222.000000,1670930494.192776,,,,
1670930494.204382,-1.048186,852223.000000,1670930494.193776,,,,
1670930494.204398,-0.993911,852224.000000,1670930494.194776,,,,
1670930494.204433,-1.012008,852225.000000,1670930494.195776,,,,
1670930494.204447,-0.957733,852226.000000,1670930494.196776,,,,
1670930494.204457,-0.975822,852227.000000,1670930494.197776,,,,
1670930494.204473,-1.030097,852228.000000,1670930494.198776,,,,
1670930494.204486,-0.993911,852229.000000,1670930494.199776,,,,
1670930494.204495,-0.993911,852230.000000,1670930494.200776,,,,
1670930494.204551,-1.012008,852231.000000,1670930494.201776,,,,
1670930494.207498,,,,-12.960093,-12.965177,1066766.000000,1670929982.229999
1670930494.207921,,,,-12.958169,-12.961402,1066767.000000,1670929982.231006
1670930494.208019,,,,-12.951365,-12.956930,1066768.000000,1670929982.232013
1670930494.208174,,,,-12.956125,-12.960585,1066769.000000,1670929982.233020
1670930494.210057,,,,-12.960981,-12.966859,1066770.000000,1670929982.234027
1670930494.210288,,,,-12.958602,-12.965177,1066771.000000,1670929982.235034
1670930494.210524,,,,-12.950668,-12.957844,1066772.000000,1670929982.236041
1670930494.210765,,,,-12.942855,-12.947555,1066773.000000,1670929982.237048
1670930494.210974,,,,-12.938023,-12.941112,1066774.000000,1670929982.238055
1670930494.211177,,,,-12.940860,-12.942458,1066775.000000,1670929982.239062
1670930494.211346,,,,-12.938745,-12.942242,1066776.000000,1670929982.240069
1670930494.214873,,,,-12.933239,-12.937602,1066777.000000,1670929982.241076
1670930494.215118,,,,-12.941173,-12.947867,1066778.000000,1670929982.242084
1670930494.215324,,,,-12.954226,-12.961162,1066779.000000,1670929982.243091
1670930494.215491,,,,-12.955428,-12.959287,1066780.000000,1670929982.244098
1670930494.217643,,,,-12.946197,-12.952147,1066781.000000,1670929982.245105
1670930494.217659,,,,-12.939922,-12.946473,1066782.000000,1670929982.246112
1670930494.217669,,,,-12.930210,-12.937049,1066783.000000,1670929982.247119
1670930494.222491,,,,-12.931268,-12.937073,1066784.000000,1670929982.248126
1670930494.222836,,,,-12.939177,-12.946665,1066785.000000,1670929982.249133
1670930494.223138,,,,-12.945283,-12.951426,1066786.000000,1670929982.250140
1670930494.223492,,,,-12.946365,-12.952243,1066787.000000,1670929982.251147
1670930494.224696,,,,-12.941509,-12.945055,1066788.000000,1670929982.252154
1670930494.225040,,,,-12.933623,-12.938419,1066789.000000,1670929982.253161
1670930494.225407,,,,-12.933936,-12.938323,1066790.000000,1670929982.254169
1670930494.230355,,,,-12.939080,-12.944670,1066791.000000,1670929982.255176
1670930494.230373,,,,-12.948648,-12.953253,1066792.000000,1670929982.256183
1670930494.230541,,,,-12.955212,-12.956835,1066793.000000,1670929982.257190
1670930494.230930,,,,-12.957880,-12.961162,1066794.000000,1670929982.258197
1670930494.230945,,,,-12.964179,-12.965730,1066795.000000,1670929982.259204
1670930494.231144,,,,-12.967232,-12.968229,1066796.000000,1670929982.260211
1670930494.231354,,,,-12.967280,-12.971210,1066797.000000,1670929982.261218
1670930494.232290,,,,-12.973194,-12.979432,1066798.000000,1670929982.262225
1670930494.232476,,,,-12.977954,-12.981332,1066799.000000,1670929982.263232
1670930494.233284,,,,-12.985311,-12.990660,1066800.000000,1670929982.264239
1670930494.233303,,,,-12.992955,-12.999338,1066801.000000,1670929982.265246
1670930494.246190,,,,-12.987065,-12.989746,1066802.000000,1670929982.266253
1670930494.246495,,,,-12.972906,-12.977197,1066803.000000,1670929982.267261
1670930494.246515,,,,-12.967280,-12.972100,1066804.000000,1670929982.268268
1670930494.253750,,,,-12.969636,-12.973783,1066805.000000,1670929982.269275
1670930494.254051,,,,-12.968602,-12.974504,1066806.000000,1670929982.270282
1670930494.254062,,,,-12.971416,-12.976667,1066807.000000,1670929982.271289
1670930494.254251,,,,-12.975478,-12.977606,1066808.000000,1670929982.272296
1670930494.258042,-0.939644,852283.000000,1670930494.246747,,,,
1670930494.258068,-0.975822,852284.000000,1670930494.247747,,,,
1670930494.258079,-0.993911,852285.000000,1670930494.248747,,,,
1670930494.258105,-0.939644,852286.000000,1670930494.249747,,,,
1670930494.258116,-0.957733,852287.000000,1670930494.250747,,,,
1670930494.258123,-0.903466,852288.000000,1670930494.251747,,,,
1670930494.258129,-0.939644,852289.000000,1670930494.252747,,,,
1670930494.258272,-0.957733,852290.000000,1670930494.253747,,,,
1670930494.258310,-0.975822,852291.000000,1670930494.254747,,,,
1670930494.258321,-0.957733,852292.000000,1670930494.255747,,,,
1670930494.260273,,,,-12.969612,-12.974288,1066809.000000,1670929982.273303
1670930494.260609,,,,-12.970573,-12.975058,1066810.000000,1670929982.274310
1670930494.260812,,,,-12.965020,-12.968999,1066811.000000,1670929982.275317
1670930494.261539,,,,-12.963169,-12.964720,1066812.000000,1670929982.276324
1670930494.261555,,,,-12.960573,-12.963999,1066813.000000,1670929982.277331
1670930494.261697,,,,-12.960621,-12.964840,1066814.000000,1670929982.278338
1670930494.261704,,,,-12.969348,-12.974432,1066815.000000,1670929982.279346
1670930494.261721,,,,-12.978891,-12.983159,1066816.000000,1670929982.280353
1670930494.262848,,,,-12.982522,-12.989697,1066817.000000,1670929982.281360
1670930494.262867,,,,-12.984541,-12.989049,1066818.000000,1670929982.282367
1670930494.262877,,,,-12.989085,-12.991501,1066819.000000,1670929982.283374
1670930494.262883,,,,-12.988893,-12.993232,1066820.000000,1670929982.284381
1670930494.262938,,,,-12.990527,-12.999242,1066821.000000,1670929982.285388
1670930494.262969,,,,-13.003677,-13.010757,1066822.000000,1670929982.286395
1670930494.267341,,,,-13.011683,-13.016143,1066823.000000,1670929982.287402
1670930494.267829,,,,-13.010481,-13.017681,1066824.000000,1670929982.288409
1670930494.267853,,,,-13.005457,-13.011743,1066825.000000,1670929982.289416
1670930494.267916,,,,-12.999422,-13.004819,1066826.000000,1670929982.290423
1670930494.269886,,,,-12.998076,-13.003281,1066827.000000,1670929982.291430
1670930494.269908,,,,-12.997427,-13.000540,1066828.000000,1670929982.292438
1670930494.269935,,,,-12.986392,-12.991428,1066829.000000,1670929982.293445
1670930494.274988,,,,-12.974204,-12.980562,1066830.000000,1670929982.294452
1670930494.275542,,,,-12.967424,-12.969865,1066831.000000,1670929982.295459
1670930494.275860,,,,-12.976103,-12.978471,1066832.000000,1670929982.296466
1670930494.276329,,,,-12.998268,-13.001213,1066833.000000,1670929982.297473
1670930494.277320,,,,-12.995960,-13.001766,1066834.000000,1670929982.298480
1670930494.277956,,,,-12.999542,-13.005612,1066835.000000,1670929982.299487
1670930494.277998,,,,-13.011804,-13.017152,1066836.000000,1670929982.300494
1670930494.278024,,,,-13.011659,-13.019196,1066837.000000,1670929982.301501
1670930494.282938,,,,-13.005192,-13.014267,1066838.000000,1670929982.302508
1670930494.283084,,,,-13.001249,-13.006815,1066839.000000,1670929982.303515
1670930494.283393,,,,-12.989710,-12.994915,1066840.000000,1670929982.304523
1670930494.284019,,,,-12.986681,-12.995059,1066841.000000,1670929982.305530
1670930494.284035,,,,-12.988749,-12.995612,1066842.000000,1670929982.306537
1670930494.284237,,,,-12.991153,-12.994987,1066843.000000,1670929982.307544
1670930494.284257,,,,-12.979854,-12.983567,1066844.000000,1670929982.308551
1670930494.284840,,,,-12.973050,-12.976572,1066845.000000,1670929982.309558
1670930494.285225,,,,-12.970453,-12.974048,1066846.000000,1670929982.310565
1670930494.285239,,,,-12.971079,-12.974625,1066847.000000,1670929982.311572
1670930494.290057,,,,-12.976055,-12.978880,1066848.000000,1670929982.312579
1670930494.290406,,,,-12.973699,-12.977509,1066849.000000,1670929982.313586
1670930494.290428,,,,-12.970790,-12.974601,1066850.000000,1670929982.314593
1670930494.290742,,,,-12.975382,-12.979794,1066851.000000,1670929982.315600
1670930494.293304,,,,-12.982618,-12.985683,1066852.000000,1670929982.316607
1670930494.293675,,,,-12.992571,-12.999362,1066853.000000,1670929982.317615
1670930494.293814,,,,-13.002187,-13.010228,1066854.000000,1670929982.318622
1670930494.293924,,,,-13.005072,-13.013209,1066855.000000,1670929982.319629
1670930494.294190,,,,-13.010289,-13.015517,1066856.000000,1670929982.320636
1670930494.294196,,,,-13.009327,-13.012656,1066857.000000,1670929982.321643
1670930494.294330,,,,-13.006202,-13.011815,1066858.000000,1670929982.322650
1670930494.294461,,,,-13.003173,-13.009940,1066859.000000,1670929982.323657
1670930494.294552,,,,-13.005024,-13.011382,1066860.000000,1670929982.324664
1670930494.294758,,,,-13.002091,-13.007704,1066861.000000,1670929982.325671
1670930494.294864,,,,-12.996201,-13.000444,1066862.000000,1670929982.326678
1670930494.294877,,,,-12.991994,-12.996020,1066863.000000,1670929982.327685
1670930494.294933,,,,-12.990600,-12.994025,1066864.000000,1670929982.328692
1670930494.295107,,,,-12.986561,-12.991453,1066865.000000,1670929982.329700
1670930494.295293,,,,-12.988484,-12.993424,1066866.000000,1670929982.330707
1670930494.298403,,,,-12.992331,-12.996717,1066867.000000,1670929982.331714
1670930494.298500,,,,-13.006226,-13.009820,1066868.000000,1670929982.332721
1670930494.317329,,,,-13.020530,-13.023908,1066869.000000,1670929982.333728
1670930494.317698,,,,-13.030267,-13.034101,1066870.000000,1670929982.334735
1670930494.318259,,,,-13.031301,-13.036144,1066871.000000,1670929982.335742
1670930494.318276,,,,-13.033463,-13.040014,1066872.000000,1670929982.336749
1670930494.319077,,,,-13.051350,-13.057853,1066873.000000,1670929982.337756
1670930494.319452,,,,-13.104984,-13.111175,1066874.000000,1670929982.338763
1670930494.319631,,,,-13.157489,-13.165747,1066875.000000,1670929982.339770
1670930494.319719,,,,-13.166649,-13.172623,1066876.000000,1670929982.340777
1670930494.319897,,,,-13.161624,-13.168896,1066877.000000,1670929982.341784
1670930494.320353,,,,-13.152104,-13.155650,1066878.000000,1670929982.342792
1670930494.320372,,,,-13.108470,-13.114372,1066879.000000,1670929982.343799
1670930494.323791,-0.849190,852344.000000,1670930494.311725,,,,
1670930494.323806,-0.921555,852345.000000,1670930494.312725,,,,
1670930494.323819,-0.903466,852346.000000,1670930494.313725,,,,
1670930494.323827,-0.903466,852347.000000,1670930494.314725,,,,
1670930494.323834,-0.885377,852348.000000,1670930494.315725,,,,
1670930494.323842,-0.831101,852349.000000,1670930494.316725,,,,
1670930494.323848,-0.849190,852350.000000,1670930494.317725,,,,
1670930494.323884,-0.957733,852351.000000,1670930494.318725,,,,
1670930494.323904,-0.903466,852352.000000,1670930494.319725,,,,
1670930494.323922,-0.885377,852353.000000,1670930494.320725,,,,
1670930494.324321,,,,-13.083612,-13.093505,1066880.000000,1670929982.344806
1670930494.324466,,,,-13.061183,-13.068070,1066881.000000,1670929982.345813
1670930494.324875,,,,-12.996297,-13.000565,1066882.000000,1670929982.346820
1670930494.324884,,,,-12.943192,-12.949695,1066883.000000,1670929982.347827
1670930494.324915,,,,-12.952543,-12.958926,1066884.000000,1670929982.348834
1670930494.324980,,,,-12.982955,-12.986452,1066885.000000,1670929982.349841
1670930494.324989,,,,-12.984782,-12.990996,1066886.000000,1670929982.350848
1670930494.324996,,,,-12.971391,-12.976283,1066887.000000,1670929982.351855
1670930494.327534,,,,-12.951630,-12.956498,1066888.000000,1670929982.352862
1670930494.327842,,,,-12.938408,-12.941929,1066889.000000,1670929982.353869
1670930494.327997,,,,-12.927133,-12.934501,1066890.000000,1670929982.354877
1670930494.328209,,,,-12.943961,-12.949598,1066891.000000,1670929982.355884
1670930494.328346,,,,-12.965140,-12.969143,1066892.000000,1670929982.356891
1670930494.328474,,,,-12.973844,-12.979649,1066893.000000,1670929982.357898
1670930494.331682,,,,-12.979854,-12.984914,1066894.000000,1670929982.358905
1670930494.331866,,,,-12.983387,-12.989169,1066895.000000,1670929982.359912
1670930494.332001,,,,-12.995576,-13.000685,1066896.000000,1670929982.360919
1670930494.332211,,,,-12.997234,-13.002656,1066897.000000,1670929982.361926
1670930494.332364,,,,-12.996899,-13.001477,1066898.000000,1670929982.362933
1670930494.335015,,,,-12.990143,-12.994795,1066899.000000,1670929982.363940
1670930494.335027,,,,-12.990479,-12.995396,1066900.000000,1670929982.364947
1670930494.340322,,,,-12.987955,-12.991790,1066901.000000,1670929982.365954
1670930494.340684,,,,-12.985527,-12.990419,1066902.000000,1670929982.366961
1670930494.340744,,,,-12.985167,-12.990611,1066903.000000,1670929982.367969
1670930494.340754,,,,-12.978531,-12.982077,1066904.000000,1670929982.368976
1670930494.343003,,,,-12.974060,-12.977100,1066905.000000,1670929982.369983
1670930494.343490,,,,-12.974612,-12.978807,1066906.000000,1670929982.370990
1670930494.343836,,,,-12.987667,-12.992535,1066907.000000,1670929982.371997
1670930494.344314,,,,-12.996009,-13.000035,1066908.000000,1670929982.373004
1670930494.344826,,,,-12.999062,-13.002391,1066909.000000,1670929982.374011
1670930494.345142,,,,-13.001273,-13.003881,1066910.000000,1670929982.375018
1670930494.345513,,,,-13.002500,-13.007440,1066911.000000,1670929982.376025
1670930494.345893,,,,-13.001273,-13.006719,1066912.000000,1670929982.377032
1670930494.346242,,,,-13.004807,-13.011959,1066913.000000,1670929982.378039
1670930494.346568,,,,-13.012092,-13.017080,1066914.000000,1670929982.379046
1670930494.347007,,,,-13.014328,-13.015926,1066915.000000,1670929982.380054
1670930494.350629,,,,-13.008558,-13.010445,1066916.000000,1670929982.381061
1670930494.350754,,,,-13.002572,-13.005132,1066917.000000,1670929982.382068
1670930494.350764,,,,-12.996850,-13.001814,1066918.000000,1670929982.383075
1670930494.350815,,,,-12.995889,-13.001959,1066919.000000,1670929982.384082
1670930494.350829,,,,-12.993941,-12.999988,1066920.000000,1670929982.385089
1670930494.350832,,,,-12.990047,-12.994795,1066921.000000,1670929982.386096
1670930494.350836,,,,-12.997163,-13.000805,1066922.000000,1670929982.387103
1670930494.350851,,,,-13.007139,-13.010757,1066923.000000,1670929982.388110
1670930494.352125,,,,-13.007332,-13.011599,1066924.000000,1670929982.389117
1670930494.352252,,,,-13.007308,-13.012849,1066925.000000,1670929982.390124
1670930494.366489,,,,-13.010120,-13.012897,1066926.000000,1670929982.391131
1670930494.366799,,,,-13.003533,-13.004988,1066927.000000,1670929982.392138
1670930494.366979,,,,-12.992234,-12.994169,1066928.000000,1670929982.393146
1670930494.367075,,,,-12.991610,-12.998015,1066929.000000,1670929982.394153
1670930494.367390,,,,-13.002764,-13.007656,1066930.000000,1670929982.395160
1670930494.373611,,,,-13.012837,-13.016912,1066931.000000,1670929982.396167
1670930494.374180,,,,-13.013871,-13.017777,1066932.000000,1670929982.397174
1670930494.374196,,,,-13.014279,-13.017801,1066933.000000,1670929982.398181
1670930494.376933,-0.794923,852354.000000,1670930494.316164,,,,
1670930494.378384,-0.107498,852405.000000,1670930494.367163,,,,
1670930494.378410,-0.089408,852406.000000,1670930494.368164,,,,
1670930494.378417,-0.107498,852407.000000,1670930494.369164,,,,
1670930494.378470,-0.089408,852408.000000,1670930494.370163,,,,
1670930494.378483,-0.053230,852409.000000,1670930494.371163,,,,
1670930494.378513,-0.017044,852410.000000,1670930494.372164,,,,
1670930494.378521,0.019134,852411.000000,1670930494.373163,,,,
1670930494.378529,-0.035141,852412.000000,1670930494.374163,,,,
1670930494.378541,0.001045,852413.000000,1670930494.375164,,,,
1670930494.378582,0.001045,852414.000000,1670930494.376163,,,,
1670930494.380418,,,,-13.022766,-13.026840,1066934.000000,1670929982.399188
1670930494.380577,,,,-13.025170,-13.026889,1066935.000000,1670929982.400195
1670930494.380929,,,,-13.024497,-13.027634,1066936.000000,1670929982.401202
1670930494.381096,,,,-13.024377,-13.030999,1066937.000000,1670929982.402209
1670930494.381215,,,,-13.033223,-13.034846,1066938.000000,1670929982.403216
1670930494.381545,,,,-13.028175,-13.030326,1066939.000000,1670929982.404223
1670930494.381705,,,,-13.022381,-13.027994,1066940.000000,1670929982.405231
1670930494.382584,,,,-13.017213,-13.023355,1066941.000000,1670929982.406238
1670930494.382738,,,,-13.018991,-13.024316,1066942.000000,1670929982.407245
1670930494.383209,,,,-13.022406,-13.025951,1066943.000000,1670929982.408252
1670930494.383576,,,,-13.031397,-13.037466,1066944.000000,1670929982.409259
1670930494.383584,,,,-13.037238,-13.042178,1066945.000000,1670929982.410266
1670930494.383750,,,,-13.040027,-13.043140,1066946.000000,1670929982.411273
1670930494.384000,,,,-13.029545,-13.033259,1066947.000000,1670929982.412280
1670930494.387805,,,,-13.009351,-13.015253,1066948.000000,1670929982.413287
1670930494.387951,,,,-12.999662,-13.003184,1066949.000000,1670929982.414294
1670930494.387971,,,,-12.994999,-12.998761,1066950.000000,1670929982.415301
1670930494.388382,,,,-12.998965,-13.002199,1066951.000000,1670929982.416308
1670930494.388555,,,,-13.002067,-13.006021,1066952.000000,1670929982.417315
1670930494.388820,,,,-13.002884,-13.006719,1066953.000000,1670929982.418323
1670930494.388964,,,,-13.012765,-13.018138,1066954.000000,1670929982.419330
1670930494.389736,,,,-13.052624,-13.056963,1066955.000000,1670929982.420337
1670930494.389985,,,,-13.073660,-13.078071,1066956.000000,1670929982.421344
1670930494.390244,,,,-13.066833,-13.073455,1066957.000000,1670929982.422351
1670930494.395068,,,,-13.053514,-13.058719,1066958.000000,1670929982.423358
1670930494.395494,,,,-13.036878,-13.042130,1066959.000000,1670929982.424365
1670930494.395684,,,,-13.021660,-13.028500,1066960.000000,1670929982.425372
1670930494.395704,,,,-13.005794,-13.015060,1066961.000000,1670929982.426379
1670930494.402428,,,,-12.989542,-12.997511,1066962.000000,1670929982.427386
1670930494.402554,,,,-12.995408,-13.001213,1066963.000000,1670929982.428393
1670930494.402912,,,,-13.001490,-13.006886,1066964.000000,1670929982.429400
1670930494.402926,,,,-13.001538,-13.004988,1066965.000000,1670929982.430408
1670930494.405236,,,,-12.998894,-13.003521,1066966.000000,1670929982.431415
1670930494.405347,,,,-13.003894,-13.005973,1066967.000000,1670929982.432422
1670930494.405474,,,,-13.001105,-13.007223,1066968.000000,1670929982.433429
1670930494.405666,,,,-12.997860,-13.002247,1066969.000000,1670929982.434436
1670930494.405692,,,,-13.004495,-13.006815,1066970.000000,1670929982.435443
1670930494.405696,,,,-13.007500,-13.011358,1066971.000000,1670929982.436450
1670930494.405707,,,,-13.004254,-13.008930,1066972.000000,1670929982.437457
1670930494.410030,,,,-13.008582,-13.014556,1066973.000000,1670929982.438464
1670930494.410048,,,,-13.029401,-13.033788,1066974.000000,1670929982.439471
1670930494.410072,,,,-13.056999,-13.063983,1066975.000000,1670929982.440478
1670930494.410163,,,,-13.069332,-13.075715,1066976.000000,1670929982.441485
1670930494.412479,,,,-13.068491,-13.070930,1066977.000000,1670929982.442492
1670930494.412740,,,,-13.057817,-13.058454,1066978.000000,1670929982.443500
1670930494.412918,,,,-13.052072,-13.054895,1066979.000000,1670929982.444507
1670930494.413051,,,,-13.068443,-13.070835,1066980.000000,1670929982.445514
1670930494.413305,,,,-13.072433,-13.077253,1066981.000000,1670929982.446521
1670930494.413317,,,,-13.050773,-13.055954,1066982.000000,1670929982.447528
1670930494.420255,,,,-13.013102,-13.018811,1066983.000000,1670929982.448535
1670930494.420303,,,,-12.981873,-12.984264,1066984.000000,1670929982.449542
1670930494.420529,,,,-12.980622,-12.986068,1066985.000000,1670929982.450549
1670930494.420801,,,,-12.987667,-12.992030,1066986.000000,1670929982.451556
1670930494.421104,,,,-12.970358,-12.975875,1066987.000000,1670929982.452563
1670930494.421474,,,,-12.954827,-12.960441,1066988.000000,1670929982.453570
1670930494.421615,,,,-12.954394,-12.960801,1066989.000000,1670929982.454577
1670930494.434340,,,,-12.981104,-12.987655,1066990.000000,1670929982.455585
1670930494.434399,,,,-12.998244,-13.005637,1066991.000000,1670929982.456592
1670930494.434879,,,,-13.003389,-13.008762,1066992.000000,1670929982.457599
1670930494.434903,,,,-13.008919,-13.014532,1066993.000000,1670929982.458606
1670930494.441211,,,,-13.014568,-13.019460,1066994.000000,1670929982.459613
1670930494.441422,,,,-13.023367,-13.030134,1066995.000000,1670929982.460620
1670930494.441607,,,,-13.028584,-13.033692,1066996.000000,1670929982.461627
1670930494.441912,,,,-13.030868,-13.035567,1066997.000000,1670929982.462634
1670930494.443279,0.616106,852465.000000,1670930494.431165,,,,
1670930494.443489,0.634195,852466.000000,1670930494.432165,,,,
1670930494.443502,0.634195,852467.000000,1670930494.433165,,,,
1670930494.443516,0.634195,852468.000000,1670930494.434165,,,,
1670930494.443573,0.670381,852469.000000,1670930494.435165,,,,
1670930494.443583,0.634195,852470.000000,1670930494.436165,,,,
1670930494.443595,0.652284,852471.000000,1670930494.437165,,,,
1670930494.443604,0.688470,852472.000000,1670930494.438165,,,,
1670930494.443683,0.634195,852473.000000,1670930494.439165,,,,
1670930494.443692,0.670381,852474.000000,1670930494.440165,,,,
1670930494.443718,0.634195,852475.000000,1670930494.441165,,,,
1670930494.447483,,,,-13.031180,-13.034534,1066998.000000,1670929982.463641
1670930494.447702,,,,-13.029353,-13.034846,1066999.000000,1670929982.464648
1670930494.447934,,,,-13.023800,-13.029798,1067000.000000,1670929982.465655
1670930494.448078,,,,-13.018318,-13.023402,1067001.000000,1670929982.466662
1670930494.449757,,,,-13.012404,-13.017248,1067002.000000,1670929982.467669
1670930494.449773,,,,-13.005553,-13.012152,1067003.000000,1670929982.468677
1670930494.449781,,,,-13.005938,-13.009531,1067004.000000,1670929982.469684
1670930494.455364,,,,-13.002139,-13.006166,1067005.000000,1670929982.470691
1670930494.456486,,,,-13.002572,-13.005925,1067006.000000,1670929982.471698
1670930494.456512,,,,-13.007019,-13.009555,1067007.000000,1670929982.472705
1670930494.456529,,,,-13.006034,-13.009771,1067008.000000,1670929982.473712
1670930494.456712,,,,-13.003870,-13.008617,1067009.000000,1670929982.474719
1670930494.456726,,,,-13.004615,-13.013762,1067010.000000,1670929982.475726
1670930494.457124,,,,-13.016010,-13.022345,1067011.000000,1670929982.476733
1670930494.457365,,,,-13.021227,-13.026889,1067012.000000,1670929982.477740
1670930494.457728,,,,-13.024304,-13.028764,1067013.000000,1670929982.478747
1670930494.457796,,,,-13.024665,-13.031072,1067014.000000,1670929982.479754
1670930494.462917,,,,-13.027093,-13.032370,1067015.000000,1670929982.480762
1670930494.463105,,,,-13.029064,-13.031816,1067016.000000,1670929982.481769
1670930494.463787,,,,-13.034762,-13.038019,1067017.000000,1670929982.482776
1670930494.464045,,,,-13.035556,-13.040808,1067018.000000,1670929982.483783
1670930494.464537,,,,-13.026949,-13.031480,1067019.000000,1670929982.484790
1670930494.464710,,,,-13.007019,-13.010180,1067020.000000,1670929982.485797
1670930494.464799,,,,-13.008582,-13.007752,1067021.000000,1670929982.486804
1670930494.464816,,,,-13.025362,-13.030038,1067022.000000,1670929982.487811
1670930494.465107,,,,-13.025939,-13.030807,1067023.000000,1670929982.488818
1670930494.465626,,,,-13.022117,-13.024268,1067024.000000,1670929982.489825
1670930494.465840,,,,-13.030507,-13.031913,1067025.000000,1670929982.490832
1670930494.465849,,,,-13.030170,-13.035231,1067026.000000,1670929982.491839
1670930494.466179,,,,-13.029858,-13.036481,1067027.000000,1670929982.492846
1670930494.466412,,,,-13.031156,-13.037009,1067028.000000,1670929982.493854
1670930494.470549,,,,-13.030747,-13.034004,1067029.000000,1670929982.494861
1670930494.470569,,,,-13.030699,-13.033403,1067030.000000,1670929982.495868
1670930494.470581,,,,-13.025242,-13.030326,1067031.000000,1670929982.496875
1670930494.470822,,,,-13.021780,-13.023499,1067032.000000,1670929982.497882
1670930494.471152,,,,-13.017213,-13.019700,1067033.000000,1670929982.498889
1670930494.471513,,,,-13.015000,-13.021984,1067034.000000,1670929982.499896
1670930494.471699,,,,-13.010794,-13.019196,1067035.000000,1670929982.500903
1670930494.471825,,,,-13.010674,-13.016935,1067036.000000,1670929982.501910
1670930494.472415,,,,-13.017910,-13.021696,1067037.000000,1670929982.502917
1670930494.472433,,,,-13.023727,-13.025038,1067038.000000,1670929982.503924
1670930494.472470,,,,-13.029714,-13.031168,1067039.000000,1670929982.504931
1670930494.477458,,,,-13.027790,-13.032298,1067040.000000,1670929982.505939
1670930494.477916,,,,-13.022550,-13.027490,1067041.000000,1670929982.506946
1670930494.477935,,,,-13.012404,-13.017272,1067042.000000,1670929982.507953
1670930494.477950,,,,-13.004663,-13.012272,1067043.000000,1670929982.508960
1670930494.480019,,,,-12.998004,-13.005468,1067044.000000,1670929982.509967
1670930494.480031,,,,-13.001970,-13.006358,1067045.000000,1670929982.510974
1670930494.480788,,,,-13.009592,-13.012776,1067046.000000,1670929982.511981
1670930494.480807,,,,-13.000264,-13.006598,1067047.000000,1670929982.512988
1670930494.493585,,,,-13.000239,-13.002079,1067048.000000,1670929982.513995
1670930494.493710,,,,-13.007068,-13.008257,1067049.000000,1670929982.515002
1670930494.493885,,,,-13.016563,-13.017297,1067050.000000,1670929982.516009
1670930494.501333,,,,-13.016804,-13.022153,1067051.000000,1670929982.517016
1670930494.501346,,,,-13.018294,-13.024845,1067052.000000,1670929982.518023
1670930494.501352,,,,-13.020122,-13.025158,1067053.000000,1670929982.519031
1670930494.505934,0.598017,852476.000000,1670930494.445300,,,,
1670930494.506103,0.652284,852477.000000,1670930494.446300,,,,
1670930494.506198,0.634195,852478.000000,1670930494.447300,,,,
1670930494.507391,0.616106,852479.000000,1670930494.448300,,,,
1670930494.507404,0.543750,852527.000000,1670930494.496300,,,,
1670930494.507409,0.543750,852528.000000,1670930494.497300,,,,
1670930494.507502,0.598017,852529.000000,1670930494.498300,,,,
1670930494.507515,0.561839,852530.000000,1670930494.499300,,,,
1670930494.507526,0.616106,852531.000000,1670930494.500300,,,,
1670930494.507538,0.616106,852532.000000,1670930494.501300,,,,
1670930494.507548,0.561839,852533.000000,1670930494.502300,,,,
1670930494.507557,0.616106,852534.000000,1670930494.503300,,,,
1670930494.507603,0.598017,852535.000000,1670930494.504300,,,,
1670930494.507616,0.616106,852536.000000,1670930494.505300,,,,
1670930494.507641,,,,-13.023174,-13.026383,1067054.000000,1670929982.520038
1670930494.507882,,,,-13.031661,-13.036312,1067055.000000,1670929982.521045
1670930494.507893,,,,-13.039546,-13.045520,1067056.000000,1670929982.522052
1670930494.508141,,,,-13.033199,-13.039894,1067057.000000,1670929982.523059
1670930494.509876,,,,-13.027093,-13.034004,1067058.000000,1670929982.524066
1670930494.509944,,,,-13.028680,-13.034534,1067059.000000,1670929982.525073
1670930494.509958,,,,-13.035483,-13.039750,1067060.000000,1670929982.526080
1670930494.514927,,,,-13.039233,-13.044823,1067061.000000,1670929982.527087
1670930494.515520,,,,-13.028680,-13.035664,1067062.000000,1670929982.528094
1670930494.515643,,,,-13.017934,-13.022730,1067063.000000,1670929982.529101
1670930494.515662,,,,-13.003413,-13.009604,1067064.000000,1670929982.530108
1670930494.517675,,,,-13.010986,-13.014748,1067065.000000,1670929982.531116
1670930494.518004,,,,-13.017284,-13.021287,1067066.000000,1670929982.532123
1670930494.518227,,,,-13.020722,-13.026072,1067067.000000,1670929982.533130
1670930494.518505,,,,-13.013198,-13.017994,1067068.000000,1670929982.534137
1670930494.518800,,,,-13.012332,-13.015830,1067069.000000,1670929982.535144
1670930494.518842,,,,-13.017164,-13.024965,1067070.000000,1670929982.536151
1670930494.518989,,,,-13.020313,-13.028523,1067071.000000,1670929982.537158
1670930494.519190,,,,-13.014112,-13.019917,1067072.000000,1670929982.538165
1670930494.522664,,,,-13.003437,-13.007031,1067073.000000,1670929982.539172
1670930494.523198,,,,-13.011058,-13.016070,1067074.000000,1670929982.540179
1670930494.523366,,,,-13.022381,-13.028716,1067075.000000,1670929982.541186
1670930494.523377,,,,-13.024617,-13.029077,1067076.000000,1670929982.542193
1670930494.523744,,,,-13.037238,-13.039750,1067077.000000,1670929982.543200
1670930494.524032,,,,-13.042070,-13.046313,1067078.000000,1670929982.544208
1670930494.524230,,,,-13.031685,-13.036577,1067079.000000,1670929982.545215
1670930494.525045,,,,-13.029160,-13.033668,1067080.000000,1670929982.546222
1670930494.525262,,,,-13.021492,-13.024052,1067081.000000,1670929982.547229
1670930494.525456,,,,-13.005096,-13.012392,1067082.000000,1670929982.548236
1670930494.525622,,,,-13.002836,-13.009147,1067083.000000,1670929982.549243
1670930494.525882,,,,-13.014232,-13.018835,1067084.000000,1670929982.550250
1670930494.526055,,,,-13.016684,-13.022033,1067085.000000,1670929982.551257
1670930494.530180,,,,-13.009520,-13.014989,1067086.000000,1670929982.552264
1670930494.530439,,,,-13.009928,-13.014339,1067087.000000,1670929982.553271
1670930494.530451,,,,-13.009183,-13.014436,1067088.000000,1670929982.554278
1670930494.530950,,,,-13.012381,-13.017441,1067089.000000,1670929982.555285
1670930494.531140,,,,-13.023415,-13.026720,1067090.000000,1670929982.556293
1670930494.531177,,,,-13.025122,-13.029317,1067091.000000,1670929982.557300
1670930494.531522,,,,-13.019881,-13.024701,1067092.000000,1670929982.558307
1670930494.531764,,,,-13.018318,-13.020133,1067093.000000,1670929982.559314
1670930494.532385,,,,-13.014303,-13.016744,1067094.000000,1670929982.560321
1670930494.532633,,,,-13.011058,-13.017272,1067095.000000,1670929982.561328
1670930494.532800,,,,-13.020122,-13.026672,1067096.000000,1670929982.562335
1670930494.537291,,,,-13.043177,-13.047227,1067097.000000,1670929982.563342
1670930494.537498,,,,-13.043609,-13.049535,1067098.000000,1670929982.564349
1670930494.537787,,,,-13.030050,-13.037009,1067099.000000,1670929982.565356
1670930494.537983,,,,-13.023223,-13.029918,1067100.000000,1670929982.566363
1670930494.539972,,,,-13.026565,-13.033356,1067101.000000,1670929982.567370
1670930494.539988,,,,-13.036421,-13.041698,1067102.000000,1670929982.568377
1670930494.540001,,,,-13.034377,-13.037586,1067103.000000,1670929982.569385
1670930494.540043,,,,-13.032334,-13.036889,1067104.000000,1670929982.570392
1670930494.553795,,,,-13.033873,-13.040423,1067105.000000,1670929982.571399
1670930494.553805,,,,-13.039186,-13.044318,1067106.000000,1670929982.572406
1670930494.553811,,,,-13.040893,-13.046963,1067107.000000,1670929982.573413
1670930494.553838,,,,-13.042936,-13.048814,1067108.000000,1670929982.574420
1670930494.559711,0.634195,852537.000000,1670930494.499123,,,,
1670930494.559772,0.670381,852538.000000,1670930494.500123,,,,
1670930494.559780,0.634195,852539.000000,1670930494.501123,,,,
1670930494.559812,0.724649,852540.000000,1670930494.502123,,,,
1670930494.560662,0.652284,852541.000000,1670930494.503123,,,,
1670930494.560675,0.688470,852542.000000,1670930494.504123,,,,
1670930494.560684,0.706559,852543.000000,1670930494.505123,,,,
1670930494.560690,0.996001,852588.000000,1670930494.550123,,,,
1670930494.560694,1.014090,852589.000000,1670930494.551123,,,,
1670930494.560699,0.977912,852590.000000,1670930494.552123,,,,
1670930494.560704,1.014090,852591.000000,1670930494.553123,,,,
1670930494.560714,0.996001,852592.000000,1670930494.554123,,,,
1670930494.560737,1.014090,852593.000000,1670930494.555123,,,,
1670930494.560740,0.977912,852594.000000,1670930494.556123,,,,
1670930494.560758,1.032179,852595.000000,1670930494.557123,,,,
1670930494.560761,1.050268,852596.000000,1670930494.558123,,,,
1670930494.560767,1.014090,852597.000000,1670930494.559123,,,,
1670930494.560937,,,,-13.039353,-13.045856,1067109.000000,1670929982.575427
1670930494.561122,,,,-13.029617,-13.033740,1067110.000000,1670929982.576434
1670930494.567468,,,,-13.012669,-13.017032,1067111.000000,1670929982.577441
1670930494.567683,,,,-13.002235,-13.009459,1067112.000000,1670929982.578448
1670930494.567870,,,,-13.020987,-13.026913,1067113.000000,1670929982.579455
1670930494.568158,,,,-13.032118,-13.037491,1067114.000000,1670929982.580462
1670930494.572591,,,,-13.030194,-13.036818,1067115.000000,1670929982.581470
1670930494.573025,,,,-13.036108,-13.043476,1067116.000000,1670929982.582477
1670930494.573325,,,,-13.035363,-13.042755,1067117.000000,1670929982.583484
1670930494.573531,,,,-13.030915,-13.037058,1067118.000000,1670929982.584491
1670930494.573736,,,,-13.023871,-13.031312,1067119.000000,1670929982.585498
1670930494.573853,,,,-13.023223,-13.027225,1067120.000000,1670929982.586505
1670930494.573874,,,,-13.036445,-13.041337,1067121.000000,1670929982.587512
1670930494.575542,,,,-13.051999,-13.055472,1067122.000000,1670929982.588519
1670930494.575567,,,,-13.059524,-13.064776,1067123.000000,1670929982.589526
1670930494.575644,,,,-13.057865,-13.064032,1067124.000000,1670929982.590533
1670930494.575962,,,,-13.058803,-13.064055,1067125.000000,1670929982.591540
1670930494.576292,,,,-13.068347,-13.073551,1067126.000000,1670929982.592547
1670930494.576541,,,,-13.064092,-13.068912,1067127.000000,1670929982.593554
1670930494.576787,,,,-13.048826,-13.056146,1067128.000000,1670929982.594562
1670930494.576840,,,,-13.037334,-13.043308,1067129.000000,1670929982.595569
1670930494.579443,,,,-13.032022,-13.036577,1067130.000000,1670929982.596576
1670930494.579459,,,,-13.032502,-13.036745,1067131.000000,1670929982.597583
1670930494.580038,,,,-13.023560,-13.028595,1067132.000000,1670929982.598590
1670930494.580062,,,,-13.012068,-13.016455,1067133.000000,1670929982.599597
1670930494.580072,,,,-13.019616,-13.021239,1067134.000000,1670929982.600604
1670930494.580084,,,,-13.020890,-13.024196,1067135.000000,1670929982.601611
1670930494.583073,,,,-13.010241,-13.015614,1067136.000000,1670929982.602618
1670930494.583261,,,,-13.010986,-13.018571,1067137.000000,1670929982.603625
1670930494.583372,,,,-13.030988,-13.037082,1067138.000000,1670929982.604632
1670930494.583504,,,,-13.047960,-13.054247,1067139.000000,1670929982.605639
1670930494.583763,,,,-13.050893,-13.057059,1067140.000000,1670929982.606647
1670930494.583791,,,,-13.060630,-13.066964,1067141.000000,1670929982.607654
1670930494.583803,,,,-13.069669,-13.076820,1067142.000000,1670929982.608661
1670930494.587112,,,,-13.081232,-13.086172,1067143.000000,1670929982.609668
1670930494.587234,,,,-13.083372,-13.087111,1067144.000000,1670929982.610675
1670930494.587333,,,,-13.076256,-13.079922,1067145.000000,1670929982.611682
1670930494.587463,,,,-13.074453,-13.080018,1067146.000000,1670929982.612689
1670930494.590172,,,,-13.052383,-13.059800,1067147.000000,1670929982.613696
1670930494.590184,,,,-13.049619,-13.056651,1067148.000000,1670929982.614703
1670930494.590204,,,,-13.083059,-13.088023,1067149.000000,1670929982.615710
1670930494.590231,,,,-13.092844,-13.095549,1067150.000000,1670929982.616717
1670930494.594343,,,,-13.092820,-13.094755,1067151.000000,1670929982.617724
1670930494.594834,,,,-13.091281,-13.095909,1067152.000000,1670929982.618731
1670930494.594855,,,,-13.062217,-13.069777,1067153.000000,1670929982.619739
1670930494.597447,,,,-13.051350,-13.057805,1067154.000000,1670929982.620746
1670930494.598208,,,,-13.057865,-13.063022,1067155.000000,1670929982.621753
1670930494.598423,,,,-13.038609,-13.042828,1067156.000000,1670929982.622760
1670930494.602292,,,,-13.021540,-13.027994,1067157.000000,1670929982.623767
1670930494.602656,,,,-13.054451,-13.060497,1067158.000000,1670929982.624774
1670930494.602943,,,,-13.098421,-13.100909,1067159.000000,1670929982.625781
1670930494.603219,,,,-13.111283,-13.115743,1067160.000000,1670929982.626788
1670930494.603615,,,,-13.128736,-13.132499,1067161.000000,1670929982.627795
1670930494.603629,,,,-13.152225,-13.154857,1067162.000000,1670929982.628802
1670930494.603866,,,,-13.149580,-13.152284,1067163.000000,1670929982.629809
1670930494.603955,,,,-13.125539,-13.129974,1067164.000000,1670929982.630816
1670930494.604137,,,,-13.074694,-13.079802,1067165.000000,1670929982.631824
1670930494.604271,,,,-13.049042,-13.055088,1067166.000000,1670929982.632831
1670930494.604596,,,,-13.026901,-13.032009,1067167.000000,1670929982.633838
1670930494.604612,,,,-12.994302,-12.997631,1067168.000000,1670929982.634845
1670930494.604829,,,,-12.960597,-12.964456,1067169.000000,1670929982.635852
1670930494.604835,,,,-12.950259,-12.954070,1067170.000000,1670929982.636859
1670930494.604844,,,,-12.962280,-12.967461,1067171.000000,1670929982.637866
1670930494.613777,,,,-12.973844,-12.979217,1067172.000000,1670929982.638873
1670930494.613790,,,,-12.994926,-13.001021,1067173.000000,1670929982.639880
1670930494.613800,,,,-13.018703,-13.023932,1067174.000000,1670929982.640887
1670930494.613826,,,,-13.046085,-13.049968,1067175.000000,1670929982.641894
1670930494.621597,,,,-13.064404,-13.068479,1067176.000000,1670929982.642901
1670930494.622128,,,,-13.064525,-13.069681,1067177.000000,1670929982.643909
1670930494.622323,,,,-13.055268,-13.061988,1067178.000000,1670929982.644916
1670930494.622407,,,,-13.052816,-13.058646,1067179.000000,1670929982.645923
1670930494.622560,,,,-13.043465,-13.053069,1067180.000000,1670929982.646930
1670930494.622752,,,,-13.049764,-13.057468,1067181.000000,1670929982.647937
1670930494.623041,,,,-13.062241,-13.068311,1067182.000000,1670929982.648944
1670930494.625579,1.430163,852649.000000,1670930494.614372,,,,
1670930494.625602,1.466341,852650.000000,1670930494.615373,,,,
1670930494.625609,1.466341,852651.000000,1670930494.616373,,,,
1670930494.625616,1.520617,852652.000000,1670930494.617373,,,,
1670930494.625638,1.484430,852653.000000,1670930494.618372,,,,
1670930494.625651,1.502519,852654.000000,1670930494.619373,,,,
1670930494.625658,1.538706,852655.000000,1670930494.620373,,,,
1670930494.625665,1.574884,852656.000000,1670930494.621372,,,,
1670930494.625670,1.574884,852657.000000,1670930494.622373,,,,
1670930494.625695,1.611062,852658.000000,1670930494.623373,,,,
1670930494.627736,,,,-13.090296,-13.096270,1067183.000000,1670929982.649951
1670930494.628081,,,,-13.143907,-13.152861,1067184.000000,1670929982.650958
1670930494.628272,,,,-13.214465,-13.221761,1067185.000000,1670929982.651965
1670930494.628572,,,,-13.323441,-13.328597,1067186.000000,1670929982.652972
1670930494.628836,,,,-13.403352,-13.404806,1067187.000000,1670929982.653979
1670930494.628997,,,,-13.432248,-13.434640,1067188.000000,1670929982.654986
1670930494.629934,,,,-13.434893,-13.439545,1067189.000000,1670929982.655993
1670930494.630046,,,,-13.405491,-13.409975,1067190.000000,1670929982.657001
1670930494.630231,,,,-13.344693,-13.348551,1067191.000000,1670929982.658008
1670930494.630241,,,,-13.271609,-13.272943,1067192.000000,1670929982.659015
1670930494.630247,,,,-13.168380,-13.172286,1067193.000000,1670929982.660022
1670930494.635118,,,,-13.060750,-13.066339,1067194.000000,1670929982.661029
1670930494.635131,,,,-12.969011,-12.973951,1067195.000000,1670929982.662036
1670930494.635142,,,,-12.926964,-12.932673,1067196.000000,1670929982.663043
1670930494.637486,,,,-12.906049,-12.910772,1067197.000000,1670929982.664050
1670930494.637509,,,,-12.875278,-12.879352,1067198.000000,1670929982.665057
1670930494.637696,,,,-12.877633,-12.881443,1067199.000000,1670929982.666064
1670930494.637882,,,,-12.909631,-12.911686,1067200.000000,1670929982.667071
1670930494.642590,,,,-12.941196,-12.947098,1067201.000000,1670929982.668078
1670930494.642699,,,,-12.980502,-12.985731,1067202.000000,1670929982.669086
1670930494.643005,,,,-13.001850,-13.006863,1067203.000000,1670929982.670093
1670930494.650679,,,,-13.008149,-13.016143,1067204.000000,1670929982.671100
1670930494.651608,,,,-13.010241,-13.015277,1067205.000000,1670929982.672107
1670930494.651630,,,,-13.005577,-13.010637,1067206.000000,1670929982.673114
1670930494.651661,,,,-13.007741,-13.015830,1067207.000000,1670929982.674121
1670930494.651735,,,,-13.018174,-13.023835,1067208.000000,1670929982.675128
1670930494.651740,,,,-13.032238,-13.035375,1067209.000000,1670929982.676135
1670930494.651760,,,,-13.036108,-13.042274,1067210.000000,1670929982.677142
1670930494.651785,,,,-13.046182,-13.051723,1067211.000000,1670929982.678149
1670930494.652288,,,,-13.054932,-13.060113,1067212.000000,1670929982.679156
1670930494.652530,,,,-13.062312,-13.065714,1067213.000000,1670929982.680163
1670930494.658127,,,,-13.074934,-13.078071,1067214.000000,1670929982.681170
1670930494.658201,,,,-13.089502,-13.094875,1067215.000000,1670929982.682178
1670930494.658328,,,,-13.094864,-13.100717,1067216.000000,1670929982.683185
1670930494.658414,,,,-13.079309,-13.085836,1067217.000000,1670929982.684192
1670930494.659662,,,,-13.074405,-13.076460,1067218.000000,1670929982.685199
1670930494.659891,,,,-13.085752,-13.088408,1067219.000000,1670929982.686206
1670930494.660023,,,,-13.094575,-13.096630,1067220.000000,1670929982.687213
1670930494.660174,,,,-13.114408,-13.119060,1067221.000000,1670929982.688220
1670930494.673763,,,,-13.116476,-13.124734,1067222.000000,1670929982.689227
1670930494.673997,,,,-13.120346,-13.127402,1067223.000000,1670929982.690234
1670930494.674009,,,,-13.140059,-13.145673,1067224.000000,1670929982.691241
1670930494.681955,,,,-13.200041,-13.203418,1067225.000000,1670929982.692248
1670930494.682483,,,,-13.248459,-13.249264,1067226.000000,1670929982.693255
1670930494.683003,,,,-13.271633,-13.276309,1067227.000000,1670929982.694263
1670930494.683339,,,,-13.279976,-13.284363,1067228.000000,1670929982.695270
1670930494.683359,,,,-13.284736,-13.291166,1067229.000000,1670929982.696277
1670930494.683686,,,,-13.276081,-13.283473,1067230.000000,1670929982.697284
1670930494.683708,,,,-13.242569,-13.248134,1067231.000000,1670929982.698291
1670930494.683717,,,,-13.205955,-13.212265,1067232.000000,1670929982.699298
1670930494.687780,,,,-13.179317,-13.186734,1067233.000000,1670929982.700305
1670930494.688141,,,,-13.152873,-13.157693,1067234.000000,1670929982.701312
1670930494.689302,,,,-13.129746,-13.133821,1067235.000000,1670929982.702319
1670930494.689454,,,,-13.116740,-13.122281,1067236.000000,1670929982.703326
1670930494.689468,,,,-13.094575,-13.099154,1067237.000000,1670929982.704333
1670930494.689637,,,,-13.066327,-13.070426,1067238.000000,1670929982.705340
1670930494.690234,,,,-13.033463,-13.036192,1067239.000000,1670929982.706347
1670930494.690397,,,,-12.997811,-13.002151,1067240.000000,1670929982.707355
1670930494.690475,1.846236,852671.000000,1670930494.640198,,,,
1670930494.690577,1.810058,852672.000000,1670930494.641198,,,,
1670930494.690699,1.864325,852673.000000,1670930494.642198,,,,
1670930494.690763,1.918592,852674.000000,1670930494.643198,,,,
1670930494.690872,1.954779,852675.000000,1670930494.644198,,,,
1670930494.690891,1.990957,852676.000000,1670930494.645198,,,,
1670930494.691135,2.009046,852677.000000,1670930494.646198,,,,
1670930494.691207,,,,-12.954635,-12.957436,1067241.000000,1670929982.708362
1670930494.691216,,,,-12.914800,-12.919019,1067242.000000,1670929982.709369
1670930494.691501,,,,-12.909776,-12.915413,1067243.000000,1670929982.710376
1670930494.691580,,,,-12.954178,-12.958253,1067244.000000,1670929982.711383
1670930494.691631,,,,-12.998124,-13.004603,1067245.000000,1670929982.712390
1670930494.692150,2.027135,852678.000000,1670930494.647198,,,,
1670930494.692163,1.990957,852679.000000,1670930494.648198,,,,
1670930494.692170,2.081410,852680.000000,1670930494.649198,,,,
1670930494.692180,2.786925,852710.000000,1670930494.679198,,,,
1670930494.692187,2.859281,852711.000000,1670930494.680198,,,,
1670930494.692205,2.859281,852712.000000,1670930494.681198,,,,
1670930494.692237,2.877370,852713.000000,1670930494.682198,,,,
1670930494.692248,2.895459,852714.000000,1670930494.683198,,,,
1670930494.692255,2.931645,852715.000000,1670930494.684198,,,,
1670930494.692290,2.949734,852716.000000,1670930494.685198,,,,
1670930494.692298,2.949734,852717.000000,1670930494.686198,,,,
1670930494.692304,2.985913,852718.000000,1670930494.687198,,,,
1670930494.692323,3.112544,852719.000000,1670930494.688198,,,,
1670930494.694804,,,,-13.024929,-13.030447,1067246.000000,1670929982.713397
1670930494.695058,,,,-13.032238,-13.037466,1067247.000000,1670929982.714404
1670930494.695239,,,,-13.034306,-13.040904,1067248.000000,1670929982.715411
1670930494.695333,,,,-13.048513,-13.053309,1067249.000000,1670929982.716418
1670930494.697258,,,,-13.055509,-13.060184,1067250.000000,1670929982.717425
1670930494.697422,,,,-13.059043,-13.062757,1067251.000000,1670929982.718432
1670930494.697632,,,,-13.069284,-13.074201,1067252.000000,1670929982.719440
1670930494.697820,,,,-13.107942,-13.112449,1067253.000000,1670929982.720447
1670930494.702852,,,,-13.125948,-13.132186,1067254.000000,1670929982.721454
1670930494.703208,,,,-13.109023,-13.113386,1067255.000000,1670929982.722461
1670930494.703312,,,,-13.078876,-13.083047,1067256.000000,1670929982.723468
1670930494.703707,,,,-13.053874,-13.055449,1067257.000000,1670929982.724475
1670930494.703719,,,,-13.077313,-13.082495,1067258.000000,1670929982.725482
1670930494.703887,,,,-13.108326,-13.113146,1067259.000000,1670929982.726489
1670930494.703906,,,,-13.091954,-13.095957,1067260.000000,1670929982.727496
1670930494.705008,,,,-13.054067,-13.057709,1067261.000000,1670929982.728503
1670930494.705024,,,,-13.014448,-13.017272,1067262.000000,1670929982.729510
1670930494.705086,,,,-13.027622,-13.031119,1067263.000000,1670929982.730517
1670930494.710433,,,,-13.043248,-13.051242,1067264.000000,1670929982.731524
1670930494.710715,,,,-13.045580,-13.052924,1067265.000000,1670929982.732532
1670930494.711094,,,,-13.040916,-13.046722,1067266.000000,1670929982.733539
1670930494.711528,,,,-13.046277,-13.050569,1067267.000000,1670929982.734546
1670930494.712375,,,,-13.072818,-13.076820,1067268.000000,1670929982.735553
1670930494.712950,,,,-13.085223,-13.092014,1067269.000000,1670929982.736560
1670930494.712970,,,,-13.081978,-13.088480,1067270.000000,1670929982.737567
1670930494.717798,,,,-13.077049,-13.079081,1067271.000000,1670929982.738574
1670930494.717860,,,,-13.097893,-13.103049,1067272.000000,1670929982.739581
1670930494.718109,,,,-13.150325,-13.153606,1067273.000000,1670929982.740588
1670930494.718296,,,,-13.164365,-13.166564,1067274.000000,1670929982.741595
1670930494.718396,,,,-13.169317,-13.174281,1067275.000000,1670929982.742602
1670930494.718449,,,,-13.182131,-13.190316,1067276.000000,1670929982.743609
1670930494.718567,,,,-13.160110,-13.167237,1067277.000000,1670929982.744617
1670930494.718671,,,,-13.138665,-13.145240,1067278.000000,1670929982.745624
1670930494.719964,,,,-13.122222,-13.126609,1067279.000000,1670929982.746631
1670930494.720118,,,,-13.108542,-13.114203,1067280.000000,1670929982.747638
1670930494.720153,,,,-13.093902,-13.100429,1067281.000000,1670929982.748645
1670930494.720373,,,,-13.077555,-13.080739,1067282.000000,1670929982.749652
1670930494.720498,,,,-13.064957,-13.065546,1067283.000000,1670929982.750659
1670930494.720664,,,,-13.055581,-13.060208,1067284.000000,1670929982.751666
1670930494.720809,,,,-13.056855,-13.061627,1067285.000000,1670929982.752673
1670930494.727623,,,,-13.052889,-13.057444,1067286.000000,1670929982.753680
1670930494.727786,,,,-13.052216,-13.056699,1067287.000000,1670929982.754687
1670930494.728003,,,,-13.055028,-13.058454,1067288.000000,1670929982.755694
1670930494.728219,,,,-13.064092,-13.070162,1067289.000000,1670929982.756701
1670930494.728301,,,,-13.094166,-13.099178,1067290.000000,1670929982.757709
1670930494.728395,,,,-13.113038,-13.119998,1067291.000000,1670929982.758716
1670930494.728514,,,,-13.125875,-13.130695,1067292.000000,1670929982.759723
1670930494.740369,,,,-13.136117,-13.141634,1067293.000000,1670929982.760730
1670930494.740399,,,,-13.126308,-13.130912,1067294.000000,1670929982.761737
1670930494.740441,,,,-13.107749,-13.112978,1067295.000000,1670929982.762744
1670930494.747128,5.210999,852771.000000,1670930494.735675,,,,
1670930494.747144,5.210999,852772.000000,1670930494.736675,,,,
1670930494.747152,5.301452,852773.000000,1670930494.737675,,,,
1670930494.747171,5.373808,852774.000000,1670930494.738675,,,,
1670930494.747208,5.428084,852775.000000,1670930494.739675,,,,
1670930494.747219,5.482351,852776.000000,1670930494.740675,,,,
1670930494.747226,5.500440,852777.000000,1670930494.741675,,,,
1670930494.747231,5.608983,852778.000000,1670930494.742675,,,,
1670930494.747269,5.681339,852779.000000,1670930494.743675,,,,
1670930494.747310,5.699436,852780.000000,1670930494.744675,,,,
1670930494.747664,,,,-13.130395,-13.134951,1067296.000000,1670929982.763751
1670930494.747848,,,,-13.183476,-13.188441,1067297.000000,1670929982.764758
1670930494.748148,,,,-13.243050,-13.249937,1067298.000000,1670929982.765765
1670930494.748336,,,,-13.286587,-13.293715,1067299.000000,1670929982.766772
1670930494.749701,,,,-13.294280,-13.301552,1067300.000000,1670929982.767779
1670930494.750016,,,,-13.284783,-13.292921,1067301.000000,1670929982.768786
1670930494.750084,,,,-13.259902,-13.267006,1067302.000000,1670929982.769794
1670930494.755136,,,,-13.230861,-13.235704,1067303.000000,1670929982.770801
1670930494.755479,,,,-13.193093,-13.199932,1067304.000000,1670929982.771808
1670930494.755675,,,,-13.128736,-13.133412,1067305.000000,1670929982.772815
1670930494.756152,,,,-13.091810,-13.096967,1067306.000000,1670929982.773822
1670930494.756173,,,,-13.077362,-13.081052,1067307.000000,1670929982.774829
1670930494.756538,,,,-13.049307,-13.056723,1067308.000000,1670929982.775836
1670930494.756551,,,,-13.015169,-13.022033,1067309.000000,1670929982.776843
1670930494.756576,,,,-13.005337,-13.012176,1067310.000000,1670929982.777850
1670930494.757933,,,,-13.018367,-13.021936,1067311.000000,1670929982.778857
1670930494.757960,,,,-13.027309,-13.031096,1067312.000000,1670929982.779864
1670930494.758094,,,,-13.034017,-13.039246,1067313.000000,1670929982.780871
1670930494.758507,,,,-13.066159,-13.071844,1067314.000000,1670929982.781878
1670930494.758565,,,,-13.097580,-13.102880,1067315.000000,1670929982.782886
1670930494.758967,,,,-13.116860,-13.120935,1067316.000000,1670929982.783893
1670930494.758991,,,,-13.115009,-13.117665,1067317.000000,1670929982.784900
1670930494.763353,,,,-13.092772,-13.095476,1067318.000000,1670929982.785907
1670930494.763376,,,,-13.081208,-13.085740,1067319.000000,1670929982.786914
1670930494.763383,,,,-13.095656,-13.101150,1067320.000000,1670929982.787921
1670930494.763391,,,,-13.100898,-13.106126,1067321.000000,1670929982.788928
1670930494.763398,,,,-13.117750,-13.124349,1067322.000000,1670929982.789935
1670930494.763643,,,,-13.149051,-13.156708,1067323.000000,1670929982.790942
1670930494.763656,,,,-13.153113,-13.158439,1067324.000000,1670929982.791949
1670930494.764802,,,,-13.137608,-13.143197,1067325.000000,1670929982.792956
1670930494.765207,,,,-13.121236,-13.126248,1067326.000000,1670929982.793963
1670930494.765221,,,,-13.106499,-13.114132,1067327.000000,1670929982.794971
1670930494.769976,,,,-13.091594,-13.096774,1067328.000000,1670929982.795978
1670930494.769986,,,,-13.061183,-13.063863,1067329.000000,1670929982.796985
1670930494.770114,,,,-13.051806,-13.053285,1067330.000000,1670929982.797992
1670930494.770353,,,,-13.072025,-13.077253,1067331.000000,1670929982.798999
1670930494.772523,,,,-13.125227,-13.129782,1067332.000000,1670929982.800006
1670930494.772534,,,,-13.172226,-13.174714,1067333.000000,1670929982.801013
1670930494.772541,,,,-13.256512,-13.260274,1067334.000000,1670929982.802020
1670930494.772546,,,,-13.400394,-13.403916,1067335.000000,1670929982.803027
1670930494.777699,,,,-13.471002,-13.475077,1067336.000000,1670929982.804034
1670930494.777910,,,,-13.534589,-13.538760,1067337.000000,1670929982.805041
1670930494.778111,,,,-13.564568,-13.567993,1067338.000000,1670929982.806048
1670930494.778282,,,,-13.498384,-13.504406,1067339.000000,1670929982.807055
1670930494.778493,,,,-13.420252,-13.426346,1067340.000000,1670929982.808063
1670930494.778619,,,,-13.334428,-13.340402,1067341.000000,1670929982.809070
1670930494.779991,,,,-13.245117,-13.251307,1067342.000000,1670929982.810077
1670930494.780126,,,,-13.155782,-13.161371,1067343.000000,1670929982.811084
1670930494.780315,,,,-13.098205,-13.104684,1067344.000000,1670929982.812091
1670930494.780426,,,,-13.071400,-13.077229,1067345.000000,1670929982.813098
1670930494.780625,,,,-13.034233,-13.039510,1067346.000000,1670929982.814105
1670930494.780818,,,,-13.010433,-13.015181,1067347.000000,1670929982.815112
1670930494.780939,,,,-13.030964,-13.037106,1067348.000000,1670929982.816119
1670930494.781059,,,,-13.022742,-13.028932,1067349.000000,1670929982.817126
1670930494.794039,,,,-12.967424,-12.973975,1067350.000000,1670929982.818133
1670930494.794172,,,,-12.938865,-12.941978,1067351.000000,1670929982.819140
1670930494.794187,,,,-12.947831,-12.951305,1067352.000000,1670929982.820148
1670930494.801619,,,,-12.990912,-12.996886,1067353.000000,1670929982.821155
1670930494.801641,,,,-13.027719,-13.033933,1067354.000000,1670929982.822162
1670930494.801681,,,,-13.053994,-13.056626,1067355.000000,1670929982.823169
1670930494.802171,,,,-13.059692,-13.063310,1067356.000000,1670929982.824176
1670930494.808562,,,,-13.050701,-13.053213,1067357.000000,1670929982.825183
1670930494.808584,,,,-13.053946,-13.057156,1067358.000000,1670929982.826190
1670930494.808592,,,,-13.068828,-13.074585,1067359.000000,1670929982.827197
1670930494.808638,,,,-13.061591,-13.065883,1067360.000000,1670929982.828204
1670930494.810071,,,,-13.064163,-13.068623,1067361.000000,1670929982.829211
1670930494.810150,,,,-13.089334,-13.093601,1067362.000000,1670929982.830218
1670930494.810315,,,,-13.124145,-13.127643,1067363.000000,1670929982.831225
1670930494.810658,,,,-13.145396,-13.149424,1067364.000000,1670929982.832232
1670930494.812814,10.547584,852832.000000,1670930494.801856,,,,
1670930494.812826,10.728482,852833.000000,1670930494.802856,,,,
1670930494.812835,10.873212,852834.000000,1670930494.803856,,,,
1670930494.812845,10.945568,852835.000000,1670930494.804856,,,,
1670930494.812852,11.108377,852836.000000,1670930494.805856,,,,
1670930494.812878,11.271187,852837.000000,1670930494.806856,,,,
1670930494.812884,11.397819,852838.000000,1670930494.807856,,,,
1670930494.812888,11.560629,852839.000000,1670930494.808856,,,,
1670930494.812924,11.614904,852840.000000,1670930494.809856,,,,
1670930494.812930,11.777714,852841.000000,1670930494.810856,,,,
1670930494.815103,,,,-13.157489,-13.160097,1067365.000000,1670929982.833240
1670930494.815217,,,,-13.126909,-13.130407,1067366.000000,1670929982.834247
1670930494.815436,,,,-13.115298,-13.119829,1067367.000000,1670929982.835254
1670930494.815663,,,,-13.137175,-13.140793,1067368.000000,1670929982.836261
1670930494.815929,,,,-13.138497,-13.139374,1067369.000000,1670929982.837268
1670930494.815985,,,,-13.144218,-13.146730,1067370.000000,1670929982.838275
1670930494.816066,,,,-13.144699,-13.153197,1067371.000000,1670929982.839282
1670930494.817534,,,,-13.169918,-13.177887,1067372.000000,1670929982.840289
1670930494.817618,,,,-13.216052,-13.222579,1067373.000000,1670929982.841296
1670930494.817881,,,,-13.233433,-13.240922,1067374.000000,1670929982.842303
1670930494.817929,,,,-13.242953,-13.250129,1067375.000000,1670929982.843310
1670930494.818018,,,,-13.251439,-13.255875,1067376.000000,1670929982.844317
1670930494.818027,,,,-13.229947,-13.234310,1067377.000000,1670929982.845325
1670930494.831103,,,,-13.184078,-13.187840,1067378.000000,1670929982.846332
1670930494.831774,,,,-13.133328,-13.137908,1067379.000000,1670929982.847339
1670930494.831800,,,,-13.098590,-13.107016,1067380.000000,1670929982.848346
1670930494.832013,,,,-13.097243,-13.100741,1067381.000000,1670929982.849353
1670930494.832236,,,,-13.114168,-13.116079,1067382.000000,1670929982.850360
1670930494.832516,,,,-13.111355,-13.114132,1067383.000000,1670929982.851367
1670930494.832730,,,,-13.114216,-13.117041,1067384.000000,1670929982.852374
1670930494.832859,,,,-13.113928,-13.117594,1067385.000000,1670929982.853381
1670930494.833256,,,,-13.100705,-13.106583,1067386.000000,1670929982.854388
1670930494.833552,,,,-13.102676,-13.106078,1067387.000000,1670929982.855395
1670930494.834299,,,,-13.129602,-13.134350,1067388.000000,1670929982.856402
1670930494.834756,,,,-13.150878,-13.155578,1067389.000000,1670929982.857409
1670930494.835068,,,,-13.148017,-13.152067,1067390.000000,1670929982.858417
1670930494.835086,,,,-13.129963,-13.134302,1067391.000000,1670929982.859424
1670930494.835100,,,,-13.120828,-13.124157,1067392.000000,1670929982.860431
1670930494.835143,,,,-13.125034,-13.128604,1067393.000000,1670929982.861438
1670930494.835472,,,,-13.128616,-13.132715,1067394.000000,1670929982.862445
1670930494.835729,,,,-13.140829,-13.142115,1067395.000000,1670929982.863452
1670930494.836002,,,,-13.171601,-13.174161,1067396.000000,1670929982.864459
1670930494.836157,,,,-13.168644,-13.173512,1067397.000000,1670929982.865466
1670930494.836446,,,,-13.159364,-13.164520,1067398.000000,1670929982.866473
1670930494.837954,,,,-13.157633,-13.161299,1067399.000000,1670929982.867480
1670930494.837977,,,,-13.161431,-13.167670,1067400.000000,1670929982.868487
1670930494.838198,,,,-13.159966,-13.165674,1067401.000000,1670929982.869494
1670930494.838224,,,,-13.158835,-13.162718,1067402.000000,1670929982.870502
1670930494.838487,,,,-13.149027,-13.152765,1067403.000000,1670929982.871509
1670930494.838773,,,,-13.156720,-13.162838,1067404.000000,1670929982.872516
1670930494.838951,,,,-13.189415,-13.195822,1067405.000000,1670929982.873523
1670930494.839118,,,,-13.239828,-13.244479,1067406.000000,1670929982.874530
1670930494.840322,,,,-13.277283,-13.282031,1067407.000000,1670929982.875537
1670930494.840572,,,,-13.318705,-13.321746,1067408.000000,1670929982.876544
1670930494.840586,,,,-13.356184,-13.358288,1067409.000000,1670929982.877551
1670930494.840759,,,,-13.353492,-13.355354,1067410.000000,1670929982.878558
1670930494.840771,,,,-13.316133,-13.318981,1067411.000000,1670929982.879565
1670930494.840896,,,,-13.247088,-13.251692,1067412.000000,1670929982.880572
1670930494.841091,,,,-13.216100,-13.220415,1067413.000000,1670929982.881579
1670930494.841237,,,,-13.219802,-13.224838,1067414.000000,1670929982.882586
1670930494.841496,,,,-13.188021,-13.194499,1067415.000000,1670929982.883594
1670930494.841506,,,,-13.149435,-13.154255,1067416.000000,1670929982.884601
1670930494.845056,,,,-13.111067,-13.116103,1067417.000000,1670929982.885608
1670930494.845067,,,,-13.065823,-13.071267,1067418.000000,1670929982.886615
1670930494.845109,,,,-13.017885,-13.023451,1067419.000000,1670929982.887622
1670930494.845114,,,,-13.026179,-13.034053,1067420.000000,1670929982.888629
1670930494.847513,,,,-13.066327,-13.073888,1067421.000000,1670929982.889636
1670930494.847897,,,,-13.074381,-13.078984,1067422.000000,1670929982.890643
1670930494.848017,,,,-13.081834,-13.086942,1067423.000000,1670929982.891650
1670930494.848028,,,,-13.105345,-13.106462,1067424.000000,1670929982.892657
1670930494.848350,,,,-13.115129,-13.116199,1067425.000000,1670929982.893664
1670930494.848366,,,,-13.129914,-13.134663,1067426.000000,1670929982.894671
1670930494.848372,,,,-13.141069,-13.147211,1067427.000000,1670929982.895679
1670930494.861460,,,,-13.138882,-13.145480,1067428.000000,1670929982.896686
1670930494.861687,,,,-13.129337,-13.135456,1067429.000000,1670929982.897693
1670930494.861949,,,,-13.109865,-13.113074,1067430.000000,1670929982.898700
1670930494.861965,,,,-13.083156,-13.085018,1067431.000000,1670929982.899707
1670930494.862178,,,,-13.089646,-13.093168,1067432.000000,1670929982.900714
1670930494.862190,,,,-13.134146,-13.138052,1067433.000000,1670929982.901721
1670930494.862331,,,,-13.157393,-13.162694,1067434.000000,1670929982.902728
1670930494.868717,,,,-13.147176,-13.152596,1067435.000000,1670929982.903735
1670930494.868903,,,,-13.145252,-13.150698,1067436.000000,1670929982.904742
1670930494.869040,,,,-13.152922,-13.156996,1067437.000000,1670929982.905749
1670930494.869242,,,,-13.144267,-13.149759,1067438.000000,1670929982.906756
1670930494.875449,,,,-13.126645,-13.132739,1067439.000000,1670929982.907763
1670930494.876000,12.085244,852843.000000,1670930494.815797,,,,
1670930494.876028,,,,-13.110009,-13.115190,1067440.000000,1670929982.908771
1670930494.876431,12.193787,852844.000000,1670930494.816797,,,,
1670930494.876449,12.374685,852845.000000,1670930494.817797,,,,
1670930494.876635,,,,-13.095993,-13.100765,1067441.000000,1670929982.909778
1670930494.876654,,,,-13.101378,-13.107616,1067442.000000,1670929982.910785
1670930494.876788,,,,-13.112389,-13.116800,1067443.000000,1670929982.911792
1670930494.876809,,,,-13.119938,-13.122354,1067444.000000,1670929982.912799
1670930494.877772,12.537496,852846.000000,1670930494.818797,,,,
1670930494.877825,12.609859,852847.000000,1670930494.819797,,,,
1670930494.878088,,,,-13.134049,-13.138677,1067445.000000,1670929982.913806
1670930494.878103,,,,-13.166336,-13.170146,1067446.000000,1670929982.914813
1670930494.878133,12.790759,852848.000000,1670930494.820797,,,,
1670930494.878192,12.899302,852849.000000,1670930494.821797,,,,
1670930494.878202,13.062111,852850.000000,1670930494.822797,,,,
1670930494.878214,13.188743,852851.000000,1670930494.823797,,,,
1670930494.878223,13.279196,852852.000000,1670930494.824797,,,,
1670930494.878231,18.778591,852893.000000,1670930494.865797,,,,
1670930494.878275,18.905222,852894.000000,1670930494.866797,,,,
1670930494.878287,19.031855,852895.000000,1670930494.867797,,,,
1670930494.878334,19.122309,852896.000000,1670930494.868797,,,,
1670930494.878342,19.285118,852897.000000,1670930494.869797,,,,
1670930494.878349,19.429838,852898.000000,1670930494.870797,,,,
1670930494.878357,19.520285,852899.000000,1670930494.871797,,,,
1670930494.878365,19.665005,852900.000000,1670930494.872797,,,,
1670930494.878371,19.773546,852901.000000,1670930494.873797,,,,
1670930494.878401,19.882090,852902.000000,1670930494.874797,,,,
1670930494.878435,,,,-13.211220,-13.216568,1067447.000000,1670929982.915820
1670930494.878481,,,,-13.270961,-13.276309,1067448.000000,1670929982.916827
1670930494.878488,,,,-13.328609,-13.335930,1067449.000000,1670929982.917834
1670930494.878522,,,,-13.362146,-13.367207,1067450.000000,1670929982.918841
1670930494.878770,,,,-13.397486,-13.400311,1067451.000000,1670929982.919848
1670930494.878978,,,,-13.495451,-13.498733,1067452.000000,1670929982.920856
1670930494.882328,,,,-13.569760,-13.573234,1067453.000000,1670929982.921863
1670930494.882644,,,,-13.546128,-13.551021,1067454.000000,1670929982.922870
1670930494.882802,,,,-13.515718,-13.524407,1067455.000000,1670929982.923877
1670930494.884818,,,,-13.460640,-13.468273,1067456.000000,1670929982.924884
1670930494.885026,,,,-13.394961,-13.400839,1067457.000000,1670929982.925891
1670930494.885236,,,,-13.280601,-13.285397,1067458.000000,1670929982.926898
1670930494.885442,,,,-13.174438,-13.180267,1067459.000000,1670929982.927905
1670930494.890012,,,,-13.098758,-13.102929,1067460.000000,1670929982.928912
1670930494.890191,,,,-13.031324,-13.034389,1067461.000000,1670929982.929919
1670930494.890209,,,,-12.997259,-13.000252,1067462.000000,1670929982.930926
1670930494.890234,,,,-12.972786,-12.978471,1067463.000000,1670929982.931933
1670930494.892550,,,,-12.967232,-12.973351,1067464.000000,1670929982.932940
1670930494.892615,,,,-13.005577,-13.010830,1067465.000000,1670929982.933948
1670930494.892716,,,,-13.019736,-13.024652,1067466.000000,1670929982.934955
1670930494.897399,,,,-12.984084,-12.987943,1067467.000000,1670929982.935962
1670930494.897709,,,,-12.982762,-12.987751,1067468.000000,1670929982.936969
1670930494.898253,,,,-13.027021,-13.030375,1067469.000000,1670929982.937976
1670930494.898274,,,,-13.109793,-13.112617,1067470.000000,1670929982.938983
1670930494.900246,,,,-13.176794,-13.181829,1067471.000000,1670929982.939990
1670930494.900286,,,,-13.251559,-13.257438,1067472.000000,1670929982.940997
1670930494.900786,,,,-13.326302,-13.332564,1067473.000000,1670929982.942004
1670930494.900809,,,,-13.405780,-13.411104,1067474.000000,1670929982.943011
1670930494.901076,,,,-13.443571,-13.448223,1067475.000000,1670929982.944018
1670930494.901270,,,,-13.425397,-13.430217,1067476.000000,1670929982.945025
1670930494.901517,,,,-13.363300,-13.366606,1067477.000000,1670929982.946033
1670930494.905371,,,,-13.293390,-13.296263,1067478.000000,1670929982.947040
1670930494.906123,,,,-13.230164,-13.232363,1067479.000000,1670929982.948047
1670930494.906517,,,,-13.158258,-13.161227,1067480.000000,1670929982.949054
1670930494.906778,,,,-13.085536,-13.088552,1067481.000000,1670929982.950061
1670930494.906808,,,,-12.999085,-13.002487,1067482.000000,1670929982.951068
1670930494.907206,,,,-12.967593,-12.973398,1067483.000000,1670929982.952075
1670930494.907719,,,,-12.981392,-12.984721,1067484.000000,1670929982.953082
1670930494.907982,,,,-13.010217,-13.011791,1067485.000000,1670929982.954089
1670930494.908130,,,,-13.021083,-13.025206,1067486.000000,1670929982.955096
1670930494.908239,,,,-13.053754,-13.060088,1067487.000000,1670929982.956103
1670930494.908406,,,,-13.119217,-13.126008,1067488.000000,1670929982.957110
1670930494.929108,,,,-13.154099,-13.159904,1067489.000000,1670929982.958117
1670930494.929210,,,,-13.149267,-13.154327,1067490.000000,1670929982.959125
1670930494.929618,,,,-13.144291,-13.148173,1067491.000000,1670929982.960132
1670930494.929826,,,,-13.121837,-13.126465,1067492.000000,1670929982.961139
1670930494.929903,,,,-13.100513,-13.105621,1067493.000000,1670929982.962146
1670930494.929924,,,,-13.111524,-13.111848,1067494.000000,1670929982.963153
1670930494.929960,,,,-13.129626,-13.132042,1067495.000000,1670929982.964160
1670930494.933302,26.792513,852954.000000,1670930494.920829,,,,
1670930494.933324,26.937235,852955.000000,1670930494.921829,,,,
1670930494.933345,27.045776,852956.000000,1670930494.922829,,,,
1670930494.933360,27.172409,852957.000000,1670930494.923829,,,,
1670930494.933368,27.262861,852958.000000,1670930494.924829,,,,
1670930494.933418,27.425673,852959.000000,1670930494.925829,,,,
1670930494.933431,27.479939,852960.000000,1670930494.926829,,,,
1670930494.933443,27.624659,852961.000000,1670930494.927829,,,,
1670930494.933499,27.787470,852962.000000,1670930494.928829,,,,
1670930494.933509,27.914101,852963.000000,1670930494.929829,,,,
1670930494.935599,,,,-13.128496,-13.130624,1067496.000000,1670929982.965167
1670930494.935618,,,,-13.153570,-13.155434,1067497.000000,1670929982.966174
1670930494.935627,,,,-13.175063,-13.177094,1067498.000000,1670929982.967181
1670930494.935831,,,,-13.193141,-13.199764,1067499.000000,1670929982.968188
1670930494.936084,,,,-13.212157,-13.220271,1067500.000000,1670929982.969195
1670930494.936292,,,,-13.190545,-13.194595,1067501.000000,1670929982.970202
1670930494.937414,,,,-13.167898,-13.169689,1067502.000000,1670929982.971210
1670930494.937428,,,,-13.163162,-13.165747,1067503.000000,1670929982.972217
1670930494.937434,,,,-13.164076,-13.168391,1067504.000000,1670929982.973224
1670930494.937439,,,,-13.162441,-13.168824,1067505.000000,1670929982.974231
1670930494.942448,,,,-13.161119,-13.166733,1067506.000000,1670929982.975238
1670930494.942607,,,,-13.121885,-13.125551,1067507.000000,1670929982.976245
1670930494.942775,,,,-13.109504,-13.112112,1067508.000000,1670929982.977252
1670930494.942902,,,,-13.150565,-13.155578,1067509.000000,1670929982.978259
1670930494.945090,,,,-13.170231,-13.173848,1067510.000000,1670929982.979266
1670930494.945290,,,,-13.170976,-13.175796,1067511.000000,1670929982.980273
1670930494.945306,,,,-13.158235,-13.164545,1067512.000000,1670929982.981280
1670930494.949990,,,,-13.158787,-13.164232,1067513.000000,1670929982.982287
1670930494.950298,,,,-13.174702,-13.180916,1067514.000000,1670929982.983294
1670930494.950851,,,,-13.184872,-13.191710,1067515.000000,1670929982.984302
1670930494.950874,,,,-13.196339,-13.201808,1067516.000000,1670929982.985309
1670930494.952504,,,,-13.202926,-13.208034,1067517.000000,1670929982.986316
1670930494.952789,,,,-13.203335,-13.208275,1067518.000000,1670929982.987323
1670930494.953151,,,,-13.181554,-13.186350,1067519.000000,1670929982.988330
1670930494.953170,,,,-13.157272,-13.160843,1067520.000000,1670929982.989337
1670930494.957699,,,,-13.147344,-13.151178,1067521.000000,1670929982.990344
1670930494.958562,,,,-13.177972,-13.182191,1067522.000000,1670929982.991351
1670930494.958971,,,,-13.219129,-13.223684,1067523.000000,1670929982.992358
1670930494.958993,,,,-13.236438,-13.241643,1067524.000000,1670929982.993365
1670930494.959041,,,,-13.229514,-13.232748,1067525.000000,1670929982.994372
1670930494.959240,,,,-13.207951,-13.210943,1067526.000000,1670929982.995379
1670930494.959963,,,,-13.166216,-13.170675,1067527.000000,1670929982.996387
1670930494.960093,,,,-13.136790,-13.140985,1067528.000000,1670929982.997394
1670930494.960232,,,,-13.155998,-13.158991,1067529.000000,1670929982.998401
1670930494.960491,,,,-13.188021,-13.191326,1067530.000000,1670929982.999408
1670930494.960523,,,,-13.225284,-13.230584,1067531.000000,1670929983.000415
1670930494.960582,,,,-13.254493,-13.257149,1067532.000000,1670929983.001422
1670930494.960588,,,,-13.244948,-13.248013,1067533.000000,1670929983.002429
1670930494.965005,,,,-13.224274,-13.229671,1067534.000000,1670929983.003436
1670930494.965095,,,,-13.215138,-13.221449,1067535.000000,1670929983.004443
1670930494.965149,,,,-13.206941,-13.212072,1067536.000000,1670929983.005450
1670930494.965297,,,,-13.183933,-13.191086,1067537.000000,1670929983.006457
1670930494.967509,,,,-13.152753,-13.156395,1067538.000000,1670929983.007464
1670930494.968086,,,,-13.116620,-13.120670,1067539.000000,1670929983.008471
1670930494.968104,,,,-13.089575,-13.096317,1067540.000000,1670929983.009479
1670930494.968119,,,,-13.121669,-13.128076,1067541.000000,1670929983.010486
1670930494.968128,,,,-13.164581,-13.166276,1067542.000000,1670929983.011493
1670930494.968134,,,,-13.306420,-13.309966,1067543.000000,1670929983.012500
1670930494.968141,,,,-13.459846,-13.464306,1067544.000000,1670929983.013507
1670930494.968199,,,,-13.530166,-13.535659,1067545.000000,1670929983.014514
1670930494.982187,,,,-13.552547,-13.556982,1067546.000000,1670929983.015521
1670930494.982298,,,,-13.518602,-13.522556,1067547.000000,1670929983.016528
1670930494.982317,,,,-13.436480,-13.441780,1067548.000000,1670929983.017535
1670930494.989684,,,,-13.310987,-13.314702,1067549.000000,1670929983.018542
1670930494.989707,,,,-13.162874,-13.166156,1067550.000000,1670929983.019549
1670930494.989889,,,,-13.062818,-13.068046,1067551.000000,1670929983.020556
1670930494.989906,,,,-13.005865,-13.010204,1067552.000000,1670929983.021564
1670930494.994958,,,,-12.953193,-12.961498,1067553.000000,1670929983.022571
1670930494.995188,,,,-12.934176,-12.943372,1067554.000000,1670929983.023578
1670930494.995511,,,,-12.975574,-12.984577,1067555.000000,1670929983.024585
1670930494.996831,30.066832,852981.000000,1670930494.952641,,,,
1670930494.997246,,,,-13.058755,-13.065786,1067556.000000,1670929983.025592
1670930494.997435,,,,-13.114817,-13.120430,1067557.000000,1670929983.026599
1670930494.997671,,,,-13.108735,-13.112738,1067558.000000,1670929983.027606
1670930494.998149,30.139187,852982.000000,1670930494.953641,,,,
1670930494.998159,30.283907,852983.000000,1670930494.954641,,,,
1670930494.998164,30.410540,852984.000000,1670930494.955641,,,,
1670930494.998186,30.500992,852985.000000,1670930494.956641,,,,
1670930494.998200,30.555260,852986.000000,1670930494.957641,,,,
1670930494.998213,30.718069,852987.000000,1670930494.958641,,,,
1670930494.998219,30.826612,852988.000000,1670930494.959641,,,,
1670930494.998248,30.935154,852989.000000,1670930494.960641,,,,
1670930494.998258,31.061787,852990.000000,1670930494.961641,,,,
1670930494.998266,33.449680,853015.000000,1670930494.986641,,,,
1670930494.998348,33.503948,853016.000000,1670930494.987641,,,,
1670930494.998392,33.684856,853017.000000,1670930494.988641,,,,
1670930494.998399,33.793392,853018.000000,1670930494.989641,,,,
1670930494.998413,33.865757,853019.000000,1670930494.990641,,,,
1670930494.998424,33.956207,853020.000000,1670930494.991641,,,,
1670930494.998481,34.010475,853021.000000,1670930494.992641,,,,
1670930494.998487,34.209465,853022.000000,1670930494.993641,,,,
1670930494.998511,34.245651,853023.000000,1670930494.994641,,,,
1670930494.998518,34.408459,853024.000000,1670930494.995641,,,,
1670930495.011066,,,,-13.063707,-13.066916,1067559.000000,1670929983.028613
1670930495.011212,,,,-13.039979,-13.042924,1067560.000000,1670929983.029620
1670930495.011334,,,,-13.055341,-13.058790,1067561.000000,1670929983.030627
1670930495.011464,,,,-13.080992,-13.087231,1067562.000000,1670929983.031634
1670930495.011483,,,,-13.096810,-13.100765,1067563.000000,1670929983.032641
1670930495.011579,,,,-13.091186,-13.096703,1067564.000000,1670929983.033648
1670930495.011687,,,,-13.102052,-13.108266,1067565.000000,1670929983.034656
1670930495.012122,,,,-13.130588,-13.134758,1067566.000000,1670929983.035663
1670930495.012510,,,,-13.158235,-13.164425,1067567.000000,1670929983.036670
1670930495.013152,,,,-13.190040,-13.193489,1067568.000000,1670929983.037677
1670930495.013294,,,,-13.242857,-13.246210,1067569.000000,1670929983.038684
1670930495.013310,,,,-13.276442,-13.281069,1067570.000000,1670929983.039691
1670930495.017524,,,,-13.293150,-13.299460,1067571.000000,1670929983.040698
1670930495.017917,,,,-13.324571,-13.331145,1067572.000000,1670929983.041705
1670930495.018372,,,,-13.388638,-13.394372,1067573.000000,1670929983.042712
1670930495.019973,,,,-13.423714,-13.428029,1067574.000000,1670929983.043719
1670930495.020103,,,,-13.438451,-13.441132,1067575.000000,1670929983.044726
1670930495.020387,,,,-13.411477,-13.419254,1067576.000000,1670929983.045733
1670930495.020514,,,,-13.301299,-13.311096,1067577.000000,1670929983.046741
1670930495.024789,,,,-13.194896,-13.199620,1067578.000000,1670929983.047748
1670930495.025050,,,,-13.152104,-13.155145,1067579.000000,1670929983.048755
1670930495.025063,,,,-13.135636,-13.139182,1067580.000000,1670929983.049762
1670930495.027782,,,,-13.101306,-13.106968,1067581.000000,1670929983.050769
1670930495.027792,,,,-13.042600,-13.048838,1067582.000000,1670929983.051776
1670930495.027884,,,,-12.998076,-13.000685,1067583.000000,1670929983.052783
1670930495.028387,,,,-12.989830,-12.993256,1067584.000000,1670929983.053790
1670930495.028414,,,,-13.003894,-13.007512,1067585.000000,1670929983.054797
1670930495.028430,,,,-13.066833,-13.070065,1067586.000000,1670929983.055804
1670930495.028502,,,,-13.107677,-13.109828,1067587.000000,1670929983.056811
1670930495.041924,,,,-13.111163,-13.114589,1067588.000000,1670929983.057818
1670930495.042478,,,,-13.116091,-13.120743,1067589.000000,1670929983.058825
1670930495.042517,,,,-13.126909,-13.131104,1067590.000000,1670929983.059833
1670930495.042736,,,,-13.134193,-13.138268,1067591.000000,1670929983.060840
1670930495.043321,,,,-13.148978,-13.153126,1067592.000000,1670929983.061847
1670930495.043717,,,,-13.184896,-13.191831,1067593.000000,1670929983.062854
1670930495.043837,,,,-13.213528,-13.221088,1067594.000000,1670929983.063861
1670930495.048687,,,,-13.239539,-13.245321,1067595.000000,1670929983.064868
1670930495.048921,,,,-13.257906,-13.262438,1067596.000000,1670929983.065875
1670930495.049122,,,,-13.265912,-13.269938,1067597.000000,1670929983.066882
1670930495.049400,,,,-13.292910,-13.299292,1067598.000000,1670929983.067889
1670930495.051931,35.819489,853036.000000,1670930495.001940,,,,
1670930495.052071,35.946121,853037.000000,1670930495.002940,,,,
1670930495.052812,36.108929,853038.000000,1670930495.003940,,,,
1670930495.052820,36.235561,853039.000000,1670930495.004940,,,,
1670930495.052830,36.307919,853040.000000,1670930495.005940,,,,
1670930495.052839,36.525002,853041.000000,1670930495.006940,,,,
1670930495.052857,36.597366,853042.000000,1670930495.007940,,,,
1670930495.052862,36.723991,853043.000000,1670930495.008940,,,,
1670930495.052871,36.850624,853044.000000,1670930495.009940,,,,
1670930495.052881,37.031528,853045.000000,1670930495.010940,,,,
1670930495.052884,41.083717,853076.000000,1670930495.041940,,,,
1670930495.052894,41.210350,853077.000000,1670930495.042940,,,,
1670930495.052901,41.355072,853078.000000,1670930495.043940,,,,
1670930495.052904,41.481693,853079.000000,1670930495.044940,,,,
1670930495.052907,41.572147,853080.000000,1670930495.045940,,,,
1670930495.052915,41.680691,853081.000000,1670930495.046940,,,,
1670930495.052918,41.807320,853082.000000,1670930495.047940,,,,
1670930495.052939,41.952042,853083.000000,1670930495.048940,,,,
1670930495.052943,42.060585,853084.000000,1670930495.049940,,,,
1670930495.052949,42.169121,853085.000000,1670930495.050940,,,,
1670930495.055164,,,,-13.330846,-13.338574,1067599.000000,1670929983.068896
1670930495.055169,,,,-13.337360,-13.342565,1067600.000000,1670929983.069903
1670930495.055238,,,,-13.311420,-13.315327,1067601.000000,1670929983.070910
1670930495.055325,,,,-13.296203,-13.300951,1067602.000000,1670929983.071918
1670930495.062297,,,,-13.246199,-13.252100,1067603.000000,1670929983.072925
1670930495.062327,,,,-13.173717,-13.179498,1067604.000000,1670929983.073932
1670930495.064990,,,,-13.122102,-13.129013,1067605.000000,1670929983.074939
1670930495.065214,,,,-13.096570,-13.106486,1067606.000000,1670929983.075946
1670930495.065404,,,,-13.071015,-13.079658,1067607.000000,1670929983.076953
1670930495.065531,,,,-13.050388,-13.056482,1067608.000000,1670929983.077960
1670930495.065685,,,,-13.029761,-13.037779,1067609.000000,1670929983.078967
1670930495.065823,,,,-13.044378,-13.052876,1067610.000000,1670929983.079974
1670930495.065962,,,,-13.076545,-13.081749,1067611.000000,1670929983.080981
1670930495.066096,,,,-13.104383,-13.110261,1067612.000000,1670929983.081988
1670930495.069959,,,,-13.123351,-13.131345,1067613.000000,1670929983.082995
1670930495.069971,,,,-13.126813,-13.134133,1067614.000000,1670929983.084002
1670930495.069988,,,,-13.137775,-13.142500,1067615.000000,1670929983.085010
1670930495.072190,,,,-13.211941,-13.217915,1067616.000000,1670929983.086017
1670930495.072368,,,,-13.370897,-13.376943,1067617.000000,1670929983.087024
1670930495.072554,,,,-13.522208,-13.528255,1067618.000000,1670929983.088031
1670930495.072728,,,,-13.602912,-13.608141,1067619.000000,1670929983.089038
1670930495.077627,,,,-13.625463,-13.629729,1067620.000000,1670929983.090045
1670930495.077751,,,,-13.608971,-13.614223,1067621.000000,1670929983.091052
1670930495.077915,,,,-13.539373,-13.544530,1067622.000000,1670929983.092059
1670930495.080339,,,,-13.402462,-13.407451,1067623.000000,1670929983.093066
1670930495.080394,,,,-13.233986,-13.237965,1067624.000000,1670929983.094073
1670930495.080921,,,,-13.095416,-13.099804,1067625.000000,1670929983.095080
1670930495.080932,,,,-13.023775,-13.030278,1067626.000000,1670929983.096087
1670930495.081204,,,,-12.949274,-12.953348,1067627.000000,1670929983.097095
1670930495.081422,,,,-12.893164,-12.898584,1067628.000000,1670929983.098102
1670930495.081724,,,,-12.876840,-12.883390,1067629.000000,1670929983.099109
1670930495.081824,,,,-12.922348,-12.929068,1067630.000000,1670929983.100116
1670930495.085858,,,,-12.983820,-12.989073,1067631.000000,1670929983.101123
1670930495.086283,,,,-13.047720,-13.054127,1067632.000000,1670929983.102130
1670930495.086666,,,,-13.101691,-13.106486,1067633.000000,1670929983.103137
1670930495.087168,,,,-13.134675,-13.138220,1067634.000000,1670929983.104144
1670930495.088120,,,,-13.154917,-13.159568,1067635.000000,1670929983.105151
1670930495.088650,,,,-13.157994,-13.161083,1067636.000000,1670929983.106158
1670930495.088667,,,,-13.157152,-13.162477,1067637.000000,1670929983.107165
1670930495.089019,,,,-13.139675,-13.144471,1067638.000000,1670929983.108172
1670930495.089394,,,,-13.142127,-13.143558,1067639.000000,1670929983.109179
1670930495.089407,,,,-13.167610,-13.171589,1067640.000000,1670929983.110187
1670930495.089427,,,,-13.189463,-13.192167,1067641.000000,1670929983.111194
1670930495.089627,,,,-13.193430,-13.195485,1067642.000000,1670929983.112201
1670930495.089947,,,,-13.186049,-13.189355,1067643.000000,1670929983.113208
1670930495.089964,,,,-13.175231,-13.180892,1067644.000000,1670929983.114215
1670930495.090005,,,,-13.165446,-13.172574,1067645.000000,1670929983.115222
1670930495.090019,,,,-13.163692,-13.170050,1067646.000000,1670929983.116229
1670930495.090027,,,,-13.172947,-13.177767,1067647.000000,1670929983.117236
1670930495.090055,,,,-13.173813,-13.177286,1067648.000000,1670929983.118243
1670930495.090066,,,,-13.183405,-13.186878,1067649.000000,1670929983.119250
1670930495.090090,,,,-13.213167,-13.217482,1067650.000000,1670929983.120257
1670930495.090104,,,,-13.239924,-13.244864,1067651.000000,1670929983.121264
1670930495.109030,,,,-13.236678,-13.241570,1067652.000000,1670929983.122272
1670930495.109161,,,,-13.197613,-13.202336,1067653.000000,1670929983.123279
1670930495.109166,,,,-13.143450,-13.147957,1067654.000000,1670929983.124286
1670930495.109325,,,,-13.135684,-13.141129,1067655.000000,1670929983.125293
1670930495.109442,,,,-13.160182,-13.166757,1067656.000000,1670929983.126300
1670930495.109530,,,,-13.182155,-13.188081,1067657.000000,1670929983.127307
1670930495.109655,,,,-13.200401,-13.205510,1067658.000000,1670929983.128314
1670930495.109725,,,,-13.181458,-13.186638,1067659.000000,1670929983.129321
1670930495.115130,,,,-13.154412,-13.158583,1067660.000000,1670929983.130328
1670930495.115143,,,,-13.152272,-13.155145,1067661.000000,1670929983.131335
1670930495.115164,,,,-13.247088,-13.252893,1067662.000000,1670929983.132342
1670930495.115701,42.331936,853086.000000,1670930495.055166,,,,
1670930495.116721,42.386204,853087.000000,1670930495.056166,,,,
1670930495.116740,42.512836,853088.000000,1670930495.057166,,,,
1670930495.116747,42.621380,853089.000000,1670930495.058166,,,,
1670930495.116754,42.784187,853090.000000,1670930495.059166,,,,
1670930495.116809,47.541889,853137.000000,1670930495.106166,,,,
1670930495.116820,47.632336,853138.000000,1670930495.107166,,,,
1670930495.116855,47.722790,853139.000000,1670930495.108166,,,,
1670930495.116864,47.831333,853140.000000,1670930495.109166,,,,
1670930495.116869,47.976051,853141.000000,1670930495.110166,,,,
1670930495.116882,48.048409,853142.000000,1670930495.111166,,,,
1670930495.116886,48.211227,853143.000000,1670930495.112166,,,,
1670930495.116892,48.319759,853144.000000,1670930495.113166,,,,
1670930495.116905,48.410213,853145.000000,1670930495.114166,,,,
1670930495.116921,48.573025,853146.000000,1670930495.115166,,,,
1670930495.122575,,,,-13.281923,-13.285757,1067663.000000,1670929983.133349
1670930495.122839,,,,-13.290673,-13.297633,1067664.000000,1670929983.134356
1670930495.122847,,,,-13.307430,-13.312057,1067665.000000,1670929983.135364
1670930495.124863,,,,-13.352842,-13.357686,1067666.000000,1670929983.136371
1670930495.125195,,,,-13.385754,-13.390453,1067667.000000,1670929983.137378
1670930495.125574,,,,-13.400323,-13.404757,1067668.000000,1670929983.138385
1670930495.125592,,,,-13.357627,-13.359297,1067669.000000,1670929983.139392
1670930495.130379,,,,-13.270239,-13.275852,1067670.000000,1670929983.140399
1670930495.130389,,,,-13.153258,-13.160891,1067671.000000,1670929983.141406
1670930495.130424,,,,-13.107028,-13.112713,1067672.000000,1670929983.142413
1670930495.132744,,,,-13.151936,-13.156491,1067673.000000,1670929983.143420
1670930495.133180,,,,-13.177683,-13.184474,1067674.000000,1670929983.144427
1670930495.133211,,,,-13.206724,-13.210030,1067675.000000,1670929983.145434
1670930495.133391,,,,-13.193190,-13.199211,1067676.000000,1670929983.146441
1670930495.133599,,,,-13.165422,-13.172093,1067677.000000,1670929983.147449
1670930495.134345,,,,-13.126501,-13.130071,1067678.000000,1670929983.148456
1670930495.134368,,,,-13.104191,-13.106631,1067679.000000,1670929983.149463
1670930495.134959,,,,-13.116500,-13.119805,1067680.000000,1670929983.150470
1670930495.137863,,,,-13.127992,-13.133412,1067681.000000,1670929983.151477
1670930495.138068,,,,-13.134795,-13.143004,1067682.000000,1670929983.152484
1670930495.138282,,,,-13.116524,-13.119709,1067683.000000,1670929983.153491
1670930495.138613,,,,-13.094046,-13.096005,1067684.000000,1670929983.154498
1670930495.138963,,,,-13.079286,-13.082830,1067685.000000,1670929983.155505
1670930495.139475,,,,-13.092964,-13.097424,1067686.000000,1670929983.156512
1670930495.139955,,,,-13.152296,-13.157044,1067687.000000,1670929983.157519
1670930495.140122,,,,-13.183597,-13.188441,1067688.000000,1670929983.158526
1670930495.140137,,,,-13.182515,-13.187719,1067689.000000,1670929983.159534
1670930495.140297,,,,-13.194247,-13.197167,1067690.000000,1670929983.160541
1670930495.144920,,,,-13.221028,-13.224334,1067691.000000,1670929983.161548
1670930495.145061,,,,-13.304761,-13.309750,1067692.000000,1670929983.162555
1670930495.145162,,,,-13.393663,-13.397233,1067693.000000,1670929983.163562
1670930495.145310,,,,-13.410708,-13.416057,1067694.000000,1670929983.164569
1670930495.168765,,,,-13.416069,-13.419351,1067695.000000,1670929983.165576
1670930495.168908,,,,-13.388975,-13.391704,1067696.000000,1670929983.166583
1670930495.169060,,,,-13.338634,-13.341435,1067697.000000,1670929983.167590
1670930495.183368,,,,-13.291299,-13.297249,1067698.000000,1670929983.168597
1670930495.183840,,,,-13.277235,-13.283954,1067699.000000,1670929983.169604
1670930495.184396,,,,-13.262642,-13.268496,1067700.000000,1670929983.170611
1670930495.184917,,,,-13.186794,-13.192961,1067701.000000,1670929983.171618
1670930495.185344,,,,-13.091907,-13.098457,1067702.000000,1670929983.172626
1670930495.185951,,,,-13.018535,-13.023211,1067703.000000,1670929983.173633
1670930495.186047,,,,-13.014640,-13.019292,1067704.000000,1670929983.174640
1670930495.186376,,,,-13.047456,-13.051650,1067705.000000,1670929983.175647
1670930495.187037,,,,-13.067169,-13.071676,1067706.000000,1670929983.176654
1670930495.187049,,,,-13.042768,-13.048429,1067707.000000,1670929983.177661
1670930495.187348,,,,-13.028487,-13.034846,1067708.000000,1670929983.178668
1670930495.190144,,,,-13.031252,-13.038236,1067709.000000,1670929983.179675
1670930495.190164,,,,-13.090055,-13.096558,1067710.000000,1670929983.180682
1670930495.190173,,,,-13.137487,-13.143148,1067711.000000,1670929983.181689
1670930495.192496,54.235237,853198.000000,1670930495.181576,,,,
1670930495.192518,54.271416,853199.000000,1670930495.182577,,,,
1670930495.192527,54.379959,853200.000000,1670930495.183577,,,,
1670930495.192678,54.452312,853201.000000,1670930495.184577,,,,
1670930495.192688,54.578945,853202.000000,1670930495.185576,,,,
1670930495.192693,54.669399,853203.000000,1670930495.186577,,,,
1670930495.192707,54.705578,853204.000000,1670930495.187577,,,,
1670930495.192715,54.796032,853205.000000,1670930495.188576,,,,
1670930495.192720,54.868389,853206.000000,1670930495.189577,,,,
1670930495.192724,54.886475,853207.000000,1670930495.190577,,,,
1670930495.194495,,,,-13.171553,-13.171228,1067712.000000,1670929983.182696
1670930495.194507,,,,-13.198959,-13.200846,1067713.000000,1670929983.183703
1670930495.194559,,,,-13.208983,-13.213635,1067714.000000,1670929983.184711
1670930495.194569,,,,-13.204416,-13.207529,1067715.000000,1670929983.185718
1670930495.194788,,,,-13.168307,-13.170050,1067716.000000,1670929983.186725
1670930495.197192,,,,-13.149484,-13.153583,1067717.000000,1670929983.187732
1670930495.197423,,,,-13.176265,-13.181085,1067718.000000,1670929983.188739
1670930495.197621,,,,-13.190785,-13.195846,1067719.000000,1670929983.189746
1670930495.199721,,,,-13.171865,-13.178729,1067720.000000,1670929983.190753
1670930495.199729,,,,-13.168451,-13.172647,1067721.000000,1670929983.191760
1670930495.199871,,,,-13.188766,-13.193153,1067722.000000,1670929983.192767
1670930495.205237,,,,-13.217999,-13.223060,1067723.000000,1670929983.193774
1670930495.205323,,,,-13.266032,-13.268160,1067724.000000,1670929983.194781
1670930495.205804,,,,-13.277428,-13.280757,1067725.000000,1670929983.195788
1670930495.206100,,,,-13.241992,-13.245056,1067726.000000,1670929983.196795
1670930495.207459,,,,-13.203214,-13.205582,1067727.000000,1670929983.197803
1670930495.207933,,,,-13.172539,-13.179546,1067728.000000,1670929983.198810
1670930495.208046,,,,-13.168067,-13.174618,1067729.000000,1670929983.199817
1670930495.221051,,,,-13.176001,-13.183753,1067730.000000,1670929983.200824
1670930495.221129,,,,-13.153234,-13.160193,1067731.000000,1670929983.201831
1670930495.221270,,,,-13.149892,-13.154904,1067732.000000,1670929983.202838
1670930495.229090,,,,-13.157104,-13.160386,1067733.000000,1670929983.203845
1670930495.229106,,,,-13.142968,-13.147236,1067734.000000,1670929983.204852
1670930495.229230,,,,-13.154532,-13.158871,1067735.000000,1670929983.205859
1670930495.229480,,,,-13.167994,-13.169329,1067736.000000,1670929983.206866
1670930495.229723,,,,-13.190064,-13.191037,1067737.000000,1670929983.207873
1670930495.229904,,,,-13.191290,-13.194018,1067738.000000,1670929983.208880
1670930495.230083,,,,-13.182251,-13.188826,1067739.000000,1670929983.209888
1670930495.230151,,,,-13.196819,-13.199284,1067740.000000,1670929983.210895
1670930495.234900,,,,-13.219610,-13.222627,1067741.000000,1670929983.211902
1670930495.235061,,,,-13.247762,-13.251451,1067742.000000,1670929983.212909
1670930495.235300,,,,-13.296468,-13.302586,1067743.000000,1670929983.213916
1670930495.236490,56.912575,853259.000000,1670930495.224708,,,,
1670930495.236509,56.912575,853260.000000,1670930495.225708,,,,
1670930495.236537,56.930664,853261.000000,1670930495.226708,,,,
1670930495.236549,56.912575,853262.000000,1670930495.227708,,,,
1670930495.236563,56.876396,853263.000000,1670930495.228708,,,,
1670930495.236608,56.876396,853264.000000,1670930495.229708,,,,
1670930495.236618,56.894485,853265.000000,1670930495.230708,,,,
1670930495.236636,56.876396,853266.000000,1670930495.231708,,,,
1670930495.236649,56.840210,853267.000000,1670930495.232708,,,,
1670930495.236719,56.858299,853268.000000,1670930495.233708,,,,
1670930495.237684,,,,-13.346736,-13.352830,1067744.000000,1670929983.214923
1670930495.237921,,,,-13.382532,-13.386294,1067745.000000,1670929983.215930
1670930495.238484,,,,-13.429051,-13.433967,1067746.000000,1670929983.216937
1670930495.238513,,,,-13.399264,-13.404277,1067747.000000,1670929983.217944
1670930495.238530,,,,-13.373878,-13.379683,1067748.000000,1670929983.218951
1670930495.238967,,,,-13.328249,-13.331963,1067749.000000,1670929983.219958
1670930495.239069,,,,-13.261320,-13.265395,1067750.000000,1670929983.220965
1670930495.239500,,,,-13.166143,-13.173295,1067751.000000,1670929983.221972
1670930495.242419,,,,-13.113327,-13.118242,1067752.000000,1670929983.222980
1670930495.242616,,,,-13.048201,-13.053453,1067753.000000,1670929983.223987
1670930495.242628,,,,-13.010505,-13.014869,1067754.000000,1670929983.224994
1670930495.245049,,,,-13.019208,-13.023187,1067755.000000,1670929983.226001
1670930495.245058,,,,-13.067241,-13.073118,1067756.000000,1670929983.227008
1670930495.245356,,,,-13.103999,-13.111487,1067757.000000,1670929983.228015
1670930495.245399,,,,-13.117581,-13.123844,1067758.000000,1670929983.229022
1670930495.249940,,,,-13.111211,-13.117834,1067759.000000,1670929983.230029
1670930495.250214,,,,-13.110947,-13.116223,1067760.000000,1670929983.231036
1670930495.250578,,,,-13.122293,-13.126032,1067761.000000,1670929983.232043
1670930495.250774,,,,-13.135156,-13.140023,1067762.000000,1670929983.233050
1670930495.253244,,,,-13.139506,-13.143702,1067763.000000,1670929983.234057
1670930495.253461,,,,-13.144868,-13.149424,1067764.000000,1670929983.235065
1670930495.253658,,,,-13.159052,-13.163872,1067765.000000,1670929983.236072
1670930495.253847,,,,-13.166360,-13.174088,1067766.000000,1670929983.237079
1670930495.254223,,,,-13.212854,-13.218804,1067767.000000,1670929983.238086
1670930495.254524,,,,-13.308488,-13.316360,1067768.000000,1670929983.239093
1670930495.254700,,,,-13.371378,-13.376101,1067769.000000,1670929983.240100
1670930495.254843,,,,-13.385633,-13.389372,1067770.000000,1670929983.241107
1670930495.254860,,,,-13.389000,-13.394637,1067771.000000,1670929983.242114
1670930495.254917,,,,-13.345942,-13.352469,1067772.000000,1670929983.243121
1670930495.258624,,,,-13.269205,-13.272776,1067773.000000,1670929983.244128
1670930495.258902,,,,-13.222182,-13.226978,1067774.000000,1670929983.245135
1670930495.259120,,,,-13.217543,-13.224045,1067775.000000,1670929983.246142
1670930495.259441,,,,-13.227159,-13.233997,1067776.000000,1670929983.247149
1670930495.259708,,,,-13.193887,-13.199572,1067777.000000,1670929983.248157
1670930495.260063,,,,-13.140372,-13.145529,1067778.000000,1670929983.249164
1670930495.260393,,,,-13.128640,-13.133316,1067779.000000,1670929983.250171
1670930495.260728,,,,-13.146479,-13.151635,1067780.000000,1670929983.251178
1670930495.260961,,,,-13.182082,-13.188128,1067781.000000,1670929983.252185
1670930495.261201,,,,-13.155710,-13.160386,1067782.000000,1670929983.253192
1670930495.261763,,,,-13.130083,-13.135624,1067783.000000,1670929983.254199
1670930495.261961,,,,-13.140805,-13.148847,1067784.000000,1670929983.255206
1670930495.262134,,,,-13.145372,-13.153197,1067785.000000,1670929983.256213
1670930495.262233,,,,-13.147344,-13.152380,1067786.000000,1670929983.257220
1670930495.262583,,,,-13.148907,-13.155554,1067787.000000,1670929983.258227
1670930495.262598,,,,-13.146887,-13.149351,1067788.000000,1670929983.259234
1670930495.263127,,,,-13.153522,-13.156034,1067789.000000,1670929983.260242
1670930495.263396,,,,-13.201435,-13.204140,1067790.000000,1670929983.261249
1670930495.263414,,,,-13.259180,-13.260563,1067791.000000,1670929983.262256
1670930495.263592,,,,-13.293077,-13.296215,1067792.000000,1670929983.263263
1670930495.263613,,,,-13.307094,-13.311745,1067793.000000,1670929983.264270
1670930495.263689,,,,-13.300386,-13.305422,1067794.000000,1670929983.265277
1670930495.266994,,,,-13.254493,-13.260274,1067795.000000,1670929983.266284
1670930495.267454,,,,-13.196555,-13.201351,1067796.000000,1670929983.267291
1670930495.267563,,,,-13.207662,-13.208395,1067797.000000,1670929983.268298
1670930495.267742,,,,-13.195689,-13.198274,1067798.000000,1670929983.269305
1670930495.268168,,,,-13.169798,-13.174377,1067799.000000,1670929983.270312
1670930495.268404,,,,-13.198550,-13.201375,1067800.000000,1670929983.271319
1670930495.268422,,,,-13.239155,-13.242653,1067801.000000,1670929983.272326
1670930495.268479,,,,-13.212782,-13.218371,1067802.000000,1670929983.273334
1670930495.268709,,,,-13.174774,-13.179570,1067803.000000,1670929983.274341
1670930495.268947,,,,-13.162345,-13.164545,1067804.000000,1670929983.275348
1670930495.269131,,,,-13.162465,-13.166733,1067805.000000,1670929983.276355
1670930495.269576,,,,-13.162802,-13.168031,1067806.000000,1670929983.277362
1670930495.269679,,,,-13.154076,-13.159520,1067807.000000,1670929983.278369
1670930495.269897,,,,-13.132728,-13.137451,1067808.000000,1670929983.279376
1670930495.270357,,,,-13.122510,-13.128220,1067809.000000,1670929983.280383
1670930495.270463,,,,-13.166793,-13.173368,1067810.000000,1670929983.281390
1670930495.270725,,,,-13.209272,-13.215246,1067811.000000,1670929983.282397
1670930495.270745,,,,-13.220788,-13.225535,1067812.000000,1670929983.283404
1670930495.270831,,,,-13.237568,-13.241378,1067813.000000,1670929983.284411
1670930495.270840,,,,-13.265407,-13.269529,1067814.000000,1670929983.285419
1670930495.270879,,,,-13.288342,-13.292681,1067815.000000,1670929983.286426
1670930495.271005,,,,-13.305194,-13.310206,1067816.000000,1670929983.287433
1670930495.271019,,,,-13.315868,-13.318692,1067817.000000,1670929983.288440
1670930495.271369,,,,-13.291035,-13.293378,1067818.000000,1670929983.289447
1670930495.271381,,,,-13.246872,-13.249985,1067819.000000,1670929983.290454
1670930495.271556,,,,-13.250045,-13.255154,1067820.000000,1670929983.291461
1670930495.271804,,,,-13.268268,-13.271934,1067821.000000,1670929983.292468
1670930495.271810,,,,-13.226534,-13.233685,1067822.000000,1670929983.293475
1670930495.281674,,,,-13.158451,-13.164208,1067823.000000,1670929983.294482
1670930495.281919,,,,-13.099984,-13.105141,1067824.000000,1670929983.295489
1670930495.282223,,,,-13.056278,-13.060858,1067825.000000,1670929983.296496
1670930495.282366,,,,-13.056831,-13.062228,1067826.000000,1670929983.297503
1670930495.283051,,,,-13.067938,-13.073287,1067827.000000,1670929983.298511
1670930495.283086,,,,-13.151094,-13.156779,1067828.000000,1670929983.299518
1670930495.283201,,,,-13.180304,-13.185653,1067829.000000,1670929983.300525
1670930495.283229,,,,-13.173236,-13.177286,1067830.000000,1670929983.301532
1670930495.283236,,,,-13.165687,-13.169449,1067831.000000,1670929983.302539
1670930495.283297,,,,-13.177659,-13.182599,1067832.000000,1670929983.303546
1670930495.291529,56.767853,853320.000000,1670930495.279290,,,,
1670930495.291541,56.713577,853321.000000,1670930495.280290,,,,
1670930495.291546,56.731674,853322.000000,1670930495.281290,,,,
1670930495.291553,56.785942,853323.000000,1670930495.282290,,,,
1670930495.291588,56.785942,853324.000000,1670930495.283290,,,,
1670930495.291597,56.822121,853325.000000,1670930495.284290,,,,
1670930495.291602,56.840210,853326.000000,1670930495.285290,,,,
1670930495.291607,56.858299,853327.000000,1670930495.286290,,,,
1670930495.291620,56.876396,853328.000000,1670930495.287290,,,,
1670930495.291626,56.822121,853329.000000,1670930495.288290,,,,
1670930495.295276,,,,-13.199993,-13.203154,1067833.000000,1670929983.304553
1670930495.295414,,,,-13.235092,-13.238518,1067834.000000,1670929983.305560
1670930495.295762,,,,-13.326205,-13.329414,1067835.000000,1670929983.306567
1670930495.295772,,,,-13.395394,-13.400767,1067836.000000,1670929983.307574
1670930495.295829,,,,-13.447538,-13.453032,1067837.000000,1670929983.308581
1670930495.295951,,,,-13.487878,-13.492794,1067838.000000,1670929983.309588
1670930495.296189,,,,-13.491917,-13.497098,1067839.000000,1670929983.310596
1670930495.296196,,,,-13.446961,-13.451084,1067840.000000,1670929983.311603
1670930495.298052,,,,-13.349453,-13.353215,1067841.000000,1670929983.312610
1670930495.298265,,,,-13.266465,-13.271477,1067842.000000,1670929983.313617
1670930495.299047,,,,-13.112629,-13.123387,1067844.000000,1670929983.315631
1670930495.299058,,,,-13.052288,-13.061627,1067845.000000,1670929983.316638
1670930495.299068,,,,-12.998894,-13.004651,1067846.000000,1670929983.317645
1670930495.299074,,,,-12.978459,-12.984097,1067847.000000,1670929983.318652
1670930495.299078,,,,-12.996730,-12.999746,1067848.000000,1670929983.319659
1670930495.299084,,,,-13.028848,-13.032803,1067849.000000,1670929983.320666
1670930495.299091,,,,-13.060630,-13.066387,1067850.000000,1670929983.321673
1670930495.299121,,,,-13.101475,-13.106486,1067851.000000,1670929983.322680
1670930495.299141,,,,-13.147152,-13.153101,1067852.000000,1670929983.323688
1670930495.299148,,,,-13.184415,-13.190172,1067853.000000,1670929983.324695
1670930495.302902,,,,-13.195786,-13.199355,1067854.000000,1670929983.325702
1670930495.303090,,,,-13.170735,-13.173488,1067855.000000,1670929983.326709
1670930495.303107,,,,-13.169461,-13.177070,1067856.000000,1670929983.327716
1670930495.303660,,,,-13.184246,-13.188201,1067857.000000,1670929983.328723
1670930495.303678,,,,-13.183476,-13.188296,1067858.000000,1670929983.329730
1670930495.304258,,,,-13.185352,-13.191133,1067859.000000,1670929983.330737
1670930495.304335,,,,-13.201195,-13.205270,1067860.000000,1670929983.331744
1670930495.305888,,,,-13.230453,-13.236522,1067861.000000,1670929983.332751
1670930495.305912,,,,-13.247112,-13.254240,1067862.000000,1670929983.333758
1670930495.305920,,,,-13.251007,-13.255731,1067863.000000,1670929983.334765
1670930495.306491,,,,-13.269687,-13.274218,1067864.000000,1670929983.335773
1670930495.306513,,,,-13.310652,-13.317154,1067865.000000,1670929983.336780
1670930495.306729,,,,-13.318464,-13.324944,1067866.000000,1670929983.337787
1670930495.306884,,,,-13.288967,-13.292850,1067867.000000,1670929983.338794
1670930495.307121,,,,-13.232207,-13.235704,1067868.000000,1670929983.339801
1670930495.309848,,,,-13.187203,-13.192023,1067869.000000,1670929983.340808
1670930495.310151,,,,-13.203070,-13.205510,1067870.000000,1670929983.341815
1670930495.310167,,,,-13.207205,-13.211111,1067871.000000,1670929983.342822
1670930495.312631,,,,-13.160133,-13.165122,1067872.000000,1670929983.343829
1670930495.312873,,,,-13.166744,-13.173247,1067873.000000,1670929983.344836
1670930495.313292,,,,-13.191843,-13.198201,1067874.000000,1670929983.345843
1670930495.313301,,,,-13.200882,-13.206159,1067875.000000,1670929983.346850
1670930495.313698,,,,-13.170014,-13.174762,1067876.000000,1670929983.347857
1670930495.313775,,,,-13.119914,-13.123844,1067877.000000,1670929983.348865
1670930495.313826,,,,-13.134170,-13.138148,1067878.000000,1670929983.349872
1670930495.325163,,,,-13.150229,-13.154087,1067879.000000,1670929983.350879
1670930495.325710,,,,-13.164101,-13.167550,1067880.000000,1670929983.351886
1670930495.325842,,,,-13.191146,-13.196951,1067881.000000,1670929983.352893
1670930495.325861,,,,-13.205907,-13.210918,1067882.000000,1670929983.353900
1670930495.327227,,,,-13.213984,-13.217722,1067883.000000,1670929983.354907
1670930495.327461,,,,-13.212734,-13.218131,1067884.000000,1670929983.355914
1670930495.327807,,,,-13.187324,-13.194715,1067885.000000,1670929983.356921
1670930495.328025,,,,-13.185449,-13.191086,1067886.000000,1670929983.357928
1670930495.333087,,,,-13.223529,-13.230657,1067887.000000,1670929983.358935
1670930495.333161,,,,-13.259542,-13.265996,1067888.000000,1670929983.359942
1670930495.333328,,,,-13.255117,-13.261597,1067889.000000,1670929983.360950
1670930495.333345,,,,-13.249084,-13.254504,1067890.000000,1670929983.361957
1670930495.334925,,,,-13.218023,-13.223060,1067891.000000,1670929983.362964
1670930495.335088,,,,-13.188334,-13.192817,1067892.000000,1670929983.363971
1670930495.348739,,,,-13.177178,-13.182672,1067893.000000,1670929983.364978
1670930495.349239,,,,-13.163187,-13.167141,1067894.000000,1670929983.365985
1670930495.349504,,,,-13.167441,-13.172237,1067895.000000,1670929983.366992
1670930495.349814,,,,-13.164172,-13.167742,1067896.000000,1670929983.367999
1670930495.356003,,,,-13.157272,-13.162189,1067897.000000,1670929983.369006
1670930495.356235,,,,-13.147176,-13.150818,1067898.000000,1670929983.370013
1670930495.356578,,,,-13.138088,-13.144952,1067899.000000,1670929983.371020
1670930495.356591,,,,-13.160830,-13.167357,1067900.000000,1670929983.372027
1670930495.363086,,,,-13.197083,-13.204452,1067901.000000,1670929983.373034
1670930495.363960,,,,-13.215090,-13.219598,1067902.000000,1670929983.374042
1670930495.363987,,,,-13.218023,-13.222530,1067903.000000,1670929983.375049
1670930495.364043,,,,-13.218792,-13.223420,1067904.000000,1670929983.376056
1670930495.364071,,,,-13.185689,-13.189836,1067905.000000,1670929983.377063
1670930495.364448,,,,-13.158812,-13.161684,1067906.000000,1670929983.378070
1670930495.365171,,,,-13.174053,-13.180219,1067907.000000,1670929983.379077
1670930495.365460,,,,-13.186891,-13.191422,1067908.000000,1670929983.380084
1670930495.365669,,,,-13.165663,-13.168944,1067909.000000,1670929983.381091
1670930495.365985,,,,-13.151262,-13.156155,1067910.000000,1670929983.382098
1670930495.366096,,,,-13.169678,-13.175796,1067911.000000,1670929983.383105
1670930495.369043,56.695488,853381.000000,1670930495.355950,,,,
1670930495.369064,56.731674,853382.000000,1670930495.356950,,,,
1670930495.369089,56.695488,853383.000000,1670930495.357950,,,,
1670930495.369097,56.677399,853384.000000,1670930495.358950,,,,
1670930495.369148,56.713577,853385.000000,1670930495.359950,,,,
1670930495.369157,56.695488,853386.000000,1670930495.360950,,,,
1670930495.369213,56.677399,853387.000000,1670930495.361950,,,,
1670930495.369226,56.677399,853388.000000,1670930495.362950,,,,
1670930495.369241,56.677399,853389.000000,1670930495.363950,,,,
1670930495.369253,56.641224,853390.000000,1670930495.364950,,,,
1670930495.370319,,,,-13.192131,-13.196134,1067912.000000,1670929983.384112
1670930495.370740,,,,-13.201675,-13.204476,1067913.000000,1670929983.385119
1670930495.370997,,,,-13.183092,-13.187840,1067914.000000,1670929983.386127
1670930495.371211,,,,-13.168380,-13.174762,1067915.000000,1670929983.387134
1670930495.371225,,,,-13.172875,-13.178056,1067916.000000,1670929983.388141
1670930495.371232,,,,-13.209056,-13.214645,1067917.000000,1670929983.389148
1670930495.372206,,,,-13.273677,-13.277752,1067918.000000,1670929983.390155
1670930495.372357,,,,-13.315628,-13.318885,1067919.000000,1670929983.391162
1670930495.372535,,,,-13.334163,-13.339896,1067920.000000,1670929983.392169
1670930495.372723,,,,-13.379023,-13.381174,1067921.000000,1670929983.393176
1670930495.372728,,,,-13.386980,-13.388242,1067922.000000,1670929983.394183
1670930495.377217,,,,-13.368300,-13.371053,1067923.000000,1670929983.395190
1670930495.377324,,,,-13.352891,-13.357735,1067924.000000,1670929983.396197
1670930495.379737,,,,-13.325051,-13.329247,1067925.000000,1670929983.397204
1670930495.380031,,,,-13.265431,-13.270371,1067926.000000,1670929983.398211
1670930495.380048,,,,-13.209176,-13.214285,1067927.000000,1670929983.399219
1670930495.380205,,,,-13.184919,-13.189282,1067928.000000,1670929983.400226
1670930495.385508,,,,-13.184174,-13.188152,1067929.000000,1670929983.401233
1670930495.385784,,,,-13.189799,-13.193609,1067930.000000,1670929983.402240
1670930495.386304,,,,-13.182515,-13.188008,1067931.000000,1670929983.403247
1670930495.386421,,,,-13.168740,-13.178873,1067932.000000,1670929983.404254
1670930495.386749,,,,-13.180833,-13.185821,1067933.000000,1670929983.405261
1670930495.386912,,,,-13.156095,-13.159328,1067934.000000,1670929983.406268
1670930495.387076,,,,-13.142728,-13.147211,1067935.000000,1670929983.407275
1670930495.387888,,,,-13.169461,-13.176349,1067936.000000,1670929983.408282
1670930495.388004,,,,-13.184535,-13.194066,1067937.000000,1670929983.409289
1670930495.388198,,,,-13.215090,-13.222218,1067938.000000,1670929983.410296
1670930495.388217,,,,-13.219658,-13.227987,1067939.000000,1670929983.411304
1670930495.392501,,,,-13.207205,-13.213924,1067940.000000,1670929983.412311
1670930495.392901,,,,-13.196963,-13.201255,1067941.000000,1670929983.413318
1670930495.393080,,,,-13.209296,-13.213539,1067942.000000,1670929983.414325
1670930495.393218,,,,-13.225884,-13.231234,1067943.000000,1670929983.415332
1670930495.394990,,,,-13.212878,-13.217314,1067944.000000,1670929983.416339
1670930495.395064,,,,-13.236030,-13.239503,1067945.000000,1670929983.417346
1670930495.395290,,,,-13.274110,-13.279338,1067946.000000,1670929983.418353
1670930495.395359,,,,-13.301395,-13.304725,1067947.000000,1670929983.419360
1670930495.408833,,,,-13.304233,-13.308692,1067948.000000,1670929983.420367
1670930495.408988,,,,-13.317454,-13.326795,1067949.000000,1670929983.421374
1670930495.416449,,,,-13.302766,-13.310038,1067950.000000,1670929983.422381
1670930495.416972,,,,-13.249828,-13.255514,1067951.000000,1670929983.423388
1670930495.416998,,,,-13.158812,-13.162934,1067952.000000,1670929983.424396
1670930495.417361,,,,-13.067217,-13.070498,1067953.000000,1670929983.425403
1670930495.422735,56.550770,853397.000000,1670930495.367242,,,,
1670930495.422971,,,,-13.037022,-13.040833,1067954.000000,1670929983.426410
1670930495.423086,,,,-13.038368,-13.043261,1067955.000000,1670929983.427417
1670930495.423103,,,,-13.041037,-13.044750,1067956.000000,1670929983.428424
1670930495.423307,,,,-13.069261,-13.074032,1067957.000000,1670929983.429431
1670930495.423967,56.568859,853398.000000,1670930495.368242,,,,
1670930495.424147,56.514591,853399.000000,1670930495.369242,,,,
1670930495.424185,56.514591,853400.000000,1670930495.370242,,,,
1670930495.424213,56.514591,853401.000000,1670930495.371242,,,,
1670930495.424222,56.478413,853402.000000,1670930495.372242,,,,
1670930495.424227,56.406048,853403.000000,1670930495.373242,,,,
1670930495.424246,56.424137,853404.000000,1670930495.374242,,,,
1670930495.424299,56.406048,853405.000000,1670930495.375242,,,,
1670930495.424314,56.333691,853406.000000,1670930495.376242,,,,
1670930495.424323,56.333691,853442.000000,1670930495.412242,,,,
1670930495.424331,56.333691,853443.000000,1670930495.413242,,,,
1670930495.424344,56.369869,853444.000000,1670930495.414242,,,,
1670930495.424369,56.387959,853445.000000,1670930495.415242,,,,
1670930495.424377,56.406048,853446.000000,1670930495.416242,,,,
1670930495.424398,56.496502,853447.000000,1670930495.417242,,,,
1670930495.424405,56.460323,853448.000000,1670930495.418242,,,,
1670930495.424409,56.496502,853449.000000,1670930495.419242,,,,
1670930495.424432,56.586948,853450.000000,1670930495.420242,,,,
1670930495.424436,56.496502,853451.000000,1670930495.421242,,,,
1670930495.424841,,,,-13.154653,-13.158751,1067958.000000,1670929983.430438
1670930495.424850,,,,-13.194415,-13.196879,1067959.000000,1670929983.431445
1670930495.425036,,,,-13.192733,-13.198177,1067960.000000,1670929983.432452
1670930495.429844,,,,-13.214994,-13.221064,1067961.000000,1670929983.433459
1670930495.430001,,,,-13.218600,-13.223492,1067962.000000,1670929983.434466
1670930495.430142,,,,-13.218408,-13.220727,1067963.000000,1670929983.435473
1670930495.430403,,,,-13.202662,-13.207313,1067964.000000,1670929983.436481
1670930495.432544,,,,-13.189246,-13.192504,1067965.000000,1670929983.437488
1670930495.432871,,,,-13.205522,-13.210077,1067966.000000,1670929983.438495
1670930495.433216,,,,-13.230788,-13.235320,1067967.000000,1670929983.439502
1670930495.433235,,,,-13.245021,-13.246090,1067968.000000,1670929983.440509
1670930495.433277,,,,-13.270359,-13.274771,1067969.000000,1670929983.441516
1670930495.433286,,,,-13.264998,-13.270419,1067970.000000,1670929983.442523
1670930495.433658,,,,-13.235620,-13.237916,1067971.000000,1670929983.443530
1670930495.433982,,,,-13.194632,-13.197240,1067972.000000,1670929983.444537
1670930495.438479,,,,-13.181866,-13.185965,1067973.000000,1670929983.445544
1670930495.439331,,,,-13.180928,-13.184859,1067974.000000,1670929983.446551
1670930495.439463,,,,-13.195401,-13.198947,1067975.000000,1670929983.447558
1670930495.439475,,,,-13.216990,-13.221088,1067976.000000,1670929983.448565
1670930495.440274,,,,-13.221365,-13.225824,1067977.000000,1670929983.449573
1670930495.440292,,,,-13.228409,-13.231378,1067978.000000,1670929983.450580
1670930495.440647,,,,-13.235164,-13.238109,1067979.000000,1670929983.451587
1670930495.440667,,,,-13.248627,-13.252702,1067980.000000,1670929983.452594
1670930495.440684,,,,-13.280192,-13.285324,1067981.000000,1670929983.453601
1670930495.441399,,,,-13.261945,-13.268135,1067982.000000,1670929983.454608
1670930495.441482,,,,-13.237400,-13.243205,1067983.000000,1670929983.455615
1670930495.441553,,,,-13.250261,-13.257822,1067984.000000,1670929983.456622
1670930495.441776,,,,-13.263772,-13.270925,1067985.000000,1670929983.457629
1670930495.445742,,,,-13.237304,-13.244648,1067986.000000,1670929983.458636
1670930495.445910,,,,-13.218480,-13.225055,1067987.000000,1670929983.459643
1670930495.445924,,,,-13.219971,-13.223612,1067988.000000,1670929983.460650
1670930495.445935,,,,-13.223624,-13.228733,1067989.000000,1670929983.461658
1670930495.445943,,,,-13.238289,-13.244840,1067990.000000,1670929983.462665
1670930495.445947,,,,-13.232592,-13.235152,1067991.000000,1670929983.463672
1670930495.445972,,,,-13.206027,-13.207433,1067992.000000,1670929983.464679
1670930495.446005,,,,-13.161456,-13.166276,1067993.000000,1670929983.465686
1670930495.447664,,,,-13.147223,-13.154015,1067994.000000,1670929983.466693
1670930495.447785,,,,-13.137655,-13.145576,1067995.000000,1670929983.467700
1670930495.447967,,,,-13.106932,-13.112833,1067996.000000,1670929983.468707
1670930495.448141,,,,-13.121476,-13.127739,1067997.000000,1670929983.469714
