__time,/gdx/grip_force_stream/grip_force,/gdx/grip_force_stream/header/seq,/gdx/grip_force_stream/header/stamp,/shimmer0/emg_stream/emg_ch1,/shimmer0/emg_stream/emg_ch2,/shimmer0/emg_stream/header/seq,/shimmer0/emg_stream/header/stamp
1673610895.913860,,,,0.403759,0.402578,4734449.000000,1673607311.815246
1673610895.914125,,,,0.401908,0.401617,4734450.000000,1673607311.816253
1673610895.915159,,,,0.399312,0.400895,4734451.000000,1673607311.817260
1673610895.915173,,,,0.396739,0.396953,4734452.000000,1673607311.818267
1673610895.915178,,,,0.435613,0.436379,4734464.000000,1673607311.830352
1673610895.915183,,,,0.428377,0.428374,4734465.000000,1673607311.831359
1673610895.915186,,,,0.420035,0.421546,4734466.000000,1673607311.832366
1673610895.915217,,,,0.418640,0.420008,4734467.000000,1673607311.833373
1673610895.915226,,,,0.417607,0.420008,4734468.000000,1673607311.834380
1673610895.915231,,,,0.412077,0.412675,4734469.000000,1673607311.835387
1673610895.915286,,,,0.407389,0.409430,4734470.000000,1673607311.836394
1673610895.915291,,,,0.408087,0.410031,4734471.000000,1673607311.837401
1673610895.915420,,,,0.410106,0.409887,4734472.000000,1673607311.838408
1673610895.915430,,,,0.417751,0.418493,4734473.000000,1673607311.839416
1673610895.924517,1.587909,3879113.000000,1673610895.863502,,,,
1673610895.926474,1.569820,3879114.000000,1673610895.864501,,,,
1673610895.926502,1.551723,3879115.000000,1673610895.865501,,,,
1673610895.926509,1.551723,3879116.000000,1673610895.866502,,,,
1673610895.926517,1.533634,3879117.000000,1673610895.867501,,,,
1673610895.926788,1.533634,3879164.000000,1673610895.914501,,,,
1673610895.926860,1.497456,3879165.000000,1673610895.915502,,,,
1673610895.926870,1.443189,3879166.000000,1673610895.916502,,,,
1673610895.926925,1.533634,3879167.000000,1673610895.917501,,,,
1673610895.926946,1.443189,3879168.000000,1673610895.918501,,,,
1673610895.926963,1.515545,3879169.000000,1673610895.919502,,,,
1673610895.926973,1.461278,3879170.000000,1673610895.920501,,,,
1673610895.927071,1.497456,3879171.000000,1673610895.921501,,,,
1673610895.927084,1.515545,3879172.000000,1673610895.922502,,,,
1673610895.927090,1.515545,3879173.000000,1673610895.923501,,,,
1673610895.927146,,,,0.425372,0.428470,4734474.000000,1673607311.840423
1673610895.927351,,,,0.434699,0.438399,4734475.000000,1673607311.841430
1673610895.927365,,,,0.443378,0.443760,4734476.000000,1673607311.842437
1673610895.927655,,,,0.450133,0.450179,4734477.000000,1673607311.843444
1673610895.928022,,,,0.452946,0.453544,4734478.000000,1673607311.844451
1673610895.928386,,,,0.456432,0.458376,4734479.000000,1673607311.845458
1673610895.928766,,,,0.458740,0.459242,4734480.000000,1673607311.846465
1673610895.929055,,,,0.459870,0.458352,4734481.000000,1673607311.847472
1673610895.929254,,,,0.455879,0.453905,4734482.000000,1673607311.848479
1673610895.930750,,,,0.408399,0.407987,4734488.000000,1673607311.854522
1673610895.930813,,,,0.404601,0.406425,4734489.000000,1673607311.855529
1673610895.930892,,,,0.407173,0.406425,4734490.000000,1673607311.856536
1673610895.930907,,,,0.408255,0.406641,4734491.000000,1673607311.857543
1673610895.930915,,,,0.409289,0.410848,4734492.000000,1673607311.858550
1673610895.931057,,,,0.417631,0.417387,4734493.000000,1673607311.859557
1673610895.931078,,,,0.427944,0.428037,4734494.000000,1673607311.860564
1673610895.931092,,,,0.438426,0.437004,4734495.000000,1673607311.861571
1673610895.931098,,,,0.445301,0.444481,4734496.000000,1673607311.862578
1673610895.931113,,,,0.453812,0.455083,4734497.000000,1673607311.863585
1673610895.933574,,,,0.463644,0.462391,4734498.000000,1673607311.864593
1673610895.933599,,,,0.461865,0.462367,4734499.000000,1673607311.865600
1673610895.933663,,,,0.462466,0.463377,4734500.000000,1673607311.866607
1673610895.933901,,,,0.464125,0.464531,4734501.000000,1673607311.867614
1673610895.934124,,,,0.462154,0.460372,4734502.000000,1673607311.868621
1673610895.934548,,,,0.452586,0.450467,4734503.000000,1673607311.869628
1673610895.934566,,,,0.441407,0.442630,4734504.000000,1673607311.870635
1673610895.935853,,,,0.433978,0.432725,4734505.000000,1673607311.871642
1673610895.936065,,,,0.426357,0.424191,4734506.000000,1673607311.872649
1673610895.936204,,,,0.422367,0.422580,4734507.000000,1673607311.873656
1673610895.936404,,,,0.419890,0.418926,4734508.000000,1673607311.874663
1673610895.936625,,,,0.418208,0.415704,4734509.000000,1673607311.875670
1673610895.936893,,,,0.418688,0.416498,4734510.000000,1673607311.876678
1673610895.937078,,,,0.416212,0.416450,4734511.000000,1673607311.877685
1673610895.949726,,,,0.416477,0.418541,4734512.000000,1673607311.878692
1673610895.950151,,,,0.424819,0.425537,4734513.000000,1673607311.879699
1673610895.950396,,,,0.431791,0.431691,4734514.000000,1673607311.880706
1673610895.950579,,,,0.447753,0.448592,4734515.000000,1673607311.881713
1673610895.950797,,,,0.458500,0.457271,4734516.000000,1673607311.882720
1673610895.951083,,,,0.464510,0.462175,4734517.000000,1673607311.883727
1673610895.951135,,,,0.468837,0.467151,4734518.000000,1673607311.884734
1673610895.951405,,,,0.469678,0.468594,4734519.000000,1673607311.885741
1673610895.951665,,,,0.465760,0.464290,4734520.000000,1673607311.886748
1673610895.951679,,,,0.467491,0.466863,4734521.000000,1673607311.887755
1673610895.951982,,,,0.465423,0.467344,4734522.000000,1673607311.888762
1673610895.952145,,,,0.459822,0.460636,4734523.000000,1673607311.889770
1673610895.952541,,,,0.450422,0.449962,4734524.000000,1673607311.890777
1673610895.952732,,,,0.438354,0.440250,4734525.000000,1673607311.891784
1673610895.952861,,,,0.428136,0.431355,4734526.000000,1673607311.892791
1673610895.956673,,,,0.427055,0.425994,4734527.000000,1673607311.893798
1673610895.957554,,,,0.416717,0.414575,4734528.000000,1673607311.894805
1673610895.957924,,,,0.408976,0.408805,4734529.000000,1673607311.895812
1673610895.958205,,,,0.411188,0.409598,4734530.000000,1673607311.896819
1673610895.958385,,,,0.417294,0.415392,4734531.000000,1673607311.897826
1673610895.958400,,,,0.418304,0.418253,4734532.000000,1673607311.898833
1673610895.958554,,,,0.425901,0.425705,4734533.000000,1673607311.899840
1673610895.958614,,,,0.434243,0.433759,4734534.000000,1673607311.900847
1673610895.959187,,,,0.440445,0.442245,4734535.000000,1673607311.901855
1673610895.959900,,,,0.463596,0.464723,4734538.000000,1673607311.904876
1673610895.959918,,,,0.467419,0.467608,4734539.000000,1673607311.905883
1673610895.960088,,,,0.465135,0.464290,4734540.000000,1673607311.906890
1673610895.960099,,,,0.464606,0.463761,4734541.000000,1673607311.907897
1673610895.960118,,,,0.460038,0.457631,4734542.000000,1673607311.908904
1673610895.960232,,,,0.449725,0.449674,4734543.000000,1673607311.909911
1673610895.960244,,,,0.440878,0.445250,4734544.000000,1673607311.910918
1673610895.960257,,,,0.434748,0.438399,4734545.000000,1673607311.911925
1673610895.960264,,,,0.424867,0.426523,4734546.000000,1673607311.912932
1673610895.960274,,,,0.418135,0.420633,4734547.000000,1673607311.913939
1673610895.975175,,,,0.416020,0.416137,4734548.000000,1673607311.914947
1673610895.975455,,,,0.413808,0.414286,4734549.000000,1673607311.915954
1673610895.975468,,,,0.410899,0.412916,4734550.000000,1673607311.916961
1673610895.975678,,,,0.410659,0.413012,4734551.000000,1673607311.917968
1673610895.975780,,,,0.414313,0.414839,4734552.000000,1673607311.918975
1673610895.976368,,,,0.424795,0.423830,4734553.000000,1673607311.919982
1673610895.976879,,,,0.435156,0.436884,4734554.000000,1673607311.920989
1673610895.976898,,,,0.442537,0.443447,4734555.000000,1673607311.921996
1673610895.977581,,,,0.449653,0.449505,4734556.000000,1673607311.923003
1673610895.978659,,,,0.456769,0.455756,4734557.000000,1673607311.924010
1673610895.978676,,,,0.462466,0.463930,4734558.000000,1673607311.925017
1673610895.978787,,,,0.433594,0.433542,4734574.000000,1673607311.941131
1673610895.978795,,,,0.440565,0.439793,4734575.000000,1673607311.942138
1673610895.978824,,,,0.445397,0.445539,4734576.000000,1673607311.943145
1673610895.978992,,,,0.452465,0.453184,4734577.000000,1673607311.944152
1673610895.979000,,,,0.456552,0.460252,4734578.000000,1673607311.945159
1673610895.979004,,,,0.460687,0.462896,4734579.000000,1673607311.946166
1673610895.979027,,,,0.458187,0.458569,4734580.000000,1673607311.947173
1673610895.979034,,,,0.456144,0.457727,4734581.000000,1673607311.948180
1673610895.979061,,,,0.450783,0.450155,4734582.000000,1673607311.949187
1673610895.979069,,,,0.441503,0.441211,4734583.000000,1673607311.950194
1673610895.979875,1.551723,3879174.000000,1673610895.919091,,,,
1673610895.979909,1.533634,3879175.000000,1673610895.920090,,,,
1673610895.979928,1.497456,3879176.000000,1673610895.921090,,,,
1673610895.980202,1.515545,3879177.000000,1673610895.922091,,,,
1673610895.980304,1.533634,3879178.000000,1673610895.923090,,,,
1673610895.981719,,,,0.430468,0.430730,4734584.000000,1673607311.951201
1673610895.981749,1.605998,3879225.000000,1673610895.970090,,,,
1673610895.981755,1.642177,3879226.000000,1673610895.971091,,,,
1673610895.981758,1.605998,3879227.000000,1673610895.972090,,,,
1673610895.981844,1.533634,3879228.000000,1673610895.973090,,,,
1673610895.981857,1.551723,3879229.000000,1673610895.974090,,,,
1673610895.981870,1.551723,3879230.000000,1673610895.975091,,,,
1673610895.981878,1.551723,3879231.000000,1673610895.976090,,,,
1673610895.981883,1.624087,3879232.000000,1673610895.977090,,,,
1673610895.981896,1.533634,3879233.000000,1673610895.978091,,,,
1673610895.981910,1.551723,3879234.000000,1673610895.979090,,,,
1673610895.981947,,,,0.422944,0.423205,4734585.000000,1673607311.952209
1673610895.981954,,,,0.420203,0.421162,4734586.000000,1673607311.953216
1673610895.981959,,,,0.418111,0.418084,4734587.000000,1673607311.954223
1673610895.982453,,,,0.417126,0.417243,4734588.000000,1673607311.955230
1673610895.982459,,,,0.418568,0.418950,4734589.000000,1673607311.956237
1673610895.982572,,,,0.415563,0.415296,4734590.000000,1673607311.957244
1673610895.982783,,,,0.411717,0.411449,4734591.000000,1673607311.958251
1673610895.982796,,,,0.414962,0.413685,4734592.000000,1673607311.959258
1673610895.982803,,,,0.422246,0.421402,4734593.000000,1673607311.960265
1673610895.983117,,,,0.427439,0.427556,4734594.000000,1673607311.961272
1673610895.983294,,,,0.440109,0.437918,4734595.000000,1673607311.962279
1673610895.983311,,,,0.449773,0.449746,4734596.000000,1673607311.963286
1673610895.983317,,,,0.460615,0.458545,4734597.000000,1673607311.964293
1673610895.983337,,,,0.464245,0.463858,4734598.000000,1673607311.965301
1673610895.983345,,,,0.459870,0.462824,4734599.000000,1673607311.966308
1673610895.983609,,,,0.461433,0.459506,4734600.000000,1673607311.967315
1673610895.983732,,,,0.454773,0.453280,4734601.000000,1673607311.968322
1673610895.983944,,,,0.446407,0.447366,4734602.000000,1673607311.969329
1673610895.983959,,,,0.436551,0.438447,4734603.000000,1673607311.970336
1673610895.984083,,,,0.432175,0.432292,4734604.000000,1673607311.971343
1673610895.984093,,,,0.435781,0.435370,4734605.000000,1673607311.972350
1673610895.984255,,,,0.433113,0.433999,4734606.000000,1673607311.973357
1673610895.984303,,,,0.422607,0.424143,4734607.000000,1673607311.974364
1673610895.984321,,,,0.418592,0.420320,4734608.000000,1673607311.975371
1673610895.986478,,,,0.418592,0.418637,4734609.000000,1673607311.976378
1673610895.986484,,,,0.415876,0.417003,4734610.000000,1673607311.977386
1673610895.986605,,,,0.417486,0.419719,4734611.000000,1673607311.978393
1673610895.986720,,,,0.424146,0.429359,4734612.000000,1673607311.979400
1673610895.986862,,,,0.435204,0.439024,4734613.000000,1673607311.980407
1673610895.987012,,,,0.446888,0.446356,4734614.000000,1673607311.981414
1673610895.987182,,,,0.455182,0.454338,4734615.000000,1673607311.982421
1673610895.987350,,,,0.460158,0.460636,4734616.000000,1673607311.983428
1673610895.987543,,,,0.468140,0.469627,4734617.000000,1673607311.984435
1673610895.987688,,,,0.474366,0.474315,4734618.000000,1673607311.985442
1673610895.988749,,,,0.472010,0.473834,4734619.000000,1673607311.986449
1673610895.988758,,,,0.467491,0.470180,4734620.000000,1673607311.987456
1673610895.988829,,,,0.462851,0.463401,4734621.000000,1673607311.988463
1673610895.988890,,,,0.455062,0.454890,4734622.000000,1673607311.989470
1673610895.988900,,,,0.444628,0.444216,4734623.000000,1673607311.990478
1673610895.988907,,,,0.437921,0.436379,4734624.000000,1673607311.991485
1673610895.988931,,,,0.433810,0.431475,4734625.000000,1673607311.992492
1673610895.993559,,,,0.424362,0.426234,4734626.000000,1673607311.993499
1673610895.993862,,,,0.417318,0.417195,4734627.000000,1673607311.994506
1673610895.993905,,,,0.413400,0.411690,4734628.000000,1673607311.995513
1673610895.994075,,,,0.412943,0.413613,4734629.000000,1673607311.996520
1673610895.994189,,,,0.413424,0.413757,4734630.000000,1673607311.997527
1673610895.994467,,,,0.417703,0.421138,4734631.000000,1673607311.998534
1673610895.994669,,,,0.424362,0.427124,4734632.000000,1673607311.999541
1673610895.994833,,,,0.429699,0.432196,4734633.000000,1673607312.000548
1673610895.995463,,,,0.439075,0.438519,4734634.000000,1673607312.001555
1673610895.995696,,,,0.447826,0.446813,4734635.000000,1673607312.002563
1673610896.004005,,,,0.454220,0.453592,4734636.000000,1673607312.003570
1673610896.004011,,,,0.459581,0.459410,4734637.000000,1673607312.004577
1673610896.004117,,,,0.465712,0.464988,4734638.000000,1673607312.005584
1673610896.004199,,,,0.466217,0.469291,4734639.000000,1673607312.006591
1673610896.004206,,,,0.463115,0.468810,4734640.000000,1673607312.007598
1673610896.004293,,,,0.461072,0.463064,4734641.000000,1673607312.008605
1673610896.004403,,,,0.455206,0.453929,4734642.000000,1673607312.009612
1673610896.004972,,,,0.412462,0.413493,4734647.000000,1673607312.014647
1673610896.005242,,,,0.410178,0.409478,4734648.000000,1673607312.015655
1673610896.005251,,,,0.411164,0.410488,4734649.000000,1673607312.016662
1673610896.005255,,,,0.412101,0.412122,4734650.000000,1673607312.017669
1673610896.005262,,,,0.414481,0.415007,4734651.000000,1673607312.018676
1673610896.005568,,,,0.421453,0.420272,4734652.000000,1673607312.019683
1673610896.005575,,,,0.435493,0.431667,4734653.000000,1673607312.020690
1673610896.005687,,,,0.443642,0.442269,4734654.000000,1673607312.021697
1673610896.005761,,,,0.449653,0.450179,4734655.000000,1673607312.022704
1673610896.005768,,,,0.457562,0.458208,4734656.000000,1673607312.023711
1673610896.005772,,,,0.461433,0.460853,4734661.000000,1673607312.028747
1673610896.005834,,,,0.452465,0.453905,4734662.000000,1673607312.029754
1673610896.005842,,,,0.443282,0.441596,4734663.000000,1673607312.030761
1673610896.005963,,,,0.433978,0.435850,4734664.000000,1673607312.031768
1673610896.005971,,,,0.429026,0.431379,4734665.000000,1673607312.032775
1673610896.005981,,,,0.423713,0.422580,4734666.000000,1673607312.033782
1673610896.006075,,,,0.414529,0.414911,4734667.000000,1673607312.034789
1673610896.006081,,,,0.404937,0.405295,4734668.000000,1673607312.035796
1673610896.006083,,,,0.396547,0.397458,4734669.000000,1673607312.036803
1673610896.006114,,,,0.388710,0.391039,4734670.000000,1673607312.037810
1673610896.006118,,,,0.398927,0.400294,4734671.000000,1673607312.038817
1673610896.011138,,,,0.418039,0.417435,4734672.000000,1673607312.039824
1673610896.011318,,,,0.432151,0.432052,4734673.000000,1673607312.040832
1673610896.011447,,,,0.449340,0.447726,4734674.000000,1673607312.041839
1673610896.011581,,,,0.455543,0.455732,4734675.000000,1673607312.042846
1673610896.011684,,,,0.458860,0.459001,4734676.000000,1673607312.043853
1673610896.011847,,,,0.463644,0.466454,4734677.000000,1673607312.044860
1673610896.013090,,,,0.414602,0.414599,4734699.000000,1673607312.098235
1673610896.013097,,,,0.424458,0.422388,4734700.000000,1673607312.099242
1673610896.013100,,,,0.435180,0.432605,4734701.000000,1673607312.100249
1673610896.013103,,,,0.440710,0.438158,4734702.000000,1673607312.101256
1673610896.013146,,,,0.451624,0.452679,4734703.000000,1673607312.102263
1673610896.013153,,,,0.458764,0.461381,4734704.000000,1673607312.103271
1673610896.013185,,,,0.466794,0.467488,4734705.000000,1673607312.104278
1673610896.013223,,,,0.474174,0.472969,4734706.000000,1673607312.105285
1673610896.013238,,,,0.476362,0.475036,4734707.000000,1673607312.106292
1673610896.013247,,,,0.472924,0.473185,4734708.000000,1673607312.107299
1673610896.016299,,,,0.464678,0.465901,4734709.000000,1673607312.108306
1673610896.016328,,,,0.455086,0.456189,4734710.000000,1673607312.109313
1673610896.016445,,,,0.447513,0.447173,4734711.000000,1673607312.110320
1673610896.016692,,,,0.437007,0.439288,4734712.000000,1673607312.111327
1673610896.016946,,,,0.425973,0.424575,4734713.000000,1673607312.112334
1673610896.017063,,,,0.422343,0.421498,4734714.000000,1673607312.113341
1673610896.018554,,,,0.417198,0.418661,4734715.000000,1673607312.114348
1673610896.018831,,,,0.409505,0.408348,4734716.000000,1673607312.115355
1673610896.018856,,,,0.403134,0.402867,4734717.000000,1673607312.116363
1673610896.019039,,,,0.402365,0.403828,4734718.000000,1673607312.117370
1673610896.019321,,,,0.406788,0.408396,4734719.000000,1673607312.118377
1673610896.019594,,,,0.417150,0.417315,4734720.000000,1673607312.119384
1673610896.019886,,,,0.428425,0.428494,4734721.000000,1673607312.120391
1673610896.032607,,,,0.432343,0.432268,4734722.000000,1673607312.121398
1673610896.033229,,,,0.437680,0.437173,4734723.000000,1673607312.122405
1673610896.033253,,,,0.446888,0.448496,4734724.000000,1673607312.123412
1673610896.033568,,,,0.456648,0.457511,4734725.000000,1673607312.124419
1673610896.033591,,,,0.462562,0.461381,4734726.000000,1673607312.125426
1673610896.033953,,,,0.467731,0.467969,4734727.000000,1673607312.126433
1673610896.034297,,,,0.469871,0.469844,4734728.000000,1673607312.127440
1673610896.039665,,,,0.462635,0.463353,4734729.000000,1673607312.128448
1673610896.040155,,,,0.455254,0.454458,4734730.000000,1673607312.129455
1673610896.040374,,,,0.441839,0.440538,4734731.000000,1673607312.130462
1673610896.040390,,,,0.432392,0.432196,4734732.000000,1673607312.131469
1673610896.044396,1.569820,3879235.000000,1673610895.983549,,,,
1673610896.046119,1.533634,3879272.000000,1673610896.020549,,,,
1673610896.046380,,,,0.429266,0.429864,4734733.000000,1673607312.132476
1673610896.046395,,,,0.422992,0.424527,4734734.000000,1673607312.133483
1673610896.046437,,,,0.414794,0.415440,4734735.000000,1673607312.134490
1673610896.046486,,,,0.411596,0.410247,4734736.000000,1673607312.135497
1673610896.046488,1.533634,3879273.000000,1673610896.021549,,,,
1673610896.047008,1.515545,3879274.000000,1673610896.022549,,,,
1673610896.047030,1.551723,3879275.000000,1673610896.023549,,,,
1673610896.047057,1.551723,3879276.000000,1673610896.024549,,,,
1673610896.047065,1.569820,3879277.000000,1673610896.025549,,,,
1673610896.047084,1.569820,3879278.000000,1673610896.026549,,,,
1673610896.047097,1.551723,3879279.000000,1673610896.027549,,,,
1673610896.047191,1.533634,3879280.000000,1673610896.028548,,,,
1673610896.047238,1.533634,3879281.000000,1673610896.029549,,,,
1673610896.047250,1.587909,3879286.000000,1673610896.034549,,,,
1673610896.047281,1.551723,3879287.000000,1673610896.035549,,,,
1673610896.047289,1.605998,3879288.000000,1673610896.036549,,,,
1673610896.047296,1.551723,3879289.000000,1673610896.037549,,,,
1673610896.047306,1.587909,3879290.000000,1673610896.038548,,,,
1673610896.047329,1.605998,3879291.000000,1673610896.039549,,,,
1673610896.047334,1.569820,3879292.000000,1673610896.040549,,,,
1673610896.047338,1.533634,3879293.000000,1673610896.041548,,,,
1673610896.047357,1.587909,3879294.000000,1673610896.042549,,,,
1673610896.047376,1.569820,3879295.000000,1673610896.043549,,,,
1673610896.048758,,,,0.411116,0.411954,4734737.000000,1673607312.136504
1673610896.048979,,,,0.412101,0.411113,4734738.000000,1673607312.137511
1673610896.049163,,,,0.416597,0.416858,4734739.000000,1673607312.138518
1673610896.049382,,,,0.422319,0.424479,4734740.000000,1673607312.139525
1673610896.049395,,,,0.431574,0.431763,4734741.000000,1673607312.140532
1673610896.049401,,,,0.440686,0.440250,4734742.000000,1673607312.141540
1673610896.049577,,,,0.451504,0.447726,4734743.000000,1673607312.142547
1673610896.049622,,,,0.457418,0.456189,4734744.000000,1673607312.143554
1673610896.049831,,,,0.464798,0.463257,4734745.000000,1673607312.144561
1673610896.050026,,,,0.467923,0.467824,4734746.000000,1673607312.145568
1673610896.053521,,,,0.466794,0.467319,4734747.000000,1673607312.146575
1673610896.053615,,,,0.463716,0.465685,4734748.000000,1673607312.147582
1673610896.053831,,,,0.461288,0.462079,4734749.000000,1673607312.148589
1673610896.054003,,,,0.452249,0.454025,4734750.000000,1673607312.149596
1673610896.054131,,,,0.443787,0.443111,4734751.000000,1673607312.150603
1673610896.054426,,,,0.436575,0.432509,4734752.000000,1673607312.151610
1673610896.054437,,,,0.424891,0.428831,4734753.000000,1673607312.152617
1673610896.055791,,,,0.417390,0.420104,4734754.000000,1673607312.153625
1673610896.055809,,,,0.412342,0.413445,4734755.000000,1673607312.154632
1673610896.055816,,,,0.409216,0.410704,4734756.000000,1673607312.155639
1673610896.055820,,,,0.410779,0.410800,4734757.000000,1673607312.156646
1673610896.060900,,,,0.412654,0.413757,4734758.000000,1673607312.157653
1673610896.061167,,,,0.419698,0.419551,4734759.000000,1673607312.158660
1673610896.061240,,,,0.425901,0.425729,4734760.000000,1673607312.159667
1673610896.061247,,,,0.431190,0.432605,4734761.000000,1673607312.160674
1673610896.061252,,,,0.437416,0.437581,4734762.000000,1673607312.161681
1673610896.061313,,,,0.448330,0.445443,4734763.000000,1673607312.162688
1673610896.070972,,,,0.456312,0.454554,4734764.000000,1673607312.163695
1673610896.071195,,,,0.461264,0.461766,4734765.000000,1673607312.164702
1673610896.071205,,,,0.463163,0.464651,4734766.000000,1673607312.165709
1673610896.071224,,,,0.464317,0.466214,4734767.000000,1673607312.166717
1673610896.076581,,,,0.464846,0.465613,4734768.000000,1673607312.167724
1673610896.076733,,,,0.460182,0.461646,4734769.000000,1673607312.168731
1673610896.077003,,,,0.451215,0.450299,4734770.000000,1673607312.169738
1673610896.077363,,,,0.445205,0.440731,4734771.000000,1673607312.170745
1673610896.078040,,,,0.434339,0.433518,4734772.000000,1673607312.171752
1673610896.078424,,,,0.421525,0.421450,4734773.000000,1673607312.172759
1673610896.078522,,,,0.408976,0.410127,4734774.000000,1673607312.173766
1673610896.079082,,,,0.402461,0.404958,4734775.000000,1673607312.174773
1673610896.079513,,,,0.407005,0.408997,4734776.000000,1673607312.175780
1673610896.079599,,,,0.411476,0.411593,4734777.000000,1673607312.176787
1673610896.080069,,,,0.416645,0.416161,4734778.000000,1673607312.177794
1673610896.080168,,,,0.424170,0.424335,4734779.000000,1673607312.178802
1673610896.080185,,,,0.435733,0.433879,4734780.000000,1673607312.179809
1673610896.080303,,,,0.440205,0.441812,4734781.000000,1673607312.180816
1673610896.080382,,,,0.447417,0.450731,4734782.000000,1673607312.181823
1673610896.080397,,,,0.453114,0.453111,4734783.000000,1673607312.182830
1673610896.080408,,,,0.460471,0.459458,4734784.000000,1673607312.183837
1673610896.080433,,,,0.470568,0.467704,4734785.000000,1673607312.184844
1673610896.080442,,,,0.472900,0.472296,4734786.000000,1673607312.185851
1673610896.080462,,,,0.474919,0.474363,4734787.000000,1673607312.186858
1673610896.080847,,,,0.472852,0.472849,4734788.000000,1673607312.187865
1673610896.092505,,,,0.463716,0.466574,4734789.000000,1673607312.188872
1673610896.092643,,,,0.450807,0.450731,4734790.000000,1673607312.189879
1673610896.092899,,,,0.441695,0.439360,4734791.000000,1673607312.190886
1673610896.092909,,,,0.433041,0.433470,4734792.000000,1673607312.191894
1673610896.093124,,,,0.431863,0.431715,4734793.000000,1673607312.192901
1673610896.093550,,,,0.427247,0.426042,4734794.000000,1673607312.193908
1673610896.093564,,,,0.421621,0.422243,4734795.000000,1673607312.194915
1673610896.093884,,,,0.422775,0.420825,4734796.000000,1673607312.195922
1673610896.093986,,,,0.423569,0.423349,4734797.000000,1673607312.196929
1673610896.094072,,,,0.422944,0.423710,4734798.000000,1673607312.197936
1673610896.094082,,,,0.427631,0.426547,4734799.000000,1673607312.198943
1673610896.114544,,,,0.431742,0.431884,4734800.000000,1673607312.199950
1673610896.114727,,,,0.438233,0.439937,4734801.000000,1673607312.200957
1673610896.115600,,,,0.448090,0.449001,4734802.000000,1673607312.201964
1673610896.115617,,,,0.457514,0.458809,4734803.000000,1673607312.202971
1673610896.115922,,,,0.467707,0.469219,4734804.000000,1673607312.203979
1673610896.116681,,,,0.475905,0.477681,4734805.000000,1673607312.204986
1673610896.116704,,,,0.477972,0.477392,4734806.000000,1673607312.205993
1673610896.117185,,,,0.475665,0.475902,4734807.000000,1673607312.207000
1673610896.117563,,,,0.470808,0.473282,4734808.000000,1673607312.208007
1673610896.117869,,,,0.466794,0.467680,4734809.000000,1673607312.209014
1673610896.118655,,,,0.458956,0.460973,4734810.000000,1673607312.210021
1673610896.118668,,,,0.450446,0.452510,4734811.000000,1673607312.211028
1673610896.118842,,,,0.440998,0.439649,4734812.000000,1673607312.212035
1673610896.118857,,,,0.429675,0.428710,4734813.000000,1673607312.213042
1673610896.118998,,,,0.419386,0.418854,4734814.000000,1673607312.214049
1673610896.119010,,,,0.411669,0.413589,4734815.000000,1673607312.215056
1673610896.119458,,,,0.411356,0.413445,4734816.000000,1673607312.216063
1673610896.119738,,,,0.416308,0.416474,4734817.000000,1673607312.217071
1673610896.119900,,,,0.417126,0.414935,4734818.000000,1673607312.218078
1673610896.120122,,,,0.414602,0.417027,4734819.000000,1673607312.219085
1673610896.120164,,,,0.422727,0.425585,4734820.000000,1673607312.220092
1673610896.121068,1.479367,3879309.000000,1673610896.072819,,,,
1673610896.121375,,,,0.433137,0.431331,4734821.000000,1673607312.221099
1673610896.121505,1.479367,3879310.000000,1673610896.073819,,,,
1673610896.121517,1.497456,3879311.000000,1673610896.074819,,,,
1673610896.121523,1.461278,3879312.000000,1673610896.075819,,,,
1673610896.121558,,,,0.441142,0.438976,4734822.000000,1673607312.222106
1673610896.121852,1.461278,3879313.000000,1673610896.076819,,,,
1673610896.121863,,,,0.449412,0.451236,4734823.000000,1673607312.223113
1673610896.122090,,,,0.460783,0.462968,4734824.000000,1673607312.224120
1673610896.122334,,,,0.470977,0.472921,4734825.000000,1673607312.225127
1673610896.122763,1.443189,3879314.000000,1673610896.077819,,,,
1673610896.122784,1.479367,3879315.000000,1673610896.078820,,,,
1673610896.122792,1.479367,3879316.000000,1673610896.079819,,,,
1673610896.122846,1.461278,3879317.000000,1673610896.080819,,,,
1673610896.122854,1.497456,3879318.000000,1673610896.081819,,,,
1673610896.122862,1.533634,3879347.000000,1673610896.110819,,,,
1673610896.122867,1.533634,3879348.000000,1673610896.111820,,,,
1673610896.123581,1.569820,3879349.000000,1673610896.112819,,,,
1673610896.123617,1.587909,3879350.000000,1673610896.113819,,,,
1673610896.123630,1.587909,3879351.000000,1673610896.114819,,,,
1673610896.123636,1.569820,3879352.000000,1673610896.115819,,,,
1673610896.123655,1.569820,3879353.000000,1673610896.116819,,,,
1673610896.123660,1.515545,3879354.000000,1673610896.117819,,,,
1673610896.123676,1.497456,3879355.000000,1673610896.118819,,,,
1673610896.123700,1.515545,3879356.000000,1673610896.119819,,,,
1673610896.123737,,,,0.483622,0.484773,4734826.000000,1673607312.226134
1673610896.123747,,,,0.486507,0.484989,4734827.000000,1673607312.227141
1673610896.123776,,,,0.480497,0.479075,4734828.000000,1673607312.228148
1673610896.123782,,,,0.474198,0.473834,4734829.000000,1673607312.229156
1673610896.123812,,,,0.465592,0.466646,4734830.000000,1673607312.230163
1673610896.123877,,,,0.455735,0.456117,4734831.000000,1673607312.231170
1673610896.123883,,,,0.446431,0.444409,4734832.000000,1673607312.232177
1673610896.123919,,,,0.437464,0.436932,4734833.000000,1673607312.233184
1673610896.123965,,,,0.424650,0.425513,4734834.000000,1673607312.234191
1673610896.123972,,,,0.415828,0.417604,4734835.000000,1673607312.235198
1673610896.130971,,,,0.412486,0.414791,4734836.000000,1673607312.236205
1673610896.131436,,,,0.414602,0.417219,4734837.000000,1673607312.237212
1673610896.131680,,,,0.418256,0.419527,4734838.000000,1673607312.238219
1673610896.131692,,,,0.424578,0.424431,4734839.000000,1673607312.239226
1673610896.131999,,,,0.433497,0.432533,4734840.000000,1673607312.240233
1673610896.132198,,,,0.442633,0.442317,4734841.000000,1673607312.241241
1673610896.132213,,,,0.451215,0.451357,4734842.000000,1673607312.242248
1673610896.136475,,,,0.456937,0.455996,4734843.000000,1673607312.243255
1673610896.136497,,,,0.462346,0.462800,4734844.000000,1673607312.244262
1673610896.136509,,,,0.465808,0.466382,4734845.000000,1673607312.245269
1673610896.136799,,,,0.470303,0.469964,4734846.000000,1673607312.246276
1673610896.137095,,,,0.477083,0.477681,4734847.000000,1673607312.247283
1673610896.137138,,,,0.479727,0.479676,4734848.000000,1673607312.248290
1673610896.137148,,,,0.475472,0.474508,4734849.000000,1673607312.249297
1673610896.138434,,,,0.470520,0.470998,4734850.000000,1673607312.250304
1673610896.138787,,,,0.459726,0.459602,4734851.000000,1673607312.251311
1673610896.139266,,,,0.459028,0.458136,4734852.000000,1673607312.252318
1673610896.139371,,,,0.454942,0.456020,4734853.000000,1673607312.253325
1673610896.139529,,,,0.442392,0.446356,4734854.000000,1673607312.254333
1673610896.139961,,,,0.440277,0.441620,4734855.000000,1673607312.255340
1673610896.139972,,,,0.439604,0.438687,4734856.000000,1673607312.256347
1673610896.151941,,,,0.428449,0.431090,4734857.000000,1673607312.257354
1673610896.152199,,,,0.422078,0.423157,4734858.000000,1673607312.258361
1673610896.152213,,,,0.428737,0.427556,4734859.000000,1673607312.259368
1673610896.152361,,,,0.440205,0.441163,4734860.000000,1673607312.260375
1673610896.159542,,,,0.452874,0.453592,4734861.000000,1673607312.261382
1673610896.159553,,,,0.461481,0.460612,4734862.000000,1673607312.262389
1673610896.159775,,,,0.467130,0.466574,4734863.000000,1673607312.263396
1673610896.159825,,,,0.475376,0.474628,4734864.000000,1673607312.264403
1673610896.166078,,,,0.484175,0.483451,4734865.000000,1673607312.265410
1673610896.166106,,,,0.485305,0.484581,4734866.000000,1673607312.266418
1673610896.167178,1.804986,3879408.000000,1673610896.155510,,,,
1673610896.167208,1.841164,3879409.000000,1673610896.156511,,,,
1673610896.167220,1.859262,3879410.000000,1673610896.157511,,,,
1673610896.167230,1.823075,3879411.000000,1673610896.158510,,,,
1673610896.167275,1.877351,3879412.000000,1673610896.159510,,,,
1673610896.167293,1.895440,3879413.000000,1673610896.160511,,,,
1673610896.167308,1.877351,3879414.000000,1673610896.161510,,,,
1673610896.167323,1.877351,3879415.000000,1673610896.162510,,,,
1673610896.167331,1.877351,3879416.000000,1673610896.163511,,,,
1673610896.167434,1.913529,3879417.000000,1673610896.164510,,,,
1673610896.168198,,,,0.478790,0.478210,4734867.000000,1673607312.267425
1673610896.168521,,,,0.470880,0.470661,4734868.000000,1673607312.268432
1673610896.168538,,,,0.463668,0.463978,4734869.000000,1673607312.269439
1673610896.168717,,,,0.455735,0.457102,4734870.000000,1673607312.270446
1673610896.173639,,,,0.455254,0.457799,4734871.000000,1673607312.271453
1673610896.173730,,,,0.454028,0.455275,4734872.000000,1673607312.272460
1673610896.173800,,,,0.447898,0.451501,4734873.000000,1673607312.273467
1673610896.174052,,,,0.440205,0.441620,4734874.000000,1673607312.274474
1673610896.175711,,,,0.432007,0.430105,4734875.000000,1673607312.275481
1673610896.175875,,,,0.434603,0.433663,4734876.000000,1673607312.276488
1673610896.175888,,,,0.436502,0.436884,4734877.000000,1673607312.277495
1673610896.181270,,,,0.437993,0.439649,4734878.000000,1673607312.278502
1673610896.181555,,,,0.442368,0.442966,4734879.000000,1673607312.279510
1673610896.181760,,,,0.448643,0.446572,4734880.000000,1673607312.280517
1673610896.182031,,,,0.456096,0.456910,4734881.000000,1673607312.281524
1673610896.182199,,,,0.462034,0.464915,4734882.000000,1673607312.282531
1673610896.182356,,,,0.469702,0.469724,4734883.000000,1673607312.283538
1673610896.182368,,,,0.475136,0.476575,4734884.000000,1673607312.284545
1673610896.182537,,,,0.478069,0.480398,4734885.000000,1673607312.285552
1673610896.183203,,,,0.478838,0.479604,4734886.000000,1673607312.286559
1673610896.183244,,,,0.479992,0.477897,4734887.000000,1673607312.287566
1673610896.183314,,,,0.473381,0.471695,4734888.000000,1673607312.288573
1673610896.183319,,,,0.463909,0.463978,4734889.000000,1673607312.289580
1673610896.189309,,,,0.454052,0.450683,4734890.000000,1673607312.290587
1673610896.189338,,,,0.441407,0.440250,4734891.000000,1673607312.291595
1673610896.189896,,,,0.430781,0.430177,4734892.000000,1673607312.292602
1673610896.190166,,,,0.418039,0.417724,4734893.000000,1673607312.293609
1673610896.190729,,,,0.410875,0.413685,4734894.000000,1673607312.294616
1673610896.191050,,,,0.409673,0.411137,4734895.000000,1673607312.295623
1673610896.191134,,,,0.409433,0.411233,4734896.000000,1673607312.296630
1673610896.191404,,,,0.411116,0.411569,4734897.000000,1673607312.297637
1673610896.191611,,,,0.421141,0.420488,4734898.000000,1673607312.298644
1673610896.191920,,,,0.435036,0.434023,4734899.000000,1673607312.299651
1673610896.192120,,,,0.447657,0.448496,4734900.000000,1673607312.300658
1673610896.192331,,,,0.456913,0.456790,4734901.000000,1673607312.301665
1673610896.192472,,,,0.462635,0.461430,4734902.000000,1673607312.302672
1673610896.195769,,,,0.468428,0.469315,4734903.000000,1673607312.303679
1673610896.195826,,,,0.477323,0.479364,4734904.000000,1673607312.304687
1673610896.196089,,,,0.477275,0.481864,4734905.000000,1673607312.305694
1673610896.196229,,,,0.479247,0.479604,4734906.000000,1673607312.306701
1673610896.198525,,,,0.475809,0.475061,4734907.000000,1673607312.307708
1673610896.198698,,,,0.465928,0.465685,4734908.000000,1673607312.308715
1673610896.198708,,,,0.453908,0.452174,4734909.000000,1673607312.309722
1673610896.198938,,,,0.442633,0.441332,4734910.000000,1673607312.310729
1673610896.199210,,,,0.433834,0.434985,4734911.000000,1673607312.311736
1673610896.199347,,,,0.423497,0.424551,4734912.000000,1673607312.312743
1673610896.199361,,,,0.411620,0.413805,4734913.000000,1673607312.313750
1673610896.218575,,,,0.404288,0.407771,4734914.000000,1673607312.314757
1673610896.218953,,,,0.401596,0.400487,4734915.000000,1673607312.315764
1673610896.219232,,,,0.395682,0.395390,4734916.000000,1673607312.316772
1673610896.220716,,,,0.393806,0.395871,4734917.000000,1673607312.317779
1673610896.221027,2.546687,3879457.000000,1673610896.198105,,,,
1673610896.221042,2.582865,3879458.000000,1673610896.199105,,,,
1673610896.221052,2.528590,3879459.000000,1673610896.200105,,,,
1673610896.221071,2.582865,3879460.000000,1673610896.201105,,,,
1673610896.221085,2.582865,3879461.000000,1673610896.202105,,,,
1673610896.221096,2.582865,3879462.000000,1673610896.203105,,,,
1673610896.221119,2.637132,3879463.000000,1673610896.204105,,,,
1673610896.221290,,,,0.396980,0.397434,4734918.000000,1673607312.318786
1673610896.221487,,,,0.403327,0.403732,4734919.000000,1673607312.319793
1673610896.221499,,,,0.414241,0.414094,4734920.000000,1673607312.320800
1673610896.221791,,,,0.428377,0.429167,4734921.000000,1673607312.321807
1673610896.221801,2.655221,3879464.000000,1673610896.205105,,,,
1673610896.221829,2.600954,3879465.000000,1673610896.206105,,,,
1673610896.221840,2.691408,3879466.000000,1673610896.207105,,,,
1673610896.221847,2.727586,3879469.000000,1673610896.210105,,,,
1673610896.221881,2.763764,3879470.000000,1673610896.211105,,,,
1673610896.221889,2.763764,3879471.000000,1673610896.212105,,,,
1673610896.221897,2.727586,3879472.000000,1673610896.213105,,,,
1673610896.221904,2.709497,3879473.000000,1673610896.214105,,,,
1673610896.221913,2.781853,3879474.000000,1673610896.215105,,,,
1673610896.221953,2.836128,3879475.000000,1673610896.216105,,,,
1673610896.221961,2.799942,3879476.000000,1673610896.217105,,,,
1673610896.221967,2.854218,3879477.000000,1673610896.218105,,,,
1673610896.221993,2.944663,3879478.000000,1673610896.219105,,,,
1673610896.228105,,,,0.437729,0.440346,4734922.000000,1673607312.322814
1673610896.228123,,,,0.447008,0.448063,4734923.000000,1673607312.323821
1673610896.233420,,,,0.457346,0.454987,4734924.000000,1673607312.324828
1673610896.233709,,,,0.460543,0.458352,4734925.000000,1673607312.325835
1673610896.234205,,,,0.464558,0.462968,4734926.000000,1673607312.326842
1673610896.234338,,,,0.467996,0.470589,4734927.000000,1673607312.327849
1673610896.236653,,,,0.466144,0.467440,4734928.000000,1673607312.328856
1673610896.236673,,,,0.456384,0.453616,4734929.000000,1673607312.329864
1673610896.236758,,,,0.443090,0.442245,4734930.000000,1673607312.330871
1673610896.236784,,,,0.434146,0.434504,4734931.000000,1673607312.331878
1673610896.236871,,,,0.422415,0.423758,4734932.000000,1673607312.332885
1673610896.236968,,,,0.416909,0.416041,4734933.000000,1673607312.333892
1673610896.236984,,,,0.409553,0.408829,4734934.000000,1673607312.334899
1673610896.241280,,,,0.408111,0.410247,4734935.000000,1673607312.335906
1673610896.241608,,,,0.410154,0.412363,4734936.000000,1673607312.336913
1673610896.242391,,,,0.406909,0.407771,4734937.000000,1673607312.337920
1673610896.242497,,,,0.408111,0.409959,4734938.000000,1673607312.338927
1673610896.242732,,,,0.413880,0.412483,4734939.000000,1673607312.339934
1673610896.242754,,,,0.419842,0.420008,4734940.000000,1673607312.340941
1673610896.242764,,,,0.429026,0.429672,4734941.000000,1673607312.341949
1673610896.242769,,,,0.435998,0.436091,4734942.000000,1673607312.342956
1673610896.243353,,,,0.423400,0.423349,4734943.000000,1673607312.343963
1673610896.243553,,,,0.418328,0.419046,4734944.000000,1673607312.344970
1673610896.243765,,,,0.423184,0.427701,4734945.000000,1673607312.345977
1673610896.244055,,,,0.422944,0.424215,4734946.000000,1673607312.346984
1673610896.244357,,,,0.415419,0.415440,4734947.000000,1673607312.347991
1673610896.244527,,,,0.403687,0.404742,4734948.000000,1673607312.348998
1673610896.248583,,,,0.406572,0.407747,4734949.000000,1673607312.350005
1673610896.248672,,,,0.417991,0.414623,4734950.000000,1673607312.351012
1673610896.248682,,,,0.427559,0.428782,4734951.000000,1673607312.352019
1673610896.248826,,,,0.439556,0.441235,4734952.000000,1673607312.353026
1673610896.248955,,,,0.444003,0.446020,4734953.000000,1673607312.354033
1673610896.249051,,,,0.455567,0.457607,4734954.000000,1673607312.355041
1673610896.249158,,,,0.457778,0.456934,4734955.000000,1673607312.356048
1673610896.249261,,,,0.451840,0.452991,4734956.000000,1673607312.357055
1673610896.250461,,,,0.452706,0.452871,4734957.000000,1673607312.358062
1673610896.250593,,,,0.460086,0.461045,4734958.000000,1673607312.359069
1673610896.250746,,,,0.464390,0.464651,4734959.000000,1673607312.360076
1673610896.258340,,,,0.467034,0.468305,4734960.000000,1673607312.361083
1673610896.258357,,,,0.468092,0.470781,4734961.000000,1673607312.362090
1673610896.258377,,,,0.466457,0.470733,4734962.000000,1673607312.363097
1673610896.258622,,,,0.453908,0.456189,4734963.000000,1673607312.364104
1673610896.272287,,,,0.436142,0.438110,4734964.000000,1673607312.365111
1673610896.272536,,,,0.411188,0.411618,4734965.000000,1673607312.366118
1673610896.272550,,,,0.387820,0.388082,4734966.000000,1673607312.367126
1673610896.272706,,,,0.397004,0.394933,4734967.000000,1673607312.368133
1673610896.279334,,,,0.411957,0.411497,4734968.000000,1673607312.369140
1673610896.279773,,,,0.411620,0.410151,4734969.000000,1673607312.370147
1673610896.279843,,,,0.406187,0.407987,4734970.000000,1673607312.371154
1673610896.285501,3.921530,3879507.000000,1673610896.251845,,,,
1673610896.285602,4.030072,3879508.000000,1673610896.252845,,,,
1673610896.285866,,,,0.397196,0.400439,4734971.000000,1673607312.372161
1673610896.286169,4.102437,3879509.000000,1673610896.253845,,,,
1673610896.286404,,,,0.393879,0.394405,4734972.000000,1673607312.373168
1673610896.286417,,,,0.405971,0.407242,4734973.000000,1673607312.374175
1673610896.287016,4.138615,3879510.000000,1673610896.254845,,,,
1673610896.287028,4.210971,3879511.000000,1673610896.255845,,,,
1673610896.287042,4.319514,3879512.000000,1673610896.256845,,,,
1673610896.287051,4.373789,3879513.000000,1673610896.257845,,,,
1673610896.287081,4.446145,3879514.000000,1673610896.258845,,,,
1673610896.287088,4.536599,3879515.000000,1673610896.259845,,,,
1673610896.287150,4.663230,3879516.000000,1673610896.260845,,,,
1673610896.287158,6.074259,3879530.000000,1673610896.274845,,,,
1673610896.287161,6.128527,3879531.000000,1673610896.275845,,,,
1673610896.287238,6.273247,3879532.000000,1673610896.276845,,,,
1673610896.287247,6.309425,3879533.000000,1673610896.277845,,,,
1673610896.287293,6.472243,3879534.000000,1673610896.278845,,,,
1673610896.287305,6.544600,3879535.000000,1673610896.279845,,,,
1673610896.287311,6.707409,3879536.000000,1673610896.280845,,,,
1673610896.287344,6.761685,3879537.000000,1673610896.281845,,,,
1673610896.287353,6.888317,3879538.000000,1673610896.282845,,,,
1673610896.287372,6.996850,3879539.000000,1673610896.283845,,,,
1673610896.288100,,,,0.420323,0.422965,4734974.000000,1673607312.375182
1673610896.288286,,,,0.430733,0.433110,4734975.000000,1673607312.376189
1673610896.288440,,,,0.455567,0.457391,4734976.000000,1673607312.377196
1673610896.288689,,,,0.491531,0.492394,4734977.000000,1673607312.378203
1673610896.293370,,,,0.516149,0.517035,4734978.000000,1673607312.379210
1673610896.293546,,,,0.520356,0.520617,4734979.000000,1673607312.380218
1673610896.293589,,,,0.504970,0.508044,4734980.000000,1673607312.381225
1673610896.296138,,,,0.494801,0.496192,4734981.000000,1673607312.382232
1673610896.296150,,,,0.493262,0.493307,4734982.000000,1673607312.383239
1673610896.296165,,,,0.495570,0.496841,4734983.000000,1673607312.384246
1673610896.296219,,,,0.502494,0.503717,4734984.000000,1673607312.385253
1673610896.296356,,,,0.506557,0.506914,4734985.000000,1673607312.386260
1673610896.296489,,,,0.503888,0.502803,4734986.000000,1673607312.387267
1673610896.296611,,,,0.492853,0.492009,4734987.000000,1673607312.388274
1673610896.296739,,,,0.474607,0.475710,4734988.000000,1673607312.389281
1673610896.300597,,,,0.456432,0.455467,4734989.000000,1673607312.390288
1673610896.300754,,,,0.446095,0.445443,4734990.000000,1673607312.391295
1673610896.300929,,,,0.437103,0.434745,4734991.000000,1673607312.392303
1673610896.303517,,,,0.426213,0.422508,4734992.000000,1673607312.393310
1673610896.303667,,,,0.415611,0.414286,4734993.000000,1673607312.394317
1673610896.303760,,,,0.412798,0.413685,4734994.000000,1673607312.395324
1673610896.308711,,,,0.412005,0.412771,4734995.000000,1673607312.396331
1673610896.308745,,,,0.405226,0.406256,4734996.000000,1673607312.397338
1673610896.308755,,,,0.400370,0.403275,4734997.000000,1673607312.398345
1673610896.308882,,,,0.405009,0.407146,4734998.000000,1673607312.399352
1673610896.308890,,,,0.425612,0.426306,4734999.000000,1673607312.400359
1673610896.311072,,,,0.445157,0.446717,4735000.000000,1673607312.401366
1673610896.311535,,,,0.456913,0.457559,4735001.000000,1673607312.402373
1673610896.311544,,,,0.466914,0.464699,4735002.000000,1673607312.403380
1673610896.311861,,,,0.470207,0.471310,4735003.000000,1673607312.404387
1673610896.311947,,,,0.469150,0.469026,4735004.000000,1673607312.405395
1673610896.312190,,,,0.465976,0.464579,4735005.000000,1673607312.406402
1673610896.315926,,,,0.462659,0.466021,4735006.000000,1673607312.407409
1673610896.315946,,,,0.464582,0.465949,4735007.000000,1673607312.408416
1673610896.315955,,,,0.460423,0.459194,4735008.000000,1673607312.409423
1673610896.316172,,,,0.452249,0.450876,4735009.000000,1673607312.410430
1673610896.318851,,,,0.441767,0.440851,4735010.000000,1673607312.411437
1673610896.318866,,,,0.431165,0.431547,4735011.000000,1673607312.412444
1673610896.318872,,,,0.421549,0.421979,4735012.000000,1673607312.413451
1673610896.318927,,,,0.406788,0.409622,4735013.000000,1673607312.414458
1673610896.318934,,,,0.387003,0.391087,4735014.000000,1673607312.415465
1673610896.318940,,,,0.375199,0.376951,4735015.000000,1673607312.416472
1673610896.318951,,,,0.369165,0.368897,4735016.000000,1673607312.417480
1673610896.324652,,,,0.362049,0.361637,4735017.000000,1673607312.418487
1673610896.324677,,,,0.363612,0.363128,4735018.000000,1673607312.419494
1673610896.324685,,,,0.360847,0.361445,4735019.000000,1673607312.420501
1673610896.324762,,,,0.359549,0.358776,4735020.000000,1673607312.421508
1673610896.324772,,,,0.362890,0.363272,4735021.000000,1673607312.422515
1673610896.324780,,,,0.368348,0.369162,4735022.000000,1673607312.423522
1673610896.324803,,,,0.379935,0.380076,4735023.000000,1673607312.424529
1673610896.325661,,,,0.402653,0.404165,4735024.000000,1673607312.425536
1673610896.325677,,,,0.424338,0.423109,4735025.000000,1673607312.426543
1673610896.325691,,,,0.424242,0.424431,4735026.000000,1673607312.427550
1673610896.325696,,,,0.419049,0.420969,4735027.000000,1673607312.428557
1673610896.339581,,,,0.417871,0.418133,4735028.000000,1673607312.429564
1673610896.339595,,,,0.408615,0.407915,4735029.000000,1673607312.430572
1673610896.339758,,,,0.384551,0.383779,4735030.000000,1673607312.431579
1673610896.347152,,,,0.345485,0.342020,4735031.000000,1673607312.432586
1673610896.347667,,,,0.306395,0.304132,4735032.000000,1673607312.433593
1673610896.348025,,,,0.287716,0.288073,4735033.000000,1673607312.434600
1673610896.348163,,,,0.289110,0.285140,4735034.000000,1673607312.435607
1673610896.350069,7.051126,3879540.000000,1673610896.288806,,,,
1673610896.352111,7.195847,3879541.000000,1673610896.289806,,,,
1673610896.352131,7.286292,3879542.000000,1673610896.290806,,,,
1673610896.352140,7.394835,3879543.000000,1673610896.291806,,,,
1673610896.352147,13.834918,3879591.000000,1673610896.339806,,,,
1673610896.352183,13.997728,3879592.000000,1673610896.340806,,,,
1673610896.352191,14.124360,3879593.000000,1673610896.341806,,,,
1673610896.352197,14.359534,3879594.000000,1673610896.342806,,,,
1673610896.352220,14.522344,3879595.000000,1673610896.343806,,,,
1673610896.352241,14.685153,3879596.000000,1673610896.344806,,,,
1673610896.352246,14.884150,3879597.000000,1673610896.345806,,,,
1673610896.352287,15.083138,3879598.000000,1673610896.346806,,,,
1673610896.352293,15.264045,3879599.000000,1673610896.347806,,,,
1673610896.352297,15.390668,3879600.000000,1673610896.348806,,,,
1673610896.353241,,,,0.293221,0.292689,4735035.000000,1673607312.436614
1673610896.353438,,,,0.293461,0.294372,4735036.000000,1673607312.437621
1673610896.353612,,,,0.298798,0.298771,4735037.000000,1673607312.438628
1673610896.358822,,,,0.302957,0.305767,4735038.000000,1673607312.439635
1673610896.359111,,,,0.317838,0.318557,4735039.000000,1673607312.440642
1673610896.359169,,,,0.333272,0.334952,4735040.000000,1673607312.441649
1673610896.359208,,,,0.354212,0.358440,4735041.000000,1673607312.442657
1673610896.359354,,,,0.399095,0.395727,4735042.000000,1673607312.443664
1673610896.359527,,,,0.415227,0.414526,4735043.000000,1673607312.444671
1673610896.359660,,,,0.427656,0.430345,4735044.000000,1673607312.445678
1673610896.359782,,,,0.465519,0.470228,4735045.000000,1673607312.446685
1673610896.359988,,,,0.482853,0.482946,4735046.000000,1673607312.447692
1673610896.360554,,,,0.477179,0.475734,4735047.000000,1673607312.448699
1673610896.360573,,,,0.449124,0.449193,4735048.000000,1673607312.449706
1673610896.360587,,,,0.415227,0.416161,4735049.000000,1673607312.450713
1673610896.360599,,,,0.407750,0.408829,4735050.000000,1673607312.451720
1673610896.360637,,,,0.398999,0.399020,4735051.000000,1673607312.452727
1673610896.360649,,,,0.383060,0.383394,4735052.000000,1673607312.453734
1673610896.361000,,,,0.370583,0.371542,4735053.000000,1673607312.454741
1673610896.361209,,,,0.357938,0.361012,4735054.000000,1673607312.455749
1673610896.361439,,,,0.354500,0.354593,4735055.000000,1673607312.456756
1673610896.361566,,,,0.347961,0.343943,4735056.000000,1673607312.457763
1673610896.361649,,,,0.327599,0.329471,4735057.000000,1673607312.458770
1673610896.362313,,,,0.314665,0.316681,4735058.000000,1673607312.459777
1673610896.362572,,,,0.330075,0.329086,4735059.000000,1673607312.460784
1673610896.362641,,,,0.331926,0.332139,4735060.000000,1673607312.461791
1673610896.362879,,,,0.328368,0.326466,4735061.000000,1673607312.462798
1673610896.363104,,,,0.327479,0.326322,4735062.000000,1673607312.463805
1673610896.363218,,,,0.325051,0.327139,4735063.000000,1673607312.464812
1673610896.363353,,,,0.332479,0.329904,4735064.000000,1673607312.465819
1673610896.363408,,,,0.348490,0.346876,4735065.000000,1673607312.466826
1673610896.363693,,,,0.352962,0.355315,4735066.000000,1673607312.467834
1673610896.363703,,,,0.363804,0.368296,4735067.000000,1673607312.468841
1673610896.363739,,,,0.387123,0.387433,4735068.000000,1673607312.469848
1673610896.363999,,,,0.395081,0.395126,4735069.000000,1673607312.470855
1673610896.364154,,,,0.395033,0.392193,4735070.000000,1673607312.471862
1673610896.364539,,,,0.393855,0.391015,4735071.000000,1673607312.472869
1673610896.364560,,,,0.381450,0.381615,4735072.000000,1673607312.473876
1673610896.364567,,,,0.362289,0.363032,4735073.000000,1673607312.474883
1673610896.364704,,,,0.338105,0.339712,4735074.000000,1673607312.475890
1673610896.364898,,,,0.327863,0.328029,4735075.000000,1673607312.476897
1673610896.365087,,,,0.320315,0.320456,4735076.000000,1673607312.477904
1673610896.365173,,,,0.305698,0.307810,4735077.000000,1673607312.478911
1673610896.365379,,,,0.297572,0.297737,4735078.000000,1673607312.479918
1673610896.365549,,,,0.299688,0.301656,4735079.000000,1673607312.480926
1673610896.365649,,,,0.306155,0.310263,4735080.000000,1673607312.481933
1673610896.365873,,,,0.312958,0.314205,4735081.000000,1673607312.482940
1673610896.368699,,,,0.318752,0.317090,4735082.000000,1673607312.483947
1673610896.368880,,,,0.323440,0.322211,4735083.000000,1673607312.484954
1673610896.369040,,,,0.325652,0.324254,4735084.000000,1673607312.485961
1673610896.369433,,,,0.326781,0.329543,4735085.000000,1673607312.486968
1673610896.369447,,,,0.333032,0.335169,4735086.000000,1673607312.487975
1673610896.369452,,,,0.345100,0.344040,4735087.000000,1673607312.488982
1673610896.369478,,,,0.361905,0.360748,4735088.000000,1673607312.489989
1673610896.369676,,,,0.369093,0.369739,4735089.000000,1673607312.490996
1673610896.369851,,,,0.356832,0.356853,4735090.000000,1673607312.492003
1673610896.371535,,,,0.341783,0.340530,4735091.000000,1673607312.493011
1673610896.371780,,,,0.309665,0.311945,4735092.000000,1673607312.494018
1673610896.371794,,,,0.287235,0.286823,4735093.000000,1673607312.495025
1673610896.371977,,,,0.272907,0.271413,4735094.000000,1673607312.496032
1673610896.372160,,,,0.267714,0.266196,4735095.000000,1673607312.497039
1673610896.372320,,,,0.277763,0.278601,4735096.000000,1673607312.498046
1673610896.372459,,,,0.295457,0.296920,4735097.000000,1673607312.499053
1673610896.372743,,,,0.310049,0.307306,4735098.000000,1673607312.500060
1673610896.372962,,,,0.320531,0.319614,4735099.000000,1673607312.501067
1673610896.373249,,,,0.325051,0.325793,4735100.000000,1673607312.502074
1673610896.373450,,,,0.319113,0.321898,4735101.000000,1673607312.503081
1673610896.373711,,,,0.303246,0.306536,4735102.000000,1673607312.504088
1673610896.373724,,,,0.266368,0.265114,4735103.000000,1673607312.505095
1673610896.373777,,,,0.225354,0.223693,4735104.000000,1673607312.506103
1673610896.374056,,,,0.170734,0.170707,4735105.000000,1673607312.507110
1673610896.374236,,,,0.097194,0.095797,4735106.000000,1673607312.508117
1673610896.376381,,,,0.048103,0.047259,4735107.000000,1673607312.509124
1673610896.376629,,,,0.063586,0.063847,4735108.000000,1673607312.510131
1673610896.377581,,,,0.119384,0.119958,4735109.000000,1673607312.511138
1673610896.377604,,,,0.207925,0.208547,4735110.000000,1673607312.512145
1673610896.377612,,,,0.280816,0.279298,4735111.000000,1673607312.513152
1673610896.377624,,,,0.314713,0.313196,4735112.000000,1673607312.514159
1673610896.377636,,,,0.364862,0.365027,4735113.000000,1673607312.515166
1673610896.377645,,,,0.440613,0.441067,4735114.000000,1673607312.516173
1673610896.377658,,,,0.514730,0.515497,4735115.000000,1673607312.517180
1673610896.377693,,,,0.586996,0.586440,4735116.000000,1673607312.518188
1673610896.378291,,,,0.633058,0.633896,4735117.000000,1673607312.519195
1673610896.378481,,,,0.652507,0.652408,4735118.000000,1673607312.520202
1673610896.378601,,,,0.638563,0.638753,4735119.000000,1673607312.521209
1673610896.378887,,,,0.581924,0.580526,4735120.000000,1673607312.522216
1673610896.383675,,,,0.527905,0.527830,4735121.000000,1673607312.523223
1673610896.383691,,,,0.490714,0.492778,4735122.000000,1673607312.524230
1673610896.383700,,,,0.452465,0.454866,4735123.000000,1673607312.525237
1673610896.399968,,,,0.441022,0.441260,4735124.000000,1673607312.526244
1673610896.399981,,,,0.446936,0.447414,4735125.000000,1673607312.527251
1673610896.400473,,,,0.446263,0.446500,4735126.000000,1673607312.528258
1673610896.400480,,,,0.430588,0.430465,4735127.000000,1673607312.529265
1673610896.400482,,,,0.408904,0.409069,4735128.000000,1673607312.530272
1673610896.400491,,,,0.402389,0.401352,4735129.000000,1673607312.531280
1673610896.400517,,,,0.400201,0.398539,4735130.000000,1673607312.532287
1673610896.414065,,,,0.401644,0.400439,4735131.000000,1673607312.533294
1673610896.414738,,,,0.391210,0.388611,4735132.000000,1673607312.534301
1673610896.414971,,,,0.371881,0.372095,4735133.000000,1673607312.535308
1673610896.414987,,,,0.359573,0.362431,4735134.000000,1673607312.536315
1673610896.415240,15.553486,3879601.000000,1673610896.354085,,,,
1673610896.415347,15.752474,3879602.000000,1673610896.355085,,,,
1673610896.415536,15.933372,3879603.000000,1673610896.356085,,,,
1673610896.415867,16.150457,3879604.000000,1673610896.357085,,,,
1673610896.416075,,,,0.372122,0.373657,4735135.000000,1673607312.537322
1673610896.416357,16.313267,3879605.000000,1673610896.358085,,,,
1673610896.416509,,,,0.397004,0.397578,4735136.000000,1673607312.538329
1673610896.416591,,,,0.412222,0.411281,4735137.000000,1673607312.539336
1673610896.416792,16.512255,3879606.000000,1673610896.359085,,,,
1673610896.417116,,,,0.420564,0.421210,4735138.000000,1673607312.540343
1673610896.417408,,,,0.439195,0.440923,4735139.000000,1673607312.541350
1673610896.417429,,,,0.444075,0.447871,4735140.000000,1673607312.542357
1673610896.417557,,,,0.408543,0.409430,4735141.000000,1673607312.543365
1673610896.417572,,,,0.363708,0.363248,4735142.000000,1673607312.544372
1673610896.417615,,,,0.358491,0.356829,4735143.000000,1673607312.545379
1673610896.417621,,,,0.376858,0.376518,4735144.000000,1673607312.546386
1673610896.417639,,,,0.383613,0.387361,4735145.000000,1673607312.547393
1673610896.417687,,,,0.392508,0.394597,4735146.000000,1673607312.548400
1673610896.417704,,,,0.404216,0.403949,4735147.000000,1673607312.549407
1673610896.417723,,,,0.409481,0.408925,4735148.000000,1673607312.550414
1673610896.417889,16.675074,3879607.000000,1673610896.360085,,,,
1673610896.417897,16.910240,3879608.000000,1673610896.361085,,,,
1673610896.417977,17.036871,3879609.000000,1673610896.362085,,,,
1673610896.417984,24.236744,3879652.000000,1673610896.405085,,,,
1673610896.418010,24.453821,3879653.000000,1673610896.406085,,,,
1673610896.418019,24.652817,3879654.000000,1673610896.407085,,,,
1673610896.418025,24.833717,3879655.000000,1673610896.408085,,,,
1673610896.418036,25.086979,3879656.000000,1673610896.409085,,,,
1673610896.418050,25.249790,3879657.000000,1673610896.410085,,,,
1673610896.418081,25.448778,3879658.000000,1673610896.411085,,,,
1673610896.418088,25.647774,3879659.000000,1673610896.412085,,,,
1673610896.418178,25.864851,3879660.000000,1673610896.413085,,,,
1673610896.418187,25.973392,3879661.000000,1673610896.414085,,,,
1673610896.435915,,,,0.408159,0.408108,4735149.000000,1673607312.551421
1673610896.436205,,,,0.412967,0.415753,4735150.000000,1673607312.552428
1673610896.436217,,,,0.442248,0.442942,4735151.000000,1673607312.553435
1673610896.436251,,,,0.478213,0.477921,4735152.000000,1673607312.554442
1673610896.443447,,,,0.496291,0.494870,4735153.000000,1673607312.555449
1673610896.443757,,,,0.485786,0.487369,4735154.000000,1673607312.556457
1673610896.443770,,,,0.473765,0.475421,4735155.000000,1673607312.557464
1673610896.443894,,,,0.466553,0.468041,4735156.000000,1673607312.558471
1673610896.444000,,,,0.472563,0.471406,4735157.000000,1673607312.559478
1673610896.444011,,,,0.477419,0.477921,4735158.000000,1673607312.560485
1673610896.445627,,,,0.484079,0.483282,4735159.000000,1673607312.561492
1673610896.445824,,,,0.494296,0.492177,4735160.000000,1673607312.562499
1673610896.445920,,,,0.505379,0.502803,4735161.000000,1673607312.563506
1673610896.445931,,,,0.501075,0.499173,4735162.000000,1673607312.564513
1673610896.459819,,,,0.495474,0.495543,4735163.000000,1673607312.565520
1673610896.459952,,,,0.497806,0.499221,4735164.000000,1673607312.566527
1673610896.460046,,,,0.489921,0.487538,4735165.000000,1673607312.567534
1673610896.467830,,,,0.457754,0.458593,4735166.000000,1673607312.568542
1673610896.468301,,,,0.427656,0.430009,4735167.000000,1673607312.569549
1673610896.468321,,,,0.427247,0.426378,4735168.000000,1673607312.570556
1673610896.468340,,,,0.424242,0.422748,4735169.000000,1673607312.571563
1673610896.471172,26.244745,3879662.000000,1673610896.410043,,,,
1673610896.471496,26.389465,3879663.000000,1673610896.411043,,,,
1673610896.473121,26.624640,3879664.000000,1673610896.412043,,,,
1673610896.473131,26.769361,3879665.000000,1673610896.413043,,,,
1673610896.473140,27.058802,3879666.000000,1673610896.414043,,,,
1673610896.473147,27.312065,3879667.000000,1673610896.415043,,,,
1673610896.473155,37.116913,3879713.000000,1673610896.461043,,,,
1673610896.473171,37.297810,3879714.000000,1673610896.462043,,,,
1673610896.473177,37.478710,3879715.000000,1673610896.463043,,,,
1673610896.473196,37.713882,3879716.000000,1673610896.464043,,,,
1673610896.473231,37.876694,3879717.000000,1673610896.465043,,,,
1673610896.473236,38.093777,3879718.000000,1673610896.466043,,,,
1673610896.473256,38.347042,3879719.000000,1673610896.467043,,,,
1673610896.473261,38.473675,3879720.000000,1673610896.468043,,,,
1673610896.473283,38.654572,3879721.000000,1673610896.469043,,,,
1673610896.473289,38.781204,3879722.000000,1673610896.470043,,,,
1673610896.473480,,,,0.427824,0.428999,4735170.000000,1673607312.572570
1673610896.473720,,,,0.461793,0.463882,4735171.000000,1673607312.573577
1673610896.473728,,,,0.482300,0.486912,4735172.000000,1673607312.574584
1673610896.473732,,,,0.483646,0.484797,4735173.000000,1673607312.575591
1673610896.475752,,,,0.470664,0.469243,4735174.000000,1673607312.576598
1673610896.475776,,,,0.465255,0.464026,4735175.000000,1673607312.577605
1673610896.475868,,,,0.468068,0.466718,4735176.000000,1673607312.578612
1673610896.475879,,,,0.464630,0.465901,4735177.000000,1673607312.579619
1673610896.480861,,,,0.465928,0.465685,4735178.000000,1673607312.580626
1673610896.480993,,,,0.471241,0.469892,4735179.000000,1673607312.581634
1673610896.481002,,,,0.473357,0.470469,4735180.000000,1673607312.582641
1673610896.483517,,,,0.464077,0.464795,4735181.000000,1673607312.583648
1673610896.483615,,,,0.438185,0.439769,4735182.000000,1673607312.584655
1673610896.483775,,,,0.319113,0.316177,4735183.000000,1673607312.585662
1673610896.483957,,,,0.276248,0.276630,4735184.000000,1673607312.586669
1673610896.484105,,,,0.265454,0.268648,4735185.000000,1673607312.587676
1673610896.484297,,,,0.283581,0.284515,4735186.000000,1673607312.588683
1673610896.490782,,,,0.327431,0.327716,4735187.000000,1673607312.589690
1673610896.490903,,,,0.401860,0.403852,4735188.000000,1673607312.590697
1673610896.491063,,,,0.471530,0.472224,4735189.000000,1673607312.591704
1673610896.491069,,,,0.511870,0.513790,4735190.000000,1673607312.592711
1673610896.495679,,,,0.534828,0.535883,4735191.000000,1673607312.593719
1673610896.495831,,,,0.551633,0.551918,4735192.000000,1673607312.594726
1673610896.495986,,,,0.576947,0.576367,4735193.000000,1673607312.595733
1673610896.495993,,,,0.613345,0.611635,4735194.000000,1673607312.596740
1673610896.498450,,,,0.615412,0.613774,4735195.000000,1673607312.597747
1673610896.498641,,,,0.578221,0.582834,4735196.000000,1673607312.598754
1673610896.498664,,,,0.542738,0.543937,4735197.000000,1673607312.599761
1673610896.498934,,,,0.526342,0.524656,4735198.000000,1673607312.600768
1673610896.503635,,,,0.521774,0.523382,4735199.000000,1673607312.601775
1673610896.503870,,,,0.510643,0.511530,4735200.000000,1673607312.602782
1673610896.504401,,,,0.503431,0.504053,4735201.000000,1673607312.603789
1673610896.504415,,,,0.499729,0.500231,4735202.000000,1673607312.604796
1673610896.505713,,,,0.494560,0.494101,4735203.000000,1673607312.605803
1673610896.505914,,,,0.485377,0.484292,4735204.000000,1673607312.606811
1673610896.506395,,,,0.472683,0.471214,4735205.000000,1673607312.607818
1673610896.519046,,,,0.462322,0.461934,4735206.000000,1673607312.608825
1673610896.519429,,,,0.454244,0.454362,4735207.000000,1673607312.609832
1673610896.519887,,,,0.430132,0.429696,4735208.000000,1673607312.610839
1673610896.519909,,,,0.416044,0.414454,4735209.000000,1673607312.611846
1673610896.519922,,,,0.397244,0.396905,4735210.000000,1673607312.612853
1673610896.519941,,,,0.388421,0.387433,4735211.000000,1673607312.613860
1673610896.521227,,,,0.406620,0.408300,4735212.000000,1673607312.614867
1673610896.521382,,,,0.427848,0.429167,4735213.000000,1673607312.615874
1673610896.521492,,,,0.448643,0.449385,4735214.000000,1673607312.616881
1673610896.521506,,,,0.470376,0.471575,4735215.000000,1673607312.617888
1673610896.526869,,,,0.502758,0.503428,4735216.000000,1673607312.618896
1673610896.527004,,,,0.524106,0.522541,4735217.000000,1673607312.619903
1673610896.527220,,,,0.539444,0.538407,4735218.000000,1673607312.620910
1673610896.527225,,,,0.546608,0.547567,4735219.000000,1673607312.621917
1673610896.533873,,,,0.536030,0.537614,4735220.000000,1673607312.622924
1673610896.533885,,,,0.526174,0.525858,4735221.000000,1673607312.623931
1673610896.533904,,,,0.505114,0.506025,4735222.000000,1673607312.624938
1673610896.533939,,,,0.482949,0.482922,4735223.000000,1673607312.625945
1673610896.535498,,,,0.464462,0.464891,4735224.000000,1673607312.626952
1673610896.535614,,,,0.432872,0.432941,4735225.000000,1673607312.627959
1673610896.535621,,,,0.384527,0.382480,4735226.000000,1673607312.628966
1673610896.536489,38.980190,3879723.000000,1673610896.475989,,,,
1673610896.536520,39.233456,3879724.000000,1673610896.476989,,,,
1673610896.536549,39.414352,3879725.000000,1673610896.477989,,,,
1673610896.537170,39.613350,3879726.000000,1673610896.478989,,,,
1673610896.537200,45.474552,3879761.000000,1673610896.513989,,,,
1673610896.537544,45.583084,3879762.000000,1673610896.514989,,,,
1673610896.537556,45.745903,3879763.000000,1673610896.515989,,,,
1673610896.537563,45.981068,3879764.000000,1673610896.516989,,,,
1673610896.537577,45.999157,3879765.000000,1673610896.517989,,,,
1673610896.537583,46.234333,3879766.000000,1673610896.518989,,,,
1673610896.537589,46.379055,3879767.000000,1673610896.519989,,,,
1673610896.537595,46.578041,3879768.000000,1673610896.520989,,,,
1673610896.537601,46.722771,3879769.000000,1673610896.521989,,,,
1673610896.537605,46.903667,3879770.000000,1673610896.522989,,,,
1673610896.537614,47.500641,3879774.000000,1673610896.526989,,,,
1673610896.537627,47.645363,3879775.000000,1673610896.527989,,,,
1673610896.537657,47.862446,3879776.000000,1673610896.528989,,,,
1673610896.537664,47.989079,3879777.000000,1673610896.529989,,,,
1673610896.537670,48.079525,3879778.000000,1673610896.530989,,,,
1673610896.537674,48.242332,3879779.000000,1673610896.531989,,,,
1673610896.537678,48.368965,3879780.000000,1673610896.532989,,,,
1673610896.537687,48.567963,3879781.000000,1673610896.533989,,,,
1673610896.537709,48.676495,3879782.000000,1673610896.534989,,,,
1673610896.537721,48.821224,3879783.000000,1673610896.535989,,,,
1673610896.550872,,,,0.347240,0.346011,4735227.000000,1673607312.629973
1673610896.550928,,,,0.322574,0.319302,4735228.000000,1673607312.630980
1673610896.551212,,,,0.314064,0.314037,4735229.000000,1673607312.631988
1673610896.551562,,,,0.304087,0.304565,4735230.000000,1673607312.632995
1673610896.551788,,,,0.284230,0.286318,4735231.000000,1673607312.634002
1673610896.552024,,,,0.300842,0.302305,4735232.000000,1673607312.635009
1673610896.553103,,,,0.343490,0.339592,4735233.000000,1673607312.636016
1673610896.553278,,,,0.397292,0.396568,4735234.000000,1673607312.637023
1673610896.553324,,,,0.444051,0.444265,4735235.000000,1673607312.638030
1673610896.553480,,,,0.479775,0.478835,4735236.000000,1673607312.639037
1673610896.553499,,,,0.502422,0.502755,4735237.000000,1673607312.640044
1673610896.553991,,,,0.518120,0.516771,4735238.000000,1673607312.641051
1673610896.554008,,,,0.531126,0.533022,4735239.000000,1673607312.642058
1673610896.554030,,,,0.534564,0.537350,4735240.000000,1673607312.643065
1673610896.554313,,,,0.533602,0.535691,4735241.000000,1673607312.644073
1673610896.554337,,,,0.551657,0.554827,4735242.000000,1673607312.645080
1673610896.554898,,,,0.583799,0.582978,4735243.000000,1673607312.646087
1673610896.555036,,,,0.603152,0.603124,4735244.000000,1673607312.647094
1673610896.555056,,,,0.627625,0.626756,4735245.000000,1673607312.648101
1673610896.555082,,,,0.648997,0.648489,4735246.000000,1673607312.649108
1673610896.555309,,,,0.643900,0.643921,4735247.000000,1673607312.650115
1673610896.555573,,,,0.609691,0.612500,4735248.000000,1673607312.651122
1673610896.556977,,,,0.533891,0.530570,4735250.000000,1673607312.653136
1673610896.556993,,,,0.496339,0.494341,4735251.000000,1673607312.654143
1673610896.557194,,,,0.450278,0.453472,4735252.000000,1673607312.655150
1673610896.557604,,,,0.433353,0.437197,4735253.000000,1673607312.656157
1673610896.557621,,,,0.435036,0.437533,4735254.000000,1673607312.657165
1673610896.557651,,,,0.428329,0.429119,4735255.000000,1673607312.658172
1673610896.557667,,,,0.420251,0.420056,4735256.000000,1673607312.659179
1673610896.557894,,,,0.438955,0.438783,4735257.000000,1673607312.660186
1673610896.557924,,,,0.450085,0.450227,4735258.000000,1673607312.661193
1673610896.557935,,,,0.447104,0.447702,4735259.000000,1673607312.662200
1673610896.557943,,,,0.463284,0.463088,4735260.000000,1673607312.663207
1673610896.557980,,,,0.507999,0.507708,4735261.000000,1673607312.664214
1673610896.557988,,,,0.563196,0.563962,4735262.000000,1673607312.665221
1673610896.558498,,,,0.602262,0.601850,4735263.000000,1673607312.666228
1673610896.559254,,,,0.604161,0.604086,4735264.000000,1673607312.667235
1673610896.559347,,,,0.592261,0.594422,4735265.000000,1673607312.668242
1673610896.559361,,,,0.577452,0.576632,4735266.000000,1673607312.669250
1673610896.559365,,,,0.556609,0.553481,4735267.000000,1673607312.670257
1673610896.559397,,,,0.542185,0.540282,4735268.000000,1673607312.671264
1673610896.559404,,,,0.523746,0.523839,4735269.000000,1673607312.672271
1673610896.563182,,,,0.497902,0.495735,4735270.000000,1673607312.673278
1673610896.563421,,,,0.453211,0.449794,4735271.000000,1673607312.674285
1673610896.563430,,,,0.389792,0.387938,4735272.000000,1673607312.675292
1673610896.565520,,,,0.373636,0.373249,4735273.000000,1673607312.676299
1673610896.565773,,,,0.366352,0.367695,4735274.000000,1673607312.677306
1673610896.565787,,,,0.344043,0.346828,4735275.000000,1673607312.678313
1673610896.565886,,,,0.318872,0.315672,4735276.000000,1673607312.679320
1673610896.579431,,,,0.305674,0.306753,4735277.000000,1673607312.680327
1673610896.579656,,,,0.342576,0.344280,4735278.000000,1673607312.681334
1673610896.579671,,,,0.385537,0.385990,4735279.000000,1673607312.682342
1673610896.589939,48.947849,3879784.000000,1673610896.529212,,,,
1673610896.591237,49.146843,3879785.000000,1673610896.530211,,,,
1673610896.591247,49.255386,3879786.000000,1673610896.531211,,,,
1673610896.591259,49.418198,3879787.000000,1673610896.532212,,,,
1673610896.591268,49.562916,3879788.000000,1673610896.533211,,,,
1673610896.591273,49.671459,3879789.000000,1673610896.534211,,,,
1673610896.591278,49.798092,3879790.000000,1673610896.535212,,,,
1673610896.591282,55.026134,3879835.000000,1673610896.580211,,,,
1673610896.591322,55.098492,3879836.000000,1673610896.581212,,,,
1673610896.591340,55.170853,3879837.000000,1673610896.582211,,,,
1673610896.591353,55.315575,3879838.000000,1673610896.583211,,,,
1673610896.591357,55.406029,3879839.000000,1673610896.584211,,,,
1673610896.591371,55.532661,3879840.000000,1673610896.585212,,,,
1673610896.591389,55.623104,3879841.000000,1673610896.586211,,,,
1673610896.591391,55.713558,3879842.000000,1673610896.587211,,,,
1673610896.591404,55.785915,3879843.000000,1673610896.588212,,,,
1673610896.591408,55.912548,3879844.000000,1673610896.589211,,,,
1673610896.596040,,,,0.413087,0.414262,4735280.000000,1673607312.683349
1673610896.596057,,,,0.410370,0.409406,4735281.000000,1673607312.684356
1673610896.596070,,,,0.433377,0.432701,4735282.000000,1673607312.685363
1673610896.601230,,,,0.486194,0.485446,4735283.000000,1673607312.686370
1673610896.601247,,,,0.533987,0.535522,4735284.000000,1673607312.687377
1673610896.601382,,,,0.564855,0.567112,4735285.000000,1673607312.688384
1673610896.601398,,,,0.591203,0.588340,4735286.000000,1673607312.689391
1673610896.601404,,,,0.624379,0.621323,4735287.000000,1673607312.690398
1673610896.603195,,,,0.625918,0.627333,4735288.000000,1673607312.691405
1673610896.603468,,,,0.605243,0.605553,4735289.000000,1673607312.692412
1673610896.603712,,,,0.589713,0.587426,4735290.000000,1673607312.693419
1673610896.608929,,,,0.579159,0.578964,4735291.000000,1673607312.694427
1673610896.608948,,,,0.562932,0.561655,4735292.000000,1673607312.695434
1673610896.608983,,,,0.532737,0.532325,4735293.000000,1673607312.696441
1673610896.610809,,,,0.515235,0.514655,4735294.000000,1673607312.697448
1673610896.610831,,,,0.499368,0.495976,4735295.000000,1673607312.698455
1673610896.611138,,,,0.462514,0.460684,4735296.000000,1673607312.699462
1673610896.611321,,,,0.400514,0.400847,4735297.000000,1673607312.700469
1673610896.615892,,,,0.311996,0.312907,4735298.000000,1673607312.701476
1673610896.615909,,,,0.229369,0.229967,4735299.000000,1673607312.702483
1673610896.616190,,,,0.176913,0.175636,4735300.000000,1673607312.703490
1673610896.616208,,,,0.183836,0.181862,4735301.000000,1673607312.704497
1673610896.618388,,,,0.216628,0.216841,4735302.000000,1673607312.705504
1673610896.618741,,,,0.293365,0.293050,4735303.000000,1673607312.706511
1673610896.618754,,,,0.367362,0.364210,4735304.000000,1673607312.707519
1673610896.625751,,,,0.463284,0.462583,4735305.000000,1673607312.708526
1673610896.626029,,,,0.577596,0.577834,4735306.000000,1673607312.709533
1673610896.626470,,,,0.676475,0.677698,4735307.000000,1673607312.710540
1673610896.626757,,,,0.768190,0.770134,4735308.000000,1673607312.711547
1673610896.639408,,,,0.833171,0.835669,4735309.000000,1673607312.712554
1673610896.639723,,,,0.823074,0.821413,4735310.000000,1673607312.713561
1673610896.639780,,,,0.716935,0.711932,4735311.000000,1673607312.714568
1673610896.647642,,,,0.590049,0.588508,4735312.000000,1673607312.715575
1673610896.647650,,,,0.519466,0.518934,4735313.000000,1673607312.716582
1673610896.647668,,,,0.502614,0.502948,4735314.000000,1673607312.717589
1673610896.647676,,,,0.509081,0.508381,4735315.000000,1673607312.718596
1673610896.653279,,,,0.517904,0.517540,4735316.000000,1673607312.719604
1673610896.653496,,,,0.527953,0.527277,4735317.000000,1673607312.720611
1673610896.653605,,,,0.534997,0.534537,4735318.000000,1673607312.721618
1673610896.655613,,,,0.535742,0.534970,4735319.000000,1673607312.722625
1673610896.655994,,,,0.538122,0.535979,4735320.000000,1673607312.723632
1673610896.656018,,,,0.536247,0.534465,4735321.000000,1673607312.724639
1673610896.656082,58.535625,3879896.000000,1673610896.644001,,,,
1673610896.656143,58.589893,3879897.000000,1673610896.645001,,,,
1673610896.656151,58.626072,3879898.000000,1673610896.646001,,,,
1673610896.656156,58.607983,3879899.000000,1673610896.647001,,,,
1673610896.656182,58.662247,3879900.000000,1673610896.648000,,,,
1673610896.656189,58.626072,3879901.000000,1673610896.649001,,,,
1673610896.656195,58.626072,3879902.000000,1673610896.650001,,,,
1673610896.656222,58.662247,3879903.000000,1673610896.651000,,,,
1673610896.656233,58.662247,3879904.000000,1673610896.652001,,,,
1673610896.656337,58.644161,3879905.000000,1673610896.653001,,,,
1673610896.656483,,,,0.534468,0.534777,4735322.000000,1673607312.725646
1673610896.661007,,,,0.537449,0.539706,4735323.000000,1673607312.726653
1673610896.661154,,,,0.541367,0.542783,4735324.000000,1673607312.727660
1673610896.661280,,,,0.533722,0.532229,4735325.000000,1673607312.728667
1673610896.661566,,,,0.516966,0.516482,4735326.000000,1673607312.729674
1673610896.661579,,,,0.496700,0.499967,4735327.000000,1673607312.730681
1673610896.661589,,,,0.487565,0.488403,4735328.000000,1673607312.731688
1673610896.661761,,,,0.484511,0.486576,4735329.000000,1673607312.732696
1673610896.663395,,,,0.474078,0.473666,4735330.000000,1673607312.733703
1673610896.663565,,,,0.471554,0.470493,4735331.000000,1673607312.734710
1673610896.663783,,,,0.470784,0.471647,4735332.000000,1673607312.735717
1673610896.664081,,,,0.464918,0.464531,4735333.000000,1673607312.736724
1673610896.664354,,,,0.467731,0.465516,4735334.000000,1673607312.737731
1673610896.664514,,,,0.497541,0.495783,4735335.000000,1673607312.738738
1673610896.664726,,,,0.523024,0.524800,4735336.000000,1673607312.739745
1673610896.668398,,,,0.521606,0.522276,4735337.000000,1673607312.740752
1673610896.668674,,,,0.507278,0.507491,4735338.000000,1673607312.741759
1673610896.668854,,,,0.502470,0.502779,4735339.000000,1673607312.742766
1673610896.670988,,,,0.485593,0.481095,4735340.000000,1673607312.743773
1673610896.671007,,,,0.441166,0.439240,4735341.000000,1673607312.744781
1673610896.671168,,,,0.409938,0.410632,4735342.000000,1673607312.745788
1673610896.671544,,,,0.399841,0.402987,4735343.000000,1673607312.746795
1673610896.676222,,,,0.408880,0.409670,4735344.000000,1673607312.747802
1673610896.676876,,,,0.419049,0.418181,4735345.000000,1673607312.748809
1673610896.677171,,,,0.434026,0.433663,4735346.000000,1673607312.749816
1673610896.677372,,,,0.444171,0.443543,4735347.000000,1673607312.750823
1673610896.677765,,,,0.438498,0.438327,4735348.000000,1673607312.751830
1673610896.678347,,,,0.440421,0.439408,4735349.000000,1673607312.752837
1673610896.678372,,,,0.467082,0.467031,4735350.000000,1673607312.753844
1673610896.679284,,,,0.509466,0.510376,4735351.000000,1673607312.754851
1673610896.679466,,,,0.543267,0.544898,4735352.000000,1673607312.755858
1673610896.680006,,,,0.563412,0.566703,4735353.000000,1673607312.756866
1673610896.680031,,,,0.567355,0.568530,4735354.000000,1673607312.757873
1673610896.680045,,,,0.581707,0.584421,4735355.000000,1673607312.758880
1673610896.680310,,,,0.604498,0.603798,4735356.000000,1673607312.759887
1673610896.680757,,,,0.588631,0.588941,4735357.000000,1673607312.760894
1673610896.680768,,,,0.562836,0.564756,4735358.000000,1673607312.761901
1673610896.680906,,,,0.555792,0.557375,4735359.000000,1673607312.762908
1673610896.681167,,,,0.562042,0.565213,4735360.000000,1673607312.763915
1673610896.681516,,,,0.554013,0.557111,4735361.000000,1673607312.764922
1673610896.681810,,,,0.539516,0.538383,4735362.000000,1673607312.765929
1673610896.682177,,,,0.529010,0.528791,4735363.000000,1673607312.766936
1673610896.682256,,,,0.525260,0.527301,4735364.000000,1673607312.767943
1673610896.683821,,,,0.533314,0.531844,4735365.000000,1673607312.768950
1673610896.683834,,,,0.531030,0.528527,4735366.000000,1673607312.769958
1673610896.683868,,,,0.515043,0.513934,4735367.000000,1673607312.770965
1673610896.683887,,,,0.498094,0.500159,4735368.000000,1673607312.771972
1673610896.684029,,,,0.483718,0.483162,4735369.000000,1673607312.772979
1673610896.686181,,,,0.467443,0.466526,4735370.000000,1673607312.773986
1673610896.686343,,,,0.443042,0.443976,4735371.000000,1673607312.774993
1673610896.686539,,,,0.424338,0.425393,4735372.000000,1673607312.776000
1673610896.686832,,,,0.414073,0.413829,4735373.000000,1673607312.777007
1673610896.686959,,,,0.402413,0.402314,4735374.000000,1673607312.778014
1673610896.687058,,,,0.406620,0.407507,4735375.000000,1673607312.779021
1673610896.687104,,,,0.425396,0.424984,4735376.000000,1673607312.780028
1673610896.687364,,,,0.455903,0.454842,4735377.000000,1673607312.781035
1673610896.687493,,,,0.488815,0.487682,4735378.000000,1673607312.782043
1673610896.702740,,,,0.507134,0.506770,4735379.000000,1673607312.783050
1673610896.702940,,,,0.545262,0.545908,4735380.000000,1673607312.784057
1673610896.703088,,,,0.593006,0.593580,4735381.000000,1673607312.785064
1673610896.703258,,,,0.622624,0.621756,4735382.000000,1673607312.786071
1673610896.703443,,,,0.622480,0.622068,4735383.000000,1673607312.787078
1673610896.703457,,,,0.616398,0.615986,4735384.000000,1673607312.788085
1673610896.703527,,,,0.602238,0.602475,4735385.000000,1673607312.789092
1673610896.703620,,,,0.577236,0.578002,4735386.000000,1673607312.790099
1673610896.708727,58.626072,3879906.000000,1673610896.648023,,,,
1673610896.708770,58.553715,3879907.000000,1673610896.649023,,,,
1673610896.708832,58.626072,3879908.000000,1673610896.650023,,,,
1673610896.708939,58.553715,3879909.000000,1673610896.651023,,,,
1673610896.708990,58.517521,3879910.000000,1673610896.652023,,,,
1673610896.709036,58.535625,3879911.000000,1673610896.653023,,,,
1673610896.709175,58.553715,3879912.000000,1673610896.654023,,,,
1673610896.709191,58.517521,3879913.000000,1673610896.655023,,,,
1673610896.709197,58.427074,3879918.000000,1673610896.660023,,,,
1673610896.709200,58.427074,3879919.000000,1673610896.661023,,,,
1673610896.709218,58.372807,3879920.000000,1673610896.662023,,,,
1673610896.709908,58.336628,3879921.000000,1673610896.663023,,,,
1673610896.710133,58.372807,3879922.000000,1673610896.664023,,,,
1673610896.710141,58.336628,3879923.000000,1673610896.665023,,,,
1673610896.710158,58.318539,3879924.000000,1673610896.666023,,,,
1673610896.710185,58.300449,3879925.000000,1673610896.667023,,,,
1673610896.710211,58.300449,3879926.000000,1673610896.668023,,,,
1673610896.710217,58.300449,3879927.000000,1673610896.669023,,,,
1673610896.710279,56.907513,3879957.000000,1673610896.699023,,,,
1673610896.710283,56.817051,3879958.000000,1673610896.700023,,,,
1673610896.710286,56.762783,3879959.000000,1673610896.701023,,,,
1673610896.710304,56.672337,3879960.000000,1673610896.702023,,,,
1673610896.710307,56.618061,3879961.000000,1673610896.703023,,,,
1673610896.710317,56.581882,3879962.000000,1673610896.704023,,,,
1673610896.710327,56.527615,3879963.000000,1673610896.705023,,,,
1673610896.710354,56.455250,3879964.000000,1673610896.706023,,,,
1673610896.710374,56.400986,3879965.000000,1673610896.707023,,,,
1673610896.710390,56.364799,3879966.000000,1673610896.708023,,,,
1673610896.710524,,,,0.550815,0.551437,4735387.000000,1673607312.791106
1673610896.710576,,,,0.528866,0.531147,4735388.000000,1673607312.792113
1673610896.710586,,,,0.516606,0.516386,4735389.000000,1673607312.793120
1673610896.710597,,,,0.501340,0.501697,4735390.000000,1673607312.794127
1673610896.713480,,,,0.488719,0.488163,4735391.000000,1673607312.795135
1673610896.713498,,,,0.479655,0.479869,4735392.000000,1673607312.796142
1673610896.713737,,,,0.472852,0.472656,4735393.000000,1673607312.797149
1673610896.713751,,,,0.462130,0.460684,4735394.000000,1673607312.798156
1673610896.717951,,,,0.432776,0.433903,4735395.000000,1673607312.799163
1673610896.717965,,,,0.408519,0.410872,4735396.000000,1673607312.800170
1673610896.723814,,,,0.405298,0.405559,4735397.000000,1673607312.801177
1673610896.724180,,,,0.431574,0.429600,4735398.000000,1673607312.802184
1673610896.724682,,,,0.457947,0.455780,4735399.000000,1673607312.803191
1673610896.724695,,,,0.459894,0.459362,4735400.000000,1673607312.804198
1673610896.724906,,,,0.479799,0.481359,4735401.000000,1673607312.805205
1673610896.725014,,,,0.510764,0.513381,4735402.000000,1673607312.806212
1673610896.725429,,,,0.542401,0.542470,4735403.000000,1673607312.807220
1673610896.725690,,,,0.585987,0.585022,4735404.000000,1673607312.808227
1673610896.726424,,,,0.610652,0.611250,4735405.000000,1673607312.809234
1673610896.726440,,,,0.611854,0.613991,4735406.000000,1673607312.810241
1673610896.726446,,,,0.600747,0.599927,4735407.000000,1673607312.811248
1673610896.726490,,,,0.583270,0.583123,4735408.000000,1673607312.812255
1673610896.726510,,,,0.566874,0.568602,4735409.000000,1673607312.813262
1673610896.726843,,,,0.555888,0.558505,4735410.000000,1673607312.814269
1673610896.727147,,,,0.549637,0.551125,4735411.000000,1673607312.815276
1673610896.729474,,,,0.546752,0.545523,4735427.000000,1673607312.831389
1673610896.729500,,,,0.531967,0.533383,4735428.000000,1673607312.832397
1673610896.729616,,,,0.510764,0.511602,4735429.000000,1673607312.833404
1673610896.729664,,,,0.500763,0.500063,4735430.000000,1673607312.834411
1673610896.729674,,,,0.502902,0.505279,4735431.000000,1673607312.835418
1673610896.729723,,,,0.498599,0.502274,4735432.000000,1673607312.836425
1673610896.729747,,,,0.490858,0.489124,4735433.000000,1673607312.837432
1673610896.729762,,,,0.492853,0.490495,4735434.000000,1673607312.838439
1673610896.729770,,,,0.495907,0.495711,4735435.000000,1673607312.839446
1673610896.729809,,,,0.506436,0.506457,4735436.000000,1673607312.840453
1673610896.736102,,,,0.516413,0.516338,4735437.000000,1673607312.841460
1673610896.736506,,,,0.522640,0.522829,4735438.000000,1673607312.842467
1673610896.736521,,,,0.522808,0.524344,4735439.000000,1673607312.843474
1673610896.736625,,,,0.533145,0.531388,4735440.000000,1673607312.844481
1673610896.736760,,,,0.527760,0.525858,4735441.000000,1673607312.845489
1673610896.736963,,,,0.494921,0.494774,4735442.000000,1673607312.846496
1673610896.746002,,,,0.437272,0.436307,4735443.000000,1673607312.847503
1673610896.746298,,,,0.360029,0.359450,4735444.000000,1673607312.848510
1673610896.746410,,,,0.316348,0.316802,4735445.000000,1673607312.849517
1673610896.746557,,,,0.320867,0.321778,4735446.000000,1673607312.850524
1673610896.746646,,,,0.357746,0.358512,4735447.000000,1673607312.851531
1673610896.746735,,,,0.392821,0.394356,4735448.000000,1673607312.852538
1673610896.746816,,,,0.405250,0.410175,4735449.000000,1673607312.853545
1673610896.746885,,,,0.441743,0.442389,4735450.000000,1673607312.854552
1673610896.759488,,,,0.487661,0.484172,4735451.000000,1673607312.855559
1673610896.759719,,,,0.558821,0.559587,4735452.000000,1673607312.856566
1673610896.760160,,,,0.644141,0.644907,4735453.000000,1673607312.857574
1673610896.767095,,,,0.699193,0.699263,4735454.000000,1673607312.858581
1673610896.767443,,,,0.722681,0.724649,4735455.000000,1673607312.859588
1673610896.767712,,,,0.707127,0.709552,4735456.000000,1673607312.860595
1673610896.768002,,,,0.652627,0.653970,4735457.000000,1673607312.861602
1673610896.773438,56.238174,3879967.000000,1673610896.712543,,,,
1673610896.773868,,,,0.610965,0.611971,4735458.000000,1673607312.862609
1673610896.773882,56.201988,3879968.000000,1673610896.713543,,,,
1673610896.774424,56.183899,3879969.000000,1673610896.714543,,,,
1673610896.774443,,,,0.590218,0.592018,4735459.000000,1673607312.863616
1673610896.774494,,,,0.588174,0.588532,4735460.000000,1673607312.864623
1673610896.774510,,,,0.577620,0.579613,4735461.000000,1673607312.865630
1673610896.775519,56.075356,3879970.000000,1673610896.715544,,,,
1673610896.775535,56.039177,3879971.000000,1673610896.716543,,,,
1673610896.775558,56.003002,3879972.000000,1673610896.717543,,,,
1673610896.775752,55.930637,3879973.000000,1673610896.718544,,,,
1673610896.775942,55.876369,3879974.000000,1673610896.719543,,,,
1673610896.776044,54.519608,3880008.000000,1673610896.753543,,,,
1673610896.776154,,,,0.548027,0.547711,4735462.000000,1673607312.866637
1673610896.776252,,,,0.495378,0.493427,4735463.000000,1673607312.867644
1673610896.776392,,,,0.448931,0.449073,4735464.000000,1673607312.868651
1673610896.776911,54.537697,3880009.000000,1673610896.754544,,,,
1673610896.776930,54.573883,3880010.000000,1673610896.755543,,,,
1673610896.776938,54.537697,3880011.000000,1673610896.756543,,,,
1673610896.776949,54.501518,3880012.000000,1673610896.757543,,,,
1673610896.776996,54.519608,3880013.000000,1673610896.758543,,,,
1673610896.777007,54.537697,3880014.000000,1673610896.759543,,,,
1673610896.777035,54.501518,3880015.000000,1673610896.760543,,,,
1673610896.777051,54.447250,3880016.000000,1673610896.761544,,,,
1673610896.777064,54.465340,3880017.000000,1673610896.762543,,,,
1673610896.777072,54.465340,3880018.000000,1673610896.763543,,,,
1673610896.777080,54.483429,3880019.000000,1673610896.764544,,,,
1673610896.777158,54.483429,3880020.000000,1673610896.765543,,,,
1673610896.777167,54.447250,3880021.000000,1673610896.766543,,,,
1673610896.777184,54.501518,3880022.000000,1673610896.767543,,,,
1673610896.777196,54.483429,3880023.000000,1673610896.768543,,,,
1673610896.777207,54.519608,3880024.000000,1673610896.769543,,,,
1673610896.777216,54.519608,3880025.000000,1673610896.770543,,,,
1673610896.777397,54.465340,3880026.000000,1673610896.771544,,,,
1673610896.777450,54.483429,3880027.000000,1673610896.772543,,,,
1673610896.780840,,,,0.398615,0.399213,4735465.000000,1673607312.869658
1673610896.780881,,,,0.348971,0.349328,4735466.000000,1673607312.870666
1673610896.780892,,,,0.333296,0.335986,4735467.000000,1673607312.871673
1673610896.783389,,,,0.352024,0.351709,4735468.000000,1673607312.872680
1673610896.783404,,,,0.386041,0.384404,4735469.000000,1673607312.873687
1673610896.783630,,,,0.408231,0.407771,4735470.000000,1673607312.874694
1673610896.783803,,,,0.444724,0.446020,4735471.000000,1673607312.875701
1673610896.783908,,,,0.498527,0.498861,4735472.000000,1673607312.876708
1673610896.788462,,,,0.548291,0.547759,4735473.000000,1673607312.877715
1673610896.788477,,,,0.577813,0.577641,4735474.000000,1673607312.878722
1673610896.788705,,,,0.602310,0.603221,4735475.000000,1673607312.879729
1673610896.791186,,,,0.654815,0.658225,4735476.000000,1673607312.880736
1673610896.791290,,,,0.688087,0.686834,4735477.000000,1673607312.881743
1673610896.791296,,,,0.679841,0.679501,4735478.000000,1673607312.882751
1673610896.791478,,,,0.638852,0.641277,4735479.000000,1673607312.883758
1673610896.791485,,,,0.597646,0.597307,4735480.000000,1673607312.884765
1673610896.791532,,,,0.577669,0.577521,4735481.000000,1673607312.885772
1673610896.791548,,,,0.563412,0.564155,4735482.000000,1673607312.886779
1673610896.798300,,,,0.560191,0.560741,4735483.000000,1673607312.887786
1673610896.798511,,,,0.554614,0.553120,4735484.000000,1673607312.888793
1673610896.798554,,,,0.542978,0.541773,4735485.000000,1673607312.889800
1673610896.798738,,,,0.534371,0.534705,4735486.000000,1673607312.890807
1673610896.803262,,,,0.524202,0.522637,4735487.000000,1673607312.891814
1673610896.803473,,,,0.511749,0.511891,4735488.000000,1673607312.892821
1673610896.803483,,,,0.499368,0.499750,4735489.000000,1673607312.893828
1673610896.805454,,,,0.473597,0.471070,4735490.000000,1673607312.894835
1673610896.805671,,,,0.436719,0.435802,4735491.000000,1673607312.895843
1673610896.805879,,,,0.294182,0.295213,4735492.000000,1673607312.896850
1673610896.805911,,,,0.258362,0.259729,4735493.000000,1673607312.897857
1673610896.811305,,,,0.288629,0.287640,4735494.000000,1673607312.898864
1673610896.811422,,,,0.343490,0.344280,4735495.000000,1673607312.899871
1673610896.811818,,,,0.421309,0.421763,4735496.000000,1673607312.900878
1673610896.812315,,,,0.503672,0.502106,4735497.000000,1673607312.901885
1673610896.812339,,,,0.585578,0.584325,4735498.000000,1673607312.902892
1673610896.812502,,,,0.667027,0.666568,4735499.000000,1673607312.903899
1673610896.813403,,,,0.719796,0.719048,4735500.000000,1673607312.904906
1673610896.813452,,,,0.734966,0.734578,4735501.000000,1673607312.905913
1673610896.813917,,,,0.723595,0.724601,4735502.000000,1673607312.906920
1673610896.813931,,,,0.698376,0.697940,4735503.000000,1673607312.907928
1673610896.827033,,,,0.652603,0.652648,4735504.000000,1673607312.908935
1673610896.827357,,,,0.590771,0.588532,4735505.000000,1673607312.909942
1673610896.827776,,,,0.532208,0.532085,4735506.000000,1673607312.910949
1673610896.827787,,,,0.511028,0.510256,4735507.000000,1673607312.911956
1673610896.834596,,,,0.512134,0.512732,4735508.000000,1673607312.912963
1673610896.834643,,,,0.508023,0.509054,4735509.000000,1673607312.913970
1673610896.834652,,,,0.497445,0.495615,4735510.000000,1673607312.914977
1673610896.839816,54.447250,3880028.000000,1673610896.779232,,,,
1673610896.840730,54.447250,3880029.000000,1673610896.780231,,,,
1673610896.840744,,,,0.488887,0.486888,4735511.000000,1673607312.915984
1673610896.840778,54.429161,3880030.000000,1673610896.781231,,,,
1673610896.840955,,,,0.483622,0.484052,4735512.000000,1673607312.916991
1673610896.841079,54.447250,3880079.000000,1673610896.830231,,,,
1673610896.841105,54.447250,3880080.000000,1673610896.831232,,,,
1673610896.841147,54.465340,3880081.000000,1673610896.832232,,,,
1673610896.841153,54.483429,3880082.000000,1673610896.833231,,,,
1673610896.841159,54.447250,3880083.000000,1673610896.834231,,,,
1673610896.841165,54.483429,3880084.000000,1673610896.835232,,,,
1673610896.841174,54.411072,3880085.000000,1673610896.836231,,,,
1673610896.841195,54.447250,3880086.000000,1673610896.837231,,,,
1673610896.841199,54.465340,3880087.000000,1673610896.838232,,,,
1673610896.841219,54.465340,3880088.000000,1673610896.839231,,,,
1673610896.841371,,,,0.469895,0.470613,4735513.000000,1673607312.917998
1673610896.841380,,,,0.458644,0.462199,4735514.000000,1673607312.919005
1673610896.848780,,,,0.470616,0.471935,4735515.000000,1673607312.920012
1673610896.848788,,,,0.469799,0.473378,4735516.000000,1673607312.921020
1673610896.848799,,,,0.479271,0.477368,4735517.000000,1673607312.922027
1673610896.848804,,,,0.487709,0.488235,4735518.000000,1673607312.923034
1673610896.848812,,,,0.483983,0.484460,4735519.000000,1673607312.924041
1673610896.848820,,,,0.492853,0.493091,4735520.000000,1673607312.925048
1673610896.848824,,,,0.512783,0.515064,4735521.000000,1673607312.926055
1673610896.851217,,,,0.524371,0.527733,4735522.000000,1673607312.927062
1673610896.851235,,,,0.551897,0.551245,4735523.000000,1673607312.928069
1673610896.851259,,,,0.564470,0.563866,4735524.000000,1673607312.929076
1673610896.851269,,,,0.562811,0.561775,4735525.000000,1673607312.930083
1673610896.851490,,,,0.564278,0.564491,4735526.000000,1673607312.931090
1673610896.851502,,,,0.561273,0.561847,4735527.000000,1673607312.932097
1673610896.851542,,,,0.540261,0.540499,4735528.000000,1673607312.933105
1673610896.851550,,,,0.535838,0.533719,4735529.000000,1673607312.934112
1673610896.856252,,,,0.535165,0.535378,4735530.000000,1673607312.935119
1673610896.856734,,,,0.545166,0.545403,4735531.000000,1673607312.936126
1673610896.856921,,,,0.549782,0.547807,4735532.000000,1673607312.937133
1673610896.858388,,,,0.534444,0.533527,4735533.000000,1673607312.938140
1673610896.858409,,,,0.522183,0.522036,4735534.000000,1673607312.939147
1673610896.858420,,,,0.531511,0.532133,4735535.000000,1673607312.940154
1673610896.863404,,,,0.548099,0.549586,4735536.000000,1673607312.941161
1673610896.863770,,,,0.550575,0.552062,4735537.000000,1673607312.942168
1673610896.863951,,,,0.553195,0.553865,4735538.000000,1673607312.943175
1673610896.863961,,,,0.556970,0.557231,4735539.000000,1673607312.944182
1673610896.866722,,,,0.554421,0.554971,4735540.000000,1673607312.945189
1673610896.867042,,,,0.556657,0.557207,4735541.000000,1673607312.946197
1673610896.867234,,,,0.552570,0.554731,4735542.000000,1673607312.947204
1673610896.867440,,,,0.535982,0.538047,4735543.000000,1673607312.948211
1673610896.867751,,,,0.514730,0.514824,4735544.000000,1673607312.949218
1673610896.867973,,,,0.496700,0.498740,4735545.000000,1673607312.950225
1673610896.868176,,,,0.477107,0.476647,4735546.000000,1673607312.951232
1673610896.868722,,,,0.451576,0.451549,4735547.000000,1673607312.952239
1673610896.868767,,,,0.431574,0.433518,4735548.000000,1673607312.953246
1673610896.868962,,,,0.427607,0.428326,4735549.000000,1673607312.954253
1673610896.869049,,,,0.454773,0.454506,4735550.000000,1673607312.955260
1673610896.869245,,,,0.492132,0.492947,4735551.000000,1673607312.956267
1673610896.869748,,,,0.531511,0.534369,4735552.000000,1673607312.957274
1673610896.869809,,,,0.560335,0.559491,4735553.000000,1673607312.958282
1673610896.869849,,,,0.567716,0.568434,4735554.000000,1673607312.959289
1673610896.871079,,,,0.566995,0.564780,4735555.000000,1673607312.960296
1673610896.871312,,,,0.569375,0.566222,4735556.000000,1673607312.961303
1673610896.871326,,,,0.578101,0.579060,4735557.000000,1673607312.962310
1673610896.871897,,,,0.574712,0.575406,4735558.000000,1673607312.963317
1673610896.871989,,,,0.573149,0.574757,4735559.000000,1673607312.964324
1673610896.872009,,,,0.577669,0.579084,4735560.000000,1673607312.965331
1673610896.873861,,,,0.568221,0.571367,4735561.000000,1673607312.966338
1673610896.873879,,,,0.561081,0.563674,4735562.000000,1673607312.967345
1673610896.874068,,,,0.550815,0.551966,4735563.000000,1673607312.968352
1673610896.874096,,,,0.532016,0.532662,4735564.000000,1673607312.969359
1673610896.874288,,,,0.478237,0.475637,4735565.000000,1673607312.970366
1673610896.874303,,,,0.407798,0.406882,4735566.000000,1673607312.971374
1673610896.874315,,,,0.358755,0.360555,4735567.000000,1673607312.972381
1673610896.887748,,,,0.335268,0.338510,4735568.000000,1673607312.973388
1673610896.887898,,,,0.332191,0.331514,4735569.000000,1673607312.974395
1673610896.887917,,,,0.346927,0.347742,4735570.000000,1673607312.975402
1673610896.887992,,,,0.382411,0.385774,4735571.000000,1673607312.976409
1673610896.888119,,,,0.440012,0.441836,4735572.000000,1673607312.977416
1673610896.888369,,,,0.514105,0.514727,4735573.000000,1673607312.978423
1673610896.888712,,,,0.571658,0.570838,4735574.000000,1673607312.979430
1673610896.888821,,,,0.611277,0.615385,4735575.000000,1673607312.980437
1673610896.893904,54.284443,3880140.000000,1673610896.883474,,,,
1673610896.893920,54.302528,3880141.000000,1673610896.884474,,,,
1673610896.893928,54.320618,3880142.000000,1673610896.885474,,,,
1673610896.893934,54.302528,3880143.000000,1673610896.886474,,,,
1673610896.893938,54.374886,3880144.000000,1673610896.887474,,,,
1673610896.893941,54.374886,3880145.000000,1673610896.888474,,,,
1673610896.893990,54.356796,3880146.000000,1673610896.889474,,,,
1673610896.894020,54.338707,3880147.000000,1673610896.890474,,,,
1673610896.894032,54.374886,3880148.000000,1673610896.891474,,,,
1673610896.894037,54.392975,3880149.000000,1673610896.892474,,,,
1673610896.894999,,,,0.671355,0.673203,4735576.000000,1673607312.981444
1673610896.895004,,,,0.722657,0.723207,4735577.000000,1673607312.982451
1673610896.895269,,,,0.721263,0.721115,4735578.000000,1673607312.983459
1673610896.895421,,,,0.689265,0.689839,4735579.000000,1673607312.984466
1673610896.895556,,,,0.638203,0.636974,4735580.000000,1673607312.985473
1673610896.895658,,,,0.589448,0.587330,4735581.000000,1673607312.986480
1673610896.895805,,,,0.571202,0.571800,4735582.000000,1673607312.987487
1673610896.895950,,,,0.575745,0.579877,4735583.000000,1673607312.988494
1673610896.896154,,,,0.576202,0.580070,4735584.000000,1673607312.989501
1673610896.896295,,,,0.572452,0.574348,4735585.000000,1673607312.990508
1673610896.904062,,,,0.566610,0.566270,4735586.000000,1673607312.991515
1673610896.904080,,,,0.550767,0.553529,4735587.000000,1673607312.992522
1673610896.904087,,,,0.524467,0.526579,4735588.000000,1673607312.993529
1673610896.904428,,,,0.491195,0.491697,4735589.000000,1673607312.994536
1673610896.904436,,,,0.457875,0.458617,4735590.000000,1673607312.995543
1673610896.904572,,,,0.438305,0.437702,4735591.000000,1673607312.996551
1673610896.904755,,,,0.428665,0.426427,4735592.000000,1673607312.997558
1673610896.904890,,,,0.417486,0.417844,4735593.000000,1673607312.998565
1673610896.905055,,,,0.396691,0.397866,4735594.000000,1673607312.999572
1673610896.905310,,,,0.411572,0.412267,4735595.000000,1673607313.000579
1673610896.905322,,,,0.442152,0.441788,4735596.000000,1673607313.001586
1673610896.909060,,,,0.470929,0.469507,4735597.000000,1673607313.002593
1673610896.909885,,,,0.507037,0.507179,4735598.000000,1673607313.003600
1673610896.909908,,,,0.561994,0.561342,4735599.000000,1673607313.004607
1673610896.910049,,,,0.610484,0.612909,4735600.000000,1673607313.005614
1673610896.910110,,,,0.648420,0.648561,4735601.000000,1673607313.006621
1673610896.910192,,,,0.678519,0.678131,4735602.000000,1673607313.007628
1673610896.910203,,,,0.676668,0.677530,4735603.000000,1673607313.008636
1673610896.910208,,,,0.651184,0.650436,4735604.000000,1673607313.009643
1673610896.910373,,,,0.613273,0.613630,4735605.000000,1673607313.010650
1673610896.910382,,,,0.573990,0.574805,4735606.000000,1673607313.011657
1673610896.910401,,,,0.544348,0.543288,4735607.000000,1673607313.012664
1673610896.910448,,,,0.526654,0.527253,4735608.000000,1673607313.013671
1673610896.910808,,,,0.517615,0.517901,4735609.000000,1673607313.014678
1673610896.911635,,,,0.508480,0.508236,4735610.000000,1673607313.015685
1673610896.911717,,,,0.502638,0.502755,4735611.000000,1673607313.016692
1673610896.911727,,,,0.506220,0.504799,4735612.000000,1673607313.017699
1673610896.911780,,,,0.515620,0.514535,4735613.000000,1673607313.018706
1673610896.911789,,,,0.521558,0.521795,4735614.000000,1673607313.019713
1673610896.911864,,,,0.529419,0.527781,4735615.000000,1673607313.020720
1673610896.911877,,,,0.529756,0.528959,4735616.000000,1673607313.021728
1673610896.911967,,,,0.522856,0.521723,4735617.000000,1673607313.022735
1673610896.915991,,,,0.515524,0.516699,4735618.000000,1673607313.023742
1673610896.916006,,,,0.525092,0.525353,4735619.000000,1673607313.024749
1673610896.916403,,,,0.527328,0.527493,4735620.000000,1673607313.025756
1673610896.916423,,,,0.517375,0.517612,4735621.000000,1673607313.026763
1673610896.918265,,,,0.521342,0.520257,4735622.000000,1673607313.027770
1673610896.918276,,,,0.519178,0.520377,4735623.000000,1673607313.028777
1673610896.918526,,,,0.503816,0.506361,4735624.000000,1673607313.029784
1673610896.924270,,,,0.501316,0.501265,4735625.000000,1673607313.030791
1673610896.924419,,,,0.505042,0.504005,4735626.000000,1673607313.031798
1673610896.924702,,,,0.506485,0.505880,4735627.000000,1673607313.032805
1673610896.924807,,,,0.508384,0.506433,4735628.000000,1673607313.033813
1673610896.925018,,,,0.501532,0.500640,4735629.000000,1673607313.034820
1673610896.925211,,,,0.517351,0.519007,4735630.000000,1673607313.035827
1673610896.925236,,,,0.545406,0.547110,4735631.000000,1673607313.036834
1673610896.925388,,,,0.584953,0.585262,4735632.000000,1673607313.037841
1673610896.925915,,,,0.612479,0.613558,4735633.000000,1673607313.038848
1673610896.926119,,,,0.616350,0.617933,4735634.000000,1673607313.039855
1673610896.926558,,,,0.602262,0.601586,4735635.000000,1673607313.040862
1673610896.926582,,,,0.571971,0.573002,4735636.000000,1673607313.041869
1673610896.926685,,,,0.532544,0.531363,4735637.000000,1673607313.042876
1673610896.926694,,,,0.484391,0.484004,4735638.000000,1673607313.043883
1673610896.931566,,,,0.455134,0.454818,4735639.000000,1673607313.044890
1673610896.931586,,,,0.443354,0.443543,4735640.000000,1673607313.045897
1673610896.931618,,,,0.436094,0.439048,4735641.000000,1673607313.046905
1673610896.931689,,,,0.445157,0.446669,4735642.000000,1673607313.047912
1673610896.931751,,,,0.474318,0.475589,4735643.000000,1673607313.048919
1673610896.931772,,,,0.517639,0.518069,4735644.000000,1673607313.049926
1673610896.931781,,,,0.561008,0.563217,4735645.000000,1673607313.050933
1673610896.931824,,,,0.599786,0.602235,4735646.000000,1673607313.051940
1673610896.933123,,,,0.612888,0.615025,4735647.000000,1673607313.052947
1673610896.933448,,,,0.593992,0.593893,4735648.000000,1673607313.053954
1673610896.933536,,,,0.559157,0.560140,4735649.000000,1673607313.054961
1673610896.947611,,,,0.560528,0.560621,4735650.000000,1673607313.055968
1673610896.947626,,,,0.566490,0.563169,4735651.000000,1673607313.056975
1673610896.947887,,,,0.548123,0.547759,4735652.000000,1673607313.057982
1673610896.947913,,,,0.549950,0.551822,4735653.000000,1673607313.058990
1673610896.948058,,,,0.572404,0.568915,4735654.000000,1673607313.059997
1673610896.948104,,,,0.593127,0.589205,4735655.000000,1673607313.061004
1673610896.948211,,,,0.601156,0.599470,4735656.000000,1673607313.062011
1673610896.948289,,,,0.604546,0.603100,4735657.000000,1673607313.063018
1673610896.956397,54.411072,3880150.000000,1673610896.895720,,,,
1673610896.956593,54.411072,3880151.000000,1673610896.896720,,,,
1673610896.956609,54.411072,3880152.000000,1673610896.897720,,,,
1673610896.956620,54.338707,3880153.000000,1673610896.898720,,,,
1673610896.956627,54.302528,3880154.000000,1673610896.899720,,,,
1673610896.957866,54.356796,3880155.000000,1673610896.900720,,,,
1673610896.957875,53.868366,3880201.000000,1673610896.946720,,,,
1673610896.957880,53.850281,3880202.000000,1673610896.947720,,,,
1673610896.957925,53.886456,3880203.000000,1673610896.948720,,,,
1673610896.957933,53.868366,3880204.000000,1673610896.949720,,,,
1673610896.957947,53.886456,3880205.000000,1673610896.950720,,,,
1673610896.957955,53.832180,3880206.000000,1673610896.951720,,,,
1673610896.957960,53.832180,3880207.000000,1673610896.952720,,,,
1673610896.957973,53.796005,3880208.000000,1673610896.953720,,,,
1673610896.957979,53.832180,3880209.000000,1673610896.954720,,,,
1673610896.958003,53.777916,3880210.000000,1673610896.955720,,,,
1673610896.960981,,,,0.593535,0.595840,4735658.000000,1673607313.064025
1673610896.961192,,,,0.580794,0.582882,4735659.000000,1673607313.065032
1673610896.961479,,,,0.563412,0.565092,4735660.000000,1673607313.066039
1673610896.961526,,,,0.537040,0.537662,4735661.000000,1673607313.067046
1673610896.961763,,,,0.524707,0.526555,4735662.000000,1673607313.068053
1673610896.962096,,,,0.529804,0.530618,4735663.000000,1673607313.069060
1673610896.963276,,,,0.533891,0.533888,4735664.000000,1673607313.070067
1673610896.963299,,,,0.526751,0.527036,4735665.000000,1673607313.071074
1673610896.963698,,,,0.518192,0.516891,4735666.000000,1673607313.072082
1673610896.963842,,,,0.513649,0.512179,4735667.000000,1673607313.073089
1673610896.968401,,,,0.513168,0.514920,4735668.000000,1673607313.074096
1673610896.968987,,,,0.533266,0.532638,4735669.000000,1673607313.075103
1673610896.969002,,,,0.556994,0.555861,4735670.000000,1673607313.076110
1673610896.969016,,,,0.574135,0.573843,4735671.000000,1673607313.077117
1673610896.970744,,,,0.564278,0.564612,4735672.000000,1673607313.078124
1673610896.970934,,,,0.547305,0.546701,4735673.000000,1673607313.079131
1673610896.971171,,,,0.523890,0.524921,4735674.000000,1673607313.080138
1673610896.975807,,,,0.509754,0.508597,4735675.000000,1673607313.081145
1673610896.976032,,,,0.511437,0.508453,4735676.000000,1673607313.082152
1673610896.976394,,,,0.531174,0.531772,4735677.000000,1673607313.083159
1673610896.976406,,,,0.563124,0.562111,4735678.000000,1673607313.084167
1673610896.978602,,,,0.587092,0.586008,4735679.000000,1673607313.085174
1673610896.978612,,,,0.590097,0.589806,4735680.000000,1673607313.086181
1673610896.978615,,,,0.584328,0.585286,4735681.000000,1673607313.087188
1673610896.978695,,,,0.572860,0.573987,4735682.000000,1673607313.088195
1673610896.978703,,,,0.560167,0.560933,4735683.000000,1673607313.089202
1673610896.978710,,,,0.550094,0.549346,4735684.000000,1673607313.090209
1673610896.983645,,,,0.541319,0.541797,4735685.000000,1673607313.091216
1673610896.983653,,,,0.530477,0.528407,4735686.000000,1673607313.092223
1673610896.983656,,,,0.522736,0.520786,4735687.000000,1673607313.093230
1673610896.983713,,,,0.519899,0.520834,4735688.000000,1673607313.094237
1673610896.983763,,,,0.525236,0.527469,4735689.000000,1673607313.095244
1673610896.983936,,,,0.532905,0.534489,4735690.000000,1673607313.096251
1673610896.984041,,,,0.532064,0.532037,4735691.000000,1673607313.097259
1673610896.984146,,,,0.520380,0.520016,4735692.000000,1673607313.098266
1673610896.985471,,,,0.510042,0.511169,4735693.000000,1673607313.099273
1673610896.985586,,,,0.501628,0.501914,4735694.000000,1673607313.100280
1673610896.985710,,,,0.505691,0.504150,4735695.000000,1673607313.101287
1673610896.990644,,,,0.503864,0.501842,4735696.000000,1673607313.102294
1673610896.990691,,,,0.508143,0.508164,4735697.000000,1673607313.103301
1673610896.990990,,,,0.525140,0.524464,4735698.000000,1673607313.104308
1673610896.991023,,,,0.533434,0.533960,4735699.000000,1673607313.105315
1673610896.993135,,,,0.519923,0.520473,4735700.000000,1673607313.106322
1673610896.993354,,,,0.517735,0.520233,4735701.000000,1673607313.107329
1673610896.993611,,,,0.525837,0.527709,4735702.000000,1673607313.108336
1673610896.993873,,,,0.525308,0.526916,4735703.000000,1673607313.109344
1673610897.014851,,,,0.499801,0.501241,4735704.000000,1673607313.110351
1673610897.015547,,,,0.477251,0.479364,4735705.000000,1673607313.111358
1673610897.015648,,,,0.486218,0.485278,4735706.000000,1673607313.112365
1673610897.021221,,,,0.500210,0.501673,4735707.000000,1673607313.113372
1673610897.021254,,,,0.515956,0.518862,4735708.000000,1673607313.114379
1673610897.021759,,,,0.554277,0.554178,4735709.000000,1673607313.115386
1673610897.022165,53.723648,3880216.000000,1673610896.965022,,,,
1673610897.022183,53.705551,3880217.000000,1673610896.966022,,,,
1673610897.022189,53.633194,3880218.000000,1673610896.967022,,,,
1673610897.022218,53.633194,3880219.000000,1673610896.968022,,,,
1673610897.022252,53.669373,3880220.000000,1673610896.969022,,,,
1673610897.022259,53.669373,3880221.000000,1673610896.970022,,,,
1673610897.022451,53.651283,3880222.000000,1673610896.971022,,,,
1673610897.022465,53.578926,3880223.000000,1673610896.972022,,,,
1673610897.022482,53.560829,3880224.000000,1673610896.973022,,,,
1673610897.022720,53.560829,3880225.000000,1673610896.974022,,,,
1673610897.023316,53.235210,3880242.000000,1673610896.991022,,,,
1673610897.023574,,,,0.598103,0.596513,4735710.000000,1673607313.116393
1673610897.023737,53.271389,3880243.000000,1673610896.992022,,,,
1673610897.024057,53.144756,3880244.000000,1673610896.993022,,,,
1673610897.024218,,,,0.634693,0.634882,4735711.000000,1673607313.117400
1673610897.024496,,,,0.663012,0.664668,4735712.000000,1673607313.118407
1673610897.024661,,,,0.659647,0.659788,4735713.000000,1673607313.119414
1673610897.024921,53.144756,3880245.000000,1673610896.994022,,,,
1673610897.024946,53.126667,3880246.000000,1673610896.995022,,,,
1673610897.024958,53.144756,3880247.000000,1673610896.996022,,,,
1673610897.024966,53.072399,3880248.000000,1673610896.997022,,,,
1673610897.025100,53.108578,3880249.000000,1673610896.998022,,,,
1673610897.025110,53.144756,3880250.000000,1673610896.999022,,,,
1673610897.025143,53.072399,3880251.000000,1673610897.000022,,,,
1673610897.025150,52.927681,3880262.000000,1673610897.011022,,,,
1673610897.025157,52.819138,3880263.000000,1673610897.012022,,,,
1673610897.025243,52.873413,3880264.000000,1673610897.013022,,,,
1673610897.025255,52.855316,3880265.000000,1673610897.014022,,,,
1673610897.025268,52.855316,3880266.000000,1673610897.015022,,,,
1673610897.025380,52.837227,3880267.000000,1673610897.016022,,,,
1673610897.025387,52.837227,3880268.000000,1673610897.017022,,,,
1673610897.025391,52.837227,3880269.000000,1673610897.018022,,,,
1673610897.025394,52.855316,3880270.000000,1673610897.019022,,,,
1673610897.025397,52.837227,3880271.000000,1673610897.020022,,,,
1673610897.025463,,,,0.634645,0.636348,4735714.000000,1673607313.120421
1673610897.025475,,,,0.616181,0.617741,4735715.000000,1673607313.121428
1673610897.025848,,,,0.609691,0.607812,4735716.000000,1673607313.122436
1673610897.028275,,,,0.602719,0.601802,4735717.000000,1673607313.123443
1673610897.028508,,,,0.596781,0.595576,4735718.000000,1673607313.124450
1673610897.028518,,,,0.587165,0.586657,4735719.000000,1673607313.125457
1673610897.028703,,,,0.567019,0.565790,4735720.000000,1673607313.126464
1673610897.030529,,,,0.538843,0.539008,4735721.000000,1673607313.127471
1673610897.030643,,,,0.508768,0.510809,4735722.000000,1673607313.128478
1673610897.030841,,,,0.475929,0.475637,4735723.000000,1673607313.129485
1673610897.030849,,,,0.450783,0.451717,4735724.000000,1673607313.130492
1673610897.035896,,,,0.414553,0.416810,4735725.000000,1673607313.131499
1673610897.036089,,,,0.376642,0.377552,4735726.000000,1673607313.132506
1673610897.036098,,,,0.363395,0.363609,4735727.000000,1673607313.133513
1673610897.036190,,,,0.366833,0.367455,4735728.000000,1673607313.134521
1673610897.038037,,,,0.390825,0.388923,4735729.000000,1673607313.135528
1673610897.038174,,,,0.455470,0.452991,4735730.000000,1673607313.136535
1673610897.038272,,,,0.526029,0.526219,4735731.000000,1673607313.137542
1673610897.043543,,,,0.578606,0.579276,4735732.000000,1673607313.138549
1673610897.043841,,,,0.647074,0.645316,4735733.000000,1673607313.139556
1673610897.044058,,,,0.717825,0.716812,4735734.000000,1673607313.140563
1673610897.044068,,,,0.763021,0.762081,4735735.000000,1673607313.141570
1673610897.044098,,,,0.764055,0.761600,4735736.000000,1673607313.142577
1673610897.044333,,,,0.718955,0.717750,4735737.000000,1673607313.143584
1673610897.044570,,,,0.668590,0.668322,4735738.000000,1673607313.144591
1673610897.047885,,,,0.628947,0.631011,4735739.000000,1673607313.145598
1673610897.048131,,,,0.599569,0.600552,4735740.000000,1673607313.146605
1673610897.048155,,,,0.581804,0.581512,4735741.000000,1673607313.147613
1673610897.048159,,,,0.577981,0.575838,4735742.000000,1673607313.148620
1673610897.048213,,,,0.584039,0.581993,4735743.000000,1673607313.149627
1673610897.048224,,,,0.581251,0.579637,4735744.000000,1673607313.150634
1673610897.048232,,,,0.566442,0.564203,4735745.000000,1673607313.151641
1673610897.051238,,,,0.547930,0.547495,4735746.000000,1673607313.152648
1673610897.051249,,,,0.518481,0.517468,4735747.000000,1673607313.153655
1673610897.051264,,,,0.464486,0.467392,4735748.000000,1673607313.154662
1673610897.051362,,,,0.420059,0.423181,4735749.000000,1673607313.155669
1673610897.051452,,,,0.404985,0.404910,4735750.000000,1673607313.156676
1673610897.051628,,,,0.413087,0.411569,4735751.000000,1673607313.157683
1673610897.051635,,,,0.445133,0.444697,4735752.000000,1673607313.158690
1673610897.051647,,,,0.480785,0.481239,4735753.000000,1673607313.159698
1673610897.055086,,,,0.504465,0.506674,4735754.000000,1673607313.160705
1673610897.055102,,,,0.522303,0.521435,4735755.000000,1673607313.161712
1673610897.073502,,,,0.563653,0.562784,4735756.000000,1673607313.162719
1673610897.073642,,,,0.620461,0.622429,4735757.000000,1673607313.163726
1673610897.073974,,,,0.683062,0.686353,4735758.000000,1673607313.164733
1673610897.074157,,,,0.716142,0.714168,4735759.000000,1673607313.165740
1673610897.074503,,,,0.688039,0.686665,4735760.000000,1673607313.166747
1673610897.074515,,,,0.639092,0.641109,4735761.000000,1673607313.167754
1673610897.074539,,,,0.608272,0.608822,4735762.000000,1673607313.168761
1673610897.074757,,,,0.594954,0.592667,4735763.000000,1673607313.169768
1673610897.074986,,,,0.590554,0.590070,4735764.000000,1673607313.170775
1673610897.075785,,,,0.581227,0.582257,4735765.000000,1673607313.171782
1673610897.075801,,,,0.578318,0.578555,4735766.000000,1673607313.172790
1673610897.075993,,,,0.567764,0.566871,4735767.000000,1673607313.173797
1673610897.076010,,,,0.552186,0.549755,4735768.000000,1673607313.174804
1673610897.076019,,,,0.538651,0.541148,4735769.000000,1673607313.175811
1673610897.076395,,,,0.533073,0.535234,4735770.000000,1673607313.176818
1673610897.076904,,,,0.534347,0.533912,4735771.000000,1673607313.177825
1673610897.076920,,,,0.529107,0.532085,4735772.000000,1673607313.178832
1673610897.077167,,,,0.526126,0.527156,4735773.000000,1673607313.179839
1673610897.077521,,,,0.525837,0.528070,4735774.000000,1673607313.180846
1673610897.077718,,,,0.524683,0.526964,4735775.000000,1673607313.181853
1673610897.077871,,,,0.509057,0.510376,4735776.000000,1673607313.182860
1673610897.078288,,,,0.473405,0.473233,4735777.000000,1673607313.183867
1673610897.078576,,,,0.445494,0.444769,4735778.000000,1673607313.184875
1673610897.078685,52.873413,3880279.000000,1673610897.024337,,,,
1673610897.078766,52.819138,3880280.000000,1673610897.025337,,,,
1673610897.078886,52.873413,3880281.000000,1673610897.026337,,,,
1673610897.078974,,,,0.445854,0.445467,4735779.000000,1673607313.185882
1673610897.079288,,,,0.455062,0.455756,4735780.000000,1673607313.186889
1673610897.079412,52.873413,3880282.000000,1673610897.027337,,,,
1673610897.079445,,,,0.465760,0.464891,4735781.000000,1673607313.187896
1673610897.079451,,,,0.487492,0.486961,4735782.000000,1673607313.188903
1673610897.079456,,,,0.543291,0.542230,4735783.000000,1673607313.189910
1673610897.079464,,,,0.601060,0.601081,4735784.000000,1673607313.190917
1673610897.079479,,,,0.652122,0.653922,4735785.000000,1673607313.191924
1673610897.079947,52.782959,3880283.000000,1673610897.028337,,,,
1673610897.079959,52.801048,3880284.000000,1673610897.029337,,,,
1673610897.080101,52.764870,3880285.000000,1673610897.030337,,,,
1673610897.080111,52.801048,3880286.000000,1673610897.031337,,,,
1673610897.080120,52.782959,3880287.000000,1673610897.032337,,,,
1673610897.080130,52.801048,3880288.000000,1673610897.033337,,,,
1673610897.080157,52.945770,3880323.000000,1673610897.068337,,,,
1673610897.080164,52.963856,3880324.000000,1673610897.069337,,,,
1673610897.080170,52.909592,3880325.000000,1673610897.070337,,,,
1673610897.080177,52.891502,3880326.000000,1673610897.071337,,,,
1673610897.080182,52.927681,3880327.000000,1673610897.072337,,,,
1673610897.080188,52.945770,3880328.000000,1673610897.073337,,,,
1673610897.080193,52.873413,3880329.000000,1673610897.074337,,,,
1673610897.080199,52.891502,3880330.000000,1673610897.075337,,,,
1673610897.080207,52.891502,3880331.000000,1673610897.076337,,,,
1673610897.080222,52.909592,3880332.000000,1673610897.077337,,,,
1673610897.080720,,,,0.706694,0.706787,4735786.000000,1673607313.192931
1673610897.080794,,,,0.740303,0.738184,4735787.000000,1673607313.193938
1673610897.080803,,,,0.734605,0.734506,4735788.000000,1673607313.194945
1673610897.083446,,,,0.689096,0.688516,4735789.000000,1673607313.195952
1673610897.083565,,,,0.628538,0.627357,4735790.000000,1673607313.196959
1673610897.083575,,,,0.561393,0.560813,4735791.000000,1673607313.197967
1673610897.083584,,,,0.532520,0.530738,4735792.000000,1673607313.198974
1673610897.083661,,,,0.557162,0.554635,4735793.000000,1673607313.199981
1673610897.083755,,,,0.580577,0.579084,4735794.000000,1673607313.200988
1673610897.083874,,,,0.589929,0.589157,4735795.000000,1673607313.201995
1673610897.088223,,,,0.598896,0.595456,4735796.000000,1673607313.203002
1673610897.088370,,,,0.596372,0.595960,4735797.000000,1673607313.204009
1673610897.088547,,,,0.584520,0.583748,4735798.000000,1673607313.205016
1673610897.091051,,,,0.568725,0.569348,4735799.000000,1673607313.206023
1673610897.091247,,,,0.584520,0.583748,4735800.000000,1673607313.207030
1673610897.091261,,,,0.558051,0.560092,4735801.000000,1673607313.208037
1673610897.091267,,,,0.547690,0.547471,4735802.000000,1673607313.209044
1673610897.091410,,,,0.536006,0.535643,4735803.000000,1673607313.210052
1673610897.091649,,,,0.528265,0.529945,4735804.000000,1673607313.211059
1673610897.091847,,,,0.522351,0.522420,4735805.000000,1673607313.212066
1673610897.092006,,,,0.515115,0.514751,4735806.000000,1673607313.213073
1673610897.098495,,,,0.529083,0.531123,4735807.000000,1673607313.214080
1673610897.098734,,,,0.549565,0.550307,4735808.000000,1673607313.215087
1673610897.098859,,,,0.565913,0.565982,4735809.000000,1673607313.216094
1673610897.098946,,,,0.585001,0.583676,4735810.000000,1673607313.217101
1673610897.099077,,,,0.606229,0.606298,4735811.000000,1673607313.218108
1673610897.099236,,,,0.618634,0.618438,4735812.000000,1673607313.219115
1673610897.099400,,,,0.628202,0.626853,4735813.000000,1673607313.220122
1673610897.103275,,,,0.623442,0.621756,4735814.000000,1673607313.221129
1673610897.103510,,,,0.608681,0.607500,4735815.000000,1673607313.222136
1673610897.103656,,,,0.580049,0.579036,4735816.000000,1673607313.223144
1673610897.105966,,,,0.568293,0.570958,4735817.000000,1673607313.224151
1673610897.105980,,,,0.570504,0.572208,4735818.000000,1673607313.225158
1673610897.106000,,,,0.553339,0.554851,4735819.000000,1673607313.226165
1673610897.111046,,,,0.513120,0.514174,4735820.000000,1673607313.227172
1673610897.111188,,,,0.487901,0.485182,4735821.000000,1673607313.228179
1673610897.111477,,,,0.461360,0.459771,4735822.000000,1673607313.229186
1673610897.111494,,,,0.435877,0.437052,4735823.000000,1673607313.230193
1673610897.113402,,,,0.428930,0.429215,4735824.000000,1673607313.231200
1673610897.113418,,,,0.436238,0.436740,4735825.000000,1673607313.232207
1673610897.113448,,,,0.447201,0.448303,4735826.000000,1673607313.233214
1673610897.127609,,,,0.480232,0.479845,4735827.000000,1673607313.234221
1673610897.128032,,,,0.539973,0.540739,4735828.000000,1673607313.235229
1673610897.128368,,,,0.604931,0.606899,4735829.000000,1673607313.236236
1673610897.128705,,,,0.662556,0.662264,4735830.000000,1673607313.237243
1673610897.128723,,,,0.700997,0.702845,4735831.000000,1673607313.238250
1673610897.135186,,,,0.707151,0.708662,4735832.000000,1673607313.239257
1673610897.135388,,,,0.701814,0.701282,4735833.000000,1673607313.240264
1673610897.135584,,,,0.690827,0.687747,4735834.000000,1673607313.241271
1673610897.135959,,,,0.661738,0.662216,4735835.000000,1673607313.242278
1673610897.136243,,,,0.633755,0.637454,4735836.000000,1673607313.243285
1673610897.136265,,,,0.626976,0.625963,4735837.000000,1673607313.244292
1673610897.145802,52.656326,3880384.000000,1673610897.134521,,,,
1673610897.145815,52.656326,3880385.000000,1673610897.135521,,,,
1673610897.145821,52.638237,3880386.000000,1673610897.136521,,,,
1673610897.145855,52.620148,3880387.000000,1673610897.137521,,,,
1673610897.145858,52.620148,3880388.000000,1673610897.138520,,,,
1673610897.145875,52.583961,3880389.000000,1673610897.139521,,,,
1673610897.145882,52.565872,3880390.000000,1673610897.140521,,,,
1673610897.145889,52.529694,3880391.000000,1673610897.141521,,,,
1673610897.145892,52.602058,3880392.000000,1673610897.142521,,,,
1673610897.145897,52.583961,3880393.000000,1673610897.143521,,,,
1673610897.158399,,,,0.633322,0.633656,4735838.000000,1673607313.245299
1673610897.158579,,,,0.625726,0.628271,4735839.000000,1673607313.246306
1673610897.158798,,,,0.614619,0.612284,4735840.000000,1673607313.247313
1673610897.158890,,,,0.605940,0.605937,4735841.000000,1673607313.248321
1673610897.159039,,,,0.600315,0.600889,4735842.000000,1673607313.249328
1673610897.163601,,,,0.585914,0.586440,4735843.000000,1673607313.250335
1673610897.164357,,,,0.571298,0.570165,4735844.000000,1673607313.251342
1673610897.164823,,,,0.559662,0.559852,4735845.000000,1673607313.252349
1673610897.164845,,,,0.535117,0.534705,4735846.000000,1673607313.253356
1673610897.165113,,,,0.520596,0.517829,4735847.000000,1673607313.254363
1673610897.165743,,,,0.515692,0.514944,4735848.000000,1673607313.255370
1673610897.166256,,,,0.517856,0.519295,4735849.000000,1673607313.256377
1673610897.166426,,,,0.522327,0.524079,4735850.000000,1673607313.257384
1673610897.166771,,,,0.535045,0.536676,4735851.000000,1673607313.258391
