__time,/gdx/grip_force_stream/grip_force,/gdx/grip_force_stream/header/seq,/gdx/grip_force_stream/header/stamp,/shimmer0/emg_stream/emg_ch1,/shimmer0/emg_stream/emg_ch2,/shimmer0/emg_stream/header/seq,/shimmer0/emg_stream/header/stamp
1673610971.611587,,,,0.259396,0.256099,4809625.000000,1673606875.735991
1673610971.611600,,,,0.266175,0.264946,4809626.000000,1673606875.736999
1673610971.618242,,,,0.269565,0.268312,4809627.000000,1673606875.738006
1673610971.618353,,,,0.266896,0.269562,4809628.000000,1673606875.739013
1673610971.618367,,,,0.265214,0.267567,4809629.000000,1673606875.740020
1673610971.618456,,,,0.256487,0.257974,4809630.000000,1673606875.741027
1673610971.618723,1.678355,3954848.000000,1673610971.590386,,,,
1673610971.619084,1.714541,3954849.000000,1673610971.591386,,,,
1673610971.619097,1.678355,3954850.000000,1673610971.592386,,,,
1673610971.619508,1.660266,3954851.000000,1673610971.593386,,,,
1673610971.619523,1.732630,3954852.000000,1673610971.594386,,,,
1673610971.619538,1.732630,3954853.000000,1673610971.595387,,,,
1673610971.619552,1.768808,3954854.000000,1673610971.596386,,,,
1673610971.619568,1.732630,3954855.000000,1673610971.597386,,,,
1673610971.619578,1.696444,3954856.000000,1673610971.598387,,,,
1673610971.619589,1.696444,3954865.000000,1673610971.607386,,,,
1673610971.619626,1.696444,3954866.000000,1673610971.608387,,,,
1673610971.619632,1.660266,3954867.000000,1673610971.609386,,,,
1673610971.619638,1.660266,3954868.000000,1673610971.610386,,,,
1673610971.619645,1.660266,3954869.000000,1673610971.611386,,,,
1673610971.619684,1.696444,3954870.000000,1673610971.612386,,,,
1673610971.619698,1.660266,3954871.000000,1673610971.613386,,,,
1673610971.619707,1.696444,3954872.000000,1673610971.614386,,,,
1673610971.619716,1.678355,3954873.000000,1673610971.615386,,,,
1673610971.619732,1.696444,3954874.000000,1673610971.616386,,,,
1673610971.624123,,,,0.242832,0.242324,4809631.000000,1673606875.742034
1673610971.624421,,,,0.221508,0.222875,4809632.000000,1673606875.743041
1673610971.624707,,,,0.203598,0.204027,4809633.000000,1673606875.744048
1673610971.624947,,,,0.195448,0.197152,4809634.000000,1673606875.745055
1673610971.626453,,,,0.187635,0.188305,4809635.000000,1673606875.746062
1673610971.626608,,,,0.182514,0.181742,4809636.000000,1673606875.747069
1673610971.626783,,,,0.181120,0.182078,4809637.000000,1673606875.748076
1673610971.631755,,,,0.189630,0.190180,4809638.000000,1673606875.749084
1673610971.631951,,,,0.197467,0.198522,4809639.000000,1673606875.750091
1673610971.632132,,,,0.205641,0.209340,4809640.000000,1673606875.751098
1673610971.632357,,,,0.218455,0.220087,4809641.000000,1673606875.752105
1673610971.632542,,,,0.232326,0.230568,4809642.000000,1673606875.753112
1673610971.632755,,,,0.241990,0.239680,4809643.000000,1673606875.754119
1673610971.632925,,,,0.246678,0.246195,4809644.000000,1673606875.755126
1673610971.634450,,,,0.254828,0.257662,4809645.000000,1673606875.756133
1673610971.634718,,,,0.265190,0.264874,4809646.000000,1673606875.757140
1673610971.634856,,,,0.262497,0.262109,4809647.000000,1673606875.758147
1673610971.635041,,,,0.258170,0.259994,4809648.000000,1673606875.759154
1673610971.635140,,,,0.257545,0.256893,4809649.000000,1673606875.760161
1673610971.635156,,,,0.250885,0.249488,4809650.000000,1673606875.761168
1673610971.635174,,,,0.236125,0.235785,4809651.000000,1673606875.762176
1673610971.639553,,,,0.223744,0.225832,4809652.000000,1673606875.763183
1673610971.639690,,,,0.213743,0.215134,4809653.000000,1673606875.764190
1673610971.639699,,,,0.205665,0.204051,4809654.000000,1673606875.765197
1673610971.639976,,,,0.197636,0.195830,4809655.000000,1673606875.766204
1673610971.640322,,,,0.191529,0.191623,4809656.000000,1673606875.767211
1673610971.640555,,,,0.191505,0.191791,4809657.000000,1673606875.768218
1673610971.640632,,,,0.193741,0.195108,4809658.000000,1673606875.769225
1673610971.641344,,,,0.195760,0.197200,4809659.000000,1673606875.770232
1673610971.641553,,,,0.203045,0.203955,4809660.000000,1673606875.771239
1673610971.641784,,,,0.213454,0.213956,4809661.000000,1673606875.772246
1673610971.646882,,,,0.228672,0.232900,4809662.000000,1673606875.773253
1673610971.646932,,,,0.242712,0.245089,4809663.000000,1673606875.774261
1673610971.646937,,,,0.256463,0.254897,4809664.000000,1673606875.775268
1673610971.647019,,,,0.262569,0.261460,4809665.000000,1673606875.776275
1673610971.647238,,,,0.263891,0.268769,4809666.000000,1673606875.777282
1673610971.648800,,,,0.265935,0.267014,4809667.000000,1673606875.778289
1673610971.648812,,,,0.264036,0.262422,4809668.000000,1673606875.779296
1673610971.654083,,,,0.259612,0.256099,4809669.000000,1673606875.780303
1673610971.654849,,,,0.246991,0.246988,4809670.000000,1673606875.781310
1673610971.654873,,,,0.235475,0.237877,4809671.000000,1673606875.782317
1673610971.654883,,,,0.222397,0.221817,4809672.000000,1673606875.783324
1673610971.657003,,,,0.206074,0.205061,4809673.000000,1673606875.784331
1673610971.657404,,,,0.192082,0.191815,4809674.000000,1673606875.785338
1673610971.657573,,,,0.177297,0.179194,4809675.000000,1673606875.786345
1673610971.673755,,,,0.170277,0.169577,4809676.000000,1673606875.787353
1673610971.674550,,,,0.168667,0.169505,4809677.000000,1673606875.788360
1673610971.674590,,,,0.175350,0.176549,4809678.000000,1673606875.789367
1673610971.674747,,,,0.186216,0.186502,4809679.000000,1673606875.790374
1673610971.675765,,,,0.198669,0.199989,4809680.000000,1673606875.791381
1673610971.675796,,,,0.216964,0.216264,4809681.000000,1673606875.792388
1673610971.676835,,,,0.236245,0.235737,4809682.000000,1673606875.793395
1673610971.681352,,,,0.251751,0.252806,4809683.000000,1673606875.794402
1673610971.681489,,,,0.261896,0.261677,4809684.000000,1673606875.795409
1673610971.681924,,,,0.266247,0.264802,4809685.000000,1673606875.796416
1673610971.681931,,,,0.268219,0.269249,4809686.000000,1673606875.797423
1673610971.681940,,,,0.268699,0.269923,4809687.000000,1673606875.798430
1673610971.682009,,,,0.267017,0.269706,4809688.000000,1673606875.799438
1673610971.682013,,,,0.263435,0.266268,4809689.000000,1673606875.800445
1673610971.682020,,,,0.254227,0.255883,4809690.000000,1673606875.801452
1673610971.683205,1.678355,3954926.000000,1673610971.672986,,,,
1673610971.683215,1.678355,3954927.000000,1673610971.673986,,,,
1673610971.683221,1.696444,3954928.000000,1673610971.674986,,,,
1673610971.683226,1.696444,3954929.000000,1673610971.675986,,,,
1673610971.683240,1.696444,3954930.000000,1673610971.676986,,,,
1673610971.683246,1.732630,3954931.000000,1673610971.677986,,,,
1673610971.683254,1.696444,3954932.000000,1673610971.678986,,,,
1673610971.683260,1.750719,3954933.000000,1673610971.679986,,,,
1673610971.683271,1.714541,3954934.000000,1673610971.680986,,,,
1673610971.683274,1.732630,3954935.000000,1673610971.681986,,,,
1673610971.683946,,,,0.242207,0.241603,4809691.000000,1673606875.802459
1673610971.683998,,,,0.226941,0.227395,4809692.000000,1673606875.803466
1673610971.684134,,,,0.212877,0.212321,4809693.000000,1673606875.804473
1673610971.688460,,,,0.202203,0.200686,4809694.000000,1673606875.805480
1673610971.688596,,,,0.191553,0.190324,4809695.000000,1673606875.806487
1673610971.688865,,,,0.190544,0.189699,4809696.000000,1673606875.807494
1673610971.688877,,,,0.187683,0.186911,4809697.000000,1673606875.808501
1673610971.691826,,,,0.186096,0.185348,4809698.000000,1673606875.809508
1673610971.691837,,,,0.190087,0.191022,4809699.000000,1673606875.810515
1673610971.691845,,,,0.201386,0.204989,4809700.000000,1673606875.811522
1673610971.696049,,,,0.217734,0.219317,4809701.000000,1673606875.812530
1673610971.696062,,,,0.232182,0.232299,4809702.000000,1673606875.813537
1673610971.696211,,,,0.238865,0.241603,4809703.000000,1673606875.814544
1673610971.696305,,,,0.247448,0.248454,4809704.000000,1673606875.815551
1673610971.696436,,,,0.259059,0.258503,4809705.000000,1673606875.816558
1673610971.696610,,,,0.262233,0.262109,4809706.000000,1673606875.817565
1673610971.696622,,,,0.260694,0.259946,4809707.000000,1673606875.818572
1673610971.696628,,,,0.261271,0.259032,4809708.000000,1673606875.819579
1673610971.700103,,,,0.261463,0.259922,4809709.000000,1673606875.820586
1673610971.700457,,,,0.247472,0.248118,4809710.000000,1673606875.821593
1673610971.700475,,,,0.229273,0.228260,4809711.000000,1673606875.822600
1673610971.700520,,,,0.209560,0.211095,4809712.000000,1673606875.823607
1673610971.700781,,,,0.196578,0.194820,4809713.000000,1673606875.824615
1673610971.701151,,,,0.187659,0.187872,4809714.000000,1673606875.825622
1673610971.701880,,,,0.184005,0.183641,4809715.000000,1673606875.826629
1673610971.702039,,,,0.189943,0.189050,4809716.000000,1673606875.827636
1673610971.702570,,,,0.200761,0.200518,4809717.000000,1673606875.828643
1673610971.702930,,,,0.200088,0.200397,4809718.000000,1673606875.829650
1673610971.706813,,,,0.193597,0.194315,4809719.000000,1673606875.830657
1673610971.707382,,,,0.208334,0.207994,4809720.000000,1673606875.831664
1673610971.707545,,,,0.224513,0.224029,4809721.000000,1673606875.832671
1673610971.707623,,,,0.235019,0.235040,4809722.000000,1673606875.833678
1673610971.708875,,,,0.244779,0.244848,4809723.000000,1673606875.834685
1673610971.709247,,,,0.252232,0.250931,4809724.000000,1673606875.835692
1673610971.709284,,,,0.260622,0.258359,4809725.000000,1673606875.836699
1673610971.714076,,,,0.264300,0.263504,4809726.000000,1673606875.837707
1673610971.714368,,,,0.266656,0.266316,4809727.000000,1673606875.838714
1673610971.714638,,,,0.264180,0.265595,4809728.000000,1673606875.839721
1673610971.714945,,,,0.258001,0.260210,4809729.000000,1673606875.840728
1673610971.716824,,,,0.248049,0.249200,4809730.000000,1673606875.841735
1673610971.716838,,,,0.236990,0.239030,4809731.000000,1673606875.842742
1673610971.716857,,,,0.224465,0.222971,4809732.000000,1673606875.843749
1673610971.716878,,,,0.211363,0.210014,4809733.000000,1673606875.844756
1673610971.730445,,,,0.198958,0.196238,4809734.000000,1673606875.845763
1673610971.730606,,,,0.190568,0.188810,4809735.000000,1673606875.846770
1673610971.730710,,,,0.182394,0.181934,4809736.000000,1673606875.847777
1673610971.738436,,,,0.181048,0.179626,4809737.000000,1673606875.848784
1673610971.738593,,,,0.183524,0.184146,4809738.000000,1673606875.849792
1673610971.738988,,,,0.188813,0.190469,4809739.000000,1673606875.850799
1673610971.739186,,,,0.199102,0.201744,4809740.000000,1673606875.851806
1673610971.739201,,,,0.211074,0.213019,4809741.000000,1673606875.852813
1673610971.739208,,,,0.220258,0.224678,4809742.000000,1673606875.853820
1673610971.739431,,,,0.231485,0.231217,4809743.000000,1673606875.854827
1673610971.739666,,,,0.241942,0.241531,4809744.000000,1673606875.855834
1673610971.744444,,,,0.252640,0.250931,4809745.000000,1673606875.856841
1673610971.744695,,,,0.260045,0.259753,4809746.000000,1673606875.857848
1673610971.744842,,,,0.255838,0.255618,4809747.000000,1673606875.858855
1673610971.745174,,,,0.250140,0.250762,4809748.000000,1673606875.859862
1673610971.745361,,,,0.240933,0.243334,4809749.000000,1673606875.860869
1673610971.745457,,,,0.231172,0.231265,4809750.000000,1673606875.861876
1673610971.746394,,,,0.213863,0.214701,4809751.000000,1673606875.862884
1673610971.747143,,,,0.200136,0.201768,4809752.000000,1673606875.863891
1673610971.747230,,,,0.192058,0.190276,4809753.000000,1673606875.864898
1673610971.747240,,,,0.182178,0.180828,4809754.000000,1673606875.865905
1673610971.748997,1.841164,3954987.000000,1673610971.737203,,,,
1673610971.749012,1.913529,3954988.000000,1673610971.738203,,,,
1673610971.749130,1.877351,3954989.000000,1673610971.739203,,,,
1673610971.749148,1.877351,3954990.000000,1673610971.740203,,,,
1673610971.749159,1.859262,3954991.000000,1673610971.741203,,,,
1673610971.749166,1.823075,3954992.000000,1673610971.742203,,,,
1673610971.749172,1.895440,3954993.000000,1673610971.743203,,,,
1673610971.749183,1.877351,3954994.000000,1673610971.744203,,,,
1673610971.749192,1.823075,3954995.000000,1673610971.745203,,,,
1673610971.749210,1.913529,3954996.000000,1673610971.746203,,,,
1673610971.752210,,,,0.177009,0.174962,4809755.000000,1673606875.866912
1673610971.752544,,,,0.179269,0.175515,4809756.000000,1673606875.867919
1673610971.752556,,,,0.181601,0.184002,4809757.000000,1673606875.868926
1673610971.752738,,,,0.186168,0.187103,4809758.000000,1673606875.869933
1673610971.752846,,,,0.200040,0.195830,4809759.000000,1673606875.870940
1673610971.753182,,,,0.215810,0.213764,4809760.000000,1673606875.871947
1673610971.753318,,,,0.227470,0.228020,4809761.000000,1673606875.872954
1673610971.753336,,,,0.235451,0.234775,4809762.000000,1673606875.873961
1673610971.753420,,,,0.242808,0.244968,4809763.000000,1673606875.874969
1673610971.753505,,,,0.256463,0.253984,4809764.000000,1673606875.875976
1673610971.754113,,,,0.262209,0.260523,4809765.000000,1673606875.876983
1673610971.754123,,,,0.262064,0.261316,4809766.000000,1673606875.877990
1673610971.754216,,,,0.260285,0.259705,4809767.000000,1673606875.878997
1673610971.754230,,,,0.252929,0.253166,4809768.000000,1673606875.880004
1673610971.754260,,,,0.242952,0.242805,4809769.000000,1673606875.881011
1673610971.758966,,,,0.229610,0.231169,4809770.000000,1673606875.882018
1673610971.759216,,,,0.215426,0.215711,4809771.000000,1673606875.883025
1673610971.761626,,,,0.202107,0.203739,4809772.000000,1673606875.884032
1673610971.761648,,,,0.194919,0.198017,4809773.000000,1673606875.885039
1673610971.762088,,,,0.182154,0.184122,4809774.000000,1673606875.886046
1673610971.762168,,,,0.179870,0.177487,4809775.000000,1673606875.887053
1673610971.766601,,,,0.179221,0.176982,4809776.000000,1673606875.888061
1673610971.766613,,,,0.181432,0.181021,4809777.000000,1673606875.889068
1673610971.766749,,,,0.188404,0.186213,4809778.000000,1673606875.890075
1673610971.766808,,,,0.200857,0.198690,4809779.000000,1673606875.891082
1673610971.768846,,,,0.216099,0.212442,4809780.000000,1673606875.892089
1673610971.768950,,,,0.226677,0.224366,4809781.000000,1673606875.893096
1673610971.769126,,,,0.237928,0.237251,4809782.000000,1673606875.894103
1673610971.774481,,,,0.251438,0.251147,4809783.000000,1673606875.895110
1673610971.774612,,,,0.260502,0.260619,4809784.000000,1673606875.896117
1673610971.774617,,,,0.265166,0.264874,4809785.000000,1673606875.897124
1673610971.774804,,,,0.265262,0.264297,4809786.000000,1673606875.898131
1673610971.774853,,,,0.262425,0.260499,4809787.000000,1673606875.899138
1673610971.775095,,,,0.254996,0.255691,4809788.000000,1673606875.900146
1673610971.775170,,,,0.243505,0.243766,4809789.000000,1673606875.901153
1673610971.775178,,,,0.234201,0.233357,4809790.000000,1673606875.902160
1673610971.776321,,,,0.223696,0.222106,4809791.000000,1673606875.903167
1673610971.776465,,,,0.211291,0.210182,4809792.000000,1673606875.904174
1673610971.776484,,,,0.202011,0.199796,4809793.000000,1673606875.905181
1673610971.776625,,,,0.192683,0.190324,4809794.000000,1673606875.906188
1673610971.790540,,,,0.187178,0.186862,4809795.000000,1673606875.907195
1673610971.791100,,,,0.182370,0.182896,4809796.000000,1673606875.908202
1673610971.798278,,,,0.185687,0.185973,4809797.000000,1673606875.909209
1673610971.798290,,,,0.190808,0.192560,4809798.000000,1673606875.910216
1673610971.798426,,,,0.195135,0.194676,4809799.000000,1673606875.911223
1673610971.798578,,,,0.196530,0.197753,4809800.000000,1673606875.912230
1673610971.798771,,,,0.201963,0.203330,4809801.000000,1673606875.913238
1673610971.798937,,,,0.216940,0.215952,4809802.000000,1673606875.914245
1673610971.799085,,,,0.231893,0.233790,4809803.000000,1673606875.915252
1673610971.803596,1.931618,3955048.000000,1673610971.792057,,,,
1673610971.803625,1.877351,3955049.000000,1673610971.793057,,,,
1673610971.803634,1.913529,3955050.000000,1673610971.794057,,,,
1673610971.803641,1.913529,3955051.000000,1673610971.795057,,,,
1673610971.803682,1.931618,3955052.000000,1673610971.796057,,,,
1673610971.803694,1.931618,3955053.000000,1673610971.797057,,,,
1673610971.803711,1.949707,3955054.000000,1673610971.798057,,,,
1673610971.803719,1.949707,3955055.000000,1673610971.799057,,,,
1673610971.803841,1.931618,3955056.000000,1673610971.800057,,,,
1673610971.803852,1.913529,3955057.000000,1673610971.801057,,,,
1673610971.804414,,,,0.247977,0.251171,4809804.000000,1673606875.916259
1673610971.804818,,,,0.262449,0.264393,4809805.000000,1673606875.917266
1673610971.804834,,,,0.266368,0.264802,4809806.000000,1673606875.918273
1673610971.805070,,,,0.263266,0.263864,4809807.000000,1673606875.919280
1673610971.805407,,,,0.257545,0.259513,4809808.000000,1673606875.920287
1673610971.806527,,,,0.252328,0.254080,4809809.000000,1673606875.921294
1673610971.806607,,,,0.245789,0.245473,4809810.000000,1673606875.922301
1673610971.806614,,,,0.236846,0.238550,4809811.000000,1673606875.923308
1673610971.811795,,,,0.226725,0.228693,4809812.000000,1673606875.924315
1673610971.811918,,,,0.212517,0.214269,4809813.000000,1673606875.925323
1673610971.812230,,,,0.204944,0.203691,4809814.000000,1673606875.926330
1673610971.812360,,,,0.194751,0.193786,4809815.000000,1673606875.927337
1673610971.812368,,,,0.190183,0.188257,4809816.000000,1673606875.928344
1673610971.812554,,,,0.189270,0.187079,4809817.000000,1673606875.929351
1673610971.812562,,,,0.191505,0.191358,4809818.000000,1673606875.930358
1673610971.814285,,,,0.202588,0.201599,4809819.000000,1673606875.931365
1673610971.814498,,,,0.215858,0.212802,4809820.000000,1673606875.932372
1673610971.814947,,,,0.228720,0.227323,4809821.000000,1673606875.933379
1673610971.814956,,,,0.237182,0.237348,4809822.000000,1673606875.934386
1673610971.814970,,,,0.248866,0.249849,4809823.000000,1673606875.935393
1673610971.815102,,,,0.258314,0.257854,4809824.000000,1673606875.936400
1673610971.815297,,,,0.262088,0.262662,4809825.000000,1673606875.937407
1673610971.815418,,,,0.258963,0.260018,4809826.000000,1673606875.938415
1673610971.818955,,,,0.258458,0.258984,4809827.000000,1673606875.939422
1673610971.819002,,,,0.253818,0.255546,4809828.000000,1673606875.940429
1673610971.821308,,,,0.241894,0.242661,4809829.000000,1673606875.941436
1673610971.821544,,,,0.228047,0.228284,4809830.000000,1673606875.942443
1673610971.821556,,,,0.213815,0.214894,4809831.000000,1673606875.943450
1673610971.821559,,,,0.205353,0.206552,4809832.000000,1673606875.944457
1673610971.826529,,,,0.199318,0.199291,4809833.000000,1673606875.945464
1673610971.826737,,,,0.194102,0.194435,4809834.000000,1673606875.946471
1673610971.826794,,,,0.185086,0.185949,4809835.000000,1673606875.947478
1673610971.826902,,,,0.181120,0.181261,4809836.000000,1673606875.948485
1673610971.828840,,,,0.186048,0.186310,4809837.000000,1673606875.949492
1673610971.828942,,,,0.191097,0.191719,4809838.000000,1673606875.950500
1673610971.829242,,,,0.202468,0.203138,4809839.000000,1673606875.951507
1673610971.829248,,,,0.218503,0.219558,4809840.000000,1673606875.952514
1673610971.833903,,,,0.235115,0.236073,4809841.000000,1673606875.953521
1673610971.834086,,,,0.242351,0.240713,4809842.000000,1673606875.954528
1673610971.836685,,,,0.244443,0.245930,4809843.000000,1673606875.955535
1673610971.836839,,,,0.256703,0.258888,4809844.000000,1673606875.956542
1673610971.837104,,,,0.264901,0.265427,4809845.000000,1673606875.957549
1673610971.837203,,,,0.261055,0.261701,4809846.000000,1673606875.958556
1673610971.837371,,,,0.251991,0.253671,4809847.000000,1673606875.959563
1673610971.837378,,,,0.243793,0.245161,4809848.000000,1673606875.960570
1673610971.837392,,,,0.237976,0.236073,4809849.000000,1673606875.961577
1673610971.837438,,,,0.230932,0.232491,4809850.000000,1673606875.962584
1673610971.850313,,,,0.214464,0.217827,4809851.000000,1673606875.963592
1673610971.850950,,,,0.196698,0.199364,4809852.000000,1673606875.964599
1673610971.850970,,,,0.186938,0.188401,4809853.000000,1673606875.965606
1673610971.857705,,,,0.183764,0.183401,4809854.000000,1673606875.966613
1673610971.857921,,,,0.183548,0.184146,4809855.000000,1673606875.967620
1673610971.858044,,,,0.181384,0.180924,4809856.000000,1673606875.968627
1673610971.858169,,,,0.183788,0.183881,4809857.000000,1673606875.969634
1673610971.864792,,,,0.188861,0.188185,4809858.000000,1673606875.970641
1673610971.864804,,,,0.198453,0.199892,4809859.000000,1673606875.971648
1673610971.864815,,,,0.211291,0.211432,4809860.000000,1673606875.972655
1673610971.864824,,,,0.223960,0.223933,4809861.000000,1673606875.973662
1673610971.864829,,,,0.233937,0.234270,4809862.000000,1673606875.974669
1673610971.864886,,,,0.241101,0.242204,4809863.000000,1673606875.975677
1673610971.864892,,,,0.249948,0.253335,4809864.000000,1673606875.976684
1673610971.867064,,,,0.255790,0.256195,4809865.000000,1673606875.977691
1673610971.867729,1.949707,3955060.000000,1673610971.808280,,,,
1673610971.867801,1.913529,3955061.000000,1673610971.809280,,,,
1673610971.868003,1.877351,3955062.000000,1673610971.810280,,,,
1673610971.868040,,,,0.253987,0.254176,4809866.000000,1673606875.978698
1673610971.868189,,,,0.252039,0.252469,4809867.000000,1673606875.979705
1673610971.868208,,,,0.247592,0.247228,4809868.000000,1673606875.980712
1673610971.868302,,,,0.238384,0.238189,4809869.000000,1673606875.981719
1673610971.868388,,,,0.223527,0.224606,4809870.000000,1673606875.982726
1673610971.868638,1.913529,3955063.000000,1673610971.811280,,,,
1673610971.868660,1.913529,3955064.000000,1673610971.812280,,,,
1673610971.868683,,,,0.211098,0.210062,4809871.000000,1673606875.983733
1673610971.868694,1.931618,3955065.000000,1673610971.813280,,,,
1673610971.868701,,,,0.200665,0.203210,4809872.000000,1673606875.984740
1673610971.869989,1.931618,3955066.000000,1673610971.814280,,,,
1673610971.870016,1.967796,3955067.000000,1673610971.815280,,,,
1673610971.870027,1.949707,3955068.000000,1673610971.816280,,,,
1673610971.870083,1.949707,3955069.000000,1673610971.817280,,,,
1673610971.870094,2.130614,3955109.000000,1673610971.857280,,,,
1673610971.870103,2.202970,3955110.000000,1673610971.858280,,,,
1673610971.870116,2.166792,3955111.000000,1673610971.859280,,,,
1673610971.870173,2.166792,3955112.000000,1673610971.860280,,,,
1673610971.870183,2.202970,3955113.000000,1673610971.861280,,,,
1673610971.870199,2.202970,3955114.000000,1673610971.862280,,,,
1673610971.870209,2.221059,3955115.000000,1673610971.863280,,,,
1673610971.870217,2.239148,3955116.000000,1673610971.864280,,,,
1673610971.870245,2.221059,3955117.000000,1673610971.865280,,,,
1673610971.870253,2.202970,3955118.000000,1673610971.866280,,,,
1673610971.871638,,,,0.191577,0.191574,4809873.000000,1673606875.985747
1673610971.872099,,,,0.175062,0.176789,4809874.000000,1673606875.986754
1673610971.872123,,,,0.166575,0.168592,4809875.000000,1673606875.987761
1673610971.874184,,,,0.165806,0.167702,4809876.000000,1673606875.988769
1673610971.874396,,,,0.171023,0.171573,4809877.000000,1673606875.989776
1673610971.874516,,,,0.177442,0.178641,4809878.000000,1673606875.990783
1673610971.874665,,,,0.187923,0.188233,4809879.000000,1673606875.991790
1673610971.874753,,,,0.194679,0.193522,4809880.000000,1673606875.992797
1673610971.874932,,,,0.203670,0.202657,4809881.000000,1673606875.993804
1673610971.875051,,,,0.211219,0.213091,4809882.000000,1673606875.994811
1673610971.878960,,,,0.216964,0.217442,4809883.000000,1673606875.995818
1673610971.879191,,,,0.228600,0.229462,4809884.000000,1673606875.996825
1673610971.879240,,,,0.244034,0.245041,4809885.000000,1673606875.997832
1673610971.881384,,,,0.253554,0.251459,4809886.000000,1673606875.998839
1673610971.881533,,,,0.255189,0.252661,4809887.000000,1673606875.999846
1673610971.881782,,,,0.254852,0.253503,4809888.000000,1673606876.000854
1673610971.881805,,,,0.245404,0.247373,4809889.000000,1673606876.001861
1673610971.886609,,,,0.231797,0.232227,4809890.000000,1673606876.002868
1673610971.886930,,,,0.215930,0.216673,4809891.000000,1673606876.003875
1673610971.887530,,,,0.198453,0.202753,4809892.000000,1673606876.004882
1673610971.887601,,,,0.189462,0.191310,4809893.000000,1673606876.005889
1673610971.890116,,,,0.181528,0.180612,4809894.000000,1673606876.006896
1673610971.890143,,,,0.173667,0.173159,4809895.000000,1673606876.007903
1673610971.890154,,,,0.170422,0.172967,4809896.000000,1673606876.008910
1673610971.890180,,,,0.173836,0.174914,4809897.000000,1673606876.009917
1673610971.894810,,,,0.174605,0.176429,4809898.000000,1673606876.010924
1673610971.895245,,,,0.182105,0.180275,4809899.000000,1673606876.011931
1673610971.895264,,,,0.192828,0.190877,4809900.000000,1673606876.012938
1673610971.895609,,,,0.222181,0.222202,4809901.000000,1673606876.013946
1673610971.895679,,,,0.231605,0.230664,4809902.000000,1673606876.014953
1673610971.895870,,,,0.237014,0.235136,4809903.000000,1673606876.015960
1673610971.896028,,,,0.236100,0.235953,4809904.000000,1673606876.016967
1673610971.896224,,,,0.234898,0.236650,4809905.000000,1673606876.017974
1673610971.896502,,,,0.228672,0.230256,4809906.000000,1673606876.018981
1673610971.896793,,,,0.224224,0.226337,4809907.000000,1673606876.019988
1673610971.896888,,,,0.221700,0.223092,4809908.000000,1673606876.020995
1673610971.896899,,,,0.216507,0.216721,4809909.000000,1673606876.022002
1673610971.896907,,,,0.206675,0.205614,4809910.000000,1673606876.023009
1673610971.910520,,,,0.197179,0.194796,4809911.000000,1673606876.024016
1673610971.910538,,,,0.185687,0.185252,4809912.000000,1673606876.025023
1673610971.910546,,,,0.173908,0.173712,4809913.000000,1673606876.026031
1673610971.910551,,,,0.169460,0.168279,4809914.000000,1673606876.027038
1673610971.918581,,,,0.167008,0.166572,4809915.000000,1673606876.028045
1673610971.918779,,,,0.168474,0.168904,4809916.000000,1673606876.029052
1673610971.918791,,,,0.175783,0.175011,4809917.000000,1673606876.030059
1673610971.918981,,,,0.186457,0.184843,4809918.000000,1673606876.031066
1673610971.919108,,,,0.194318,0.193810,4809919.000000,1673606876.032073
1673610971.919227,,,,0.202275,0.201696,4809920.000000,1673606876.033080
1673610971.919427,,,,0.206194,0.206359,4809921.000000,1673606876.034087
1673610971.919462,,,,0.217685,0.217682,4809922.000000,1673606876.035094
1673610971.919568,,,,0.231677,0.229943,4809923.000000,1673606876.036101
1673610971.919703,,,,0.242976,0.240593,4809924.000000,1673606876.037108
1673610971.922943,2.239148,3955119.000000,1673610971.862035,,,,
1673610971.923801,2.166792,3955120.000000,1673610971.863035,,,,
1673610971.923823,2.239148,3955121.000000,1673610971.864035,,,,
1673610971.924153,2.202970,3955122.000000,1673610971.865035,,,,
1673610971.924176,,,,0.251583,0.250281,4809925.000000,1673606876.038116
1673610971.924430,2.239148,3955123.000000,1673610971.866035,,,,
1673610971.924523,,,,0.258651,0.259489,4809926.000000,1673606876.039123
1673610971.924870,,,,0.253049,0.251748,4809927.000000,1673606876.040130
1673610971.924984,,,,0.233769,0.231794,4809928.000000,1673606876.041137
1673610971.925689,2.257237,3955124.000000,1673610971.867035,,,,
1673610971.925735,2.275335,3955125.000000,1673610971.868035,,,,
1673610971.925757,2.275335,3955126.000000,1673610971.869035,,,,
1673610971.925783,2.365780,3955127.000000,1673610971.870035,,,,
1673610971.925794,2.799942,3955170.000000,1673610971.913035,,,,
1673610971.925809,2.836128,3955171.000000,1673610971.914035,,,,
1673610971.925823,2.854218,3955172.000000,1673610971.915035,,,,
1673610971.925833,2.854218,3955173.000000,1673610971.916035,,,,
1673610971.925840,2.890396,3955174.000000,1673610971.917035,,,,
1673610971.925853,2.908485,3955175.000000,1673610971.918035,,,,
1673610971.925871,2.980849,3955176.000000,1673610971.919035,,,,
1673610971.925879,2.944663,3955177.000000,1673610971.920035,,,,
1673610971.925886,3.017027,3955178.000000,1673610971.921035,,,,
1673610971.925910,3.017027,3955179.000000,1673610971.922035,,,,
1673610971.926735,,,,0.223119,0.222010,4809929.000000,1673606876.042144
1673610971.926974,,,,0.212661,0.212514,4809930.000000,1673606876.043151
1673610971.927116,,,,0.197107,0.195421,4809931.000000,1673606876.044158
1673610971.927306,,,,0.182033,0.181886,4809932.000000,1673606876.045165
1673610971.927397,,,,0.170013,0.170347,4809933.000000,1673606876.046172
1673610971.927513,,,,0.163378,0.158206,4809934.000000,1673606876.047179
1673610971.927522,,,,0.159051,0.157341,4809935.000000,1673606876.048186
1673610971.931751,,,,0.158450,0.159072,4809936.000000,1673606876.049193
1673610971.932121,,,,0.163642,0.162630,4809937.000000,1673606876.050200
1673610971.932130,,,,0.177610,0.180949,4809938.000000,1673606876.051208
1673610971.932160,,,,0.195424,0.198089,4809939.000000,1673606876.052215
1673610971.932438,,,,0.212084,0.213499,4809940.000000,1673606876.053222
1673610971.932497,,,,0.221147,0.222274,4809941.000000,1673606876.054229
1673610971.932509,,,,0.235427,0.235785,4809942.000000,1673606876.055236
1673610971.936483,,,,0.248121,0.248695,4809943.000000,1673606876.056243
1673610971.936629,,,,0.254299,0.254344,4809944.000000,1673606876.057250
1673610971.936754,,,,0.252688,0.254705,4809945.000000,1673606876.058257
1673610971.936869,,,,0.256631,0.256869,4809946.000000,1673606876.059264
1673610971.936984,,,,0.251390,0.250618,4809947.000000,1673606876.060271
1673610971.936992,,,,0.233288,0.234655,4809948.000000,1673606876.061278
1673610971.937181,,,,0.221340,0.224125,4809949.000000,1673606876.062285
1673610971.939436,,,,0.204439,0.206744,4809950.000000,1673606876.063293
1673610971.940047,,,,0.182851,0.184338,4809951.000000,1673606876.064300
1673610971.940067,,,,0.164700,0.165106,4809952.000000,1673606876.065307
1673610971.940076,,,,0.150348,0.149648,4809953.000000,1673606876.066314
1673610971.940200,,,,0.142222,0.141234,4809954.000000,1673606876.067321
1673610971.940278,,,,0.137679,0.137075,4809955.000000,1673606876.068328
1673610971.940455,,,,0.134914,0.135560,4809956.000000,1673606876.069335
1673610971.940647,,,,0.138736,0.140801,4809957.000000,1673606876.070342
1673610971.943479,,,,0.147295,0.149960,4809958.000000,1673606876.071349
1673610971.943668,,,,0.154315,0.156932,4809959.000000,1673606876.072356
1673610971.943946,,,,0.174629,0.174938,4809960.000000,1673606876.073363
1673610971.944156,,,,0.202155,0.203258,4809961.000000,1673606876.074370
1673610971.944441,,,,0.236966,0.236891,4809962.000000,1673606876.075377
1673610971.944608,,,,0.260261,0.259561,4809963.000000,1673606876.076385
1673610971.944859,,,,0.265310,0.265884,4809964.000000,1673606876.077392
1673610971.947381,,,,0.261511,0.261532,4809965.000000,1673606876.078399
1673610971.947494,,,,0.256054,0.259225,4809966.000000,1673606876.079406
1673610971.948301,,,,0.250308,0.249440,4809967.000000,1673606876.080413
1673610971.948354,,,,0.233648,0.231650,4809968.000000,1673606876.081420
1673610971.948362,,,,0.204415,0.204965,4809969.000000,1673606876.082427
1673610971.948507,,,,0.170542,0.170275,4809970.000000,1673606876.083434
1673610971.948597,,,,0.147655,0.147869,4809971.000000,1673606876.084441
1673610971.948613,,,,0.142559,0.142195,4809972.000000,1673606876.085448
1673610971.948624,,,,0.130707,0.132507,4809973.000000,1673606876.086455
1673610971.948776,,,,0.130058,0.128083,4809974.000000,1673606876.087462
1673610971.948789,,,,0.144386,0.146066,4809975.000000,1673606876.088470
1673610971.950999,,,,0.168691,0.171092,4809976.000000,1673606876.089477
1673610971.951149,,,,0.189943,0.188954,4809977.000000,1673606876.090484
1673610971.951653,,,,0.204872,0.204244,4809978.000000,1673606876.091491
1673610971.951663,,,,0.211195,0.213403,4809979.000000,1673606876.092498
1673610971.951700,,,,0.222085,0.218308,4809980.000000,1673606876.093505
1673610971.951730,,,,0.221580,0.219029,4809981.000000,1673606876.094512
1673610971.954712,,,,0.225114,0.225279,4809982.000000,1673606876.095519
1673610971.954735,,,,0.244106,0.243790,4809983.000000,1673606876.096526
1673610971.954743,,,,0.260742,0.259345,4809984.000000,1673606876.097533
1673610971.955011,,,,0.267546,0.267927,4809985.000000,1673606876.098540
1673610971.955183,,,,0.269589,0.271317,4809986.000000,1673606876.099547
1673610971.955744,,,,0.269950,0.267302,4809987.000000,1673606876.100554
1673610971.955806,,,,0.255141,0.252205,4809988.000000,1673606876.101562
1673610971.955821,,,,0.231172,0.232900,4809989.000000,1673606876.102569
1673610971.958913,,,,0.211098,0.214461,4809990.000000,1673606876.103576
1673610971.959154,,,,0.195712,0.197392,4809991.000000,1673606876.104583
1673610971.959305,,,,0.185303,0.184555,4809992.000000,1673606876.105590
1673610971.959658,,,,0.177538,0.178809,4809993.000000,1673606876.106597
1673610971.959777,,,,0.175518,0.178881,4809994.000000,1673606876.107604
1673610971.959839,,,,0.172682,0.173328,4809995.000000,1673606876.108611
1673610971.959850,,,,0.170951,0.168808,4809996.000000,1673606876.109618
1673610971.972163,,,,0.174701,0.174145,4809997.000000,1673606876.110625
1673610971.972338,,,,0.184125,0.184170,4809998.000000,1673606876.111632
1673610971.972490,,,,0.198020,0.198811,4809999.000000,1673606876.112639
1673610971.972505,,,,0.208790,0.210230,4810000.000000,1673606876.113647
1673610971.977483,3.071295,3955180.000000,1673610971.916897,,,,
1673610971.977496,3.053205,3955181.000000,1673610971.917897,,,,
1673610971.977502,3.125570,3955182.000000,1673610971.918896,,,,
1673610971.977506,3.125570,3955183.000000,1673610971.919897,,,,
1673610971.977509,3.197926,3955184.000000,1673610971.920897,,,,
1673610971.977534,3.161748,3955185.000000,1673610971.921896,,,,
1673610971.977735,3.270291,3955186.000000,1673610971.922897,,,,
1673610971.977826,,,,0.215378,0.217634,4810001.000000,1673606876.114654
1673610971.978012,,,,0.220138,0.221505,4810002.000000,1673606876.115661
1673610971.978065,3.197926,3955187.000000,1673610971.923897,,,,
1673610971.978078,3.234104,3955188.000000,1673610971.924896,,,,
1673610971.978467,,,,0.224561,0.222274,4810003.000000,1673606876.116668
1673610971.978638,,,,0.226845,0.224847,4810004.000000,1673606876.117675
1673610971.978699,3.197926,3955189.000000,1673610971.925896,,,,
1673610971.978854,,,,0.232062,0.230761,4810005.000000,1673606876.118682
1673610971.978971,3.831084,3955208.000000,1673610971.944896,,,,
1673610971.979156,,,,0.236774,0.238526,4810006.000000,1673606876.119689
1673610971.979169,3.921530,3955209.000000,1673610971.945897,,,,
1673610971.979249,3.921530,3955210.000000,1673610971.946897,,,,
1673610971.980046,3.975805,3955211.000000,1673610971.947896,,,,
1673610971.980069,3.939627,3955212.000000,1673610971.948896,,,,
1673610971.980106,4.048161,3955213.000000,1673610971.949897,,,,
1673610971.980121,4.120526,3955214.000000,1673610971.950897,,,,
1673610971.980136,4.192882,3955215.000000,1673610971.951896,,,,
1673610971.980144,4.229068,3955216.000000,1673610971.952897,,,,
1673610971.980179,4.301425,3955217.000000,1673610971.953897,,,,
1673610971.980221,5.332559,3955231.000000,1673610971.967896,,,,
1673610971.980233,5.386834,3955232.000000,1673610971.968897,,,,
1673610971.980241,5.531555,3955233.000000,1673610971.969897,,,,
1673610971.980304,5.603911,3955234.000000,1673610971.970896,,,,
1673610971.980335,5.658186,3955235.000000,1673610971.971896,,,,
1673610971.980377,5.802907,3955236.000000,1673610971.972897,,,,
1673610971.980392,5.875263,3955237.000000,1673610971.973897,,,,
1673610971.980402,5.929539,3955238.000000,1673610971.974896,,,,
1673610971.980413,6.074259,3955239.000000,1673610971.975897,,,,
1673610971.980422,6.164705,3955240.000000,1673610971.976897,,,,
1673610971.984756,,,,0.234322,0.234535,4810007.000000,1673606876.120696
1673610971.984773,,,,0.223864,0.222851,4810008.000000,1673606876.121703
1673610971.985618,,,,0.212565,0.210783,4810009.000000,1673606876.122710
1673610971.985641,,,,0.194847,0.194940,4810010.000000,1673606876.123717
1673610971.985662,,,,0.188741,0.189988,4810011.000000,1673606876.124724
1673610971.985868,,,,0.185687,0.187055,4810012.000000,1673606876.125731
1673610971.985878,,,,0.177225,0.177439,4810013.000000,1673606876.126739
1673610971.986508,,,,0.171480,0.170996,4810014.000000,1673606876.127746
1673610971.987013,,,,0.174100,0.177342,4810015.000000,1673606876.128753
1673610971.987052,,,,0.177706,0.178448,4810016.000000,1673606876.129760
1673610971.987059,,,,0.178764,0.181646,4810017.000000,1673606876.130767
1673610971.992283,,,,0.176889,0.178809,4810018.000000,1673606876.131774
1673610971.992395,,,,0.165373,0.163663,4810019.000000,1673606876.132781
1673610971.992438,,,,0.158954,0.157966,4810020.000000,1673606876.133788
1673610971.992625,,,,0.157392,0.156740,4810021.000000,1673606876.134795
1673610971.992810,,,,0.163618,0.165611,4810022.000000,1673606876.135802
1673610971.993268,,,,0.171455,0.172054,4810023.000000,1673606876.136809
1673610971.993287,,,,0.175639,0.175011,4810024.000000,1673606876.137816
1673610971.993371,,,,0.170830,0.170299,4810025.000000,1673606876.138824
1673610971.993835,,,,0.175999,0.176525,4810026.000000,1673606876.139831
1673610971.994049,,,,0.182009,0.181141,4810027.000000,1673606876.140838
1673610971.999512,,,,0.170662,0.172390,4810028.000000,1673606876.141845
1673610971.999791,,,,0.161551,0.163808,4810029.000000,1673606876.142852
1673610972.000142,,,,0.160132,0.161331,4810030.000000,1673606876.143859
1673610972.000427,,,,0.166455,0.165611,4810031.000000,1673606876.144866
1673610972.000669,,,,0.185519,0.186334,4810032.000000,1673606876.145873
1673610972.000998,,,,0.199799,0.202080,4810033.000000,1673606876.146880
1673610972.001163,,,,0.213959,0.215783,4810034.000000,1673606876.147887
1673610972.001449,,,,0.226388,0.226938,4810035.000000,1673606876.148894
1673610972.001978,,,,0.228624,0.231145,4810036.000000,1673606876.149901
1673610972.002216,,,,0.227326,0.230184,4810037.000000,1673606876.150908
1673610972.002232,,,,0.226508,0.227347,4810038.000000,1673606876.151916
1673610972.006577,,,,0.213550,0.215639,4810039.000000,1673606876.152923
1673610972.006834,,,,0.167561,0.168832,4810040.000000,1673606876.153930
1673610972.007021,,,,0.119600,0.120631,4810041.000000,1673606876.154937
1673610972.007206,,,,0.066494,0.065578,4810042.000000,1673606876.155944
1673610972.008905,,,,-0.043948,-0.044215,4810043.000000,1673606876.156951
1673610972.009071,,,,-0.114290,-0.112322,4810044.000000,1673606876.157958
1673610972.009328,,,,-0.117848,-0.116048,4810045.000000,1673606876.158965
1673610972.009398,,,,-0.089168,-0.087464,4810046.000000,1673606876.159972
1673610972.014038,,,,-0.041496,-0.039527,4810047.000000,1673606876.160979
1673610972.014238,,,,-0.000194,0.005140,4810048.000000,1673606876.161986
1673610972.014250,,,,0.042839,0.044567,4810049.000000,1673606876.162993
1673610972.017077,,,,0.105464,0.108562,4810050.000000,1673606876.164001
1673610972.017086,,,,0.181577,0.183497,4810051.000000,1673606876.165008
1673610972.017310,,,,0.246318,0.248719,4810052.000000,1673606876.166015
1673610972.017327,,,,0.298991,0.299324,4810053.000000,1673606876.167022
1673610972.017558,,,,0.348081,0.346179,4810054.000000,1673606876.168029
1673610972.017643,,,,0.377844,0.376013,4810055.000000,1673606876.169036
1673610972.017838,,,,0.401331,0.403588,4810056.000000,1673606876.170043
1673610972.021556,,,,0.386907,0.385582,4810057.000000,1673606876.171050
1673610972.021672,,,,0.344523,0.345025,4810058.000000,1673606876.172057
1673610972.021945,,,,0.290336,0.289323,4810059.000000,1673606876.173064
1673610972.024276,,,,0.251607,0.253623,4810060.000000,1673606876.174071
1673610972.024464,,,,0.245861,0.246411,4810061.000000,1673606876.175078
1673610972.024539,,,,0.258891,0.258864,4810062.000000,1673606876.176085
1673610972.024779,,,,0.266464,0.268071,4810063.000000,1673606876.177093
1673610972.024894,,,,0.252833,0.254777,4810064.000000,1673606876.178100
1673610972.024901,,,,0.226076,0.227876,4810065.000000,1673606876.179107
1673610972.024916,,,,0.194054,0.195445,4810066.000000,1673606876.180114
1673610972.024944,,,,0.154795,0.158062,4810067.000000,1673606876.181121
1673610972.037959,,,,0.126956,0.128588,4810068.000000,1673606876.182128
1673610972.038193,,,,0.112292,0.109428,4810069.000000,1673606876.183135
1673610972.038462,,,,0.102627,0.099163,4810070.000000,1673606876.184142
1673610972.038476,,,,0.093396,0.089739,4810071.000000,1673606876.185149
1673610972.045815,,,,0.090415,0.089522,4810072.000000,1673606876.186156
1673610972.046120,,,,0.105488,0.106206,4810073.000000,1673606876.187163
1673610972.046604,,,,0.136020,0.137483,4810074.000000,1673606876.188170
1673610972.046944,,,,0.166455,0.168688,4810075.000000,1673606876.189178
1673610972.047030,,,,0.182226,0.180876,4810076.000000,1673606876.190185
1673610972.047108,,,,0.189943,0.188738,4810077.000000,1673606876.191192
1673610972.047126,,,,0.201650,0.203138,4810078.000000,1673606876.192199
1673610972.051897,,,,0.237928,0.239151,4810079.000000,1673606876.193206
1673610972.052086,,,,0.261728,0.261220,4810080.000000,1673606876.194213
1673610972.052539,,,,0.266464,0.266292,4810081.000000,1673606876.195220
1673610972.052727,,,,0.272907,0.272856,4810082.000000,1673606876.196227
1673610972.052743,,,,0.285023,0.286342,4810083.000000,1673606876.197234
1673610972.052919,,,,0.286057,0.285861,4810084.000000,1673606876.198241
1673610972.053971,,,,0.276032,0.277591,4810085.000000,1673606876.199248
1673610972.054294,,,,0.268796,0.268985,4810086.000000,1673606876.200255
1673610972.054900,,,,0.242976,0.242204,4810087.000000,1673606876.201262
1673610972.054913,,,,0.204030,0.202849,4810088.000000,1673606876.202270
1673610972.057275,11.772651,3955292.000000,1673610972.045165,,,,
1673610972.057317,11.881185,3955293.000000,1673610972.046165,,,,
1673610972.057333,12.025906,3955294.000000,1673610972.047165,,,,
1673610972.057343,12.224901,3955295.000000,1673610972.048165,,,,
1673610972.057352,12.369622,3955296.000000,1673610972.049165,,,,
1673610972.057440,12.532432,3955297.000000,1673610972.050165,,,,
1673610972.057463,12.640975,3955298.000000,1673610972.051165,,,,
1673610972.057471,12.821874,3955299.000000,1673610972.052165,,,,
1673610972.057488,12.984683,3955300.000000,1673610972.053165,,,,
1673610972.057498,13.183680,3955301.000000,1673610972.054165,,,,
1673610972.059182,,,,0.178163,0.176453,4810089.000000,1673606876.203277
1673610972.059425,,,,0.161046,0.162798,4810090.000000,1673606876.204284
1673610972.059670,,,,0.139794,0.143037,4810091.000000,1673606876.205291
1673610972.059812,,,,0.121403,0.122242,4810092.000000,1673606876.206298
1673610972.061593,,,,0.093540,0.090604,4810093.000000,1673606876.207305
1673610972.061599,,,,0.057263,0.054063,4810094.000000,1673606876.208312
1673610972.061867,,,,0.044305,0.042523,4810095.000000,1673606876.209319
1673610972.066514,,,,0.050676,0.050793,4810096.000000,1673606876.210326
1673610972.066779,,,,0.078539,0.078488,4810097.000000,1673606876.211333
1673610972.066785,,,,0.110921,0.113058,4810098.000000,1673606876.212340
1673610972.066972,,,,0.141886,0.143710,4810099.000000,1673606876.213347
1673610972.069174,,,,0.177586,0.180973,4810100.000000,1673606876.214355
1673610972.069409,,,,0.221917,0.223524,4810101.000000,1673606876.215362
1673610972.069422,,,,0.263699,0.263287,4810102.000000,1673606876.216369
1673610972.069677,,,,0.300361,0.300262,4810103.000000,1673606876.217376
1673610972.069686,,,,0.306251,0.310190,4810104.000000,1673606876.218383
1673610972.069910,,,,0.295841,0.299156,4810105.000000,1673606876.219390
1673610972.070162,,,,0.283484,0.285357,4810106.000000,1673606876.220397
1673610972.074154,,,,0.273916,0.273841,4810107.000000,1673606876.221404
1673610972.074422,,,,0.258170,0.255210,4810108.000000,1673606876.222411
1673610972.074681,,,,0.226725,0.222394,4810109.000000,1673606876.223418
1673610972.077045,,,,0.207564,0.205975,4810110.000000,1673606876.224425
1673610972.077147,,,,0.195424,0.195060,4810111.000000,1673606876.225432
1673610972.077396,,,,0.184558,0.185372,4810112.000000,1673606876.226439
1673610972.077554,,,,0.176360,0.178112,4810113.000000,1673606876.227447
1673610972.077741,,,,0.175759,0.175083,4810114.000000,1673606876.228454
1673610972.077870,,,,0.180254,0.179530,4810115.000000,1673606876.229461
1673610972.077969,,,,0.181504,0.179915,4810116.000000,1673606876.230468
1673610972.081502,,,,0.183043,0.182896,4810117.000000,1673606876.231475
1673610972.081636,,,,0.193957,0.196310,4810118.000000,1673606876.232482
1673610972.081780,,,,0.209464,0.209845,4810119.000000,1673606876.233489
1673610972.081918,,,,0.210473,0.210590,4810120.000000,1673606876.234496
1673610972.084002,,,,0.210858,0.211624,4810121.000000,1673606876.235503
1673610972.084014,,,,0.215882,0.216024,4810122.000000,1673606876.236510
1673610972.084031,,,,0.216027,0.217394,4810123.000000,1673606876.237517
1673610972.084057,,,,0.209295,0.210494,4810124.000000,1673606876.238524
1673610972.098567,,,,0.199944,0.202248,4810125.000000,1673606876.239532
1673610972.098594,,,,0.189895,0.193113,4810126.000000,1673606876.240539
1673610972.099310,,,,0.179846,0.179843,4810127.000000,1673606876.241546
1673610972.099332,,,,0.185447,0.186911,4810128.000000,1673606876.242553
1673610972.099368,,,,0.207973,0.207946,4810129.000000,1673606876.243560
1673610972.099430,,,,0.226725,0.225279,4810130.000000,1673606876.244567
1673610972.105872,,,,0.208670,0.209268,4810131.000000,1673606876.245574
1673610972.105893,,,,0.177490,0.180684,4810132.000000,1673606876.246581
1673610972.106435,,,,0.171335,0.170226,4810133.000000,1673606876.247588
1673610972.106743,,,,0.184317,0.183857,4810134.000000,1673606876.248595
1673610972.106769,,,,0.194703,0.194507,4810135.000000,1673606876.249602
1673610972.106785,,,,0.208045,0.207129,4810136.000000,1673606876.250609
1673610972.107379,,,,0.217709,0.215879,4810137.000000,1673606876.251616
1673610972.107569,,,,0.212300,0.210422,4810138.000000,1673606876.252624
1673610972.111777,,,,0.201122,0.200493,4810139.000000,1673606876.253631
1673610972.112028,,,,0.199919,0.198474,4810140.000000,1673606876.254638
1673610972.112181,,,,0.199823,0.199724,4810141.000000,1673606876.255645
1673610972.113413,21.957382,3955350.000000,1673610972.097602,,,,
1673610972.113424,22.210646,3955351.000000,1673610972.098602,,,,
1673610972.113697,22.391544,3955352.000000,1673610972.099602,,,,
1673610972.113710,22.554363,3955353.000000,1673610972.100602,,,,
1673610972.113715,22.753351,3955354.000000,1673610972.101602,,,,
1673610972.113719,22.879982,3955355.000000,1673610972.102602,,,,
1673610972.113740,23.042793,3955356.000000,1673610972.103602,,,,
1673610972.113744,23.259878,3955357.000000,1673610972.104602,,,,
1673610972.113763,23.422688,3955358.000000,1673610972.105602,,,,
1673610972.113770,23.585497,3955359.000000,1673610972.106602,,,,
1673610972.113796,23.748306,3955360.000000,1673610972.107602,,,,
1673610972.113801,23.893028,3955361.000000,1673610972.108602,,,,
1673610972.113815,24.073935,3955362.000000,1673610972.109602,,,,
1673610972.113984,,,,0.199679,0.200205,4810142.000000,1673606876.256652
1673610972.114156,,,,0.178596,0.177655,4810143.000000,1673606876.257659
1673610972.114398,,,,0.141020,0.140608,4810144.000000,1673606876.258666
1673610972.114411,,,,0.096161,0.095989,4810145.000000,1673606876.259673
1673610972.119032,,,,0.042286,0.040984,4810146.000000,1673606876.260680
1673610972.119220,,,,-0.023513,-0.023324,4810147.000000,1673606876.261687
1673610972.119287,,,,-0.057435,-0.058039,4810148.000000,1673606876.262694
1673610972.119504,,,,-0.057218,-0.055226,4810149.000000,1673606876.263701
1673610972.121512,,,,-0.029427,-0.026738,4810150.000000,1673606876.264709
1673610972.121525,,,,0.012355,0.013843,4810151.000000,1673606876.265716
1673610972.121544,,,,0.053176,0.056467,4810152.000000,1673606876.266723
1673610972.126822,,,,0.109575,0.111015,4810153.000000,1673606876.267730
1673610972.126991,,,,0.167200,0.171092,4810154.000000,1673606876.268737
1673610972.127067,,,,0.225955,0.228717,4810155.000000,1673606876.269744
1673610972.127077,,,,0.279518,0.278673,4810156.000000,1673606876.270751
1673610972.128849,,,,0.328080,0.326706,4810157.000000,1673606876.271758
1673610972.128956,,,,0.365583,0.365484,4810158.000000,1673606876.272765
1673610972.129097,,,,0.370367,0.370701,4810159.000000,1673606876.273772
1673610972.129106,,,,0.336902,0.336467,4810160.000000,1673606876.274779
1673610972.134382,,,,0.317333,0.314686,4810161.000000,1673606876.275786
1673610972.134591,,,,0.295144,0.293001,4810162.000000,1673606876.276793
1673610972.134599,,,,0.268820,0.266725,4810163.000000,1673606876.277801
1673610972.134924,,,,0.261944,0.261292,4810164.000000,1673606876.278808
1673610972.134936,,,,0.263579,0.264730,4810165.000000,1673606876.279815
1673610972.134978,,,,0.258050,0.258792,4810166.000000,1673606876.280822
1673610972.136339,,,,0.239082,0.237660,4810167.000000,1673606876.281829
1673610972.136542,,,,0.210690,0.209388,4810168.000000,1673606876.282836
1673610972.136796,,,,0.170037,0.169842,4810169.000000,1673606876.283843
1673610972.136838,,,,0.125226,0.127963,4810170.000000,1673606876.284850
1673610972.142222,,,,0.092771,0.092215,4810171.000000,1673606876.285857
1673610972.142531,,,,0.094406,0.092792,4810172.000000,1673606876.286864
1673610972.142546,,,,0.101906,0.101038,4810173.000000,1673606876.287871
1673610972.142632,,,,0.101618,0.104115,4810174.000000,1673606876.288878
1673610972.142646,,,,0.129793,0.132363,4810175.000000,1673606876.289886
1673610972.142652,,,,0.154002,0.155706,4810176.000000,1673606876.290893
1673610972.142662,,,,0.185014,0.184098,4810177.000000,1673606876.291900
1673610972.144454,,,,0.196337,0.195156,4810178.000000,1673606876.292907
1673610972.144461,,,,0.195472,0.194051,4810179.000000,1673606876.293914
1673610972.144833,,,,0.209175,0.206624,4810180.000000,1673606876.294921
1673610972.145176,,,,0.245789,0.246098,4810181.000000,1673606876.295928
1673610972.145480,,,,0.293630,0.295574,4810182.000000,1673606876.296935
1673610972.145863,,,,0.308414,0.307161,4810183.000000,1673606876.297942
1673610972.145938,,,,0.283893,0.281895,4810184.000000,1673606876.298949
1673610972.146279,,,,0.267762,0.267110,4810185.000000,1673606876.299956
1673610972.157840,,,,0.259780,0.258575,4810186.000000,1673606876.300963
1673610972.158171,,,,0.242303,0.241026,4810187.000000,1673606876.301970
1673610972.165988,,,,0.240260,0.240497,4810188.000000,1673606876.302978
1673610972.166100,,,,0.230090,0.231217,4810189.000000,1673606876.303985
1673610972.166489,,,,0.213382,0.215038,4810190.000000,1673606876.304992
1673610972.166645,,,,0.203982,0.205013,4810191.000000,1673606876.305999
1673610972.167300,24.236744,3955363.000000,1673610972.105953,,,,
1673610972.168476,24.381466,3955364.000000,1673610972.106952,,,,
1673610972.168499,24.652817,3955365.000000,1673610972.107952,,,,
1673610972.169437,31.364254,3955414.000000,1673610972.156952,,,,
1673610972.169667,31.472788,3955415.000000,1673610972.157953,,,,
1673610972.169699,31.527063,3955416.000000,1673610972.158952,,,,
1673610972.169729,31.635607,3955417.000000,1673610972.159952,,,,
1673610972.169739,31.762238,3955418.000000,1673610972.160952,,,,
1673610972.169753,31.925047,3955419.000000,1673610972.161952,,,,
1673610972.169766,32.015491,3955420.000000,1673610972.162952,,,,
1673610972.169773,32.105946,3955421.000000,1673610972.163952,,,,
1673610972.169865,32.268757,3955422.000000,1673610972.164953,,,,
1673610972.169909,32.323032,3955423.000000,1673610972.165952,,,,
1673610972.172161,,,,0.190616,0.191118,4810192.000000,1673606876.307006
1673610972.172288,,,,0.189245,0.190637,4810193.000000,1673606876.308013
1673610972.172302,,,,0.197083,0.197464,4810194.000000,1673606876.309020
1673610972.172333,,,,0.202035,0.201046,4810195.000000,1673606876.310027
1673610972.172351,,,,0.197876,0.200614,4810196.000000,1673606876.311034
1673610972.172358,,,,0.198741,0.199772,4810197.000000,1673606876.312041
1673610972.172604,,,,0.202732,0.202657,4810198.000000,1673606876.313048
1673610972.173860,,,,0.207829,0.208860,4810199.000000,1673606876.314055
1673610972.173964,,,,0.195232,0.195517,4810200.000000,1673606876.315063
1673610972.174140,,,,0.180062,0.181694,4810201.000000,1673606876.316070
1673610972.174327,,,,0.174340,0.177318,4810202.000000,1673606876.317077
1673610972.179082,,,,0.188308,0.189315,4810203.000000,1673606876.318084
1673610972.179462,,,,0.197227,0.198162,4810204.000000,1673606876.319091
1673610972.179507,,,,0.206531,0.206576,4810205.000000,1673606876.320098
1673610972.179512,,,,0.207084,0.205782,4810206.000000,1673606876.321105
1673610972.181805,,,,0.191409,0.191286,4810207.000000,1673606876.322112
1673610972.182013,,,,0.181312,0.181622,4810208.000000,1673606876.323119
1673610972.182035,,,,0.174725,0.176285,4810209.000000,1673606876.324126
1673610972.186740,,,,0.167248,0.168351,4810210.000000,1673606876.325133
1673610972.186991,,,,0.164652,0.165827,4810211.000000,1673606876.326140
1673610972.187027,,,,0.205305,0.206047,4810212.000000,1673606876.327147
1673610972.187163,,,,0.207709,0.208860,4810213.000000,1673606876.328155
1673610972.187287,,,,0.202131,0.202369,4810214.000000,1673606876.329162
1673610972.187412,,,,0.208766,0.208739,4810215.000000,1673606876.330169
1673610972.187631,,,,0.235764,0.234150,4810216.000000,1673606876.331176
1673610972.187638,,,,0.245284,0.242877,4810217.000000,1673606876.332183
1673610972.188838,,,,0.241173,0.239199,4810218.000000,1673606876.333190
1673610972.188844,,,,0.252111,0.250281,4810219.000000,1673606876.334197
1673610972.194459,,,,0.277450,0.275885,4810220.000000,1673606876.335204
1673610972.195325,,,,0.283388,0.279827,4810221.000000,1673606876.336211
1673610972.195341,,,,0.270863,0.269201,4810222.000000,1673606876.337218
1673610972.195455,,,,0.255645,0.255426,4810223.000000,1673606876.338225
1673610972.195469,,,,0.242063,0.242468,4810224.000000,1673606876.339232
1673610972.195725,,,,0.230475,0.230376,4810225.000000,1673606876.340240
1673610972.195733,,,,0.210089,0.210590,4810226.000000,1673606876.341247
1673610972.195848,,,,0.183572,0.184002,4810227.000000,1673606876.342254
1673610972.196664,,,,0.158810,0.158783,4810228.000000,1673606876.343261
1673610972.196851,,,,0.135635,0.136714,4810229.000000,1673606876.344268
1673610972.197203,,,,0.111979,0.113298,4810230.000000,1673606876.345275
1673610972.197281,,,,0.120538,0.120102,4810231.000000,1673606876.346282
1673610972.197289,,,,0.135274,0.135079,4810232.000000,1673606876.347289
1673610972.197645,,,,0.121884,0.122746,4810233.000000,1673606876.348296
1673610972.197765,,,,0.115994,0.116111,4810234.000000,1673606876.349303
1673610972.201972,,,,0.119432,0.117578,4810235.000000,1673606876.350310
1673610972.202266,,,,0.121547,0.121015,4810236.000000,1673606876.351317
1673610972.202737,,,,0.126428,0.127723,4810237.000000,1673606876.352324
1673610972.202905,,,,0.147896,0.149287,4810238.000000,1673606876.353332
1673610972.202929,,,,0.184558,0.184218,4810239.000000,1673606876.354339
1673610972.203181,,,,0.222373,0.223332,4810240.000000,1673606876.355346
1673610972.203430,,,,0.270022,0.270836,4810241.000000,1673606876.356353
1673610972.203785,,,,0.305866,0.305623,4810242.000000,1673606876.357360
1673610972.204193,,,,0.319521,0.318965,4810243.000000,1673606876.358367
1673610972.204489,,,,0.303390,0.302666,4810244.000000,1673606876.359374
1673610972.204690,,,,0.280888,0.280068,4810245.000000,1673606876.360381
1673610972.204978,,,,0.260622,0.259729,4810246.000000,1673606876.361388
1673610972.205270,,,,0.238024,0.239079,4810247.000000,1673606876.362395
1673610972.205549,,,,0.233456,0.231506,4810248.000000,1673606876.363402
1673610972.218678,,,,0.240692,0.234727,4810249.000000,1673606876.364409
1673610972.219094,,,,0.252232,0.249296,4810250.000000,1673606876.365417
1673610972.219136,,,,0.256198,0.257806,4810251.000000,1673606876.366424
1673610972.219273,,,,0.256222,0.257662,4810252.000000,1673606876.367431
1673610972.219417,,,,0.244106,0.245041,4810253.000000,1673606876.368438
1673610972.219597,,,,0.231028,0.231073,4810254.000000,1673606876.369445
1673610972.219683,,,,0.231893,0.231073,4810255.000000,1673606876.370452
1673610972.225762,,,,0.224513,0.228789,4810256.000000,1673606876.371459
1673610972.226113,,,,0.227710,0.231049,4810257.000000,1673606876.372466
1673610972.226144,,,,0.236605,0.240449,4810258.000000,1673606876.373473
1673610972.226209,,,,0.244178,0.243502,4810259.000000,1673606876.374480
1673610972.226215,,,,0.239827,0.238069,4810260.000000,1673606876.375487
1673610972.226223,,,,0.237687,0.235112,4810261.000000,1673606876.376494
1673610972.226230,,,,0.243144,0.243598,4810262.000000,1673606876.377501
1673610972.226236,,,,0.246919,0.246916,4810263.000000,1673606876.378509
1673610972.231858,,,,0.248481,0.250305,4810264.000000,1673606876.379516
1673610972.231996,,,,0.252111,0.253503,4810265.000000,1673606876.380523
1673610972.232227,,,,0.238336,0.240449,4810266.000000,1673606876.381530
1673610972.232238,32.395386,3955424.000000,1673610972.171610,,,,
1673610972.232240,,,,0.194078,0.195613,4810267.000000,1673606876.382537
1673610972.232242,32.594376,3955425.000000,1673610972.172610,,,,
1673610972.232256,32.666740,3955426.000000,1673610972.173609,,,,
1673610972.232351,32.811462,3955427.000000,1673610972.174610,,,,
1673610972.232451,,,,0.132317,0.133492,4810268.000000,1673606876.383544
1673610972.232553,,,,0.066110,0.068415,4810269.000000,1673606876.384551
1673610972.232595,32.938091,3955428.000000,1673610972.175610,,,,
1673610972.233623,33.082813,3955429.000000,1673610972.176610,,,,
1673610972.233634,33.191357,3955430.000000,1673610972.177610,,,,
1673610972.233643,33.245625,3955431.000000,1673610972.178610,,,,
1673610972.233647,33.336075,3955432.000000,1673610972.179610,,,,
1673610972.233651,33.426521,3955433.000000,1673610972.180609,,,,
1673610972.233662,33.625519,3955434.000000,1673610972.181610,,,,
1673610972.233680,33.679783,3955435.000000,1673610972.182610,,,,
1673610972.233691,37.261631,3955475.000000,1673610972.222610,,,,
1673610972.233703,37.352077,3955476.000000,1673610972.223610,,,,
1673610972.233706,37.478710,3955477.000000,1673610972.224610,,,,
1673610972.233708,37.532986,3955478.000000,1673610972.225610,,,,
1673610972.233712,37.569164,3955479.000000,1673610972.226609,,,,
1673610972.233724,37.659615,3955480.000000,1673610972.227610,,,,
1673610972.233738,37.713882,3955481.000000,1673610972.228610,,,,
1673610972.233745,37.786247,3955482.000000,1673610972.229609,,,,
1673610972.233763,37.840515,3955483.000000,1673610972.230610,,,,
1673610972.233768,37.912880,3955484.000000,1673610972.231610,,,,
1673610972.255255,,,,0.000744,0.003722,4810270.000000,1673606876.385558
1673610972.255499,,,,-0.030173,-0.030296,4810271.000000,1673606876.386565
1673610972.255887,,,,-0.018248,-0.017122,4810272.000000,1673606876.387572
1673610972.256318,,,,0.024183,0.023050,4810273.000000,1673606876.388579
1673610972.256337,,,,0.079981,0.080579,4810274.000000,1673606876.389586
1673610972.256845,,,,0.125201,0.122314,4810275.000000,1673606876.390594
1673610972.257292,,,,0.165998,0.162149,4810276.000000,1673606876.391601
1673610972.259113,,,,0.217493,0.215351,4810277.000000,1673606876.392608
1673610972.259130,,,,0.419193,0.419142,4810282.000000,1673606876.397643
1673610972.259211,,,,0.377339,0.376590,4810283.000000,1673606876.398650
1673610972.259226,,,,0.345196,0.345338,4810284.000000,1673606876.399657
1673610972.259236,,,,0.311828,0.313051,4810285.000000,1673606876.400664
1673610972.259244,,,,0.273652,0.271557,4810286.000000,1673606876.401671
1673610972.259250,,,,0.241101,0.241555,4810287.000000,1673606876.402678
1673610972.259342,,,,0.221340,0.224919,4810288.000000,1673606876.403686
1673610972.259349,,,,0.205064,0.206984,4810289.000000,1673606876.404693
1673610972.259413,,,,0.193957,0.191767,4810290.000000,1673606876.405700
1673610972.259437,,,,0.181697,0.182247,4810291.000000,1673606876.406707
1673610972.261904,,,,0.181384,0.182223,4810292.000000,1673606876.407714
1673610972.262111,,,,0.190472,0.191382,4810293.000000,1673606876.408721
1673610972.262689,,,,0.197948,0.201816,4810294.000000,1673606876.409728
1673610972.262703,,,,0.211339,0.211672,4810295.000000,1673606876.410735
1673610972.262731,,,,0.222421,0.223284,4810296.000000,1673606876.411742
1673610972.262743,,,,0.224657,0.227058,4810297.000000,1673606876.412749
1673610972.262753,,,,0.228432,0.229703,4810298.000000,1673606876.413756
1673610972.263896,,,,0.233720,0.233886,4810299.000000,1673606876.414763
1673610972.264111,,,,0.233528,0.235593,4810300.000000,1673606876.415771
1673610972.264350,,,,0.232422,0.230736,4810301.000000,1673606876.416778
1673610972.278563,,,,0.224609,0.224582,4810302.000000,1673606876.417785
1673610972.278841,,,,0.211098,0.212273,4810303.000000,1673606876.418792
1673610972.278858,,,,0.196145,0.195445,4810304.000000,1673606876.419799
1673610972.279212,,,,0.184101,0.185132,4810305.000000,1673606876.420806
1673610972.279754,,,,0.181553,0.181622,4810306.000000,1673606876.421813
1673610972.279857,,,,0.173547,0.176285,4810307.000000,1673606876.422820
1673610972.279901,,,,0.159507,0.161452,4810308.000000,1673606876.423827
1673610972.280026,,,,0.152391,0.154600,4810309.000000,1673606876.424834
1673610972.285528,,,,0.148545,0.149455,4810310.000000,1673606876.425841
1673610972.285964,,,,0.137126,0.139142,4810311.000000,1673606876.426848
1673610972.285980,,,,0.146309,0.145344,4810312.000000,1673606876.427855
1673610972.285985,,,,0.185543,0.183088,4810313.000000,1673606876.428863
1673610972.286071,,,,0.219777,0.219269,4810314.000000,1673606876.429870
1673610972.286127,,,,0.243168,0.243165,4810315.000000,1673606876.430877
1673610972.286320,37.949059,3955485.000000,1673610972.225436,,,,
1673610972.287470,38.021416,3955486.000000,1673610972.226436,,,,
1673610972.287481,38.148045,3955487.000000,1673610972.227436,,,,
1673610972.287486,38.220409,3955488.000000,1673610972.228436,,,,
1673610972.287497,38.256588,3955489.000000,1673610972.229436,,,,
1673610972.287505,38.292767,3955490.000000,1673610972.230436,,,,
1673610972.287543,40.535942,3955536.000000,1673610972.276436,,,,
1673610972.287549,40.572128,3955537.000000,1673610972.277436,,,,
1673610972.287560,40.608307,3955538.000000,1673610972.278436,,,,
1673610972.287569,40.698750,3955539.000000,1673610972.279436,,,,
1673610972.287583,40.662575,3955540.000000,1673610972.280436,,,,
1673610972.287588,40.753025,3955541.000000,1673610972.281436,,,,
1673610972.287592,40.789204,3955542.000000,1673610972.282436,,,,
1673610972.287649,40.807293,3955543.000000,1673610972.283436,,,,
1673610972.287656,40.825382,3955544.000000,1673610972.284436,,,,
1673610972.287661,40.825382,3955545.000000,1673610972.285436,,,,
1673610972.291965,,,,0.270358,0.269610,4810316.000000,1673606876.431884
1673610972.291980,,,,0.289591,0.289780,4810317.000000,1673606876.432891
1673610972.291985,,,,0.305121,0.303435,4810318.000000,1673606876.433898
1673610972.292152,,,,0.307886,0.308508,4810319.000000,1673606876.434905
1673610972.292256,,,,0.306323,0.306031,4810320.000000,1673606876.435912
1673610972.293801,,,,0.300000,0.301223,4810321.000000,1673606876.436919
1673610972.293857,,,,0.285047,0.285020,4810322.000000,1673606876.437926
1673610972.299128,,,,0.275984,0.276870,4810323.000000,1673606876.438933
1673610972.299319,,,,0.279902,0.280933,4810324.000000,1673606876.439940
1673610972.299577,,,,0.277643,0.277880,4810325.000000,1673606876.440948
1673610972.299908,,,,0.252111,0.254176,4810326.000000,1673606876.441955
1673610972.303908,,,,0.225547,0.226289,4810327.000000,1673606876.442962
1673610972.304087,,,,0.193933,0.194339,4810328.000000,1673606876.443969
1673610972.304541,,,,0.149314,0.150946,4810329.000000,1673606876.444976
1673610972.304709,,,,0.109647,0.111664,4810330.000000,1673606876.445983
1673610972.306681,,,,0.085078,0.086734,4810331.000000,1673606876.446990
1673610972.307342,,,,0.079741,0.079882,4810332.000000,1673606876.447997
1673610972.307365,,,,0.082313,0.081998,4810333.000000,1673606876.449004
1673610972.307683,,,,0.081352,0.083416,4810334.000000,1673606876.450011
1673610972.311069,,,,0.105512,0.108851,4810335.000000,1673606876.451018
1673610972.311627,,,,0.138544,0.140897,4810336.000000,1673606876.452025
1673610972.312081,,,,0.186865,0.188233,4810337.000000,1673606876.453032
1673610972.312096,,,,0.231533,0.232467,4810338.000000,1673606876.454040
1673610972.312107,,,,0.252111,0.255811,4810339.000000,1673606876.455047
1673610972.312121,,,,0.285816,0.288434,4810340.000000,1673606876.456054
1673610972.312208,,,,0.314593,0.313700,4810341.000000,1673606876.457061
1673610972.314706,,,,0.330964,0.329110,4810342.000000,1673606876.458068
1673610972.315056,,,,0.328536,0.326466,4810343.000000,1673606876.459075
1673610972.315217,,,,0.313295,0.311104,4810344.000000,1673606876.460082
1673610972.315616,,,,0.308126,0.307618,4810345.000000,1673606876.461089
1673610972.315733,,,,0.309785,0.308916,4810346.000000,1673606876.462096
1673610972.315960,,,,0.298894,0.300694,4810347.000000,1673606876.463103
1673610972.318408,,,,0.279854,0.281053,4810348.000000,1673606876.464110
1673610972.318717,,,,0.258747,0.259465,4810349.000000,1673606876.465117
1673610972.318866,,,,0.241894,0.241795,4810350.000000,1673606876.466125
1673610972.318879,,,,0.225883,0.225255,4810351.000000,1673606876.467132
1673610972.319179,,,,0.212829,0.212418,4810352.000000,1673606876.468139
1673610972.322100,,,,0.215690,0.214798,4810353.000000,1673606876.469146
1673610972.322407,,,,0.221796,0.222995,4810354.000000,1673606876.470153
1673610972.322676,,,,0.226629,0.226601,4810355.000000,1673606876.471160
1673610972.322692,,,,0.230066,0.231289,4810356.000000,1673606876.472167
1673610972.322699,,,,0.238192,0.238958,4810357.000000,1673606876.473174
1673610972.322885,,,,0.251246,0.253695,4810358.000000,1673606876.474181
1673610972.322903,,,,0.249635,0.250546,4810359.000000,1673606876.475188
1673610972.326062,,,,0.240428,0.241435,4810360.000000,1673606876.476195
1673610972.326344,,,,0.221484,0.221890,4810361.000000,1673606876.477202
1673610972.326537,,,,0.179846,0.177607,4810362.000000,1673606876.478209
1673610972.338440,,,,0.156622,0.153711,4810363.000000,1673606876.479217
1673610972.339446,,,,0.150492,0.149888,4810364.000000,1673606876.480224
1673610972.339840,,,,0.149170,0.150369,4810365.000000,1673606876.481231
1673610972.340061,,,,0.157272,0.156043,4810366.000000,1673606876.482238
1673610972.340210,,,,0.127942,0.131521,4810367.000000,1673606876.483245
1673610972.340216,,,,0.115128,0.117506,4810368.000000,1673606876.484252
1673610972.340265,,,,0.145179,0.144191,4810369.000000,1673606876.485259
1673610972.345224,,,,0.195833,0.196286,4810370.000000,1673606876.486266
1673610972.345245,,,,0.245885,0.247950,4810371.000000,1673606876.487273
1673610972.345408,,,,0.287451,0.288338,4810372.000000,1673606876.488280
1673610972.351182,41.494720,3955597.000000,1673610972.340560,,,,
1673610972.351194,41.530899,3955598.000000,1673610972.341560,,,,
1673610972.351205,41.530899,3955599.000000,1673610972.342560,,,,
1673610972.351217,41.512810,3955600.000000,1673610972.343560,,,,
1673610972.351228,41.530899,3955601.000000,1673610972.344560,,,,
1673610972.351233,41.476631,3955602.000000,1673610972.345560,,,,
1673610972.351251,41.494720,3955603.000000,1673610972.346560,,,,
1673610972.351259,41.530899,3955604.000000,1673610972.347560,,,,
1673610972.351293,41.494720,3955605.000000,1673610972.348560,,,,
1673610972.351314,41.494720,3955606.000000,1673610972.349560,,,,
1673610972.352053,,,,0.316348,0.319422,4810373.000000,1673606876.489287
1673610972.352236,,,,0.313102,0.314638,4810374.000000,1673606876.490294
1673610972.352248,,,,0.299351,0.301247,4810375.000000,1673606876.491302
1673610972.352365,,,,0.290096,0.289035,4810376.000000,1673606876.492309
1673610972.352375,,,,0.284133,0.283265,4810377.000000,1673606876.493316
1673610972.352380,,,,0.279878,0.278409,4810378.000000,1673606876.494323
1673610972.352386,,,,0.289278,0.291247,4810379.000000,1673606876.495330
1673610972.353930,,,,0.300673,0.304156,4810380.000000,1673606876.496337
1673610972.353938,,,,0.299712,0.302618,4810381.000000,1673606876.497344
1673610972.354156,,,,0.288605,0.288314,4810382.000000,1673606876.498351
1673610972.354169,,,,0.269613,0.269899,4810383.000000,1673606876.499358
1673610972.359203,,,,0.256511,0.259561,4810384.000000,1673606876.500365
1673610972.359673,,,,0.250525,0.252205,4810385.000000,1673606876.501372
1673610972.359713,,,,0.234297,0.234463,4810386.000000,1673606876.502379
1673610972.359765,,,,0.200256,0.201287,4810387.000000,1673606876.503386
1673610972.361779,,,,0.167369,0.168544,4810388.000000,1673606876.504394
1673610972.362075,,,,0.125009,0.128131,4810389.000000,1673606876.505401
1673610972.362351,,,,0.095175,0.096662,4810390.000000,1673606876.506408
1673610972.362588,,,,0.082722,0.083128,4810391.000000,1673606876.507415
1673610972.362817,,,,0.093684,0.092744,4810392.000000,1673606876.508422
1673610972.363144,,,,0.111883,0.111015,4810393.000000,1673606876.509429
1673610972.363270,,,,0.134048,0.132194,4810394.000000,1673606876.510436
1673610972.366676,,,,0.171912,0.173063,4810395.000000,1673606876.511443
1673610972.367047,,,,0.222758,0.226337,4810396.000000,1673606876.512450
1673610972.367302,,,,0.262040,0.264562,4810397.000000,1673606876.513457
1673610972.367640,,,,0.293245,0.294083,4810398.000000,1673606876.514464
1673610972.368980,,,,0.316564,0.315215,4810399.000000,1673606876.515471
1673610972.369131,,,,0.330868,0.330865,4810400.000000,1673606876.516479
1673610972.369472,,,,0.336229,0.337092,4810401.000000,1673606876.517486
1673610972.369550,,,,0.342480,0.342429,4810402.000000,1673606876.518493
1673610972.374151,,,,0.330844,0.332164,4810403.000000,1673606876.519500
1673610972.374397,,,,0.304400,0.304228,4810404.000000,1673606876.520507
1673610972.377036,,,,0.279566,0.280428,4810405.000000,1673606876.521514
1673610972.377159,,,,0.258266,0.256941,4810406.000000,1673606876.522521
1673610972.377576,,,,0.245645,0.245017,4810407.000000,1673606876.523528
1673610972.377714,,,,0.225787,0.226866,4810408.000000,1673606876.524535
1673610972.378146,,,,0.211603,0.212418,4810409.000000,1673606876.525542
1673610972.378176,,,,0.198862,0.198522,4810410.000000,1673606876.526549
1673610972.378198,,,,0.178043,0.177727,4810411.000000,1673606876.527556
1673610972.382130,,,,0.159940,0.159168,4810412.000000,1673606876.528563
1673610972.382448,,,,0.148088,0.147268,4810413.000000,1673606876.529571
1673610972.382467,,,,0.137486,0.138108,4810414.000000,1673606876.530578
1673610972.382756,,,,0.138496,0.141306,4810415.000000,1673606876.531585
1673610972.383204,,,,0.148785,0.150225,4810416.000000,1673606876.532592
1673610972.383352,,,,0.157512,0.158711,4810417.000000,1673606876.533599
1673610972.383610,,,,0.183211,0.183425,4810418.000000,1673606876.534606
1673610972.383856,,,,0.209632,0.211384,4810419.000000,1673606876.535613
1673610972.384191,,,,0.234706,0.237612,4810420.000000,1673606876.536620
1673610972.384302,,,,0.270959,0.273312,4810421.000000,1673606876.537627
1673610972.384502,,,,0.302236,0.302786,4810422.000000,1673606876.538634
1673610972.384795,,,,0.321348,0.320840,4810423.000000,1673606876.539641
1673610972.397782,,,,0.320723,0.320889,4810424.000000,1673606876.540648
1673610972.397906,,,,0.309304,0.309229,4810425.000000,1673606876.541656
1673610972.398067,,,,0.290697,0.291439,4810426.000000,1673606876.542663
1673610972.405343,,,,0.259973,0.261532,4810427.000000,1673606876.543670
1673610972.406000,,,,0.236052,0.237275,4810428.000000,1673606876.544677
1673610972.406089,,,,0.229273,0.229126,4810429.000000,1673606876.545684
1673610972.411827,,,,0.220715,0.220928,4810430.000000,1673606876.546691
1673610972.411845,,,,0.207877,0.209004,4810431.000000,1673606876.547698
1673610972.412346,,,,0.195087,0.194267,4810432.000000,1673606876.548705
1673610972.412363,,,,0.186000,0.184891,4810433.000000,1673606876.549712
1673610972.414377,,,,0.179365,0.180780,4810434.000000,1673606876.550719
1673610972.414607,,,,0.182057,0.184146,4810435.000000,1673606876.551726
1673610972.414724,,,,0.189197,0.187848,4810436.000000,1673606876.552733
1673610972.416869,41.567085,3955647.000000,1673610972.393818,,,,
1673610972.417264,41.567085,3955648.000000,1673610972.394818,,,,
1673610972.417284,41.548996,3955649.000000,1673610972.395818,,,,
1673610972.417698,41.567085,3955650.000000,1673610972.396818,,,,
1673610972.417716,41.530899,3955651.000000,1673610972.397818,,,,
1673610972.417723,41.585175,3955652.000000,1673610972.398818,,,,
1673610972.417820,41.548996,3955653.000000,1673610972.399818,,,,
1673610972.417838,41.567085,3955654.000000,1673610972.400818,,,,
1673610972.417851,41.585175,3955655.000000,1673610972.401818,,,,
1673610972.417857,41.603260,3955656.000000,1673610972.402818,,,,
1673610972.417865,41.639439,3955658.000000,1673610972.404818,,,,
1673610972.417876,41.585175,3955659.000000,1673610972.405818,,,,
1673610972.417890,41.585175,3955660.000000,1673610972.406818,,,,
1673610972.417902,41.548996,3955661.000000,1673610972.407818,,,,
1673610972.418027,41.567085,3955662.000000,1673610972.408818,,,,
1673610972.418045,41.567085,3955663.000000,1673610972.409818,,,,
1673610972.418053,41.585175,3955664.000000,1673610972.410818,,,,
1673610972.418077,41.585175,3955665.000000,1673610972.411818,,,,
1673610972.418105,41.603260,3955666.000000,1673610972.412818,,,,
1673610972.418112,41.585175,3955667.000000,1673610972.413818,,,,
1673610972.419780,,,,0.185255,0.182415,4810437.000000,1673606876.553741
1673610972.419793,,,,0.170734,0.170371,4810438.000000,1673606876.554748
1673610972.419917,,,,0.165902,0.165587,4810439.000000,1673606876.555755
1673610972.419929,,,,0.166215,0.165250,4810440.000000,1673606876.556762
1673610972.420135,,,,0.176985,0.175684,4810441.000000,1673606876.557769
1673610972.420165,,,,0.186240,0.188858,4810442.000000,1673606876.558776
1673610972.420336,,,,0.204752,0.205638,4810443.000000,1673606876.559783
1673610972.420470,,,,0.226388,0.227010,4810444.000000,1673606876.560790
1673610972.421756,,,,0.249804,0.248406,4810445.000000,1673606876.561797
1673610972.421877,,,,0.286129,0.286703,4810446.000000,1673606876.562804
1673610972.421895,,,,0.323247,0.324206,4810447.000000,1673606876.563811
1673610972.422135,,,,0.325724,0.324446,4810448.000000,1673606876.564818
1673610972.422148,,,,0.302308,0.302930,4810449.000000,1673606876.565825
1673610972.422180,,,,0.274878,0.276221,4810450.000000,1673606876.566833
1673610972.426834,,,,0.263098,0.262927,4810451.000000,1673606876.567840
1673610972.427136,,,,0.248602,0.249536,4810452.000000,1673606876.568847
1673610972.427168,,,,0.228576,0.228212,4810453.000000,1673606876.569854
1673610972.427239,,,,0.198405,0.198186,4810454.000000,1673606876.570861
1673610972.427246,,,,0.154266,0.154913,4810455.000000,1673606876.571868
1673610972.427259,,,,0.138905,0.138373,4810456.000000,1673606876.572875
1673610972.427325,,,,0.153281,0.152965,4810457.000000,1673606876.573882
1673610972.427336,,,,0.182154,0.181141,4810458.000000,1673606876.574889
1673610972.428872,,,,0.225090,0.227130,4810459.000000,1673606876.575896
1673610972.429148,,,,0.272426,0.273336,4810460.000000,1673606876.576903
1673610972.429483,,,,0.305265,0.305214,4810461.000000,1673606876.577910
1673610972.434264,,,,0.334931,0.334039,4810462.000000,1673606876.578918
1673610972.434721,,,,0.358058,0.354858,4810463.000000,1673606876.579925
1673610972.434866,,,,0.353803,0.353776,4810464.000000,1673606876.580932
1673610972.434991,,,,0.335412,0.337717,4810465.000000,1673606876.581939
1673610972.437063,,,,0.320074,0.322139,4810466.000000,1673606876.582946
1673610972.437157,,,,0.297356,0.298242,4810467.000000,1673606876.583953
1673610972.437177,,,,0.257016,0.257854,4810468.000000,1673606876.584960
1673610972.437254,,,,0.209536,0.213475,4810469.000000,1673606876.585967
1673610972.441640,,,,0.182634,0.185372,4810470.000000,1673606876.586974
1673610972.441903,,,,0.180110,0.180852,4810471.000000,1673606876.587981
1673610972.441911,,,,0.181192,0.183785,4810472.000000,1673606876.588988
1673610972.441942,,,,0.178932,0.177583,4810473.000000,1673606876.589995
1673610972.443864,,,,0.179629,0.180973,4810474.000000,1673606876.591002
1673610972.443880,,,,0.200232,0.204701,4810475.000000,1673606876.592010
1673610972.458179,,,,0.218070,0.219990,4810476.000000,1673606876.593017
1673610972.458236,,,,0.223263,0.221289,4810477.000000,1673606876.594024
1673610972.458293,,,,0.226076,0.223476,4810478.000000,1673606876.595031
1673610972.458442,,,,0.226460,0.226241,4810479.000000,1673606876.596038
1673610972.458659,,,,0.230042,0.230905,4810480.000000,1673606876.597045
1673610972.458665,,,,0.239346,0.240184,4810481.000000,1673606876.598052
1673610972.458778,,,,0.241173,0.243935,4810482.000000,1673606876.599059
1673610972.465774,,,,0.242567,0.243093,4810483.000000,1673606876.600066
1673610972.466317,,,,0.244803,0.243790,4810484.000000,1673606876.601073
1673610972.466345,,,,0.245621,0.246579,4810485.000000,1673606876.602080
1673610972.466560,,,,0.237711,0.237468,4810486.000000,1673606876.603087
1673610972.466576,,,,0.239899,0.237780,4810487.000000,1673606876.604095
1673610972.466933,,,,0.247712,0.247661,4810488.000000,1673606876.605102
1673610972.467403,,,,0.251943,0.251459,4810489.000000,1673606876.606109
1673610972.467415,,,,0.246005,0.246435,4810490.000000,1673606876.607116
1673610972.471389,41.530899,3955676.000000,1673610972.418115,,,,
1673610972.471654,,,,0.239851,0.241723,4810491.000000,1673606876.608123
1673610972.471669,41.530899,3955677.000000,1673610972.419115,,,,
1673610972.471942,41.512810,3955678.000000,1673610972.420115,,,,
1673610972.472002,,,,0.246630,0.249993,4810492.000000,1673606876.609130
1673610972.472370,,,,0.262040,0.262518,4810493.000000,1673606876.610137
1673610972.473215,41.494720,3955679.000000,1673610972.421115,,,,
1673610972.473362,41.440453,3955680.000000,1673610972.422115,,,,
1673610972.473375,41.458542,3955681.000000,1673610972.423115,,,,
1673610972.473392,41.476631,3955682.000000,1673610972.424115,,,,
1673610972.473399,41.512810,3955683.000000,1673610972.425115,,,,
1673610972.473453,41.476631,3955684.000000,1673610972.426115,,,,
1673610972.473555,41.512810,3955685.000000,1673610972.427115,,,,
1673610972.473618,41.567085,3955719.000000,1673610972.461115,,,,
1673610972.473631,41.567085,3955720.000000,1673610972.462115,,,,
1673610972.473648,41.621349,3955721.000000,1673610972.463115,,,,
1673610972.473661,41.585175,3955722.000000,1673610972.464115,,,,
1673610972.473671,41.530899,3955723.000000,1673610972.465115,,,,
1673610972.473680,41.603260,3955724.000000,1673610972.466115,,,,
1673610972.473719,41.603260,3955725.000000,1673610972.467115,,,,
1673610972.473725,41.548996,3955726.000000,1673610972.468115,,,,
1673610972.473745,41.621349,3955727.000000,1673610972.469115,,,,
1673610972.473770,41.657528,3955728.000000,1673610972.470115,,,,
1673610972.474157,,,,0.258122,0.258816,4810494.000000,1673606876.611144
1673610972.474458,,,,0.249707,0.249873,4810495.000000,1673606876.612151
1673610972.474980,,,,0.253169,0.253839,4810496.000000,1673606876.613158
1673610972.475121,,,,0.254083,0.253022,4810497.000000,1673606876.614165
1673610972.480026,,,,0.241486,0.241723,4810498.000000,1673606876.615172
1673610972.480069,,,,0.216940,0.215855,4810499.000000,1673606876.616179
1673610972.480283,,,,0.211868,0.210807,4810500.000000,1673606876.617187
1673610972.480448,,,,0.204511,0.205085,4810501.000000,1673606876.618194
1673610972.480458,,,,0.190423,0.190805,4810502.000000,1673606876.619201
1673610972.480940,,,,0.185808,0.184579,4810503.000000,1673606876.620208
1673610972.480949,,,,0.191577,0.190420,4810504.000000,1673606876.621215
1673610972.481035,,,,0.188644,0.188113,4810505.000000,1673606876.622222
1673610972.481047,,,,0.184870,0.185132,4810506.000000,1673606876.623229
1673610972.481364,,,,0.173980,0.174313,4810507.000000,1673606876.624236
1673610972.481577,,,,0.175663,0.176405,4810508.000000,1673606876.625243
1673610972.482004,,,,0.193404,0.194219,4810509.000000,1673606876.626250
1673610972.482357,,,,0.199871,0.200037,4810510.000000,1673606876.627257
1673610972.482413,,,,0.210377,0.209557,4810511.000000,1673606876.628264
1673610972.482508,,,,0.214969,0.215375,4810512.000000,1673606876.629272
1673610972.482812,,,,0.200184,0.200710,4810513.000000,1673606876.630279
1673610972.482977,,,,0.200472,0.201046,4810514.000000,1673606876.631286
1673610972.483024,,,,0.221292,0.225135,4810515.000000,1673606876.632293
1673610972.483279,,,,0.241510,0.241915,4810516.000000,1673606876.633300
1673610972.483537,,,,0.260405,0.261076,4810517.000000,1673606876.634307
1673610972.483707,,,,0.280239,0.281390,4810518.000000,1673606876.635314
1673610972.483999,,,,0.304760,0.305983,4810519.000000,1673606876.636321
1673610972.487137,,,,0.323897,0.324446,4810520.000000,1673606876.637328
1673610972.487226,,,,0.321781,0.322355,4810521.000000,1673606876.638335
1673610972.487314,,,,0.321300,0.321057,4810522.000000,1673606876.639342
1673610972.502053,,,,0.310794,0.312162,4810523.000000,1673606876.640349
1673610972.502274,,,,0.284975,0.287280,4810524.000000,1673606876.641356
1673610972.502282,,,,0.265069,0.262422,4810525.000000,1673606876.642364
1673610972.502466,,,,0.246029,0.242612,4810526.000000,1673606876.643371
1673610972.502600,,,,0.218863,0.218740,4810527.000000,1673606876.644378
1673610972.502821,,,,0.201530,0.202657,4810528.000000,1673606876.645385
1673610972.502830,,,,0.190255,0.190445,4810529.000000,1673606876.646392
1673610972.502838,,,,0.172273,0.172871,4810530.000000,1673606876.647399
1673610972.526065,,,,0.156598,0.157076,4810531.000000,1673606876.648406
1673610972.526551,,,,0.146910,0.147003,4810532.000000,1673606876.649413
1673610972.527197,,,,0.161791,0.163423,4810533.000000,1673606876.650420
1673610972.527666,,,,0.184726,0.185228,4810534.000000,1673606876.651427
1673610972.528471,,,,0.210137,0.209941,4810535.000000,1673606876.652434
1673610972.528493,,,,0.247424,0.248094,4810536.000000,1673606876.653441
1673610972.533233,,,,0.278220,0.277087,4810537.000000,1673606876.654449
1673610972.533726,,,,0.298750,0.298170,4810538.000000,1673606876.655456
1673610972.533744,,,,0.301707,0.299613,4810539.000000,1673606876.656463
1673610972.533971,,,,0.296178,0.297064,4810540.000000,1673606876.657470
1673610972.533981,,,,0.304760,0.307306,4810541.000000,1673606876.658477
1673610972.534171,,,,0.314953,0.312787,4810542.000000,1673606876.659484
1673610972.534416,,,,0.313319,0.310912,4810543.000000,1673606876.660491
1673610972.534511,,,,0.296226,0.297136,4810544.000000,1673606876.661498
1673610972.538133,41.711803,3955780.000000,1673610972.526714,,,,
1673610972.538154,41.711803,3955781.000000,1673610972.527714,,,,
1673610972.538168,41.675617,3955782.000000,1673610972.528714,,,,
1673610972.538180,41.711803,3955783.000000,1673610972.529714,,,,
1673610972.538187,41.675617,3955784.000000,1673610972.530714,,,,
1673610972.538195,41.711803,3955785.000000,1673610972.531714,,,,
1673610972.538201,41.729893,3955786.000000,1673610972.532714,,,,
1673610972.538216,41.711803,3955787.000000,1673610972.533714,,,,
1673610972.538234,41.657528,3955788.000000,1673610972.534714,,,,
1673610972.538259,41.657528,3955789.000000,1673610972.535714,,,,
1673610972.539624,,,,0.248842,0.248575,4810545.000000,1673606876.662505
1673610972.540260,,,,0.157873,0.160105,4810546.000000,1673606876.663512
1673610972.540438,,,,0.088684,0.090941,4810547.000000,1673606876.664519
1673610972.540451,,,,0.055268,0.055433,4810548.000000,1673606876.665526
1673610972.540685,,,,0.042358,0.042018,4810549.000000,1673606876.666533
1673610972.540706,,,,0.051998,0.052644,4810550.000000,1673606876.667541
1673610972.540738,,,,0.076856,0.077598,4810551.000000,1673606876.668548
1673610972.540821,,,,0.120898,0.119910,4810552.000000,1673606876.669555
1673610972.540858,,,,0.168090,0.167510,4810553.000000,1673606876.670562
1673610972.540886,,,,0.228215,0.229390,4810554.000000,1673606876.671569
1673610972.542035,,,,0.294952,0.295285,4810555.000000,1673606876.672576
1673610972.542309,,,,0.340148,0.341972,4810556.000000,1673606876.673583
1673610972.542468,,,,0.364790,0.365989,4810557.000000,1673606876.674590
1673610972.542746,,,,0.383613,0.386086,4810558.000000,1673606876.675597
1673610972.542981,,,,0.390777,0.393227,4810559.000000,1673606876.676604
1673610972.543202,,,,0.375464,0.378009,4810560.000000,1673606876.677611
1673610972.543333,,,,0.347288,0.348126,4810561.000000,1673606876.678618
1673610972.543350,,,,0.309689,0.309469,4810562.000000,1673606876.679626
1673610972.543511,,,,0.283821,0.284635,4810563.000000,1673606876.680633
1673610972.543757,,,,0.271632,0.271533,4810564.000000,1673606876.681640
1673610972.546778,,,,0.265358,0.265187,4810565.000000,1673606876.682647
1673610972.547108,,,,0.255597,0.255907,4810566.000000,1673606876.683654
1673610972.547377,,,,0.241702,0.242588,4810567.000000,1673606876.684661
1673610972.547387,,,,0.229201,0.229366,4810568.000000,1673606876.685668
1673610972.547404,,,,0.222902,0.223717,4810569.000000,1673606876.686675
1673610972.547410,,,,0.225835,0.221553,4810570.000000,1673606876.687682
1673610972.547469,,,,0.222133,0.218668,4810571.000000,1673606876.688689
1673610972.547474,,,,0.202155,0.203330,4810572.000000,1673606876.689696
1673610972.549076,,,,0.182081,0.183064,4810573.000000,1673606876.690703
1673610972.549454,,,,0.177393,0.177366,4810574.000000,1673606876.691710
1673610972.549467,,,,0.185375,0.186454,4810575.000000,1673606876.692718
1673610972.549475,,,,0.198525,0.202585,4810576.000000,1673606876.693725
1673610972.549480,,,,0.214248,0.218524,4810577.000000,1673606876.694732
1673610972.549507,,,,0.231557,0.230809,4810578.000000,1673606876.695739
1673610972.554206,,,,0.246823,0.244055,4810579.000000,1673606876.696746
1673610972.554389,,,,0.246702,0.245666,4810580.000000,1673606876.697753
1673610972.554463,,,,0.245572,0.246243,4810581.000000,1673606876.698760
1673610972.554513,,,,0.244827,0.245882,4810582.000000,1673606876.699767
1673610972.556393,,,,0.235668,0.234703,4810583.000000,1673606876.700774
1673610972.556403,,,,0.229273,0.228212,4810584.000000,1673606876.701781
1673610972.556616,,,,0.234826,0.234631,4810585.000000,1673606876.702788
1673610972.556762,,,,0.240308,0.243454,4810586.000000,1673606876.703795
1673610972.561683,,,,0.240452,0.246171,4810587.000000,1673606876.704803
1673610972.562184,,,,0.233216,0.236602,4810588.000000,1673606876.705810
1673610972.562202,,,,0.219416,0.217995,4810589.000000,1673606876.706817
1673610972.564061,,,,0.208478,0.207105,4810590.000000,1673606876.707824
1673610972.564249,,,,0.214897,0.213475,4810591.000000,1673606876.708831
1673610972.564682,,,,0.225811,0.226601,4810592.000000,1673606876.709838
1673610972.565114,,,,0.243601,0.245089,4810593.000000,1673606876.710845
1673610972.570102,,,,0.259829,0.259537,4810594.000000,1673606876.711852
1673610972.570129,,,,0.262785,0.258936,4810595.000000,1673606876.712859
1673610972.570140,,,,0.254443,0.252133,4810596.000000,1673606876.713866
1673610972.570511,,,,0.262930,0.262614,4810597.000000,1673606876.714873
1673610972.571023,,,,0.274229,0.274755,4810598.000000,1673606876.715880
1673610972.571048,,,,0.280335,0.278745,4810599.000000,1673606876.716887
1673610972.571078,,,,0.266704,0.265715,4810600.000000,1673606876.717895
1673610972.572098,,,,0.245116,0.246171,4810601.000000,1673606876.718902
1673610972.572108,,,,0.219272,0.221216,4810602.000000,1673606876.719909
1673610972.572137,,,,0.196866,0.197945,4810603.000000,1673606876.720916
1673610972.572351,,,,0.180591,0.182102,4810604.000000,1673606876.721923
1673610972.572560,,,,0.180206,0.179242,4810605.000000,1673606876.722930
1673610972.572809,,,,0.183235,0.183737,4810606.000000,1673606876.723937
1673610972.573141,,,,0.189294,0.188040,4810607.000000,1673606876.724944
1673610972.573159,,,,0.187442,0.187848,4810608.000000,1673606876.725951
1673610972.586643,,,,0.181769,0.182006,4810609.000000,1673606876.726958
1673610972.586746,,,,0.174509,0.174602,4810610.000000,1673606876.727965
1673610972.586758,,,,0.184990,0.187367,4810611.000000,1673606876.728972
1673610972.587166,,,,0.200088,0.204172,4810612.000000,1673606876.729980
1673610972.587504,,,,0.232326,0.233742,4810613.000000,1673606876.730987
1673610972.587675,,,,0.262040,0.262278,4810614.000000,1673606876.731994
1673610972.587934,,,,0.277667,0.277736,4810615.000000,1673606876.733001
1673610972.592862,,,,0.273868,0.272880,4810616.000000,1673606876.734008
1673610972.592958,,,,0.273243,0.275163,4810617.000000,1673606876.735015
1673610972.593183,,,,0.281152,0.281510,4810618.000000,1673606876.736022
1673610972.599064,,,,0.288389,0.286511,4810619.000000,1673606876.737029
1673610972.599271,,,,0.287523,0.289828,4810620.000000,1673606876.738036
1673610972.599312,,,,0.298846,0.300502,4810621.000000,1673606876.739043
1673610972.599362,,,,0.315002,0.315912,4810622.000000,1673606876.740050
1673610972.601434,,,,0.311804,0.313917,4810623.000000,1673606876.741057
1673610972.601498,,,,0.298942,0.301872,4810624.000000,1673606876.742064
1673610972.601607,,,,0.288220,0.289227,4810625.000000,1673606876.743072
1673610972.602831,41.422363,3955841.000000,1673610972.592492,,,,
1673610972.602842,41.440453,3955842.000000,1673610972.593493,,,,
1673610972.602848,41.422363,3955843.000000,1673610972.594492,,,,
1673610972.602855,41.404266,3955844.000000,1673610972.595492,,,,
1673610972.602859,41.404266,3955845.000000,1673610972.596492,,,,
1673610972.602905,41.386177,3955846.000000,1673610972.597492,,,,
1673610972.602917,41.386177,3955847.000000,1673610972.598492,,,,
1673610972.602926,41.295731,3955848.000000,1673610972.599492,,,,
1673610972.602931,41.295731,3955849.000000,1673610972.600492,,,,
1673610972.602938,41.386177,3955850.000000,1673610972.601492,,,,
1673610972.606660,,,,0.289110,0.288963,4810626.000000,1673606876.744079
1673610972.606672,,,,0.282018,0.280861,4810627.000000,1673606876.745086
1673610972.606681,,,,0.276128,0.277904,4810628.000000,1673606876.746093
1673610972.606692,,,,0.259636,0.262206,4810629.000000,1673606876.747100
1673610972.608897,,,,0.239346,0.239391,4810630.000000,1673606876.748107
1673610972.609055,,,,0.211940,0.210590,4810631.000000,1673606876.749114
1673610972.609368,,,,0.195472,0.196262,4810632.000000,1673606876.750121
1673610972.609385,,,,0.187298,0.186790,4810633.000000,1673606876.751128
1673610972.614464,,,,0.174941,0.174217,4810634.000000,1673606876.752135
1673610972.614485,,,,0.175951,0.174746,4810635.000000,1673606876.753142
1673610972.616967,,,,0.185976,0.183160,4810636.000000,1673606876.754149
1673610972.617225,,,,0.185615,0.185492,4810637.000000,1673606876.755157
1673610972.618078,,,,0.196193,0.195589,4810638.000000,1673606876.756164
1673610972.618099,,,,0.222373,0.222202,4810639.000000,1673606876.757171
1673610972.618444,,,,0.254564,0.256412,4810640.000000,1673606876.758178
1673610972.619051,,,,0.282811,0.286390,4810641.000000,1673606876.759185
1673610972.619089,,,,0.301130,0.303195,4810642.000000,1673606876.760192
1673610972.619107,,,,0.302284,0.304373,4810643.000000,1673606876.761199
1673610972.622093,,,,0.293293,0.293867,4810644.000000,1673606876.762206
1673610972.622797,,,,0.282090,0.282832,4810645.000000,1673606876.763213
1673610972.623462,,,,0.265310,0.266148,4810646.000000,1673606876.764220
1673610972.623593,,,,0.244683,0.248526,4810647.000000,1673606876.765227
1673610972.623603,,,,0.232230,0.234391,4810648.000000,1673606876.766234
1673610972.623660,,,,0.219585,0.221745,4810649.000000,1673606876.767241
1673610972.623667,,,,0.206555,0.203162,4810650.000000,1673606876.768249
1673610972.624057,,,,0.199511,0.197609,4810651.000000,1673606876.769256
1673610972.625001,,,,0.207011,0.207850,4810652.000000,1673606876.770263
1673610972.625100,,,,0.220354,0.221914,4810653.000000,1673606876.771270
1673610972.625109,,,,0.230595,0.232804,4810654.000000,1673606876.772277
1673610972.629777,,,,0.237543,0.239487,4810655.000000,1673606876.773284
1673610972.629796,,,,0.237807,0.238622,4810656.000000,1673606876.774291
1673610972.630354,,,,0.214031,0.214245,4810657.000000,1673606876.775298
1673610972.630364,,,,0.179509,0.181838,4810658.000000,1673606876.776305
1673610972.630565,,,,0.173980,0.177415,4810659.000000,1673606876.777312
1673610972.630780,,,,0.184630,0.183713,4810660.000000,1673606876.778319
1673610972.631393,,,,0.183476,0.185636,4810661.000000,1673606876.779326
1673610972.631827,,,,0.186481,0.189218,4810662.000000,1673606876.780334
1673610972.631844,,,,0.200881,0.201239,4810663.000000,1673606876.781341
1673610972.632213,,,,0.204800,0.203210,4810664.000000,1673606876.782348
1673610972.632226,,,,0.203357,0.205037,4810665.000000,1673606876.783355
1673610972.645257,,,,0.223119,0.228092,4810666.000000,1673606876.784362
1673610972.645447,,,,0.242976,0.245113,4810667.000000,1673606876.785369
1673610972.660787,,,,0.243721,0.242685,4810668.000000,1673606876.786376
1673610972.661155,,,,0.245669,0.246892,4810669.000000,1673606876.787383
1673610972.661162,,,,0.249203,0.250281,4810670.000000,1673606876.788390
1673610972.661201,,,,0.251919,0.251988,4810671.000000,1673606876.789397
1673610972.661241,,,,0.257376,0.254609,4810672.000000,1673606876.790404
1673610972.661246,,,,0.254564,0.253984,4810673.000000,1673606876.791411
1673610972.661263,,,,0.257497,0.256941,4810674.000000,1673606876.792418
1673610972.668557,40.626396,3955902.000000,1673610972.656581,,,,
1673610972.668580,40.590218,3955903.000000,1673610972.657581,,,,
1673610972.668678,40.590218,3955904.000000,1673610972.658581,,,,
1673610972.668691,40.554031,3955905.000000,1673610972.659581,,,,
1673610972.668778,40.535942,3955906.000000,1673610972.660581,,,,
1673610972.668822,40.572128,3955907.000000,1673610972.661581,,,,
1673610972.668842,40.572128,3955908.000000,1673610972.662581,,,,
1673610972.668855,40.608307,3955909.000000,1673610972.663581,,,,
1673610972.668870,40.572128,3955910.000000,1673610972.664581,,,,
1673610972.668901,40.554031,3955911.000000,1673610972.665581,,,,
1673610972.674528,,,,0.273267,0.272567,4810675.000000,1673606876.793426
1673610972.674538,,,,0.284302,0.284010,4810676.000000,1673606876.794433
1673610972.674733,,,,0.289855,0.290549,4810677.000000,1673606876.795440
1673610972.674752,,,,0.278003,0.279875,4810678.000000,1673606876.796447
1673610972.674794,,,,0.260646,0.260018,4810679.000000,1673606876.797454
1673610972.676386,,,,0.235956,0.234294,4810680.000000,1673606876.798461
1673610972.676451,,,,0.223768,0.225159,4810681.000000,1673606876.799468
1673610972.676648,,,,0.216844,0.217154,4810682.000000,1673606876.800475
1673610972.681548,,,,0.212613,0.208908,4810683.000000,1673606876.801482
1673610972.681845,,,,0.207300,0.206816,4810684.000000,1673606876.802489
1673610972.681868,,,,0.204391,0.206143,4810685.000000,1673606876.803496
1673610972.681883,,,,0.207204,0.206600,4810686.000000,1673606876.804503
1673610972.684112,,,,0.192707,0.191623,4810687.000000,1673606876.805511
1673610972.684542,,,,0.190688,0.190060,4810688.000000,1673606876.806518
1673610972.684964,,,,0.221676,0.220880,4810689.000000,1673606876.807525
1673610972.685283,,,,0.251030,0.249224,4810690.000000,1673606876.808532
1673610972.689153,,,,0.260165,0.260114,4810691.000000,1673606876.809539
1673610972.689181,,,,0.273772,0.274923,4810692.000000,1673606876.810546
1673610972.691497,,,,0.291394,0.293939,4810693.000000,1673606876.811553
1673610972.691734,,,,0.293630,0.294252,4810694.000000,1673606876.812560
1673610972.692024,,,,0.288581,0.288794,4810695.000000,1673606876.813567
1673610972.692040,,,,0.282162,0.281342,4810696.000000,1673606876.814574
1673610972.705765,,,,0.288220,0.286919,4810697.000000,1673606876.815581
1673610972.705783,,,,0.298293,0.299036,4810698.000000,1673606876.816588
1673610972.706195,,,,0.301827,0.302930,4810699.000000,1673606876.817595
1673610972.706348,,,,0.298197,0.299565,4810700.000000,1673606876.818603
1673610972.706391,,,,0.295000,0.295237,4810701.000000,1673606876.819610
1673610972.706685,,,,0.295120,0.294540,4810702.000000,1673606876.820617
1673610972.706694,,,,0.282042,0.281438,4810703.000000,1673606876.821624
1673610972.712741,,,,0.247712,0.247950,4810704.000000,1673606876.822631
1673610972.712954,,,,0.214945,0.215927,4810705.000000,1673606876.823638
1673610972.713150,,,,0.174461,0.173376,4810706.000000,1673606876.824645
1673610972.720397,,,,0.123302,0.120967,4810707.000000,1673606876.825652
1673610972.720448,,,,0.105248,0.104596,4810708.000000,1673606876.826659
1673610972.720842,,,,0.106762,0.107048,4810709.000000,1673606876.827666
1673610972.721272,,,,0.122028,0.123900,4810710.000000,1673606876.828673
1673610972.721728,,,,0.144314,0.146595,4810711.000000,1673606876.829680
1673610972.721757,,,,0.175038,0.175323,4810712.000000,1673606876.830688
1673610972.722042,,,,0.215594,0.214581,4810713.000000,1673606876.831695
1673610972.722075,,,,0.251030,0.249993,4810714.000000,1673606876.832702
1673610972.722504,,,,0.288148,0.289516,4810715.000000,1673606876.833709
1673610972.722877,,,,0.327238,0.327788,4810716.000000,1673606876.834716
1673610972.723234,,,,0.362313,0.362983,4810717.000000,1673606876.835723
1673610972.723497,,,,0.378949,0.379668,4810718.000000,1673606876.836730
1673610972.724208,40.499763,3955923.000000,1673610972.672551,,,,
1673610972.724243,,,,0.377820,0.381278,4810719.000000,1673606876.837737
1673610972.724253,,,,0.358467,0.360844,4810720.000000,1673606876.838744
1673610972.724326,,,,0.330868,0.330264,4810721.000000,1673606876.839751
1673610972.725747,40.554031,3955924.000000,1673610972.673551,,,,
1673610972.725772,40.481674,3955925.000000,1673610972.674551,,,,
1673610972.725783,40.499763,3955926.000000,1673610972.675551,,,,
1673610972.725789,40.517853,3955927.000000,1673610972.676551,,,,
1673610972.725819,40.590218,3955928.000000,1673610972.677551,,,,
1673610972.725827,40.535942,3955929.000000,1673610972.678551,,,,
1673610972.725843,40.572128,3955930.000000,1673610972.679551,,,,
1673610972.725870,40.535942,3955931.000000,1673610972.680551,,,,
1673610972.725883,40.572128,3955932.000000,1673610972.681551,,,,
1673610972.725892,40.590218,3955963.000000,1673610972.712551,,,,
1673610972.725910,40.608307,3955964.000000,1673610972.713551,,,,
1673610972.725927,40.590218,3955965.000000,1673610972.714551,,,,
1673610972.725947,40.626396,3955966.000000,1673610972.715551,,,,
1673610972.725954,40.626396,3955967.000000,1673610972.716551,,,,
1673610972.726030,40.590218,3955968.000000,1673610972.717551,,,,
1673610972.726042,40.590218,3955969.000000,1673610972.718551,,,,
1673610972.726051,40.626396,3955970.000000,1673610972.719551,,,,
1673610972.726065,40.608307,3955971.000000,1673610972.720551,,,,
1673610972.726094,40.590218,3955972.000000,1673610972.721551,,,,
1673610972.726513,,,,0.302188,0.303026,4810722.000000,1673606876.840758
1673610972.726685,,,,0.276489,0.277880,4810723.000000,1673606876.841765
1673610972.726941,,,,0.246823,0.244199,4810724.000000,1673606876.842772
1673610972.728990,,,,0.222638,0.224558,4810725.000000,1673606876.843780
1673610972.729064,,,,0.212493,0.213235,4810726.000000,1673606876.844787
1673610972.729344,,,,0.202396,0.201167,4810727.000000,1673606876.845794
1673610972.729398,,,,0.189221,0.188425,4810728.000000,1673606876.846801
1673610972.734055,,,,0.189221,0.191671,4810729.000000,1673606876.847808
1673610972.734142,,,,0.188644,0.189651,4810730.000000,1673606876.848815
1673610972.734475,,,,0.189053,0.188233,4810731.000000,1673606876.849822
1673610972.734482,,,,0.207396,0.209052,4810732.000000,1673606876.850829
1673610972.736651,,,,0.229081,0.230280,4810733.000000,1673606876.851836
1673610972.736824,,,,0.233648,0.234150,4810734.000000,1673606876.852843
1673610972.737068,,,,0.239659,0.238213,4810735.000000,1673606876.853850
1673610972.737442,,,,0.254900,0.258167,4810736.000000,1673606876.854857
1673610972.737468,,,,0.260430,0.262879,4810737.000000,1673606876.855865
1673610972.737478,,,,0.255670,0.254224,4810738.000000,1673606876.856872
1673610972.737487,,,,0.231725,0.230160,4810739.000000,1673606876.857879
1673610972.742077,,,,0.214464,0.214918,4810740.000000,1673606876.858886
1673610972.742620,,,,0.219416,0.219798,4810741.000000,1673606876.859893
1673610972.742635,,,,0.220186,0.217250,4810742.000000,1673606876.860900
1673610972.742934,,,,0.212637,0.212586,4810743.000000,1673606876.861907
1673610972.742945,,,,0.195304,0.195156,4810744.000000,1673606876.862914
1673610972.743257,,,,0.187659,0.186454,4810745.000000,1673606876.863921
1673610972.743274,,,,0.190255,0.190757,4810746.000000,1673606876.864928
1673610972.743980,,,,0.198357,0.201046,4810747.000000,1673606876.865935
1673610972.744181,,,,0.211219,0.215134,4810748.000000,1673606876.866942
1673610972.744457,,,,0.216267,0.216769,4810749.000000,1673606876.867949
1673610972.749560,,,,0.215570,0.213836,4810750.000000,1673606876.868957
1673610972.749615,,,,0.212108,0.213307,4810751.000000,1673606876.869964
1673610972.749842,,,,0.214560,0.213860,4810752.000000,1673606876.870971
1673610972.749860,,,,0.213719,0.212995,4810753.000000,1673606876.871978
1673610972.751579,,,,0.215618,0.215278,4810754.000000,1673606876.872985
1673610972.752018,,,,0.238745,0.237155,4810755.000000,1673606876.873992
1673610972.752037,,,,0.277522,0.277567,4810756.000000,1673606876.874999
1673610972.752394,,,,0.295505,0.293939,4810757.000000,1673606876.876006
1673610972.766770,,,,0.297188,0.297689,4810758.000000,1673606876.877013
1673610972.766868,,,,0.299543,0.303219,4810759.000000,1673606876.878020
1673610972.767224,,,,0.300962,0.301872,4810760.000000,1673606876.879027
1673610972.767239,,,,0.304712,0.302954,4810761.000000,1673606876.880034
1673610972.769045,40.445496,3956024.000000,1673610972.757951,,,,
1673610972.769057,40.409309,3956025.000000,1673610972.758952,,,,
1673610972.769062,40.463585,3956026.000000,1673610972.759952,,,,
1673610972.769090,40.445496,3956027.000000,1673610972.760952,,,,
1673610972.769103,40.517853,3956028.000000,1673610972.761951,,,,
1673610972.769112,40.463585,3956029.000000,1673610972.762952,,,,
1673610972.769124,40.517853,3956030.000000,1673610972.763952,,,,
1673610972.769131,40.445496,3956031.000000,1673610972.764951,,,,
1673610972.769145,40.499763,3956032.000000,1673610972.765952,,,,
1673610972.769163,40.481674,3956033.000000,1673610972.766952,,,,
1673610972.771851,,,,0.287211,0.288145,4810762.000000,1673606876.881042
1673610972.771992,,,,0.266536,0.269153,4810763.000000,1673606876.882049
1673610972.772204,,,,0.258458,0.259561,4810764.000000,1673606876.883056
1673610972.772418,,,,0.242447,0.241459,4810765.000000,1673606876.884063
1673610972.772679,,,,0.228720,0.227419,4810766.000000,1673606876.885070
1673610972.772694,,,,0.224585,0.224871,4810767.000000,1673606876.886077
1673610972.774509,,,,0.218455,0.219606,4810768.000000,1673606876.887084
1673610972.774518,,,,0.206579,0.208451,4810769.000000,1673606876.888091
1673610972.774828,,,,0.206555,0.207922,4810770.000000,1673606876.889098
1673610972.775074,,,,0.203453,0.203475,4810771.000000,1673606876.890105
1673610972.775088,,,,0.200665,0.201455,4810772.000000,1673606876.891112
1673610972.775122,,,,0.204247,0.205542,4810773.000000,1673606876.892119
1673610972.775128,,,,0.223359,0.223308,4810774.000000,1673606876.893126
1673610972.775132,,,,0.238024,0.239006,4810775.000000,1673606876.894134
1673610972.779907,,,,0.246101,0.248238,4810776.000000,1673606876.895141
1673610972.779988,,,,0.258747,0.259513,4810777.000000,1673606876.896148
1673610972.780235,,,,0.271248,0.272663,4810778.000000,1673606876.897155
1673610972.780525,,,,0.273604,0.274610,4810779.000000,1673606876.898162
1673610972.780703,,,,0.273195,0.274514,4810780.000000,1673606876.899169
1673610972.780806,,,,0.278989,0.279034,4810781.000000,1673606876.900176
1673610972.781023,,,,0.273123,0.273505,4810782.000000,1673606876.901183
1673610972.781523,,,,0.259780,0.260210,4810783.000000,1673606876.902190
1673610972.781534,,,,0.218863,0.221914,4810784.000000,1673606876.903197
1673610972.781538,,,,0.200617,0.201335,4810785.000000,1673606876.904204
1673610972.781653,,,,0.192611,0.194339,4810786.000000,1673606876.905211
1673610972.782352,,,,0.175110,0.176814,4810787.000000,1673606876.906219
1673610972.782659,,,,0.177802,0.176237,4810788.000000,1673606876.907226
1673610972.782671,,,,0.192034,0.190060,4810789.000000,1673606876.908233
1673610972.782881,,,,0.204247,0.200445,4810790.000000,1673606876.909240
1673610972.783104,,,,0.218335,0.216480,4810791.000000,1673606876.910247
1673610972.783387,,,,0.235139,0.236073,4810792.000000,1673606876.911254
1673610972.783574,,,,0.247640,0.250041,4810793.000000,1673606876.912261
1673610972.783779,,,,0.258050,0.256171,4810794.000000,1673606876.913268
1673610972.783875,,,,0.259300,0.260547,4810795.000000,1673606876.914275
1673610972.784278,,,,0.266416,0.266773,4810796.000000,1673606876.915282
1673610972.784286,,,,0.269012,0.264081,4810797.000000,1673606876.916289
1673610972.784600,,,,0.239346,0.237107,4810798.000000,1673606876.917296
1673610972.784689,,,,0.199006,0.197488,4810799.000000,1673606876.918303
1673610972.787012,,,,0.179437,0.178977,4810800.000000,1673606876.919311
1673610972.787166,,,,0.180471,0.181501,4810801.000000,1673606876.920318
1673610972.787430,,,,0.186505,0.186598,4810802.000000,1673606876.921325
1673610972.787664,,,,0.174749,0.175563,4810803.000000,1673606876.922332
1673610972.787899,,,,0.161935,0.161884,4810804.000000,1673606876.923339
1673610972.788008,,,,0.150300,0.150730,4810805.000000,1673606876.924346
1673610972.788289,,,,0.160325,0.159264,4810806.000000,1673606876.925353
1673610972.788325,,,,0.189895,0.191719,4810807.000000,1673606876.926360
1673610972.789892,,,,0.215089,0.219125,4810808.000000,1673606876.927367
1673610972.790062,,,,0.235091,0.236699,4810809.000000,1673606876.928374
1673610972.790147,,,,0.249707,0.248286,4810810.000000,1673606876.929381
1673610972.790352,,,,0.260742,0.260042,4810811.000000,1673606876.930388
1673610972.790417,,,,0.257184,0.255979,4810812.000000,1673606876.931396
1673610972.790615,,,,0.244875,0.242204,4810813.000000,1673606876.932403
1673610972.790645,,,,0.255694,0.255066,4810814.000000,1673606876.933410
1673610972.794690,,,,0.280840,0.277327,4810815.000000,1673606876.934417
1673610972.795018,,,,0.307092,0.306969,4810816.000000,1673606876.935424
1673610972.795359,,,,0.316901,0.316008,4810817.000000,1673606876.936431
1673610972.795504,,,,0.312862,0.311513,4810818.000000,1673606876.937438
1673610972.795745,,,,0.320074,0.319903,4810819.000000,1673606876.938445
1673610972.795938,,,,0.331181,0.333342,4810820.000000,1673606876.939452
1673610972.796546,,,,0.333489,0.334279,4810821.000000,1673606876.940459
1673610972.796558,,,,0.319762,0.321970,4810822.000000,1673606876.941466
1673610972.796563,,,,0.296995,0.297617,4810823.000000,1673606876.942473
1673610972.796666,,,,0.278364,0.279491,4810824.000000,1673606876.943480
1673610972.796868,,,,0.255934,0.256700,4810825.000000,1673606876.944488
1673610972.797281,,,,0.236942,0.236939,4810826.000000,1673606876.945495
1673610972.797323,,,,0.224513,0.225736,4810827.000000,1673606876.946502
1673610972.797330,,,,0.219897,0.218933,4810828.000000,1673606876.947509
1673610972.797475,,,,0.217301,0.215952,4810829.000000,1673606876.948516
1673610972.797580,,,,0.212613,0.216673,4810830.000000,1673606876.949523
1673610972.797761,,,,0.204607,0.206912,4810831.000000,1673606876.950530
1673610972.797909,,,,0.229922,0.226121,4810832.000000,1673606876.951537
1673610972.801893,,,,0.248698,0.246002,4810833.000000,1673606876.952544
1673610972.802176,,,,0.256655,0.254753,4810834.000000,1673606876.953551
1673610972.802236,,,,0.257376,0.254224,4810835.000000,1673606876.954558
1673610972.802325,,,,0.257497,0.255763,4810836.000000,1673606876.955565
1673610972.802449,,,,0.257256,0.257974,4810837.000000,1673606876.956573
1673610972.802554,,,,0.256415,0.255090,4810838.000000,1673606876.957580
1673610972.802652,,,,0.263603,0.261460,4810839.000000,1673606876.958587
1673610972.804158,,,,0.267954,0.266869,4810840.000000,1673606876.959594
1673610972.804271,,,,0.253530,0.250113,4810841.000000,1673606876.960601
1673610972.804278,,,,0.237158,0.234198,4810842.000000,1673606876.961608
1673610972.804389,,,,0.225955,0.227563,4810843.000000,1673606876.962615
1673610972.804441,,,,0.218551,0.219942,4810844.000000,1673606876.963622
1673610972.804447,,,,0.220498,0.221601,4810845.000000,1673606876.964629
1673610972.809015,,,,0.221917,0.222082,4810846.000000,1673606876.965636
1673610972.809110,,,,0.210738,0.209629,4810847.000000,1673606876.966643
1673610972.809266,,,,0.208887,0.210494,4810848.000000,1673606876.967650
1673610972.809278,,,,0.214873,0.211648,4810849.000000,1673606876.968657
1673610972.825593,,,,0.212757,0.207730,4810850.000000,1673606876.969665
1673610972.826300,,,,0.212517,0.209869,4810851.000000,1673606876.970672
1673610972.826331,,,,0.220835,0.220663,4810852.000000,1673606876.971679
1673610972.826402,,,,0.229754,0.230328,4810853.000000,1673606876.972686
1673610972.831975,40.445496,3956034.000000,1673610972.771111,,,,
1673610972.832546,40.445496,3956035.000000,1673610972.772111,,,,
1673610972.832942,,,,0.224825,0.226289,4810854.000000,1673606876.973693
1673610972.832962,,,,0.217854,0.218957,4810855.000000,1673606876.974700
1673610972.832973,,,,0.234322,0.234174,4810856.000000,1673606876.975707
1673610972.832979,40.499763,3956036.000000,1673610972.773111,,,,
1673610972.833030,40.481674,3956037.000000,1673610972.774111,,,,
1673610972.833047,40.463585,3956038.000000,1673610972.775111,,,,
1673610972.833056,40.481674,3956039.000000,1673610972.776111,,,,
1673610972.833096,40.499763,3956040.000000,1673610972.777111,,,,
1673610972.833186,40.662575,3956062.000000,1673610972.799111,,,,
1673610972.833908,40.698750,3956063.000000,1673610972.800111,,,,
1673610972.833917,40.626396,3956064.000000,1673610972.801111,,,,
1673610972.833939,40.644485,3956065.000000,1673610972.802111,,,,
1673610972.833947,40.698750,3956066.000000,1673610972.803111,,,,
1673610972.833951,40.716850,3956067.000000,1673610972.804111,,,,
1673610972.833992,40.734936,3956068.000000,1673610972.805111,,,,
1673610972.833995,40.753025,3956069.000000,1673610972.806111,,,,
1673610972.833998,40.789204,3956070.000000,1673610972.807111,,,,
1673610972.834015,40.771114,3956071.000000,1673610972.808111,,,,
1673610972.834021,40.933926,3956085.000000,1673610972.822111,,,,
1673610972.834047,40.933926,3956086.000000,1673610972.823111,,,,
1673610972.834056,40.970104,3956087.000000,1673610972.824111,,,,
1673610972.834061,40.970104,3956088.000000,1673610972.825111,,,,
1673610972.834073,40.952015,3956089.000000,1673610972.826111,,,,
1673610972.834098,40.970104,3956090.000000,1673610972.827111,,,,
1673610972.834107,40.933926,3956091.000000,1673610972.828111,,,,
1673610972.834112,40.915836,3956092.000000,1673610972.829111,,,,
1673610972.834127,40.970104,3956093.000000,1673610972.830111,,,,
1673610972.834130,40.952015,3956094.000000,1673610972.831111,,,,
1673610972.839503,,,,0.260814,0.258696,4810857.000000,1673606876.976714
1673610972.839733,,,,0.267810,0.266533,4810858.000000,1673606876.977721
1673610972.839890,,,,0.271320,0.271581,4810859.000000,1673606876.978728
1673610972.839903,,,,0.288052,0.287160,4810860.000000,1673606876.979735
1673610972.840042,,,,0.280455,0.281029,4810861.000000,1673606876.980742
1673610972.840232,,,,0.242014,0.242685,4810862.000000,1673606876.981750
1673610972.840393,,,,0.201073,0.201046,4810863.000000,1673606876.982757
1673610972.840539,,,,0.184173,0.186670,4810864.000000,1673606876.983764
1673610972.841397,,,,0.190015,0.191671,4810865.000000,1673606876.984771
1673610972.841547,,,,0.209680,0.209172,4810866.000000,1673606876.985778
1673610972.847383,,,,0.231316,0.226770,4810867.000000,1673606876.986785
1673610972.847410,,,,0.246390,0.244752,4810868.000000,1673606876.987792
1673610972.847725,,,,0.262978,0.259489,4810869.000000,1673606876.988799
1673610972.847736,,,,0.271464,0.269153,4810870.000000,1673606876.989806
1673610972.847744,,,,0.277090,0.278818,4810871.000000,1673606876.990813
1673610972.847748,,,,0.278099,0.279947,4810872.000000,1673606876.991820
1673610972.847780,,,,0.262785,0.261989,4810873.000000,1673606876.992827
1673610972.847946,,,,0.249491,0.246796,4810874.000000,1673606876.993834
1673610972.848085,,,,0.241942,0.242396,4810875.000000,1673606876.994842
1673610972.848171,,,,0.241558,0.241915,4810876.000000,1673606876.995849
1673610972.848272,,,,0.239466,0.239343,4810877.000000,1673606876.996856
1673610972.848783,,,,0.242447,0.242204,4810878.000000,1673606876.997863
1673610972.848942,,,,0.246534,0.247445,4810879.000000,1673606876.998870
1673610972.848985,,,,0.255213,0.255883,4810880.000000,1673606876.999877
1673610972.849039,,,,0.252087,0.254993,4810881.000000,1673606877.000884
1673610972.854181,,,,0.231365,0.230015,4810882.000000,1673606877.001891
1673610972.854205,,,,0.203718,0.201816,4810883.000000,1673606877.002898
1673610972.854439,,,,0.172609,0.171284,4810884.000000,1673606877.003905
1673610972.854751,,,,0.165421,0.163591,4810885.000000,1673606877.004912
1673610972.856666,,,,0.171167,0.170827,4810886.000000,1673606877.005919
1673610972.856797,,,,0.172081,0.172919,4810887.000000,1673606877.006927
1673610972.856817,,,,0.182514,0.183160,4810888.000000,1673606877.007934
1673610972.861529,,,,0.206074,0.207802,4810889.000000,1673606877.008941
1673610972.861892,,,,0.234586,0.236650,4810890.000000,1673606877.009948
1673610972.861909,,,,0.254083,0.254945,4810891.000000,1673606877.010955
1673610972.864562,,,,0.274349,0.275139,4810892.000000,1673606877.011962
1673610972.865000,,,,0.294952,0.294252,4810893.000000,1673606877.012969
1673610972.865425,,,,0.311972,0.311825,4810894.000000,1673606877.013976
1673610972.866223,,,,0.308102,0.308267,4810895.000000,1673606877.014983
1673610972.866253,,,,0.311948,0.312835,4810896.000000,1673606877.015990
1673610972.866266,,,,0.319425,0.319446,4810897.000000,1673606877.016997
1673610972.866498,,,,0.302573,0.301103,4810898.000000,1673606877.018004
1673610972.870070,,,,0.285456,0.283433,4810899.000000,1673606877.019011
1673610972.870084,,,,0.275287,0.273841,4810900.000000,1673606877.020019
1673610972.870089,,,,0.256367,0.256412,4810901.000000,1673606877.021026
1673610972.870096,,,,0.236365,0.234631,4810902.000000,1673606877.022033
1673610972.870151,,,,0.234802,0.233453,4810903.000000,1673606877.023040
1673610972.870502,,,,0.234442,0.236049,4810904.000000,1673606877.024047
1673610972.870973,,,,0.225114,0.226097,4810905.000000,1673606877.025054
1673610972.871110,,,,0.203526,0.201479,4810906.000000,1673606877.026061
1673610972.871599,,,,0.195785,0.195757,4810907.000000,1673606877.027068
1673610972.871804,,,,0.202492,0.203979,4810908.000000,1673606877.028075
1673610972.872539,,,,0.205497,0.207129,4810909.000000,1673606877.029082
1673610972.872562,,,,0.210593,0.209292,4810910.000000,1673606877.030089
1673610972.885141,,,,0.230739,0.232852,4810911.000000,1673606877.031096
1673610972.885339,,,,0.257473,0.256268,4810912.000000,1673606877.032104
1673610972.885350,,,,0.271392,0.272543,4810913.000000,1673606877.033111
1673610972.892900,,,,0.283460,0.285188,4810914.000000,1673606877.034118
1673610972.893151,,,,0.293509,0.292256,4810915.000000,1673606877.035125
1673610972.893156,,,,0.295072,0.297641,4810916.000000,1673606877.036132
1673610972.893306,,,,0.291250,0.291896,4810917.000000,1673606877.037139
1673610972.897021,41.006290,3956146.000000,1673610972.886819,,,,
1673610972.897030,41.006290,3956147.000000,1673610972.887819,,,,
1673610972.897033,41.024380,3956148.000000,1673610972.888819,,,,
1673610972.897078,41.042469,3956149.000000,1673610972.889819,,,,
1673610972.897087,41.006290,3956150.000000,1673610972.890819,,,,
1673610972.897091,41.024380,3956151.000000,1673610972.891819,,,,
1673610972.897095,40.988201,3956152.000000,1673610972.892819,,,,
1673610972.897108,41.096737,3956153.000000,1673610972.893819,,,,
1673610972.897121,41.060558,3956154.000000,1673610972.894819,,,,
1673610972.897137,41.096737,3956155.000000,1673610972.895819,,,,
1673610972.899067,,,,0.283244,0.284131,4810918.000000,1673606877.038146
1673610972.899225,,,,0.274686,0.277255,4810919.000000,1673606877.039153
1673610972.899238,,,,0.270262,0.271605,4810920.000000,1673606877.040160
1673610972.901411,,,,0.261223,0.264970,4810921.000000,1673606877.041167
1673610972.901610,,,,0.251559,0.250618,4810922.000000,1673606877.042174
1673610972.901850,,,,0.242712,0.240184,4810923.000000,1673606877.043181
1673610972.907189,,,,0.212829,0.210999,4810924.000000,1673606877.044188
1673610972.908281,,,,0.183332,0.182776,4810925.000000,1673606877.045196
1673610972.908301,,,,0.160998,0.161307,4810926.000000,1673606877.046203
1673610972.908312,,,,0.143016,0.144960,4810927.000000,1673606877.047210
1673610972.908319,,,,0.126860,0.130367,4810928.000000,1673606877.048217
1673610972.908378,,,,0.120297,0.121400,4810929.000000,1673606877.049224
1673610972.908399,,,,0.130923,0.129886,4810930.000000,1673606877.050231
1673610972.908424,,,,0.159411,0.155249,4810931.000000,1673606877.051238
1673610972.908524,,,,0.191217,0.188617,4810932.000000,1673606877.052245
1673610972.908531,,,,0.222013,0.222442,4810933.000000,1673606877.053252
1673610972.908602,,,,0.248674,0.248887,4810934.000000,1673606877.054259
1673610972.909139,,,,0.266704,0.269634,4810935.000000,1673606877.055266
1673610972.909184,,,,0.297644,0.299444,4810936.000000,1673606877.056273
1673610972.909191,,,,0.331734,0.334063,4810937.000000,1673606877.057281
1673610972.909219,,,,0.357505,0.357406,4810938.000000,1673606877.058288
1673610972.914154,,,,0.371497,0.369354,4810939.000000,1673606877.059295
1673610972.914172,,,,0.365270,0.364017,4810940.000000,1673606877.060302
1673610972.914489,,,,0.330003,0.329207,4810941.000000,1673606877.061309
1673610972.916456,,,,0.281273,0.281702,4810942.000000,1673606877.062316
1673610972.916681,,,,0.251198,0.250257,4810943.000000,1673606877.063323
1673610972.916923,,,,0.242976,0.241435,4810944.000000,1673606877.064330
1673610972.917213,,,,0.236774,0.236867,4810945.000000,1673606877.065337
1673610972.921646,,,,0.233216,0.234463,4810946.000000,1673606877.066344
1673610972.922421,,,,0.208574,0.208331,4810947.000000,1673606877.067351
1673610972.922444,,,,0.167008,0.166236,4810948.000000,1673606877.068358
1673610972.924455,,,,0.145179,0.143878,4810949.000000,1673606877.069366
1673610972.924764,,,,0.138280,0.139575,4810950.000000,1673606877.070373
1673610972.924858,,,,0.162248,0.162149,4810951.000000,1673606877.071380
1673610972.925148,,,,0.201650,0.202753,4810952.000000,1673606877.072387
1673610972.929729,,,,0.240019,0.242829,4810953.000000,1673606877.073394
1673610972.930317,,,,0.266488,0.268023,4810954.000000,1673606877.074401
1673610972.930650,,,,0.294086,0.291968,4810955.000000,1673606877.075408
1673610972.930671,,,,0.321805,0.320047,4810956.000000,1673606877.076415
1673610972.930946,,,,0.343273,0.342597,4810957.000000,1673606877.077422
1673610972.931196,,,,0.350389,0.349449,4810958.000000,1673606877.078429
1673610972.931521,,,,0.362530,0.364450,4810959.000000,1673606877.079436
1673610972.931864,,,,0.368708,0.369643,4810960.000000,1673606877.080443
1673610972.932213,,,,0.345461,0.343655,4810961.000000,1673606877.081450
1673610972.933051,,,,0.301563,0.299877,4810962.000000,1673606877.082458
1673610972.933067,,,,0.245669,0.245281,4810963.000000,1673606877.083465
1673610972.933283,,,,0.208117,0.210687,4810964.000000,1673606877.084472
1673610972.933319,,,,0.178403,0.179963,4810965.000000,1673606877.085479
1673610972.933606,,,,0.150636,0.150393,4810966.000000,1673606877.086486
1673610972.933612,,,,0.136933,0.132411,4810967.000000,1673606877.087493
1673610972.936588,,,,0.130683,0.127603,4810968.000000,1673606877.088500
1673610972.936602,,,,0.139938,0.139575,4810969.000000,1673606877.089507
1673610972.936629,,,,0.139938,0.141041,4810970.000000,1673606877.090514
1673610972.938934,,,,0.148256,0.149359,4810971.000000,1673606877.091521
1673610972.939107,,,,0.174004,0.175852,4810972.000000,1673606877.092528
1673610972.939379,,,,0.204199,0.205638,4810973.000000,1673606877.093535
1673610972.939390,,,,0.237254,0.237540,4810974.000000,1673606877.094543
1673610972.953368,,,,0.279037,0.276606,4810975.000000,1673606877.095550
1673610972.953954,,,,0.319593,0.319807,4810976.000000,1673606877.096557
1673610972.953983,,,,0.345221,0.347021,4810977.000000,1673606877.097564
1673610972.954317,,,,0.360895,0.361012,4810978.000000,1673606877.098571
1673610972.954594,,,,0.360871,0.358320,4810979.000000,1673606877.099578
1673610972.954897,,,,0.345822,0.344881,4810980.000000,1673606877.100585
1673610972.959543,41.042469,3956156.000000,1673610972.898780,,,,
1673610972.960385,41.114822,3956157.000000,1673610972.899780,,,,
1673610972.960399,,,,0.327118,0.325264,4810981.000000,1673606877.101592
1673610972.960504,,,,0.304712,0.306416,4810982.000000,1673606877.102599
1673610972.960639,41.060558,3956178.000000,1673610972.920780,,,,
1673610972.960724,,,,0.292259,0.293891,4810983.000000,1673606877.103606
1673610972.960874,41.078648,3956179.000000,1673610972.921780,,,,
