__time,/gdx/grip_force_stream/grip_force,/gdx/grip_force_stream/header/seq,/gdx/grip_force_stream/header/stamp,/shimmer0/emg_stream/emg_ch1,/shimmer0/emg_stream/emg_ch2,/shimmer0/emg_stream/header/seq,/shimmer0/emg_stream/header/stamp
1673611219.750496,,,,18.075554,18.082619,5056000.000000,1673607123.855346
1673611219.750505,,,,18.067596,18.075287,5056001.000000,1673607123.856353
1673611219.754695,-0.492456,4192461.000000,1673611219.745382,,,,
1673611219.754700,-0.528634,4192462.000000,1673611219.746382,,,,
1673611219.754703,-0.456278,4192463.000000,1673611219.747382,,,,
1673611219.754706,-0.510545,4192464.000000,1673611219.748382,,,,
1673611219.754717,-0.528634,4192465.000000,1673611219.749382,,,,
1673611219.754782,-0.546731,4192466.000000,1673611219.750382,,,,
1673611219.754788,-0.528634,4192467.000000,1673611219.751382,,,,
1673611219.754794,-0.510545,4192468.000000,1673611219.752382,,,,
1673611219.754810,-0.510545,4192469.000000,1673611219.753382,,,,
1673611219.756584,,,,18.060553,18.066919,5056002.000000,1673607123.857360
1673611219.756626,,,,18.058197,18.063890,5056003.000000,1673607123.858367
1673611219.756633,,,,18.050743,18.059467,5056004.000000,1673607123.859374
1673611219.759651,,,,18.048412,18.057352,5056005.000000,1673607123.860381
1673611219.759689,,,,18.052402,18.058771,5056006.000000,1673607123.861388
1673611219.759697,,,,18.058605,18.066391,5056007.000000,1673607123.862395
1673611219.759734,,,,18.066515,18.074326,5056008.000000,1673607123.863402
1673611219.759741,,,,18.079088,18.085239,5056009.000000,1673607123.864409
1673611219.764133,,,,18.089329,18.095097,5056010.000000,1673607123.865417
1673611219.764364,,,,18.099018,18.109880,5056011.000000,1673607123.866424
1673611219.767449,,,,18.103416,18.112646,5056012.000000,1673607123.867431
1673611219.767465,,,,18.111782,18.117645,5056013.000000,1673607123.868438
1673611219.767678,,,,18.117769,18.125916,5056014.000000,1673607123.869445
1673611219.767694,,,,18.118731,18.128344,5056015.000000,1673607123.870452
1673611219.767966,,,,18.116087,18.124641,5056016.000000,1673607123.871459
1673611219.768267,,,,18.114235,18.121588,5056017.000000,1673607123.872466
1673611219.768446,,,,18.103584,18.110168,5056018.000000,1673607123.873473
1673611219.768860,,,,18.090290,18.096947,5056019.000000,1673607123.874480
1673611219.772188,,,,18.080145,18.085815,5056020.000000,1673607123.875487
1673611219.772207,,,,18.071634,18.078028,5056021.000000,1673607123.876494
1673611219.772462,,,,18.063246,18.070141,5056022.000000,1673607123.877501
1673611219.772639,,,,18.058870,18.064083,5056023.000000,1673607123.878509
1673611219.773054,,,,18.054255,18.061367,5056024.000000,1673607123.879516
1673611219.773510,,,,18.060265,18.066126,5056025.000000,1673607123.880523
1673611219.773528,,,,18.067812,18.074493,5056026.000000,1673607123.881530
1673611219.773993,,,,18.073967,18.079157,5056027.000000,1673607123.882537
1673611219.774303,,,,18.082983,18.087620,5056028.000000,1673607123.883544
1673611219.774324,,,,18.092070,18.100744,5056029.000000,1673607123.884551
1673611219.774437,,,,18.100964,18.108822,5056030.000000,1673607123.885558
1673611219.779158,,,,18.109354,18.115458,5056031.000000,1673607123.886565
1673611219.779230,,,,18.117722,18.123463,5056032.000000,1673607123.887572
1673611219.779418,,,,18.128395,18.133080,5056033.000000,1673607123.888579
1673611219.779584,,,,18.133492,18.140869,5056034.000000,1673607123.889586
1673611219.781415,,,,18.132603,18.138777,5056035.000000,1673607123.890594
1673611219.781581,,,,18.127817,18.132191,5056036.000000,1673607123.891601
1673611219.787276,,,,18.123852,18.130026,5056037.000000,1673607123.892608
1673611219.787301,,,,18.114019,18.121107,5056038.000000,1673607123.893615
1673611219.787322,,,,18.105219,18.112381,5056039.000000,1673607123.894622
1673611219.787332,,,,18.093777,18.100504,5056040.000000,1673607123.895629
1673611219.788979,,,,18.084160,18.092546,5056041.000000,1673607123.896636
1673611219.789352,,,,18.074785,18.085382,5056042.000000,1673607123.897643
1673611219.789584,,,,18.062403,18.071705,5056043.000000,1673607123.898650
1673611219.789801,,,,18.055431,18.061222,5056044.000000,1673607123.899657
1673611219.794443,,,,18.049854,18.057953,5056045.000000,1673607123.900664
1673611219.794457,,,,18.054445,18.063602,5056046.000000,1673607123.901671
1673611219.794543,,,,18.068413,18.075670,5056047.000000,1673607123.902678
1673611219.796640,,,,18.084497,18.089808,5056048.000000,1673607123.903686
1673611219.796948,,,,18.098104,18.105192,5056049.000000,1673607123.904693
1673611219.796979,,,,18.103825,18.110289,5056050.000000,1673607123.905700
1673611219.797252,,,,18.108273,18.115915,5056051.000000,1673607123.906707
1673611219.810376,,,,18.116447,18.122574,5056052.000000,1673607123.907714
1673611219.810729,,,,18.127867,18.133825,5056053.000000,1673607123.908721
1673611219.810808,,,,18.131063,18.139427,5056054.000000,1673607123.909728
1673611219.810815,,,,18.127073,18.133778,5056055.000000,1673607123.910735
1673611219.817241,-0.528634,4192470.000000,1673611219.756765,,,,
1673611219.817614,,,,18.119789,18.126444,5056056.000000,1673607123.911742
1673611219.817807,,,,18.117384,18.125027,5056057.000000,1673607123.912749
1673611219.817981,,,,18.107697,18.116829,5056058.000000,1673607123.913756
1673611219.818620,-0.510545,4192471.000000,1673611219.757765,,,,
1673611219.818638,-0.528634,4192472.000000,1673611219.758765,,,,
1673611219.818673,-0.383913,4192521.000000,1673611219.807765,,,,
1673611219.818681,-0.383913,4192522.000000,1673611219.808765,,,,
1673611219.818751,-0.329646,4192523.000000,1673611219.809765,,,,
1673611219.818762,-0.383913,4192524.000000,1673611219.810765,,,,
1673611219.818769,-0.347735,4192525.000000,1673611219.811764,,,,
1673611219.818834,-0.365824,4192526.000000,1673611219.812765,,,,
1673611219.818839,-0.347735,4192527.000000,1673611219.813765,,,,
1673611219.818843,-0.402011,4192528.000000,1673611219.814764,,,,
1673611219.818856,-0.383913,4192529.000000,1673611219.815765,,,,
1673611219.818863,-0.293468,4192530.000000,1673611219.816765,,,,
1673611219.824390,,,,18.094137,18.099520,5056059.000000,1673607123.914763
1673611219.824402,,,,18.082380,18.089085,5056060.000000,1673607123.915771
1673611219.824473,,,,18.072285,18.077955,5056061.000000,1673607123.916778
1673611219.826831,,,,18.065865,18.073820,5056062.000000,1673607123.917785
1673611219.826849,,,,18.061562,18.068506,5056063.000000,1673607123.918792
1673611219.826870,,,,18.056370,18.060959,5056064.000000,1673607123.919799
1673611219.826884,,,,18.057114,18.062977,5056065.000000,1673607123.920806
1673611219.832641,,,,18.060120,18.068003,5056066.000000,1673607123.921813
1673611219.832998,,,,18.066803,18.070381,5056067.000000,1673607123.922820
1673611219.833413,,,,18.077116,18.080551,5056068.000000,1673607123.923827
1673611219.834872,,,,18.134501,18.140388,5056074.000000,1673607123.929870
1673611219.834897,,,,18.128948,18.135242,5056075.000000,1673607123.930877
1673611219.834909,,,,18.124115,18.131012,5056076.000000,1673607123.931884
1673611219.834971,,,,18.120823,18.128008,5056077.000000,1673607123.932891
1673611219.835031,,,,18.112936,18.118416,5056078.000000,1673607123.933898
1673611219.835041,,,,18.101036,18.105145,5056079.000000,1673607123.934905
1673611219.835068,,,,18.089569,18.094063,5056080.000000,1673607123.935912
1673611219.835079,,,,18.080675,18.085215,5056081.000000,1673607123.936919
1673611219.835113,,,,18.073294,18.078436,5056082.000000,1673607123.937926
1673611219.835120,,,,18.065962,18.073050,5056083.000000,1673607123.938933
1673611219.839817,,,,18.057980,18.064589,5056084.000000,1673607123.939940
1673611219.840104,,,,18.059855,18.066416,5056085.000000,1673607123.940948
1673611219.840261,,,,18.066851,18.074108,5056086.000000,1673607123.941955
1673611219.840858,,,,18.076347,18.081610,5056087.000000,1673607123.942962
1673611219.840873,,,,18.086708,18.094494,5056088.000000,1673607123.943969
1673611219.840886,,,,18.096926,18.103678,5056089.000000,1673607123.944976
1673611219.840901,,,,18.108297,18.113415,5056090.000000,1673607123.945983
1673611219.841336,,,,18.115654,18.122189,5056091.000000,1673607123.946990
1673611219.841684,,,,18.120943,18.129810,5056092.000000,1673607123.947997
1673611219.841969,,,,18.129957,18.137913,5056093.000000,1673607123.949004
1673611219.842322,,,,18.134428,18.142286,5056094.000000,1673607123.950011
1673611219.842598,,,,18.131496,18.138056,5056095.000000,1673607123.951018
1673611219.843093,,,,18.125389,18.131229,5056096.000000,1673607123.952025
1673611219.843215,,,,18.118177,18.125242,5056097.000000,1673607123.953032
1673611219.847002,,,,18.108513,18.114016,5056098.000000,1673607123.954040
1673611219.847179,,,,18.097239,18.102596,5056099.000000,1673607123.955047
1673611219.847247,,,,18.081636,18.091778,5056100.000000,1673607123.956054
1673611219.847439,,,,18.076780,18.083340,5056101.000000,1673607123.957061
1673611219.847653,,,,18.069038,18.075720,5056102.000000,1673607123.958068
1673611219.847663,,,,18.063869,18.069878,5056103.000000,1673607123.959075
1673611219.847800,,,,18.059832,18.066198,5056104.000000,1673607123.960082
1673611219.848916,,,,18.059927,18.065695,5056105.000000,1673607123.961089
1673611219.848926,,,,18.063461,18.068651,5056106.000000,1673607123.962096
1673611219.849044,,,,18.069567,18.075743,5056107.000000,1673607123.963103
1673611219.854654,,,,18.081036,18.087259,5056108.000000,1673607123.964110
1673611219.854790,,,,18.093056,18.100313,5056109.000000,1673607123.965117
1673611219.854949,,,,18.099859,18.108221,5056110.000000,1673607123.966125
1673611219.855088,,,,18.105965,18.114351,5056111.000000,1673607123.967132
1673611219.855099,,,,18.109932,18.117670,5056112.000000,1673607123.968139
1673611219.855257,,,,18.117336,18.123896,5056113.000000,1673607123.969146
1673611219.855356,,,,18.122025,18.129715,5056114.000000,1673607123.970153
1673611219.855463,,,,18.123827,18.127838,5056115.000000,1673607123.971160
1673611219.855582,,,,18.117962,18.124689,5056116.000000,1673607123.972167
1673611219.855775,,,,18.110004,18.119377,5056117.000000,1673607123.973174
1673611219.855779,,,,18.100580,18.108654,5056118.000000,1673607123.974181
1673611219.856814,,,,18.090410,18.097548,5056119.000000,1673607123.975188
1673611219.856820,,,,18.079304,18.086466,5056120.000000,1673607123.976195
1673611219.856830,,,,18.071371,18.079903,5056121.000000,1673607123.977202
1673611219.856970,,,,18.063196,18.071825,5056122.000000,1673607123.978209
1673611219.857166,,,,18.057356,18.064131,5056123.000000,1673607123.979217
1673611219.857172,,,,18.056826,18.062160,5056124.000000,1673607123.980224
1673611219.857273,,,,18.060385,18.065815,5056125.000000,1673607123.981231
1673611219.857394,,,,18.060913,18.065285,5056126.000000,1673607123.982238
1673611219.878825,,,,18.061274,18.066656,5056127.000000,1673607123.983245
1673611219.878859,,,,18.065842,18.073267,5056128.000000,1673607123.984252
1673611219.879356,,,,18.078342,18.085167,5056129.000000,1673607123.985259
1673611219.879370,,,,18.096060,18.102091,5056130.000000,1673607123.986266
1673611219.879781,,,,18.106062,18.111322,5056131.000000,1673607123.987273
1673611219.879985,,,,18.114643,18.119833,5056132.000000,1673607123.988280
1673611219.880003,,,,18.121231,18.128248,5056133.000000,1673607123.989287
1673611219.883323,-0.257290,4192582.000000,1673611219.871930,,,,
1673611219.883341,-0.275379,4192583.000000,1673611219.872930,,,,
1673611219.883377,-0.239193,4192584.000000,1673611219.873930,,,,
1673611219.883386,-0.257290,4192585.000000,1673611219.874930,,,,
1673611219.883393,-0.203014,4192586.000000,1673611219.875930,,,,
1673611219.883399,-0.239193,4192587.000000,1673611219.876930,,,,
1673611219.883436,-0.275379,4192588.000000,1673611219.877930,,,,
1673611219.883442,-0.239193,4192589.000000,1673611219.878930,,,,
1673611219.883459,-0.257290,4192590.000000,1673611219.879930,,,,
1673611219.883496,-0.257290,4192591.000000,1673611219.880930,,,,
1673611219.885284,,,,18.123322,18.131252,5056134.000000,1673607123.990294
1673611219.885459,,,,18.123732,18.131037,5056135.000000,1673607123.991302
1673611219.885682,,,,18.123299,18.127623,5056136.000000,1673607123.992309
1673611219.885893,,,,18.118177,18.123007,5056137.000000,1673607123.993316
1673611219.886071,,,,18.108706,18.114424,5056138.000000,1673607123.994323
1673611219.886143,,,,18.096973,18.103197,5056139.000000,1673607123.995330
1673611219.886152,,,,18.085361,18.089735,5056140.000000,1673607123.996337
1673611219.886377,,,,18.076107,18.079685,5056141.000000,1673607123.997344
1673611219.886567,,,,18.065649,18.070766,5056142.000000,1673607123.998351
1673611219.886723,,,,18.060024,18.065958,5056143.000000,1673607123.999358
1673611219.886934,,,,18.058750,18.067522,5056144.000000,1673607124.000365
1673611219.887098,,,,18.062595,18.070261,5056145.000000,1673607124.001372
1673611219.887254,,,,18.074135,18.080406,5056146.000000,1673607124.002379
1673611219.887411,,,,18.081059,18.089375,5056147.000000,1673607124.003386
1673611219.887969,,,,18.091661,18.095840,5056148.000000,1673607124.004394
1673611219.887992,,,,18.101854,18.105289,5056149.000000,1673607124.005401
1673611219.888006,,,,18.109114,18.117262,5056150.000000,1673607124.006408
1673611219.888273,,,,18.117119,18.126011,5056151.000000,1673607124.007415
1673611219.888360,,,,18.124908,18.131685,5056152.000000,1673607124.008422
1673611219.888371,,,,18.128035,18.134499,5056153.000000,1673607124.009429
1673611219.888498,,,,18.132120,18.137768,5056154.000000,1673607124.010436
1673611219.892338,,,,18.131039,18.137190,5056155.000000,1673607124.011443
1673611219.892355,,,,18.128418,18.134499,5056156.000000,1673607124.012450
1673611219.892366,,,,18.118465,18.123680,5056157.000000,1673607124.013457
1673611219.892374,,,,18.106903,18.110048,5056158.000000,1673607124.014464
1673611219.892408,,,,18.089424,18.092979,5056159.000000,1673607124.015471
1673611219.892637,,,,18.075890,18.081200,5056160.000000,1673607124.016479
1673611219.892654,,,,18.071539,18.075022,5056161.000000,1673607124.017486
1673611219.894183,,,,18.065121,18.071993,5056162.000000,1673607124.018493
1673611219.894218,,,,18.063581,18.070574,5056163.000000,1673607124.019500
1673611219.894226,,,,18.064375,18.071272,5056164.000000,1673607124.020507
1673611219.899551,,,,18.068245,18.074348,5056165.000000,1673607124.021514
1673611219.899896,,,,18.077141,18.082426,5056166.000000,1673607124.022521
1673611219.899908,,,,18.095003,18.098341,5056167.000000,1673607124.023528
1673611219.900184,,,,18.107384,18.113197,5056168.000000,1673607124.024535
1673611219.900201,,,,18.111349,18.118366,5056169.000000,1673607124.025542
1673611219.900287,,,,18.117624,18.125050,5056170.000000,1673607124.026549
1673611219.900345,,,,18.125942,18.134691,5056171.000000,1673607124.027556
1673611219.901626,,,,18.131063,18.141710,5056172.000000,1673607124.028563
1673611219.901751,,,,18.132746,18.142046,5056173.000000,1673607124.029571
1673611219.901849,,,,18.129742,18.137600,5056174.000000,1673607124.030578
1673611219.901972,,,,18.126160,18.134138,5056175.000000,1673607124.031585
1673611219.902107,,,,18.123394,18.129450,5056176.000000,1673607124.032592
1673611219.902310,,,,18.114691,18.121828,5056177.000000,1673607124.033599
1673611219.902397,,,,18.103514,18.109808,5056178.000000,1673607124.034606
1673611219.902402,,,,18.095364,18.103222,5056179.000000,1673607124.035613
1673611219.906683,,,,18.082573,18.089687,5056180.000000,1673607124.036620
1673611219.906857,,,,18.066610,18.073868,5056181.000000,1673607124.037627
1673611219.907088,,,,18.065649,18.072786,5056182.000000,1673607124.038634
1673611219.907093,,,,18.067139,18.072618,5056183.000000,1673607124.039641
1673611219.908866,,,,18.065601,18.074781,5056184.000000,1673607124.040648
1673611219.909020,,,,18.067862,18.076080,5056185.000000,1673607124.041656
1673611219.909025,,,,18.068846,18.075911,5056186.000000,1673607124.042663
1673611219.930568,,,,18.075314,18.082859,5056187.000000,1673607124.043670
1673611219.931415,,,,18.091564,18.100914,5056188.000000,1673607124.044677
1673611219.931428,,,,18.108200,18.114304,5056189.000000,1673607124.045684
1673611219.937849,,,,18.112986,18.119833,5056190.000000,1673607124.046691
1673611219.938054,,,,18.115845,18.124594,5056191.000000,1673607124.047698
1673611219.938540,,,,18.127817,18.136927,5056192.000000,1673607124.048705
1673611219.938617,,,,18.134693,18.143105,5056193.000000,1673607124.049712
1673611219.938861,,,,18.133179,18.139427,5056194.000000,1673607124.050719
1673611219.944041,,,,18.128588,18.135485,5056195.000000,1673607124.051726
1673611219.944275,,,,18.121832,18.130917,5056196.000000,1673607124.052733
1673611219.946543,,,,18.113514,18.121540,5056197.000000,1673607124.053741
1673611219.947025,,,,18.102575,18.109520,5056198.000000,1673607124.054748
1673611219.947212,,,,18.089954,18.097475,5056199.000000,1673607124.055755
1673611219.947286,,,,18.075434,18.083893,5056200.000000,1673607124.056762
1673611219.948572,-0.203014,4192614.000000,1673611219.908934,,,,
1673611219.949544,-0.130658,4192615.000000,1673611219.909934,,,,
1673611219.949558,-0.166836,4192616.000000,1673611219.910934,,,,
1673611219.949568,-0.239193,4192617.000000,1673611219.911934,,,,
1673611219.949574,-0.203014,4192618.000000,1673611219.912934,,,,
1673611219.949590,-0.184925,4192619.000000,1673611219.913934,,,,
1673611219.949595,-0.166836,4192620.000000,1673611219.914934,,,,
1673611219.949601,-0.166836,4192621.000000,1673611219.915934,,,,
1673611219.949608,-0.166836,4192622.000000,1673611219.916934,,,,
1673611219.949612,-0.166836,4192623.000000,1673611219.917934,,,,
1673611219.949619,-0.094472,4192643.000000,1673611219.937934,,,,
1673611219.949623,-0.076383,4192644.000000,1673611219.938934,,,,
1673611219.949663,-0.040205,4192645.000000,1673611219.939934,,,,
1673611219.949672,-0.058294,4192646.000000,1673611219.940934,,,,
1673611219.949680,-0.130658,4192647.000000,1673611219.941934,,,,
1673611219.949684,-0.094472,4192648.000000,1673611219.942934,,,,
1673611219.949689,-0.094472,4192649.000000,1673611219.943934,,,,
1673611219.949695,-0.058294,4192650.000000,1673611219.944934,,,,
1673611219.949710,-0.058294,4192651.000000,1673611219.945934,,,,
1673611219.949720,-0.040205,4192652.000000,1673611219.946934,,,,
1673611219.951692,,,,18.061802,18.069132,5056201.000000,1673607124.057769
1673611219.951698,,,,18.048027,18.059515,5056202.000000,1673607124.058776
1673611219.951701,,,,18.042450,18.053770,5056203.000000,1673607124.059783
1673611219.954214,,,,18.051128,18.060453,5056204.000000,1673607124.060790
1673611219.954429,,,,18.068678,18.076656,5056205.000000,1673607124.061797
1673611219.954440,,,,18.083439,18.089542,5056206.000000,1673607124.062804
1673611219.954450,,,,18.092045,18.099182,5056207.000000,1673607124.063811
1673611219.954457,,,,18.100027,18.109232,5056208.000000,1673607124.064818
1673611219.959156,,,,18.116568,18.123512,5056209.000000,1673607124.065825
1673611219.959162,,,,18.121351,18.127647,5056210.000000,1673607124.066833
1673611219.961729,,,,18.121687,18.130964,5056211.000000,1673607124.067840
1673611219.961986,,,,18.123922,18.134619,5056212.000000,1673607124.068847
1673611219.962075,,,,18.129982,18.138128,5056213.000000,1673607124.069854
1673611219.962082,,,,18.131256,18.136566,5056214.000000,1673607124.070861
1673611219.962147,,,,18.127409,18.131420,5056215.000000,1673607124.071868
1673611219.962284,,,,18.122938,18.128632,5056216.000000,1673607124.072875
1673611219.962380,,,,18.110868,18.117983,5056217.000000,1673607124.073882
1673611219.962492,,,,18.096420,18.104111,5056218.000000,1673607124.074889
1673611219.967404,,,,18.084713,18.089663,5056219.000000,1673607124.075896
1673611219.967417,,,,18.073391,18.080503,5056220.000000,1673607124.076903
1673611219.967626,,,,18.067356,18.075262,5056221.000000,1673607124.077910
1673611219.967775,,,,18.063509,18.069780,5056222.000000,1673607124.078918
1673611219.968201,,,,18.062523,18.068867,5056223.000000,1673607124.079925
1673611219.969814,,,,18.063581,18.071295,5056224.000000,1673607124.080932
1673611219.970188,,,,18.067211,18.073483,5056225.000000,1673607124.081939
1673611219.970479,,,,18.069016,18.074949,5056226.000000,1673607124.082946
1673611219.970660,,,,18.074375,18.080839,5056227.000000,1673607124.083953
1673611219.971046,,,,18.083847,18.092884,5056228.000000,1673607124.084960
1673611219.971219,,,,18.098465,18.108534,5056229.000000,1673607124.085967
1673611219.971606,,,,18.108200,18.116058,5056230.000000,1673607124.086974
1673611219.971765,,,,18.116831,18.123753,5056231.000000,1673607124.087981
1673611219.971932,,,,18.122746,18.130819,5056232.000000,1673607124.088988
1673611219.972218,,,,18.125101,18.130291,5056233.000000,1673607124.089995
1673611219.974185,,,,18.121424,18.127407,5056234.000000,1673607124.091002
1673611219.974305,,,,18.118130,18.125362,5056235.000000,1673607124.092010
1673611219.974557,,,,18.113033,18.121515,5056236.000000,1673607124.093017
1673611219.976497,,,,18.108152,18.113800,5056237.000000,1673607124.094024
1673611219.976729,,,,18.095026,18.101538,5056238.000000,1673607124.095031
1673611219.976921,,,,18.082117,18.091442,5056239.000000,1673607124.096038
1673611219.977241,,,,18.075146,18.083124,5056240.000000,1673607124.097045
1673611219.990258,,,,18.069063,18.075670,5056241.000000,1673607124.098052
1673611219.990629,,,,18.062115,18.067497,5056242.000000,1673607124.099059
1673611219.998168,,,,18.057499,18.063650,5056243.000000,1673607124.100066
1673611219.998250,,,,18.055912,18.063675,5056244.000000,1673607124.101073
1673611219.998301,,,,18.059639,18.064323,5056245.000000,1673607124.102080
1673611219.998333,,,,18.062908,18.067450,5056246.000000,1673607124.103087
1673611220.001921,0.068338,4192673.000000,1673611219.960968,,,,
1673611220.002086,0.086427,4192674.000000,1673611219.961968,,,,
1673611220.002122,0.068338,4192675.000000,1673611219.962968,,,,
1673611220.002158,0.158783,4192676.000000,1673611219.963968,,,,
1673611220.002602,0.140694,4192677.000000,1673611219.964968,,,,
1673611220.002610,0.140694,4192678.000000,1673611219.965968,,,,
1673611220.002617,0.122605,4192679.000000,1673611219.966968,,,,
1673611220.002622,0.122605,4192680.000000,1673611219.967968,,,,
1673611220.002626,0.158783,4192681.000000,1673611219.968968,,,,
1673611220.002654,0.176880,4192682.000000,1673611219.969968,,,,
1673611220.002659,0.068338,4192704.000000,1673611219.991968,,,,
1673611220.002664,0.176880,4192705.000000,1673611219.992968,,,,
1673611220.002668,0.140694,4192706.000000,1673611219.993968,,,,
1673611220.002706,0.194970,4192707.000000,1673611219.994968,,,,
1673611220.002719,0.086427,4192708.000000,1673611219.995968,,,,
1673611220.002727,0.194970,4192709.000000,1673611219.996968,,,,
1673611220.002739,0.140694,4192710.000000,1673611219.997968,,,,
1673611220.002744,0.122605,4192711.000000,1673611219.998968,,,,
1673611220.002747,0.158783,4192712.000000,1673611219.999968,,,,
1673611220.002760,0.158783,4192713.000000,1673611220.000968,,,,
1673611220.004127,,,,18.070793,18.074373,5056247.000000,1673607124.104095
1673611220.004138,,,,18.078054,18.082739,5056248.000000,1673607124.105102
1673611220.004147,,,,18.092358,18.099760,5056249.000000,1673607124.106109
1673611220.004151,,,,18.110628,18.116756,5056250.000000,1673607124.107116
1673611220.006450,,,,18.118490,18.125628,5056251.000000,1673607124.108123
1673611220.006459,,,,18.125196,18.131037,5056252.000000,1673607124.109130
1673611220.006474,,,,18.126976,18.131084,5056253.000000,1673607124.110137
1673611220.011886,,,,18.118032,18.121395,5056254.000000,1673607124.111144
1673611220.011979,,,,18.102816,18.108030,5056255.000000,1673607124.112151
1673611220.012296,,,,18.096348,18.101563,5056256.000000,1673607124.113158
1673611220.012637,,,,18.085266,18.092163,5056257.000000,1673607124.114165
1673611220.014295,,,,18.074423,18.080406,5056258.000000,1673607124.115172
1673611220.014698,,,,18.064831,18.069950,5056259.000000,1673607124.116179
1673611220.014722,,,,18.058580,18.065622,5056260.000000,1673607124.117187
1673611220.014742,,,,18.056417,18.064011,5056261.000000,1673607124.118194
1673611220.019199,,,,18.056513,18.065285,5056262.000000,1673607124.119201
1673611220.019724,,,,18.058821,18.067858,5056263.000000,1673607124.120208
1673611220.020068,,,,18.065289,18.071608,5056264.000000,1673607124.121215
1673611220.020380,,,,18.077093,18.081079,5056265.000000,1673607124.122222
1673611220.021496,,,,18.080170,18.084494,5056266.000000,1673607124.123229
1673611220.022017,,,,18.083967,18.088243,5056267.000000,1673607124.124236
1673611220.027226,,,,18.086805,18.092859,5056268.000000,1673607124.125243
1673611220.027256,,,,18.089161,18.096586,5056269.000000,1673607124.126250
1673611220.027675,,,,18.104668,18.109640,5056270.000000,1673607124.127257
1673611220.027892,,,,18.121519,18.126108,5056271.000000,1673607124.128264
1673611220.028351,,,,18.127626,18.135916,5056272.000000,1673607124.129272
1673611220.028362,,,,18.127144,18.135172,5056273.000000,1673607124.130279
1673611220.028403,,,,18.118250,18.125147,5056274.000000,1673607124.131286
1673611220.029410,,,,18.109404,18.115843,5056275.000000,1673607124.132293
1673611220.029425,,,,18.105051,18.112093,5056276.000000,1673607124.133300
1673611220.029460,,,,18.098295,18.105745,5056277.000000,1673607124.134307
1673611220.029463,,,,18.088560,18.095337,5056278.000000,1673607124.135314
1673611220.036611,,,,18.075939,18.083220,5056279.000000,1673607124.136321
1673611220.036968,,,,18.068005,18.074276,5056280.000000,1673607124.137328
1673611220.036992,,,,18.060240,18.068771,5056281.000000,1673607124.138335
1673611220.037378,,,,18.054951,18.061102,5056282.000000,1673607124.139342
1673611220.037385,,,,18.048628,18.057280,5056283.000000,1673607124.140349
1673611220.037649,,,,18.051344,18.059082,5056284.000000,1673607124.141356
1673611220.037656,,,,18.058630,18.065575,5056285.000000,1673607124.142364
1673611220.037665,,,,18.065216,18.071800,5056286.000000,1673607124.143371
1673611220.037682,,,,18.074736,18.085047,5056287.000000,1673607124.144378
1673611220.037809,,,,18.086155,18.094831,5056288.000000,1673607124.145385
1673611220.037956,,,,18.096853,18.102571,5056289.000000,1673607124.146392
1673611220.038039,,,,18.105797,18.109905,5056290.000000,1673607124.147399
1673611220.038476,,,,18.108418,18.113415,5056291.000000,1673607124.148406
1673611220.038484,,,,18.111279,18.117718,5056292.000000,1673607124.149413
1673611220.038499,,,,18.116255,18.122068,5056293.000000,1673607124.150420
1673611220.038508,,,,18.116518,18.121372,5056294.000000,1673607124.151427
1673611220.038513,,,,18.113129,18.118824,5056295.000000,1673607124.152434
1673611220.038850,,,,18.109571,18.115915,5056296.000000,1673607124.153441
1673611220.038857,,,,18.101036,18.106323,5056297.000000,1673607124.154449
1673611220.038899,,,,18.090675,18.095745,5056298.000000,1673607124.155456
1673611220.038958,,,,18.074327,18.083292,5056299.000000,1673607124.156463
1673611220.039047,,,,18.068485,18.075190,5056300.000000,1673607124.157470
1673611220.039133,,,,18.062860,18.066776,5056301.000000,1673607124.158477
1673611220.039146,,,,18.056152,18.062136,5056302.000000,1673607124.159484
1673611220.039150,,,,18.055096,18.058170,5056303.000000,1673607124.160491
1673611220.039290,,,,18.053724,18.059515,5056304.000000,1673607124.161498
1673611220.039354,,,,18.054663,18.062689,5056305.000000,1673607124.162505
1673611220.039410,,,,18.062403,18.067810,5056306.000000,1673607124.163512
1673611220.039419,,,,18.067116,18.074661,5056307.000000,1673607124.164519
1673611220.039462,,,,18.070290,18.077810,5056308.000000,1673607124.165526
1673611220.039467,,,,18.086685,18.091658,5056309.000000,1673607124.166533
1673611220.039475,,,,18.101013,18.109615,5056310.000000,1673607124.167541
1673611220.050433,,,,18.112167,18.118752,5056311.000000,1673607124.168548
1673611220.050461,,,,18.115965,18.122309,5056312.000000,1673607124.169555
1673611220.050587,,,,18.111206,18.120050,5056313.000000,1673607124.170562
1673611220.050620,,,,18.108633,18.121492,5056314.000000,1673607124.171569
1673611220.057800,,,,18.116447,18.126324,5056315.000000,1673607124.172576
1673611220.057967,,,,18.099018,18.105722,5056316.000000,1673607124.173583
1673611220.058126,,,,18.087214,18.094423,5056317.000000,1673607124.174590
1673611220.058304,,,,18.076420,18.082666,5056318.000000,1673607124.175597
1673611220.064267,,,,18.067644,18.072906,5056319.000000,1673607124.176604
1673611220.064412,,,,18.063126,18.072859,5056320.000000,1673607124.177611
1673611220.064723,,,,18.055552,18.066198,5056321.000000,1673607124.178618
1673611220.065121,,,,18.056322,18.064541,5056322.000000,1673607124.179626
1673611220.067023,,,,18.055096,18.060719,5056323.000000,1673607124.180633
1673611220.067054,,,,18.050335,18.056223,5056324.000000,1673607124.181640
1673611220.067820,,,,18.052620,18.059467,5056325.000000,1673607124.182647
1673611220.067850,,,,18.065554,18.070501,5056326.000000,1673607124.183654
1673611220.067972,,,,18.080795,18.085648,5056327.000000,1673607124.184661
1673611220.067982,,,,18.090435,18.096033,5056328.000000,1673607124.185668
1673611220.069815,0.231148,4192765.000000,1673611220.057506,,,,
1673611220.069833,0.267326,4192766.000000,1673611220.058506,,,,
1673611220.069870,0.194970,4192767.000000,1673611220.059506,,,,
1673611220.069886,0.285415,4192768.000000,1673611220.060506,,,,
1673611220.069903,0.267326,4192769.000000,1673611220.061506,,,,
1673611220.069957,0.158783,4192770.000000,1673611220.062506,,,,
1673611220.069966,0.267326,4192771.000000,1673611220.063506,,,,
1673611220.070007,0.267326,4192772.000000,1673611220.064506,,,,
1673611220.070018,0.303504,4192773.000000,1673611220.065506,,,,
1673611220.070026,0.249237,4192774.000000,1673611220.066506,,,,
1673611220.072065,,,,18.095146,18.101538,5056329.000000,1673607124.186675
1673611220.072144,,,,18.098127,18.105433,5056330.000000,1673607124.187682
1673611220.072278,,,,18.110027,18.118126,5056331.000000,1673607124.188689
1673611220.072492,,,,18.118010,18.125195,5056332.000000,1673607124.189696
1673611220.072805,,,,18.119236,18.124666,5056333.000000,1673607124.190703
1673611220.072850,,,,18.112793,18.119545,5056334.000000,1673607124.191710
1673611220.072951,,,,18.104715,18.112261,5056335.000000,1673607124.192718
1673611220.074266,,,,18.090195,18.096033,5056336.000000,1673607124.193725
1673611220.074491,,,,18.072981,18.081320,5056337.000000,1673607124.194732
1673611220.074562,,,,18.057524,18.068026,5056338.000000,1673607124.195739
1673611220.074866,,,,18.056826,18.064877,5056339.000000,1673607124.196746
1673611220.075073,,,,18.063028,18.068604,5056340.000000,1673607124.197753
1673611220.075298,,,,18.058197,18.064371,5056341.000000,1673607124.198760
1673611220.075553,,,,18.052187,18.058554,5056342.000000,1673607124.199767
1673611220.075589,,,,18.055719,18.061054,5056343.000000,1673607124.200774
1673611220.079047,,,,18.059351,18.067953,5056344.000000,1673607124.201781
1673611220.079290,,,,18.065191,18.072546,5056345.000000,1673607124.202788
1673611220.079500,,,,18.077213,18.083532,5056346.000000,1673607124.203795
1673611220.082087,,,,18.088007,18.092426,5056347.000000,1673607124.204803
1673611220.082108,,,,18.097624,18.101082,5056348.000000,1673607124.205810
1673611220.082124,,,,18.106062,18.112406,5056349.000000,1673607124.206817
1673611220.086663,,,,18.108105,18.114376,5056350.000000,1673607124.207824
1673611220.086777,,,,18.112408,18.118078,5056351.000000,1673607124.208831
1673611220.086962,,,,18.115797,18.122141,5056352.000000,1673607124.209838
1673611220.086972,,,,18.112888,18.121853,5056353.000000,1673607124.210845
1673611220.088840,,,,18.111061,18.119785,5056354.000000,1673607124.211852
1673611220.089019,,,,18.109186,18.115049,5056355.000000,1673607124.212859
1673611220.089145,,,,18.099329,18.105049,5056356.000000,1673607124.213866
1673611220.093996,,,,18.087189,18.094614,5056357.000000,1673607124.214873
1673611220.094292,,,,18.075193,18.080959,5056358.000000,1673607124.215880
1673611220.094528,,,,18.066130,18.070311,5056359.000000,1673607124.216887
1673611220.094774,,,,18.056610,18.064564,5056360.000000,1673607124.217895
1673611220.096486,,,,18.043917,18.049971,5056361.000000,1673607124.218902
1673611220.096807,,,,18.033243,18.037422,5056362.000000,1673607124.219909
1673611220.096853,,,,18.030983,18.037640,5056363.000000,1673607124.220916
1673611220.096994,,,,18.035118,18.042471,5056364.000000,1673607124.221923
1673611220.110864,,,,18.037594,18.042183,5056365.000000,1673607124.222930
1673611220.110884,,,,18.044205,18.047495,5056366.000000,1673607124.223937
1673611220.110895,,,,18.057138,18.061367,5056367.000000,1673607124.224944
1673611220.110933,,,,18.079521,18.086369,5056368.000000,1673607124.225951
1673611220.117825,,,,18.101421,18.108006,5056369.000000,1673607124.226958
1673611220.118128,,,,18.111975,18.117550,5056370.000000,1673607124.227965
1673611220.122605,0.267326,4192775.000000,1673611220.061744,,,,
1673611220.124163,0.249237,4192826.000000,1673611220.112744,,,,
1673611220.124181,0.303504,4192827.000000,1673611220.113744,,,,
1673611220.124211,0.303504,4192828.000000,1673611220.114744,,,,
1673611220.124221,0.303504,4192829.000000,1673611220.115744,,,,
1673611220.124227,0.321601,4192830.000000,1673611220.116744,,,,
1673611220.124235,0.339690,4192831.000000,1673611220.117744,,,,
1673611220.124295,0.339690,4192832.000000,1673611220.118744,,,,
1673611220.124306,0.321601,4192833.000000,1673611220.119744,,,,
1673611220.124320,0.339690,4192834.000000,1673611220.120744,,,,
1673611220.124331,0.339690,4192835.000000,1673611220.121744,,,,
1673611220.124462,,,,18.113802,18.118078,5056371.000000,1673607124.228972
1673611220.124767,,,,18.113707,18.117622,5056372.000000,1673607124.229980
1673611220.124960,,,,18.110846,18.117813,5056373.000000,1673607124.230987
1673611220.125123,,,,18.108873,18.114183,5056374.000000,1673607124.231994
1673611220.125451,,,,18.098415,18.105963,5056375.000000,1673607124.233001
1673611220.125768,,,,18.086828,18.094423,5056376.000000,1673607124.234008
1673611220.125777,,,,18.071539,18.079325,5056377.000000,1673607124.235015
1673611220.125971,,,,18.058846,18.065765,5056378.000000,1673607124.236022
1673611220.126674,,,,18.057547,18.064924,5056379.000000,1673607124.237029
1673611220.126834,,,,18.055672,18.062761,5056380.000000,1673607124.238036
1673611220.126914,,,,18.046753,18.053722,5056381.000000,1673607124.239043
1673611220.126922,,,,18.046057,18.053915,5056382.000000,1673607124.240050
1673611220.131572,,,,18.048292,18.055189,5056383.000000,1673607124.241057
1673611220.131941,,,,18.047546,18.055620,5056384.000000,1673607124.242064
1673611220.131957,,,,18.051849,18.061367,5056385.000000,1673607124.243072
1673611220.134351,,,,18.069807,18.076681,5056386.000000,1673607124.244079
1673611220.134510,,,,18.081709,18.089975,5056387.000000,1673607124.245086
1673611220.134655,,,,18.086926,18.095865,5056388.000000,1673607124.246093
1673611220.134663,,,,18.094425,18.100193,5056389.000000,1673607124.247100
1673611220.134784,,,,18.100964,18.105913,5056390.000000,1673607124.248107
1673611220.134939,,,,18.108994,18.115675,5056391.000000,1673607124.249114
1673611220.135124,,,,18.112432,18.118944,5056392.000000,1673607124.250121
1673611220.139603,,,,18.110365,18.118464,5056393.000000,1673607124.251128
1673611220.139984,,,,18.110220,18.116228,5056394.000000,1673607124.252135
1673611220.140114,,,,18.106998,18.112694,5056395.000000,1673607124.253142
1673611220.140131,,,,18.092886,18.098799,5056396.000000,1673607124.254149
1673611220.140139,,,,18.082260,18.088436,5056397.000000,1673607124.255157
1673611220.140323,,,,18.075048,18.078844,5056398.000000,1673607124.256164
1673611220.140331,,,,18.065168,18.071175,5056399.000000,1673607124.257171
1673611220.140386,,,,18.054590,18.063362,5056400.000000,1673607124.258178
1673611220.141580,,,,18.046465,18.056438,5056401.000000,1673607124.259185
1673611220.141811,,,,18.050863,18.057713,5056402.000000,1673607124.260192
1673611220.141820,,,,18.060961,18.067305,5056403.000000,1673607124.261199
1673611220.141971,,,,18.067284,18.073292,5056404.000000,1673607124.262206
1673611220.142051,,,,18.072668,18.081127,5056405.000000,1673607124.263213
1673611220.142081,,,,18.080505,18.087139,5056406.000000,1673607124.264220
1673611220.146896,,,,18.092358,18.096634,5056407.000000,1673607124.265227
1673611220.147005,,,,18.102383,18.108919,5056408.000000,1673607124.266234
1673611220.147386,,,,18.110365,18.120386,5056409.000000,1673607124.267241
1673611220.147405,,,,18.118322,18.127838,5056410.000000,1673607124.268249
1673611220.147413,,,,18.122889,18.130604,5056411.000000,1673607124.269256
1673611220.147451,,,,18.124285,18.132767,5056412.000000,1673607124.270263
1673611220.147455,,,,18.118057,18.125290,5056413.000000,1673607124.271270
1673611220.147496,,,,18.113489,18.119137,5056414.000000,1673607124.272277
1673611220.151033,,,,18.109547,18.115818,5056415.000000,1673607124.273284
1673611220.151076,,,,18.099787,18.105000,5056416.000000,1673607124.274291
1673611220.151336,,,,18.087261,18.094110,5056417.000000,1673607124.275298
1673611220.153969,,,,18.074665,18.082787,5056418.000000,1673607124.276305
1673611220.154088,,,,18.068245,18.072762,5056419.000000,1673607124.277312
1673611220.154204,,,,18.059471,18.063723,5056420.000000,1673607124.278319
1673611220.154390,,,,18.051321,18.058891,5056421.000000,1673607124.279326
1673611220.158361,,,,18.047691,18.056318,5056422.000000,1673607124.280334
1673611220.158504,,,,18.053629,18.058891,5056423.000000,1673607124.281341
1673611220.158559,,,,18.059664,18.064589,5056424.000000,1673607124.282348
1673611220.158565,,,,18.064423,18.072401,5056425.000000,1673607124.283355
1673611220.173942,,,,18.076323,18.083893,5056426.000000,1673607124.284362
1673611220.174604,,,,18.093248,18.101587,5056427.000000,1673607124.285369
1673611220.178112,,,,18.107143,18.114954,5056428.000000,1673607124.286376
1673611220.178205,,,,18.114981,18.119425,5056429.000000,1673607124.287383
1673611220.178388,,,,18.121326,18.128031,5056430.000000,1673607124.288390
1673611220.178419,,,,18.126280,18.132166,5056431.000000,1673607124.289397
1673611220.184367,,,,18.129261,18.133728,5056432.000000,1673607124.290404
1673611220.184377,,,,18.120173,18.127190,5056433.000000,1673607124.291411
1673611220.184435,,,,18.115604,18.121155,5056434.000000,1673607124.292418
1673611220.184443,,,,18.110004,18.115891,5056435.000000,1673607124.293426
1673611220.186390,,,,18.100460,18.106611,5056436.000000,1673607124.294433
1673611220.186558,,,,18.085794,18.093220,5056437.000000,1673607124.295440
1673611220.186564,,,,18.077213,18.083965,5056438.000000,1673607124.296447
1673611220.188787,0.520589,4192887.000000,1673611220.178476,,,,
1673611220.188801,0.502500,4192888.000000,1673611220.179476,,,,
1673611220.188807,0.556767,4192889.000000,1673611220.180476,,,,
1673611220.188817,0.574856,4192890.000000,1673611220.181476,,,,
1673611220.188821,0.574856,4192891.000000,1673611220.182476,,,,
1673611220.188842,0.574856,4192892.000000,1673611220.183476,,,,
1673611220.188848,0.629132,4192893.000000,1673611220.184476,,,,
1673611220.188859,0.574856,4192894.000000,1673611220.185476,,,,
1673611220.188864,0.647221,4192895.000000,1673611220.186476,,,,
1673611220.188878,0.665310,4192896.000000,1673611220.187476,,,,
1673611220.191957,,,,18.070505,18.075382,5056439.000000,1673607124.297454
1673611220.192107,,,,18.058197,18.062401,5056440.000000,1673607124.298461
1673611220.192155,,,,18.045696,18.049274,5056441.000000,1673607124.299468
1673611220.192282,,,,18.038748,18.046629,5056442.000000,1673607124.300475
1673611220.192392,,,,18.040382,18.047422,5056443.000000,1673607124.301482
1673611220.192630,,,,18.042257,18.048096,5056444.000000,1673607124.302489
1673611220.192639,,,,18.051922,18.056534,5056445.000000,1673607124.303496
1673611220.192649,,,,18.067163,18.072233,5056446.000000,1673607124.304503
1673611220.200492,,,,18.076490,18.082018,5056447.000000,1673607124.305511
1673611220.200729,,,,18.085722,18.091202,5056448.000000,1673607124.306518
1673611220.200792,,,,18.095171,18.102236,5056449.000000,1673607124.307525
1673611220.200799,,,,18.109379,18.114376,5056450.000000,1673607124.308532
1673611220.200911,,,,18.121784,18.128464,5056451.000000,1673607124.309539
1673611220.201062,,,,18.129261,18.137239,5056452.000000,1673607124.310546
1673611220.201099,,,,18.135414,18.142696,5056453.000000,1673607124.311553
1673611220.201249,,,,18.135199,18.141230,5056454.000000,1673607124.312560
1673611220.201346,,,,18.133274,18.139811,5056455.000000,1673607124.313567
1673611220.202128,,,,18.061489,18.067450,5056462.000000,1673607124.320617
1673611220.202138,,,,18.060312,18.064877,5056463.000000,1673607124.321624
1673611220.202159,,,,18.061153,18.067184,5056464.000000,1673607124.322631
1673611220.202235,,,,18.059061,18.068171,5056465.000000,1673607124.323638
1673611220.202243,,,,18.065336,18.074396,5056466.000000,1673607124.324645
1673611220.202259,,,,18.073486,18.081200,5056467.000000,1673607124.325652
1673611220.202267,,,,18.082357,18.091249,5056468.000000,1673607124.326659
1673611220.202350,,,,18.090796,18.097595,5056469.000000,1673607124.327666
1673611220.202360,,,,18.093128,18.099520,5056470.000000,1673607124.328673
1673611220.202478,,,,18.096565,18.103750,5056471.000000,1673607124.329680
1673611220.207241,,,,18.107264,18.112476,5056472.000000,1673607124.330688
1673611220.207609,,,,18.114042,18.118031,5056473.000000,1673607124.331695
1673611220.207783,,,,18.105724,18.114376,5056474.000000,1673607124.332702
1673611220.207979,,,,18.098801,18.105482,5056475.000000,1673607124.333709
1673611220.208090,,,,18.087549,18.092546,5056476.000000,1673607124.334716
1673611220.208200,,,,18.074327,18.080070,5056477.000000,1673607124.335723
1673611220.208361,,,,18.062716,18.067039,5056478.000000,1673607124.336730
1673611220.208568,,,,18.055769,18.060719,5056479.000000,1673607124.337737
1673611220.208748,,,,18.052860,18.060741,5056480.000000,1673607124.338744
1673611220.208845,,,,18.058100,18.064877,5056481.000000,1673607124.339751
1673611220.209047,,,,18.060938,18.068531,5056482.000000,1673607124.340758
1673611220.215561,,,,18.062643,18.070791,5056483.000000,1673607124.341765
1673611220.216205,,,,18.069376,18.075142,5056484.000000,1673607124.342772
1673611220.216224,,,,18.080843,18.085239,5056485.000000,1673607124.343780
1673611220.216234,,,,18.093056,18.097260,5056486.000000,1673607124.344787
1673611220.216250,,,,18.100580,18.107067,5056487.000000,1673607124.345794
1673611220.216515,,,,18.101276,18.109735,5056488.000000,1673607124.346801
1673611220.216903,,,,18.107071,18.114063,5056489.000000,1673607124.347808
1673611220.217124,,,,18.114355,18.121660,5056490.000000,1673607124.348815
1673611220.217131,,,,18.112888,18.120146,5056491.000000,1673607124.349822
1673611220.217151,,,,18.089304,18.098869,5056492.000000,1673607124.350829
1673611220.218339,,,,18.046368,18.052977,5056494.000000,1673607124.352843
1673611220.218357,,,,18.031103,18.035019,5056495.000000,1673607124.353850
1673611220.218521,,,,18.017519,18.024584,5056496.000000,1673607124.354857
1673611220.218541,,,,18.006269,18.013647,5056497.000000,1673607124.355865
1673611220.218550,,,,18.004274,18.014751,5056498.000000,1673607124.356872
1673611220.218621,,,,18.004585,18.012493,5056499.000000,1673607124.357879
1673611220.218814,,,,18.011654,18.016459,5056500.000000,1673607124.358886
1673611220.218834,,,,18.023458,18.027542,5056501.000000,1673607124.359893
1673611220.218876,,,,18.033171,18.038601,5056502.000000,1673607124.360900
1673611220.218887,,,,18.043339,18.051558,5056503.000000,1673607124.361907
1673611220.222463,,,,18.059301,18.065189,5056504.000000,1673607124.362914
1673611220.222485,,,,18.074232,18.081970,5056505.000000,1673607124.363921
1673611220.222491,,,,18.089136,18.095360,5056506.000000,1673607124.364928
1673611220.223069,,,,18.102983,18.107597,5056507.000000,1673607124.365935
1673611220.223269,,,,18.113321,18.120794,5056508.000000,1673607124.366942
1673611220.223288,,,,18.120461,18.125603,5056509.000000,1673607124.367949
1673611220.223296,,,,18.123587,18.127550,5056510.000000,1673607124.368957
1673611220.223307,,,,18.120773,18.125723,5056511.000000,1673607124.369964
1673611220.223521,,,,18.111687,18.116108,5056512.000000,1673607124.370971
1673611220.223781,,,,18.109787,18.113390,5056513.000000,1673607124.371978
1673611220.224234,,,,18.105436,18.112766,5056514.000000,1673607124.372985
1673611220.224252,,,,18.093248,18.100937,5056515.000000,1673607124.373992
1673611220.224264,,,,18.078390,18.085360,5056516.000000,1673607124.374999
1673611220.245333,,,,18.053221,18.059948,5056517.000000,1673607124.376006
1673611220.245496,,,,18.018843,18.025547,5056518.000000,1673607124.377013
1673611220.245610,,,,17.995811,18.001434,5056519.000000,1673607124.378020
1673611220.245757,,,,17.967636,17.973930,5056520.000000,1673607124.379027
1673611220.245764,,,,17.927248,17.934408,5056521.000000,1673607124.380034
1673611220.251153,0.647221,4192897.000000,1673611220.190506,,,,
1673611220.251165,0.629132,4192898.000000,1673611220.191506,,,,
1673611220.251182,0.683399,4192899.000000,1673611220.192506,,,,
1673611220.251330,0.683399,4192900.000000,1673611220.193506,,,,
1673611220.251341,0.683399,4192901.000000,1673611220.194506,,,,
1673611220.251459,0.737674,4192902.000000,1673611220.195506,,,,
1673611220.251465,0.737674,4192903.000000,1673611220.196506,,,,
1673611220.251489,,,,17.856207,17.863104,5056522.000000,1673607124.381042
1673611220.251494,,,,17.771898,17.776678,5056523.000000,1673607124.382049
1673611220.251522,0.683399,4192904.000000,1673611220.197506,,,,
1673611220.251678,0.755763,4192905.000000,1673611220.198506,,,,
1673611220.252263,0.755763,4192906.000000,1673611220.199506,,,,
1673611220.252272,0.773852,4192907.000000,1673611220.200506,,,,
1673611220.252280,0.791941,4192908.000000,1673611220.201506,,,,
1673611220.252283,0.810030,4192909.000000,1673611220.202506,,,,
1673611220.252287,0.846209,4192910.000000,1673611220.203506,,,,
1673611220.252309,0.882395,4192911.000000,1673611220.204506,,,,
1673611220.252313,1.569820,4192948.000000,1673611220.241506,,,,
1673611220.252317,1.660266,4192949.000000,1673611220.242506,,,,
1673611220.252327,1.678355,4192950.000000,1673611220.243506,,,,
1673611220.252334,1.678355,4192951.000000,1673611220.244506,,,,
1673611220.252339,1.750719,4192952.000000,1673611220.245506,,,,
1673611220.252350,1.732630,4192953.000000,1673611220.246506,,,,
1673611220.252355,1.841164,4192954.000000,1673611220.247506,,,,
1673611220.252358,1.841164,4192955.000000,1673611220.248506,,,,
1673611220.252364,1.859262,4192956.000000,1673611220.249506,,,,
1673611220.252388,1.967796,4192957.000000,1673611220.250506,,,,
1673611220.254337,,,,17.692852,17.699844,5056524.000000,1673607124.383056
1673611220.254882,,,,17.643978,17.652365,5056525.000000,1673607124.384063
1673611220.254893,,,,17.606859,17.613058,5056526.000000,1673607124.385070
1673611220.255304,,,,17.611956,17.615583,5056527.000000,1673607124.386077
1673611220.255322,,,,17.652704,17.657534,5056528.000000,1673607124.387084
1673611220.255848,,,,17.713791,17.720545,5056529.000000,1673607124.388091
1673611220.255859,,,,17.796227,17.801632,5056530.000000,1673607124.389098
1673611220.259616,,,,17.899506,17.904165,5056531.000000,1673607124.390105
1673611220.259627,,,,18.012903,18.019825,5056532.000000,1673607124.391112
1673611220.259651,,,,18.114643,18.124186,5056533.000000,1673607124.392119
1673611220.259682,,,,18.213234,18.222151,5056534.000000,1673607124.393126
1673611220.261466,,,,18.279394,18.289511,5056535.000000,1673607124.394134
1673611220.261883,,,,18.294395,18.304031,5056536.000000,1673607124.395141
1673611220.261896,,,,18.287592,18.295401,5056537.000000,1673607124.396148
1673611220.261944,,,,18.274273,18.279055,5056538.000000,1673607124.397155
1673611220.266649,,,,18.238956,18.243042,5056539.000000,1673607124.398162
1673611220.267072,,,,18.154598,18.162025,5056540.000000,1673607124.399169
1673611220.267111,,,,18.100027,18.106514,5056541.000000,1673607124.400176
1673611220.269046,,,,18.085241,18.091225,5056542.000000,1673607124.401183
1673611220.269668,,,,18.079063,18.083195,5056543.000000,1673607124.402190
1673611220.269687,,,,18.061562,18.067810,5056544.000000,1673607124.403197
1673611220.269945,,,,18.031969,18.036942,5056545.000000,1673607124.404204
1673611220.274263,,,,18.021559,18.024946,5056546.000000,1673607124.405211
1673611220.274720,,,,18.025982,18.030378,5056547.000000,1673607124.406219
1673611220.275084,,,,18.022184,18.027134,5056548.000000,1673607124.407226
1673611220.275099,,,,18.024132,18.031628,5056549.000000,1673607124.408233
1673611220.277211,,,,18.050047,18.055044,5056550.000000,1673607124.409240
1673611220.277709,,,,18.063797,18.068411,5056551.000000,1673607124.410247
1673611220.277911,,,,18.074785,18.082571,5056552.000000,1673607124.411254
1673611220.277921,,,,18.078583,18.085432,5056553.000000,1673607124.412261
1673611220.277938,,,,18.068052,18.075237,5056554.000000,1673607124.413268
1673611220.277946,,,,18.035982,18.042736,5056555.000000,1673607124.414275
1673611220.278092,,,,17.970713,17.980518,5056556.000000,1673607124.415282
1673611220.278224,,,,17.862700,17.870220,5056557.000000,1673607124.416289
1673611220.278422,,,,17.775961,17.783266,5056558.000000,1673607124.417296
1673611220.278429,,,,17.745358,17.753527,5056559.000000,1673607124.418303
1673611220.281530,,,,17.719730,17.725136,5056560.000000,1673607124.419311
1673611220.281623,,,,17.690401,17.697586,5056561.000000,1673607124.420318
1673611220.281783,,,,17.694775,17.702730,5056562.000000,1673607124.421325
1673611220.284018,,,,17.738361,17.744392,5056563.000000,1673607124.422332
1673611220.284032,,,,17.810219,17.815409,5056564.000000,1673607124.423339
1673611220.284064,,,,17.910852,17.917412,5056565.000000,1673607124.424346
1673611220.284085,,,,18.008265,18.015882,5056566.000000,1673607124.425353
1673611220.297801,,,,18.071131,18.079012,5056567.000000,1673607124.426360
1673611220.298231,,,,18.098345,18.105457,5056568.000000,1673607124.427367
1673611220.298344,,,,18.145584,18.153057,5056569.000000,1673607124.428374
1673611220.298426,,,,18.222586,18.227728,5056570.000000,1673607124.429381
1673611220.304034,1.877351,4192958.000000,1673611220.243433,,,,
1673611220.304090,1.913529,4192959.000000,1673611220.244433,,,,
1673611220.304206,1.967796,4192960.000000,1673611220.245433,,,,
1673611220.305059,2.076339,4192961.000000,1673611220.246433,,,,
1673611220.305143,,,,18.243645,18.252033,5056571.000000,1673607124.430388
1673611220.305318,6.671231,4193009.000000,1673611220.294433,,,,
1673611220.305335,6.852130,4193010.000000,1673611220.295434,,,,
1673611220.305359,7.069215,4193011.000000,1673611220.296433,,,,
1673611220.305421,7.304389,4193012.000000,1673611220.297433,,,,
1673611220.305443,7.521466,4193013.000000,1673611220.298433,,,,
1673611220.305453,7.810908,4193014.000000,1673611220.299433,,,,
1673611220.305463,8.027993,4193015.000000,1673611220.300433,,,,
1673611220.305709,8.335524,4193016.000000,1673611220.301433,,,,
1673611220.305752,8.570698,4193017.000000,1673611220.302433,,,,
1673611220.305758,8.787774,4193018.000000,1673611220.303433,,,,
1673611220.305825,,,,18.187054,18.196138,5056572.000000,1673607124.431396
1673611220.305934,,,,18.109404,18.116348,5056573.000000,1673607124.432403
1673611220.306087,,,,18.059301,18.067329,5056574.000000,1673607124.433410
1673611220.311811,,,,18.025934,18.031532,5056575.000000,1673607124.434417
1673611220.312434,,,,17.971146,17.975735,5056576.000000,1673607124.435424
1673611220.312454,,,,17.919844,17.924623,5056577.000000,1673607124.436431
1673611220.312466,,,,17.881907,17.887096,5056578.000000,1673607124.437438
1673611220.313878,,,,17.857025,17.865725,5056579.000000,1673607124.438445
1673611220.314135,,,,17.850967,17.857454,5056580.000000,1673607124.439452
1673611220.319556,,,,17.875994,17.882385,5056581.000000,1673607124.440459
1673611220.320251,,,,17.878878,17.885870,5056582.000000,1673607124.441466
1673611220.320381,,,,17.845078,17.851181,5056583.000000,1673607124.442473
1673611220.320445,,,,17.819786,17.829496,5056584.000000,1673607124.443480
1673611220.320493,,,,17.842049,17.849642,5056585.000000,1673607124.444488
1673611220.320504,,,,17.920347,17.929577,5056586.000000,1673607124.445495
1673611220.320512,,,,18.011822,18.020041,5056587.000000,1673607124.446502
1673611220.322460,,,,18.059614,18.067690,5056588.000000,1673607124.447509
1673611220.322475,,,,18.080145,18.086248,5056589.000000,1673607124.448516
1673611220.322480,,,,18.115484,18.122309,5056590.000000,1673607124.449523
1673611220.322511,,,,18.163036,18.170559,5056591.000000,1673607124.450530
1673611220.322519,,,,18.241289,18.248522,5056592.000000,1673607124.451537
1673611220.322557,,,,18.277327,18.284679,5056593.000000,1673607124.452544
1673611220.322566,,,,18.263094,18.269583,5056594.000000,1673607124.453551
1673611220.322768,,,,18.221144,18.224674,5056595.000000,1673607124.454558
1673611220.327014,,,,18.183472,18.189671,5056596.000000,1673607124.455565
1673611220.327029,,,,18.089209,18.097115,5056597.000000,1673607124.456573
1673611220.327092,,,,18.011101,18.017012,5056598.000000,1673607124.457580
1673611220.328924,,,,18.024082,18.031147,5056599.000000,1673607124.458587
1673611220.329247,,,,17.980930,17.989677,5056600.000000,1673607124.459594
1673611220.329269,,,,17.920828,17.925610,5056601.000000,1673607124.460601
1673611220.329277,,,,17.878878,17.886833,5056602.000000,1673607124.461608
1673611220.333987,,,,17.865896,17.871494,5056603.000000,1673607124.462615
1673611220.334237,,,,17.852074,17.855364,5056604.000000,1673607124.463622
1673611220.334243,,,,17.845221,17.850508,5056605.000000,1673607124.464629
1673611220.334254,,,,17.871954,17.878033,5056606.000000,1673607124.465636
1673611220.342083,,,,17.900322,17.908278,5056607.000000,1673607124.466643
1673611220.342324,,,,17.930252,17.937222,5056608.000000,1673607124.467650
1673611220.342332,,,,17.982349,17.987587,5056609.000000,1673607124.468657
1673611220.342340,,,,18.032618,18.036966,5056610.000000,1673607124.469665
1673611220.342595,,,,18.072044,18.078892,5056611.000000,1673607124.470672
1673611220.342609,,,,18.122000,18.129906,5056612.000000,1673607124.471679
1673611220.359043,,,,18.153830,18.162434,5056613.000000,1673607124.472686
1673611220.359060,,,,18.135920,18.144619,5056614.000000,1673607124.473693
1673611220.359067,,,,18.099113,18.105793,5056615.000000,1673607124.474700
1673611220.359162,,,,18.062956,18.070070,5056616.000000,1673607124.475707
1673611220.359535,,,,18.062019,18.071415,5056617.000000,1673607124.476714
1673611220.359957,,,,18.108873,18.113487,5056618.000000,1673607124.477721
1673611220.359973,,,,18.161572,18.167072,5056619.000000,1673607124.478728
1673611220.360322,,,,18.195660,18.203278,5056620.000000,1673607124.479735
1673611220.365386,,,,18.197006,18.203495,5056621.000000,1673607124.480742
1673611220.366024,,,,18.158445,18.167723,5056622.000000,1673607124.481750
1673611220.366053,,,,18.152388,18.162817,5056623.000000,1673607124.482757
1673611220.369879,30.875816,4193070.000000,1673611220.358269,,,,
1673611220.369892,31.400433,4193071.000000,1673611220.359269,,,,
1673611220.369916,31.888861,4193072.000000,1673611220.360269,,,,
1673611220.369926,32.286846,4193073.000000,1673611220.361269,,,,
1673611220.369931,32.811462,4193074.000000,1673611220.362269,,,,
1673611220.369996,33.299896,4193075.000000,1673611220.363269,,,,
1673611220.370000,33.734058,4193076.000000,1673611220.364269,,,,
1673611220.370008,34.222488,4193077.000000,1673611220.365269,,,,
1673611220.370018,34.674740,4193078.000000,1673611220.366269,,,,
1673611220.370023,35.235535,4193079.000000,1673611220.367269,,,,
1673611220.371840,,,,18.196718,18.205826,5056624.000000,1673607124.483764
1673611220.372192,,,,18.192270,18.198975,5056625.000000,1673607124.484771
1673611220.372208,,,,18.100676,18.107380,5056626.000000,1673607124.485778
1673611220.372383,,,,17.990282,17.996408,5056627.000000,1673607124.486785
1673611220.372533,,,,17.745428,17.749945,5056628.000000,1673607124.487792
1673611220.372751,,,,17.484829,17.492327,5056629.000000,1673607124.488799
1673611220.372897,,,,17.360493,17.366714,5056630.000000,1673607124.489806
1673611220.373927,,,,17.326906,17.331520,5056631.000000,1673607124.490813
1673611220.374012,,,,17.360493,17.366714,5056632.000000,1673607124.491820
1673611220.374194,,,,17.257669,17.268148,5056633.000000,1673607124.492827
1673611220.374220,,,,17.365179,17.369120,5056634.000000,1673607124.493834
1673611220.379132,,,,17.535435,17.539278,5056635.000000,1673607124.494842
1673611220.379147,,,,17.687851,17.694796,5056636.000000,1673607124.495849
1673611220.379314,,,,17.837143,17.841949,5056637.000000,1673607124.496856
1673611220.381754,,,,18.012039,18.019344,5056638.000000,1673607124.497863
1673611220.381930,,,,18.196959,18.204456,5056639.000000,1673607124.498870
1673611220.382210,,,,18.331610,18.337761,5056640.000000,1673607124.499877
1673611220.382219,,,,18.426762,18.436592,5056641.000000,1673607124.500884
1673611220.382476,,,,18.462006,18.469576,5056642.000000,1673607124.501891
1673611220.382637,,,,18.424839,18.431326,5056643.000000,1673607124.502898
1673611220.382840,,,,18.389908,18.396925,5056644.000000,1673607124.503905
1673611220.382961,,,,18.324398,18.332832,5056645.000000,1673607124.504912
1673611220.388904,,,,18.106012,18.111300,5056646.000000,1673607124.505919
1673611220.388913,,,,17.925709,17.931477,5056647.000000,1673607124.506927
1673611220.389049,,,,17.952682,17.961790,5056648.000000,1673607124.507934
1673611220.394056,,,,18.002375,18.010448,5056649.000000,1673607124.508941
1673611220.394388,,,,18.031006,18.037302,5056650.000000,1673607124.509948
1673611220.394514,,,,18.047834,18.054731,5056651.000000,1673607124.510955
1673611220.394732,,,,18.057306,18.065382,5056652.000000,1673607124.511962
1673611220.396897,,,,18.074135,18.084181,5056653.000000,1673607124.512969
1673611220.396905,,,,18.110437,18.114857,5056654.000000,1673607124.513976
1673611220.396909,,,,18.125629,18.131878,5056655.000000,1673607124.514983
1673611220.396912,,,,18.130991,18.140003,5056656.000000,1673607124.515990
1673611220.396966,,,,18.148275,18.152336,5056657.000000,1673607124.516997
1673611220.396975,,,,18.146618,18.150654,5056658.000000,1673607124.518004
1673611220.401886,,,,18.105124,18.107718,5056659.000000,1673607124.519011
1673611220.402343,,,,18.080435,18.085360,5056660.000000,1673607124.520019
1673611220.402674,,,,18.076876,18.083557,5056661.000000,1673607124.521026
1673611220.403149,,,,18.072886,18.081200,5056662.000000,1673607124.522033
1673611220.403616,,,,18.084881,18.091970,5056663.000000,1673607124.523040
1673611220.404265,,,,18.084137,18.093269,5056664.000000,1673607124.524047
1673611220.404284,,,,18.091564,18.099543,5056665.000000,1673607124.525054
1673611220.404816,,,,18.093657,18.101610,5056666.000000,1673607124.526061
1673611220.405264,,,,18.045214,18.052881,5056667.000000,1673607124.527068
1673611220.405622,,,,18.027449,18.034899,5056668.000000,1673607124.528075
1673611220.405770,,,,18.045191,18.054203,5056669.000000,1673607124.529082
1673611220.418311,,,,18.034132,18.043600,5056670.000000,1673607124.530089
1673611220.418325,,,,18.005909,18.013262,5056671.000000,1673607124.531096
1673611220.418705,,,,17.941263,17.948616,5056672.000000,1673607124.532104
1673611220.418875,,,,17.825653,17.834545,5056673.000000,1673607124.533111
1673611220.425488,,,,17.746199,17.752132,5056674.000000,1673607124.534118
1673611220.425963,,,,17.712109,17.716312,5056675.000000,1673607124.535125
1673611220.426001,,,,17.730307,17.736050,5056676.000000,1673607124.536132
1673611220.426007,,,,17.800049,17.807932,5056677.000000,1673607124.537139
1673611220.431611,,,,17.872820,17.878923,5056678.000000,1673607124.538146
1673611220.431774,,,,17.980137,17.987537,5056679.000000,1673607124.539153
1673611220.431959,,,,18.084448,18.092789,5056680.000000,1673607124.540160
1673611220.431967,,,,18.103777,18.109640,5056681.000000,1673607124.541167
1673611220.432740,35.687794,4193080.000000,1673611220.371976,,,,
1673611220.433824,,,,18.022375,18.029345,5056682.000000,1673607124.542174
1673611220.433832,,,,17.984055,17.991240,5056683.000000,1673607124.543181
1673611220.433928,36.067680,4193081.000000,1673611220.372976,,,,
1673611220.433934,36.574207,4193082.000000,1673611220.373976,,,,
1673611220.434182,56.943687,4193131.000000,1673611220.422976,,,,
1673611220.434190,57.251221,4193132.000000,1673611220.423976,,,,
1673611220.434198,57.594929,4193133.000000,1673611220.424976,,,,
1673611220.434231,57.902458,4193134.000000,1673611220.425976,,,,
1673611220.434235,58.191898,4193135.000000,1673611220.426976,,,,
1673611220.434253,58.589893,4193136.000000,1673611220.427976,,,,
1673611220.434260,58.897423,4193137.000000,1673611220.428976,,,,
1673611220.434264,59.150684,4193138.000000,1673611220.429976,,,,
1673611220.434279,59.403950,4193139.000000,1673611220.430976,,,,
1673611220.434283,59.729568,4193140.000000,1673611220.431976,,,,
1673611220.439374,,,,17.954702,17.960083,5056684.000000,1673607124.544188
1673611220.439596,,,,17.914242,17.919937,5056685.000000,1673607124.545196
1673611220.439606,,,,17.890825,17.899429,5056686.000000,1673607124.546203
1673611220.439723,,,,17.853010,17.858536,5056687.000000,1673607124.547210
1673611220.439846,,,,17.867964,17.873970,5056688.000000,1673607124.548217
1673611220.441445,,,,17.936672,17.945780,5056689.000000,1673607124.549224
1673611220.441453,,,,18.014275,18.025738,5056690.000000,1673607124.550231
1673611220.446774,,,,18.113562,18.124714,5056691.000000,1673607124.551238
1673611220.447557,,,,18.217056,18.226694,5056692.000000,1673607124.552245
1673611220.447586,,,,18.264584,18.271673,5056693.000000,1673607124.553252
1673611220.447601,,,,18.261724,18.268909,5056694.000000,1673607124.554259
1673611220.447610,,,,18.284393,18.291748,5056695.000000,1673607124.555266
1673611220.447628,,,,18.364256,18.368437,5056696.000000,1673607124.556273
1673611220.447749,,,,18.381062,18.384880,5056697.000000,1673607124.557281
1673611220.447757,,,,18.240688,18.245590,5056698.000000,1673607124.558288
1673611220.449355,,,,18.048845,18.055189,5056699.000000,1673607124.559295
1673611220.449367,,,,17.943596,17.950974,5056700.000000,1673607124.560302
1673611220.449643,,,,17.881330,17.886976,5056701.000000,1673607124.561309
1673611220.449718,,,,17.855776,17.863081,5056702.000000,1673607124.562316
1673611220.454748,,,,17.866882,17.876038,5056703.000000,1673607124.563323
1673611220.454762,,,,17.943907,17.951597,5056704.000000,1673607124.564330
1673611220.454771,,,,17.987902,17.994125,5056705.000000,1673607124.565337
1673611220.457733,,,,18.004009,18.011290,5056706.000000,1673607124.566344
1673611220.457758,,,,17.997278,18.005159,5056707.000000,1673607124.567351
1673611220.457864,,,,17.993046,18.000856,5056708.000000,1673607124.568358
1673611220.457872,,,,18.007832,18.015257,5056709.000000,1673607124.569366
1673611220.457922,,,,18.045214,18.053410,5056710.000000,1673607124.570373
1673611220.457928,,,,18.091757,18.096514,5056711.000000,1673607124.571380
1673611220.457945,,,,18.159214,18.165655,5056712.000000,1673607124.572387
1673611220.457953,,,,18.184866,18.192989,5056713.000000,1673607124.573394
1673611220.461886,,,,18.180563,18.190512,5056714.000000,1673607124.574401
1673611220.462064,,,,18.196093,18.204216,5056715.000000,1673607124.575408
1673611220.462713,,,,18.170706,18.177963,5056716.000000,1673607124.576415
1673611220.462733,,,,18.111927,18.117645,5056717.000000,1673607124.577422
1673611220.462749,,,,18.065481,18.072426,5056718.000000,1673607124.578429
1673611220.462852,,,,18.035118,18.042904,5056719.000000,1673607124.579436
1673611220.462867,,,,17.997879,18.006098,5056720.000000,1673607124.580443
1673611220.463899,,,,17.951601,17.958233,5056721.000000,1673607124.581450
1673611220.464135,,,,17.908064,17.915632,5056722.000000,1673607124.582458
1673611220.464178,,,,17.871281,17.880270,5056723.000000,1673607124.583465
1673611220.477906,,,,17.767138,17.775957,5056724.000000,1673607124.584472
1673611220.477922,,,,17.611523,17.619719,5056725.000000,1673607124.585479
1673611220.478209,,,,17.508749,17.515213,5056726.000000,1673607124.586486
1673611220.485423,,,,17.481897,17.487568,5056727.000000,1673607124.587493
1673611220.485547,,,,17.493965,17.502737,5056728.000000,1673607124.588500
1673611220.485557,,,,17.538897,17.544207,5056729.000000,1673607124.589507
1673611220.485568,,,,17.617798,17.622122,5056730.000000,1673607124.590514
1673611220.486788,60.073277,4193141.000000,1673611220.426347,,,,
1673611220.486799,60.380806,4193142.000000,1673611220.427347,,,,
1673611220.486808,60.724518,4193143.000000,1673611220.428347,,,,
1673611220.486848,60.977779,4193144.000000,1673611220.429347,,,,
1673611220.487835,73.514236,4193192.000000,1673611220.477347,,,,
1673611220.487844,73.749413,4193193.000000,1673611220.478347,,,,
1673611220.487854,73.948410,4193194.000000,1673611220.479347,,,,
1673611220.487859,74.183563,4193195.000000,1673611220.480347,,,,
1673611220.487863,74.418739,4193196.000000,1673611220.481347,,,,
1673611220.487870,74.690094,4193197.000000,1673611220.482347,,,,
1673611220.487876,74.943359,4193198.000000,1673611220.483347,,,,
1673611220.487881,75.160439,4193199.000000,1673611220.484347,,,,
1673611220.487899,75.377525,4193200.000000,1673611220.485347,,,,
1673611220.487903,75.630791,4193201.000000,1673611220.486347,,,,
1673611220.499129,,,,17.740356,17.745811,5056731.000000,1673607124.591521
1673611220.499223,,,,17.931070,17.939072,5056732.000000,1673607124.592528
1673611220.499357,,,,18.114403,18.122358,5056733.000000,1673607124.593535
1673611220.501636,,,,18.259657,18.269318,5056734.000000,1673607124.594543
1673611220.501648,,,,18.355024,18.362667,5056735.000000,1673607124.595550
1673611220.501653,,,,18.360867,18.368629,5056736.000000,1673607124.596557
1673611220.501812,,,,18.278070,18.285065,5056737.000000,1673607124.597564
1673611220.506647,,,,18.075842,18.081272,5056738.000000,1673607124.598571
1673611220.506906,,,,17.848948,17.855267,5056739.000000,1673607124.599578
1673611220.507298,,,,17.692492,17.698282,5056740.000000,1673607124.600585
1673611220.507305,,,,17.616764,17.621666,5056741.000000,1673607124.601592
1673611220.508848,,,,17.604527,17.608852,5056742.000000,1673607124.602599
1673611220.509122,,,,17.637751,17.644793,5056743.000000,1673607124.603606
1673611220.509142,,,,17.726004,17.733358,5056744.000000,1673607124.604613
1673611220.514637,,,,17.847673,17.855627,5056745.000000,1673607124.605620
1673611220.514662,,,,17.986195,17.992033,5056746.000000,1673607124.606627
1673611220.514684,,,,18.125895,18.131710,5056747.000000,1673607124.607635
1673611220.516846,,,,18.257757,18.261986,5056748.000000,1673607124.608642
1673611220.517259,,,,18.362669,18.370480,5056749.000000,1673607124.609649
1673611220.517280,,,,18.392672,18.399208,5056750.000000,1673607124.610656
1673611220.518171,,,,18.431810,18.439308,5056751.000000,1673607124.611663
1673611220.518203,,,,18.509317,18.516983,5056752.000000,1673607124.612670
1673611220.518270,,,,18.529150,18.537561,5056753.000000,1673607124.613677
1673611220.518406,,,,18.473520,18.480875,5056754.000000,1673607124.614684
1673611220.518495,,,,18.326033,18.332424,5056755.000000,1673607124.615691
1673611220.521744,,,,18.144863,18.150967,5056756.000000,1673607124.616698
1673611220.522197,,,,18.016991,18.022781,5056757.000000,1673607124.617705
1673611220.522208,,,,17.907894,17.914959,5056758.000000,1673607124.618712
1673611220.522310,,,,17.841951,17.848944,5056759.000000,1673607124.619720
1673611220.523897,,,,17.730860,17.740450,5056760.000000,1673607124.620727
1673611220.524158,,,,17.588804,17.596952,5056761.000000,1673607124.621734
1673611220.524176,,,,17.564909,17.570194,5056762.000000,1673607124.622741
1673611220.541250,,,,17.605778,17.610750,5056763.000000,1673607124.623748
1673611220.541340,,,,17.691170,17.697802,5056764.000000,1673607124.624755
1673611220.541395,,,,17.807911,17.814375,5056765.000000,1673607124.625762
1673611220.541421,,,,17.924843,17.931980,5056766.000000,1673607124.626769
1673611220.541439,,,,18.051682,18.058867,5056767.000000,1673607124.627776
1673611220.541727,,,,18.212561,18.221741,5056768.000000,1673607124.628783
1673611220.541739,,,,18.244150,18.252514,5056769.000000,1673607124.629790
1673611220.541759,,,,18.169937,18.176785,5056770.000000,1673607124.630797
1673611220.542305,,,,18.190420,18.196955,5056771.000000,1673607124.631804
1673611220.542470,,,,18.252516,18.260494,5056772.000000,1673607124.632812
1673611220.542719,,,,18.224749,18.231813,5056773.000000,1673607124.633819
1673611220.543207,,,,18.083174,18.090216,5056774.000000,1673607124.634826
1673611220.543283,,,,18.008432,18.013767,5056775.000000,1673607124.635833
1673611220.543351,,,,18.061586,18.067352,5056776.000000,1673607124.636840
1673611220.543362,,,,18.101469,18.106972,5056777.000000,1673607124.637847
1673611220.543439,,,,18.115965,18.124401,5056778.000000,1673607124.638854
1673611220.543447,,,,18.141449,18.147505,5056779.000000,1673607124.639861
1673611220.543453,,,,18.175058,18.182123,5056780.000000,1673607124.640868
1673611220.543457,,,,18.207993,18.214193,5056781.000000,1673607124.641875
1673611220.543471,,,,18.198761,18.206524,5056782.000000,1673607124.642882
1673611220.543474,,,,18.056465,18.063122,5056783.000000,1673607124.643889
1673611220.543600,,,,17.915035,17.921162,5056784.000000,1673607124.644897
1673611220.543611,,,,17.842096,17.850363,5056785.000000,1673607124.645904
1673611220.543714,,,,17.800314,17.810070,5056786.000000,1673607124.646911
1673611220.543835,,,,17.794256,17.801321,5056787.000000,1673607124.647918
1673611220.543933,,,,17.821157,17.827644,5056788.000000,1673607124.648925
1673611220.544012,,,,17.824860,17.832260,5056789.000000,1673607124.649932
1673611220.544250,,,,17.863180,17.869547,5056790.000000,1673607124.650939
1673611220.544259,,,,18.065241,18.072233,5056791.000000,1673607124.651946
1673611220.544263,,,,18.185707,18.192532,5056792.000000,1673607124.652953
1673611220.544286,,,,18.336971,18.345358,5056793.000000,1673607124.653960
1673611220.544303,,,,18.458183,18.465729,5056794.000000,1673607124.654967
1673611220.545089,,,,18.452341,18.459623,5056795.000000,1673607124.655974
1673611220.545274,,,,18.368631,18.373341,5056796.000000,1673607124.656981
1673611220.545382,,,,18.167604,18.173756,5056797.000000,1673607124.657989
1673611220.551498,78.724197,4193215.000000,1673611220.503447,,,,
1673611220.551568,78.923180,4193216.000000,1673611220.504447,,,,
1673611220.551649,,,,17.986195,17.994125,5056798.000000,1673607124.658996
1673611220.551792,79.104088,4193217.000000,1673611220.505447,,,,
1673611220.551817,,,,17.853851,17.861877,5056799.000000,1673607124.660003
1673611220.551945,79.393532,4193218.000000,1673611220.506447,,,,
1673611220.551959,79.538254,4193219.000000,1673611220.507447,,,,
1673611220.552015,,,,17.733625,17.741051,5056800.000000,1673607124.661010
1673611220.552019,,,,17.661961,17.672367,5056801.000000,1673607124.662017
1673611220.552353,79.791519,4193220.000000,1673611220.508447,,,,
1673611220.552366,80.062859,4193221.000000,1673611220.509447,,,,
1673611220.552373,80.316116,4193222.000000,1673611220.510447,,,,
1673611220.552377,80.497025,4193223.000000,1673611220.511447,,,,
1673611220.552396,80.804558,4193224.000000,1673611220.512447,,,,
1673611220.552414,87.733078,4193253.000000,1673611220.541447,,,,
1673611220.552418,87.913986,4193254.000000,1673611220.542447,,,,
1673611220.552422,88.167229,4193255.000000,1673611220.543447,,,,
1673611220.552439,88.474777,4193256.000000,1673611220.544447,,,,
1673611220.552441,88.709938,4193257.000000,1673611220.545447,,,,
1673611220.552443,89.017487,4193258.000000,1673611220.546447,,,,
1673611220.552469,89.252640,4193259.000000,1673611220.547447,,,,
1673611220.552471,89.523994,4193260.000000,1673611220.548447,,,,
1673611220.552473,89.795349,4193261.000000,1673611220.549447,,,,
1673611220.552484,90.066696,4193262.000000,1673611220.550447,,,,
1673611220.559136,,,,17.661840,17.666164,5056802.000000,1673607124.663024
1673611220.559543,,,,17.685112,17.691576,5056803.000000,1673607124.664031
1673611220.559802,,,,17.697901,17.705133,5056804.000000,1673607124.665038
1673611220.559907,,,,17.687395,17.695469,5056805.000000,1673607124.666045
1673611220.561478,,,,17.711796,17.719799,5056806.000000,1673607124.667052
1673611220.561665,,,,17.812429,17.820841,5056807.000000,1673607124.668059
1673611220.561927,,,,17.944197,17.951262,5056808.000000,1673607124.669066
1673611220.567069,,,,18.084185,18.091898,5056809.000000,1673607124.670074
1673611220.567087,,,,18.189867,18.196474,5056810.000000,1673607124.671081
1673611220.567379,,,,18.231289,18.238016,5056811.000000,1673607124.672088
1673611220.567414,,,,18.200325,18.209841,5056812.000000,1673607124.673095
1673611220.569242,,,,18.140078,18.145485,5056813.000000,1673607124.674102
1673611220.569648,,,,18.068918,18.074469,5056814.000000,1673607124.675109
1673611220.569955,,,,17.996267,18.002901,5056815.000000,1673607124.676116
1673611220.570616,,,,17.951841,17.958761,5056816.000000,1673607124.677123
1673611220.570638,,,,17.980738,17.989870,5056817.000000,1673607124.678130
1673611220.570658,,,,17.987326,17.998140,5056818.000000,1673607124.679137
1673611220.570679,,,,17.952827,17.957872,5056819.000000,1673607124.680144
1673611220.574677,,,,17.936022,17.941116,5056820.000000,1673607124.681151
1673611220.574693,,,,17.988239,17.996241,5056821.000000,1673607124.682158
1673611220.574995,,,,18.092215,18.096827,5056822.000000,1673607124.683166
1673611220.575437,,,,18.124788,18.128969,5056823.000000,1673607124.684173
1673611220.575659,,,,18.093729,18.097307,5056824.000000,1673607124.685180
1673611220.575678,,,,18.035694,18.042446,5056825.000000,1673607124.686187
1673611220.575867,,,,17.938137,17.945852,5056826.000000,1673607124.687194
1673611220.578553,,,,17.866690,17.873562,5056827.000000,1673607124.688201
1673611220.578911,,,,17.713263,17.719872,5056828.000000,1673607124.689208
1673611220.579121,,,,17.652319,17.661764,5056829.000000,1673607124.690215
1673611220.579135,,,,17.651335,17.660540,5056830.000000,1673607124.691222
1673611220.579353,,,,17.675350,17.681213,5056831.000000,1673607124.692229
1673611220.579478,,,,17.696772,17.703476,5056832.000000,1673607124.693236
1673611220.579819,,,,17.618927,17.624502,5056833.000000,1673607124.694243
1673611220.579901,,,,17.564837,17.571301,5056834.000000,1673607124.695251
1673611220.580117,,,,17.619600,17.625463,5056835.000000,1673607124.696258
1673611220.580294,,,,17.731606,17.737228,5056836.000000,1673607124.697265
1673611220.581611,,,,17.841904,17.847502,5056837.000000,1673607124.698272
1673611220.582213,,,,18.023098,18.028791,5056838.000000,1673607124.699279
1673611220.582236,,,,18.264824,18.270544,5056839.000000,1673607124.700286
1673611220.582246,,,,18.431377,18.438370,5056840.000000,1673607124.701293
1673611220.582260,,,,18.364616,18.372644,5056841.000000,1673607124.702300
1673611220.586126,,,,18.197079,18.205513,5056842.000000,1673607124.703307
1673611220.586390,,,,17.976940,17.983042,5056843.000000,1673607124.704314
1673611220.586694,,,,17.816830,17.824015,5056844.000000,1673607124.705321
1673611220.586709,,,,17.778725,17.785429,5056845.000000,1673607124.706328
1673611220.587084,,,,17.740622,17.748310,5056846.000000,1673607124.707335
1673611220.587455,,,,17.710114,17.718405,5056847.000000,1673607124.708343
1673611220.587476,,,,17.779037,17.783915,5056848.000000,1673607124.709350
1673611220.587693,,,,17.903881,17.907988,5056849.000000,1673607124.710357
1673611220.587902,,,,18.075146,18.080551,5056850.000000,1673607124.711364
1673611220.588226,,,,18.286581,18.294487,5056851.000000,1673607124.712371
1673611220.593867,,,,18.504316,18.512199,5056852.000000,1673607124.713378
1673611220.594028,,,,18.668274,18.674232,5056853.000000,1673607124.714385
1673611220.594600,,,,18.661278,18.668318,5056854.000000,1673607124.715392
1673611220.594733,,,,18.513285,18.519892,5056855.000000,1673607124.716399
1673611220.594748,,,,18.425175,18.432119,5056856.000000,1673607124.717406
1673611220.595359,,,,18.389908,18.395964,5056857.000000,1673607124.718413
1673611220.595380,,,,18.343149,18.350189,5056858.000000,1673607124.719420
1673611220.604837,,,,18.261002,18.265278,5056859.000000,1673607124.720428
1673611220.605109,98.008270,4193295.000000,1673611220.575816,,,,
1673611220.605174,,,,18.069399,18.076729,5056860.000000,1673607124.721435
1673611220.605315,,,,17.887701,17.894285,5056861.000000,1673607124.722442
1673611220.605331,98.243446,4193296.000000,1673611220.576817,,,,
1673611220.605337,,,,17.817478,17.824110,5056862.000000,1673607124.723449
1673611220.605357,,,,17.808704,17.815359,5056863.000000,1673607124.724456
1673611220.605378,,,,17.820004,17.825481,5056864.000000,1673607124.725463
1673611220.605383,,,,17.786659,17.793554,5056865.000000,1673607124.726470
1673611220.605697,,,,17.748146,17.752926,5056866.000000,1673607124.727477
1673611220.605706,98.442429,4193297.000000,1673611220.577816,,,,
1673611220.605709,98.677605,4193298.000000,1673611220.578816,,,,
1673611220.605729,98.912773,4193299.000000,1673611220.579817,,,,
1673611220.605735,99.111771,4193300.000000,1673611220.580817,,,,
1673611220.605737,99.274574,4193301.000000,1673611220.581816,,,,
1673611220.605802,99.491661,4193302.000000,1673611220.582817,,,,
1673611220.605806,99.708740,4193303.000000,1673611220.583817,,,,
1673611220.605815,99.907722,4193304.000000,1673611220.584816,,,,
1673611220.605819,101.608208,4193314.000000,1673611220.594816,,,,
1673611220.605830,101.752922,4193315.000000,1673611220.595817,,,,
1673611220.605834,101.843369,4193316.000000,1673611220.596817,,,,
1673611220.605839,101.988098,4193317.000000,1673611220.597816,,,,
1673611220.605858,102.078545,4193318.000000,1673611220.598816,,,,
1673611220.605861,102.259445,4193319.000000,1673611220.599817,,,,
1673611220.605890,102.386070,4193320.000000,1673611220.600816,,,,
1673611220.605896,102.476532,4193321.000000,1673611220.601816,,,,
1673611220.605904,102.494621,4193322.000000,1673611220.602817,,,,
1673611220.605927,102.603157,4193323.000000,1673611220.603817,,,,
1673611220.605939,,,,17.762329,17.767904,5056867.000000,1673607124.728484
1673611220.606038,,,,17.826494,17.834953,5056868.000000,1673607124.729491
1673611220.606189,,,,17.923208,17.928904,5056869.000000,1673607124.730498
1673611220.608375,,,,18.059664,18.066103,5056870.000000,1673607124.731505
1673611220.608576,,,,18.172773,18.179935,5056871.000000,1673607124.732512
1673611220.608735,,,,18.214701,18.222391,5056872.000000,1673607124.733520
1673611220.609013,,,,18.165081,18.171040,5056873.000000,1673607124.734527
1673611220.609203,,,,18.114620,18.118992,5056874.000000,1673607124.735534
1673611220.609209,,,,18.177197,18.182507,5056875.000000,1673607124.736541
1673611220.609215,,,,18.237852,18.248281,5056876.000000,1673607124.737548
1673611220.609312,,,,18.245857,18.254652,5056877.000000,1673607124.738555
1673611220.609339,,,,18.233572,18.240276,5056878.000000,1673607124.739562
1673611220.609342,,,,18.262613,18.272924,5056879.000000,1673607124.740569
1673611220.611799,,,,18.238020,18.249966,5056880.000000,1673607124.741576
1673611220.611883,,,,18.201670,18.208134,5056881.000000,1673607124.742583
1673611220.612042,,,,18.201599,18.209385,5056882.000000,1673607124.743590
1673611220.612129,,,,18.193810,18.197918,5056883.000000,1673607124.744597
1673611220.612353,,,,18.137169,18.143826,5056884.000000,1673607124.745605
1673611220.612367,,,,18.103031,18.110939,5056885.000000,1673607124.746612
1673611220.612375,,,,18.119211,18.126373,5056886.000000,1673607124.747619
1673611220.614195,,,,18.153181,18.158924,5056887.000000,1673607124.748626
1673611220.614522,,,,18.179962,18.187580,5056888.000000,1673607124.749633
1673611220.614533,,,,18.144165,18.150846,5056889.000000,1673607124.750640
1673611220.614539,,,,18.056177,18.063507,5056890.000000,1673607124.751647
1673611220.614544,,,,18.049326,18.055117,5056891.000000,1673607124.752654
1673611220.614655,,,,18.124092,18.130651,5056892.000000,1673607124.753661
1673611220.614660,,,,18.128756,18.133007,5056893.000000,1673607124.754668
1673611220.614663,,,,18.064400,18.069853,5056894.000000,1673607124.755675
1673611220.619051,,,,17.998695,18.007565,5056895.000000,1673607124.756682
1673611220.619282,,,,17.955256,17.963425,5056896.000000,1673607124.757689
1673611220.619479,,,,17.908712,17.913998,5056897.000000,1673607124.758697
1673611220.619487,,,,17.837168,17.838919,5056898.000000,1673607124.759704
1673611220.621309,,,,17.784687,17.789299,5056899.000000,1673607124.760711
1673611220.621439,,,,17.785673,17.792330,5056900.000000,1673607124.761718
1673611220.626708,,,,17.849789,17.858200,5056901.000000,1673607124.762725
1673611220.627273,,,,17.903519,17.912220,5056902.000000,1673607124.763732
1673611220.627439,,,,17.977854,17.985807,5056903.000000,1673607124.764739
1673611220.627455,,,,18.145006,18.152985,5056904.000000,1673607124.765746
1673611220.629284,,,,18.249439,18.256912,5056905.000000,1673607124.766753
1673611220.629689,,,,18.231096,18.237103,5056906.000000,1673607124.767760
1673611220.629719,,,,18.120340,18.126228,5056907.000000,1673607124.768767
1673611220.630081,,,,18.087767,18.094110,5056908.000000,1673607124.769774
1673611220.636532,,,,18.094643,18.100241,5056909.000000,1673607124.770782
1673611220.637257,,,,18.044565,18.054396,5056910.000000,1673607124.771789
1673611220.637439,,,,17.901451,17.909622,5056911.000000,1673607124.772796
1673611220.642096,,,,17.793823,17.800743,5056912.000000,1673607124.773803
1673611220.642158,,,,17.739275,17.744705,5056913.000000,1673607124.774810
1673611220.642167,,,,17.675928,17.683449,5056914.000000,1673607124.775817
1673611220.642274,,,,17.661167,17.667679,5056915.000000,1673607124.776824
1673611220.644878,,,,17.568033,17.575388,5056916.000000,1673607124.777831
1673611220.645083,,,,17.352726,17.360609,5056917.000000,1673607124.778838
1673611220.645105,,,,17.204878,17.212086,5056918.000000,1673607124.779845
1673611220.645113,,,,17.180668,17.185089,5056919.000000,1673607124.780852
1673611220.645212,,,,17.240360,17.246849,5056920.000000,1673607124.781859
1673611220.645230,,,,17.423189,17.432274,5056921.000000,1673607124.782866
1673611220.645242,,,,17.743097,17.751196,5056922.000000,1673607124.783874
1673611220.657976,,,,18.097214,18.101803,5056923.000000,1673607124.784881
1673611220.658162,,,,18.377815,18.383966,5056924.000000,1673607124.785888
1673611220.658333,,,,18.592978,18.602400,5056925.000000,1673607124.786895
1673611220.658479,,,,18.693108,18.701975,5056926.000000,1673607124.787902
1673611220.658598,,,,18.624304,18.631248,5056927.000000,1673607124.788909
1673611220.658733,,,,18.499340,18.504002,5056928.000000,1673607124.789916
1673611220.658864,,,,18.292496,18.296965,5056929.000000,1673607124.790923
1673611220.665608,,,,18.115725,18.120867,5056930.000000,1673607124.791930
1673611220.665694,,,,18.053484,18.058481,5056931.000000,1673607124.792937
1673611220.665830,,,,18.080986,18.085407,5056932.000000,1673607124.793944
1673611220.666036,,,,18.121904,18.125195,5056933.000000,1673607124.794951
1673611220.666068,,,,18.179745,18.184935,5056934.000000,1673607124.795959
1673611220.666338,,,,18.260691,18.266962,5056935.000000,1673607124.796966
1673611220.666350,,,,18.347092,18.354734,5056936.000000,1673607124.797973
1673611220.668661,103.887566,4193375.000000,1673611220.658447,,,,
1673611220.668671,103.923744,4193376.000000,1673611220.659447,,,,
1673611220.668676,103.923744,4193377.000000,1673611220.660447,,,,
1673611220.668679,103.959915,4193378.000000,1673611220.661447,,,,
1673611220.668725,103.959915,4193379.000000,1673611220.662447,,,,
1673611220.668732,103.978004,4193380.000000,1673611220.663447,,,,
1673611220.668737,103.959915,4193381.000000,1673611220.664447,,,,
1673611220.668753,104.032272,4193382.000000,1673611220.665447,,,,
1673611220.668771,103.978004,4193383.000000,1673611220.666447,,,,
1673611220.668774,103.959915,4193384.000000,1673611220.667447,,,,
1673611220.671552,,,,18.451620,18.459959,5056937.000000,1673607124.798980
1673611220.671710,,,,18.517515,18.524725,5056938.000000,1673607124.799987
1673611220.671853,,,,18.470106,18.475346,5056939.000000,1673607124.800994
1673611220.672013,,,,18.389380,18.393175,5056940.000000,1673607124.802001
1673611220.673756,,,,18.304203,18.309345,5056941.000000,1673607124.803008
1673611220.673981,,,,18.168758,18.171785,5056942.000000,1673607124.804015
1673611220.674228,,,,18.103945,18.111492,5056943.000000,1673607124.805022
1673611220.682218,,,,18.102407,18.108822,5056944.000000,1673607124.806029
1673611220.683574,,,,18.105701,18.111853,5056945.000000,1673607124.807036
1673611220.683790,,,,18.088463,18.093124,5056946.000000,1673607124.808043
1673611220.683975,,,,18.091684,18.099470,5056947.000000,1673607124.809051
1673611220.684591,,,,18.105389,18.113728,5056948.000000,1673607124.810058
1673611220.684649,,,,18.136375,18.143778,5056949.000000,1673607124.811065
1673611220.685042,,,,18.154575,18.163250,5056950.000000,1673607124.812072
1673611220.685205,,,,18.200541,18.205971,5056951.000000,1673607124.813079
1673611220.686839,,,,18.152508,18.157265,5056952.000000,1673607124.814086
1673611220.687192,,,,18.021030,18.027685,5056953.000000,1673607124.815093
1673611220.687209,,,,17.851761,17.860533,5056954.000000,1673607124.816100
1673611220.694137,,,,17.693886,17.701288,5056955.000000,1673607124.817107
1673611220.694288,,,,17.606907,17.612289,5056956.000000,1673607124.818114
1673611220.694653,,,,17.645060,17.652485,5056957.000000,1673607124.819121
1673611220.696831,,,,17.767738,17.772352,5056958.000000,1673607124.820128
1673611220.697229,,,,17.903568,17.912748,5056959.000000,1673607124.821136
1673611220.697239,,,,18.040911,18.047976,5056960.000000,1673607124.822143
1673611220.697475,,,,18.188328,18.196186,5056961.000000,1673607124.823150
1673611220.697785,,,,18.245279,18.251648,5056962.000000,1673607124.824157
1673611220.697806,,,,18.307257,18.312326,5056963.000000,1673607124.825164
1673611220.697813,,,,18.422771,18.429403,5056964.000000,1673607124.826171
1673611220.697849,,,,18.460732,18.468061,5056965.000000,1673607124.827178
1673611220.701797,,,,18.363102,18.368244,5056966.000000,1673607124.828185
1673611220.702392,,,,18.209940,18.215731,5056967.000000,1673607124.829192
1673611220.702417,,,,18.060144,18.064877,5056968.000000,1673607124.830199
1673611220.704067,,,,17.914457,17.921980,5056969.000000,1673607124.831206
1673611220.704250,,,,17.778532,17.786390,5056970.000000,1673607124.832213
1673611220.704568,,,,17.677996,17.682127,5056971.000000,1673607124.833220
1673611220.704591,,,,17.612917,17.617964,5056972.000000,1673607124.834228
1673611220.709145,,,,17.529329,17.535913,5056973.000000,1673607124.835235
1673611220.709159,,,,17.531397,17.538557,5056974.000000,1673607124.836242
1673611220.709184,,,,17.683187,17.691839,5056975.000000,1673607124.837249
1673611220.709190,,,,17.890705,17.898949,5056976.000000,1673607124.838256
1673611220.711451,,,,18.050623,18.058121,5056977.000000,1673607124.839263
1673611220.711459,,,,18.096733,18.104639,5056978.000000,1673607124.840270
1673611220.711463,,,,18.084352,18.093100,5056979.000000,1673607124.841277
1673611220.726168,,,,18.179602,18.188253,5056980.000000,1673607124.842284
1673611220.726193,,,,18.236240,18.244867,5056981.000000,1673607124.843291
1673611220.726203,,,,18.192535,18.201115,5056982.000000,1673607124.844298
1673611220.726213,,,,18.234894,18.240950,5056983.000000,1673607124.845305
1673611220.726254,,,,18.326994,18.334347,5056984.000000,1673607124.846313
1673611220.726264,,,,18.277277,18.283140,5056985.000000,1673607124.847320
1673611220.726274,,,,18.043219,18.047302,5056986.000000,1673607124.848327
1673611220.733324,,,,17.819571,17.825216,5056987.000000,1673607124.849334
1673611220.733456,,,,17.651936,17.656572,5056988.000000,1673607124.850341
1673611220.733881,,,,17.463722,17.467661,5056989.000000,1673607124.851348
1673611220.734644,,,,17.325777,17.331232,5056990.000000,1673607124.852355
1673611220.734672,,,,17.325609,17.333731,5056991.000000,1673607124.853362
1673611220.734790,,,,17.445715,17.456314,5056992.000000,1673607124.854369
1673611220.734822,,,,17.618326,17.625631,5056993.000000,1673607124.855376
1673611220.739143,,,,17.768099,17.776245,5056994.000000,1673607124.856383
1673611220.739594,,,,17.906139,17.915272,5056995.000000,1673607124.857390
1673611220.739730,,,,18.088392,18.098005,5056996.000000,1673607124.858397
1673611220.739958,,,,18.283287,18.293118,5056997.000000,1673607124.859405
1673611220.741590,,,,18.450731,18.459118,5056998.000000,1673607124.860412
1673611220.741802,,,,18.514727,18.521406,5056999.000000,1673607124.861419
1673611220.742159,,,,18.564369,18.572277,5057000.000000,1673607124.862426
1673611220.743948,104.375984,4193436.000000,1673611220.732806,,,,
1673611220.743973,104.430267,4193437.000000,1673611220.733806,,,,
1673611220.743983,104.502625,4193438.000000,1673611220.734806,,,,
1673611220.743989,104.538803,4193439.000000,1673611220.735806,,,,
1673611220.743998,104.611160,4193440.000000,1673611220.736806,,,,
1673611220.744004,104.701622,4193441.000000,1673611220.737806,,,,
1673611220.744047,104.755890,4193442.000000,1673611220.738806,,,,
1673611220.744064,104.810158,4193443.000000,1673611220.739806,,,,
1673611220.744073,104.864418,4193444.000000,1673611220.740806,,,,
1673611220.744080,104.918686,4193445.000000,1673611220.741806,,,,
1673611220.747003,,,,18.563721,18.570498,5057001.000000,1673607124.863433
1673611220.747018,,,,18.465179,18.470898,5057002.000000,1673607124.864440
1673611220.747023,,,,18.231913,18.239820,5057003.000000,1673607124.865447
1673611220.749402,,,,18.002615,18.011194,5057004.000000,1673607124.866454
1673611220.749420,,,,17.896547,17.904623,5057005.000000,1673607124.867461
1673611220.749620,,,,17.858372,17.863562,5057006.000000,1673607124.868468
1673611220.749837,,,,17.781033,17.788315,5057007.000000,1673607124.869475
1673611220.750209,,,,17.566135,17.573128,5057008.000000,1673607124.870482
1673611220.750333,,,,17.347607,17.354912,5057009.000000,1673607124.871490
1673611220.750409,,,,17.276783,17.282837,5057010.000000,1673607124.872497
1673611220.750441,,,,17.292385,17.300652,5057011.000000,1673607124.873504
1673611220.754084,,,,17.339865,17.348204,5057012.000000,1673607124.874511
1673611220.754163,,,,17.524496,17.533268,5057013.000000,1673607124.875518
1673611220.754264,,,,17.777042,17.783073,5057014.000000,1673607124.876525
1673611220.754272,,,,18.060841,18.067858,5057015.000000,1673607124.877532
1673611220.761983,,,,18.298361,18.304825,5057016.000000,1673607124.878539
1673611220.761997,,,,18.495710,18.500587,5057017.000000,1673607124.879546
1673611220.762004,,,,18.737726,18.743614,5057018.000000,1673607124.880553
1673611220.769468,,,,18.929449,18.937548,5057019.000000,1673607124.881560
1673611220.769826,,,,18.843601,18.852228,5057020.000000,1673607124.882567
1673611220.770084,,,,18.595118,18.603481,5057021.000000,1673607124.883574
1673611220.770105,,,,18.440514,18.447411,5057022.000000,1673607124.884582
1673611220.770536,,,,18.406569,18.410435,5057023.000000,1673607124.885589
1673611220.771034,,,,18.335985,18.342690,5057024.000000,1673607124.886596
1673611220.771504,,,,18.290333,18.298502,5057025.000000,1673607124.887603
1673611220.771533,,,,18.277855,18.283741,5057026.000000,1673607124.888610
1673611220.771758,,,,18.245256,18.251360,5057027.000000,1673607124.889617
1673611220.772012,,,,18.245592,18.251095,5057028.000000,1673607124.890624
1673611220.786287,,,,18.322786,18.330502,5057029.000000,1673607124.891631
1673611220.786325,,,,18.361059,18.367908,5057030.000000,1673607124.892638
1673611220.786339,,,,18.326656,18.331966,5057031.000000,1673607124.893645
1673611220.786358,,,,18.312016,18.316677,5057032.000000,1673607124.894652
1673611220.793116,,,,18.329998,18.334925,5057033.000000,1673607124.895659
1673611220.793291,,,,18.237129,18.242802,5057034.000000,1673607124.896667
1673611220.793460,,,,18.046658,18.053337,5057035.000000,1673607124.897674
1673611220.798198,109.169884,4193497.000000,1673611220.786886,,,,
1673611220.798219,109.296501,4193498.000000,1673611220.787886,,,,
1673611220.798289,109.242233,4193499.000000,1673611220.788886,,,,
1673611220.798299,109.332680,4193500.000000,1673611220.789886,,,,
1673611220.798304,109.386948,4193501.000000,1673611220.790886,,,,
1673611220.798324,109.459320,4193502.000000,1673611220.791886,,,,
1673611220.798361,109.513588,4193503.000000,1673611220.792886,,,,
1673611220.798369,109.585945,4193504.000000,1673611220.793886,,,,
1673611220.798404,109.622124,4193505.000000,1673611220.794886,,,,
1673611220.798426,109.712585,4193506.000000,1673611220.795886,,,,
1673611220.799778,,,,17.840822,17.847118,5057036.000000,1673607124.898681
1673611220.799790,,,,17.654171,17.663136,5057037.000000,1673607124.899688
1673611220.800247,,,,17.543753,17.551636,5057038.000000,1673607124.900695
1673611220.800296,,,,17.508678,17.514517,5057039.000000,1673607124.901702
1673611220.800328,,,,17.523077,17.532234,5057040.000000,1673607124.902709
1673611220.800335,,,,17.622005,17.630440,5057041.000000,1673607124.903716
1673611220.800346,,,,17.742977,17.750210,5057042.000000,1673607124.904723
1673611220.800358,,,,17.931213,17.937126,5057043.000000,1673607124.905730
1673611220.801457,,,,18.208883,18.217342,5057044.000000,1673607124.906737
1673611220.801534,,,,18.454264,18.460608,5057045.000000,1673607124.907744
1673611220.801641,,,,18.571125,18.576460,5057046.000000,1673607124.908751
1673611220.806497,,,,18.543070,18.547564,5057047.000000,1673607124.909759
1673611220.806663,,,,18.499868,18.506598,5057048.000000,1673607124.910766
1673611220.806685,,,,18.407457,18.414257,5057049.000000,1673607124.911773
1673611220.809026,,,,18.249414,18.255062,5057050.000000,1673607124.912780
1673611220.809035,,,,18.196741,18.202749,5057051.000000,1673607124.913787
1673611220.809050,,,,18.166883,18.173540,5057052.000000,1673607124.914794
1673611220.809053,,,,18.119379,18.125650,5057053.000000,1673607124.915801
1673611220.814316,,,,18.075314,18.081440,5057054.000000,1673607124.916808
1673611220.814508,,,,18.034035,18.038769,5057055.000000,1673607124.917815
1673611220.814518,,,,17.969727,17.974916,5057056.000000,1673607124.918822
1673611220.814670,,,,17.867699,17.873249,5057057.000000,1673607124.919829
1673611220.814712,,,,17.718960,17.723837,5057058.000000,1673607124.920836
1673611220.821689,,,,17.641573,17.650946,5057059.000000,1673607124.921844
1673611220.821793,,,,17.670351,17.681934,5057060.000000,1673607124.922851
1673611220.824694,,,,17.676289,17.684820,5057061.000000,1673607124.923858
1673611220.824716,,,,17.643785,17.652149,5057062.000000,1673607124.924865
1673611220.824731,,,,17.634674,17.644072,5057063.000000,1673607124.925872
1673611220.824744,,,,17.640324,17.645969,5057064.000000,1673607124.926879
1673611220.825169,,,,17.652872,17.657654,5057065.000000,1673607124.927886
1673611220.825337,,,,17.662128,17.668928,5057066.000000,1673607124.928893
1673611220.825644,,,,17.544186,17.548077,5057067.000000,1673607124.929900
1673611220.829679,,,,17.424200,17.429197,5057068.000000,1673607124.930907
1673611220.829961,,,,17.448769,17.455378,5057069.000000,1673607124.931914
1673611220.829996,,,,17.583780,17.589931,5057070.000000,1673607124.932921
1673611220.830014,,,,17.704391,17.712057,5057071.000000,1673607124.933928
1673611220.833671,,,,17.779158,17.786608,5057072.000000,1673607124.934936
1673611220.833993,,,,17.868059,17.874187,5057073.000000,1673607124.935943
1673611220.834393,,,,18.030069,18.038143,5057074.000000,1673607124.936950
1673611220.834787,,,,18.231337,18.238689,5057075.000000,1673607124.937957
1673611220.848705,,,,18.390726,18.396564,5057076.000000,1673607124.938964
1673611220.849165,,,,18.624134,18.630888,5057077.000000,1673607124.939971
1673611220.849183,,,,18.812107,18.821890,5057078.000000,1673607124.940978
1673611220.849188,,,,18.682001,18.691589,5057079.000000,1673607124.941985
1673611220.859283,,,,18.253958,18.260567,5057080.000000,1673607124.942992
1673611220.859425,,,,18.001244,18.007732,5057081.000000,1673607124.943999
1673611220.859496,,,,17.982107,17.985807,5057082.000000,1673607124.945006
1673611220.862946,110.996971,4193558.000000,1673611220.852365,,,,
1673611220.862963,110.996971,4193559.000000,1673611220.853366,,,,
1673611220.862968,110.996971,4193560.000000,1673611220.854366,,,,
1673611220.862976,110.924622,4193561.000000,1673611220.855366,,,,
1673611220.862981,110.924622,4193562.000000,1673611220.856365,,,,
1673611220.862993,110.852264,4193563.000000,1673611220.857366,,,,
1673611220.863003,110.870354,4193564.000000,1673611220.858366,,,,
1673611220.863008,110.906532,4193565.000000,1673611220.859365,,,,
1673611220.863022,110.888443,4193566.000000,1673611220.860366,,,,
1673611220.863029,110.797981,4193567.000000,1673611220.861366,,,,
1673611220.866645,,,,17.929724,17.934000,5057083.000000,1673607124.946013
1673611220.866668,,,,17.806805,17.813196,5057084.000000,1673607124.947021
1673611220.866899,,,,17.744780,17.751436,5057085.000000,1673607124.948028
1673611220.868938,,,,17.758604,17.767447,5057086.000000,1673607124.949035
1673611220.869047,,,,17.881594,17.891111,5057087.000000,1673607124.950042
1673611220.869150,,,,18.000933,18.008501,5057088.000000,1673607124.951049
1673611220.869225,,,,18.175875,18.184141,5057089.000000,1673607124.952056
1673611220.877681,,,,18.414934,18.421494,5057090.000000,1673607124.953063
1673611220.877951,,,,18.605022,18.613699,5057091.000000,1673607124.954070
1673611220.878109,,,,18.622019,18.628916,5057092.000000,1673607124.955077
1673611220.878362,,,,18.467558,18.474527,5057093.000000,1673607124.956084
1673611220.878385,,,,18.348198,18.353003,5057094.000000,1673607124.957091
1673611220.878400,,,,18.291702,18.299007,5057095.000000,1673607124.958098
1673611220.878468,,,,18.232513,18.238857,5057096.000000,1673607124.959105
1673611220.878492,,,,18.195107,18.200296,5057097.000000,1673607124.960113
1673611220.878688,,,,18.176933,18.183805,5057098.000000,1673607124.961120
1673611220.878700,,,,18.174986,18.180849,5057099.000000,1673607124.962127
1673611220.879544,,,,18.119019,18.124834,5057100.000000,1673607124.963134
1673611220.879560,,,,18.045624,18.055765,5057101.000000,1673607124.964141
1673611220.879822,,,,18.018650,18.026363,5057102.000000,1673607124.965148
1673611220.879849,,,,18.044853,18.054899,5057103.000000,1673607124.966155
1673611220.879887,,,,18.091516,18.101227,5057104.000000,1673607124.967162
1673611220.880265,,,,18.102167,18.109375,5057105.000000,1673607124.968169
1673611220.880289,,,,18.057499,18.063602,5057106.000000,1673607124.969176
1673611220.880837,,,,18.006124,18.012974,5057107.000000,1673607124.970183
1673611220.881420,,,,18.000355,18.008020,5057108.000000,1673607124.971190
1673611220.881435,,,,18.044758,18.051558,5057109.000000,1673607124.972198
1673611220.881441,,,,18.116495,18.119810,5057110.000000,1673607124.973205
1673611220.881500,,,,18.144142,18.148802,5057111.000000,1673607124.974212
1673611220.881660,,,,18.093897,18.098581,5057112.000000,1673607124.975219
1673611220.881819,,,,18.044758,18.048649,5057113.000000,1673607124.976226
1673611220.881859,,,,18.070913,18.075600,5057114.000000,1673607124.977233
1673611220.882058,,,,18.136688,18.142023,5057115.000000,1673607124.978240
1673611220.882205,,,,18.192030,18.201883,5057116.000000,1673607124.979247
1673611220.882261,,,,18.243284,18.253090,5057117.000000,1673607124.980254
1673611220.882377,,,,18.303074,18.307543,5057118.000000,1673607124.981261
1673611220.882441,,,,18.319036,18.325476,5057119.000000,1673607124.982268
1673611220.882591,,,,18.290356,18.298239,5057120.000000,1673607124.983275
1673611220.883067,,,,18.249582,18.256166,5057121.000000,1673607124.984282
1673611220.883078,,,,18.166883,18.174526,5057122.000000,1673607124.985290
1673611220.883277,,,,18.024973,18.032158,5057123.000000,1673607124.986297
1673611220.883372,,,,17.911261,17.917267,5057124.000000,1673607124.987304
1673611220.883379,,,,17.821398,17.826658,5057125.000000,1673607124.988311
1673611220.883391,,,,17.689175,17.694675,5057126.000000,1673607124.989318
1673611220.883399,,,,17.554764,17.561491,5057127.000000,1673607124.990325
1673611220.883410,,,,17.489613,17.498817,5057128.000000,1673607124.991332
1673611220.883423,,,,17.496609,17.505188,5057129.000000,1673607124.992339
1673611220.883803,,,,17.582554,17.589979,5057130.000000,1673607124.993346
1673611220.883982,,,,17.669004,17.674963,5057131.000000,1673607124.994353
1673611220.889680,,,,17.775503,17.783772,5057132.000000,1673607124.995360
1673611220.889693,,,,17.960833,17.969797,5057133.000000,1673607124.996367
1673611220.889827,,,,18.173542,18.180489,5057134.000000,1673607124.997375
1673611220.890150,,,,18.301535,18.308407,5057135.000000,1673607124.998382
1673611220.890225,,,,18.410944,18.421326,5057136.000000,1673607124.999389
1673611220.890235,,,,18.488642,18.497318,5057137.000000,1673607125.000396
1673611220.890384,,,,18.496191,18.505636,5057138.000000,1673607125.001403
1673611220.891376,,,,18.475084,18.483133,5057139.000000,1673607125.002410
1673611220.891739,,,,18.408371,18.415388,5057140.000000,1673607125.003417
1673611220.891784,,,,18.312426,18.320957,5057141.000000,1673607125.004424
1673611220.891878,,,,18.201742,18.207100,5057142.000000,1673607125.005431
1673611220.905852,,,,18.023338,18.027637,5057143.000000,1673607125.006438
1673611220.906335,,,,17.858515,17.863249,5057144.000000,1673607125.007445
1673611220.906805,,,,17.753555,17.759634,5057145.000000,1673607125.008452
1673611220.906964,,,,17.744947,17.752686,5057146.000000,1673607125.009459
1673611220.906989,,,,17.775408,17.783409,5057147.000000,1673607125.010467
1673611220.907098,,,,17.837503,17.843031,5057148.000000,1673607125.011474
1673611220.907176,,,,17.917006,17.925034,5057149.000000,1673607125.012481
1673611220.907190,,,,18.001484,18.007565,5057150.000000,1673607125.013488
1673611220.912783,,,,18.079376,18.084349,5057151.000000,1673607125.014495
1673611220.912919,,,,18.162485,18.167818,5057152.000000,1673607125.015502
1673611220.912927,,,,18.141737,18.149500,5057153.000000,1673607125.016509
1673611220.915694,108.880440,4193619.000000,1673611220.905251,,,,
1673611220.915709,108.771889,4193620.000000,1673611220.906251,,,,
1673611220.915714,108.771889,4193621.000000,1673611220.907251,,,,
1673611220.915804,108.681442,4193622.000000,1673611220.908251,,,,
1673611220.915811,108.645264,4193623.000000,1673611220.909251,,,,
1673611220.915822,108.572891,4193624.000000,1673611220.910251,,,,
1673611220.915858,108.464355,4193625.000000,1673611220.911251,,,,
1673611220.915865,108.428177,4193626.000000,1673611220.912251,,,,
1673611220.915874,108.373909,4193627.000000,1673611220.913251,,,,
1673611220.915883,108.283447,4193628.000000,1673611220.914251,,,,
1673611220.919082,,,,18.034660,18.043673,5057154.000000,1673607125.017516
1673611220.919205,,,,17.887053,17.893780,5057155.000000,1673607125.018523
1673611220.919214,,,,17.712397,17.716986,5057156.000000,1673607125.019530
1673611220.922242,,,,17.604406,17.607433,5057157.000000,1673607125.020537
1673611220.922252,,,,17.567841,17.572357,5057158.000000,1673607125.021544
1673611220.922405,,,,17.614529,17.620222,5057159.000000,1673607125.022552
1673611220.922560,,,,17.751295,17.758022,5057160.000000,1673607125.023559
1673611220.922639,,,,17.909433,17.916090,5057161.000000,1673607125.024566
1673611220.922996,,,,18.120581,18.130291,5057162.000000,1673607125.025573
1673611220.923007,,,,18.410173,18.417671,5057163.000000,1673607125.026580
1673611220.923011,,,,18.623703,18.630983,5057164.000000,1673607125.027587
1673611220.923030,,,,18.696257,18.702240,5057165.000000,1673607125.028594
1673611220.923036,,,,18.688107,18.697432,5057166.000000,1673607125.029601
1673611220.923039,,,,18.683683,18.694185,5057167.000000,1673607125.030608
1673611220.929019,,,,18.593290,18.600716,5057168.000000,1673607125.031615
1673611220.929030,,,,18.446306,18.453348,5057169.000000,1673607125.032622
1673611220.929040,,,,18.326248,18.335165,5057170.000000,1673607125.033629
1673611220.929202,,,,18.259392,18.267082,5057171.000000,1673607125.034636
1673611220.934227,,,,18.196718,18.206812,5057172.000000,1673607125.035644
1673611220.934243,,,,18.118610,18.124762,5057173.000000,1673607125.036651
1673611220.934340,,,,18.083632,18.087715,5057174.000000,1673607125.037658
1673611220.936408,,,,18.039036,18.043505,5057175.000000,1673607125.038665
1673611220.936503,,,,17.945278,17.953209,5057176.000000,1673607125.039672
1673611220.936519,,,,17.822622,17.828342,5057177.000000,1673607125.040679
1673611220.936735,,,,17.690329,17.698427,5057178.000000,1673607125.041686
1673611220.941812,,,,17.688213,17.695469,5057179.000000,1673607125.042693
1673611220.942186,,,,17.735405,17.742420,5057180.000000,1673607125.043700
1673611220.942551,,,,17.761681,17.767832,5057181.000000,1673607125.044707
1673611220.942983,,,,17.781610,17.788795,5057182.000000,1673607125.045714
1673611220.944048,,,,17.785769,17.793123,5057183.000000,1673607125.046721
1673611220.944550,,,,17.804569,17.812500,5057184.000000,1673607125.047729
1673611220.944565,,,,17.835846,17.843031,5057185.000000,1673607125.048736
1673611220.944605,,,,17.879864,17.887024,5057186.000000,1673607125.049743
1673611220.951137,,,,17.938763,17.947414,5057187.000000,1673607125.050750
1673611220.951208,,,,18.072620,18.080046,5057188.000000,1673607125.051757
1673611220.951225,,,,18.246819,18.252897,5057189.000000,1673607125.052764
1673611220.951239,,,,18.381325,18.387285,5057190.000000,1673607125.053771
1673611220.951671,,,,18.487345,18.493376,5057191.000000,1673607125.054778
1673611220.951840,,,,18.579275,18.584105,5057192.000000,1673607125.055785
1673611220.951863,,,,18.559753,18.569176,5057193.000000,1673607125.056792
1673611220.952249,,,,18.405390,18.413561,5057194.000000,1673607125.057799
1673611220.953035,,,,18.283432,18.290304,5057195.000000,1673607125.058806
1673611220.953050,,,,18.240183,18.247345,5057196.000000,1673607125.059813
1673611220.953062,,,,18.220974,18.227127,5057197.000000,1673607125.060821
1673611220.953375,,,,18.190083,18.194960,5057198.000000,1673607125.061828
1673611220.953613,,,,18.156738,18.162554,5057199.000000,1673607125.062835
1673611220.953893,,,,18.139261,18.147240,5057200.000000,1673607125.063842
1673611220.954192,,,,18.131905,18.142984,5057201.000000,1673607125.064849
1673611220.954389,,,,18.137602,18.148273,5057202.000000,1673607125.065856
1673611220.954693,,,,18.138323,18.147745,5057203.000000,1673607125.066863
1673611220.954945,,,,18.102671,18.111322,5057204.000000,1673607125.067870
1673611220.955185,,,,18.047018,18.052591,5057205.000000,1673607125.068877
1673611220.955396,,,,17.987541,17.997372,5057206.000000,1673607125.069884
1673611220.956469,,,,17.974415,17.986553,5057207.000000,1673607125.070891
1673611220.956710,,,,17.967491,17.973810,5057208.000000,1673607125.071898
1673611220.956827,,,,17.918184,17.924456,5057209.000000,1673607125.072906
1673611220.956841,,,,17.834932,17.841925,5057210.000000,1673607125.073913
1673611220.956846,,,,17.791899,17.801537,5057211.000000,1673607125.074920
1673611220.956854,,,,17.702396,17.715496,5057212.000000,1673607125.075927
1673611220.956890,,,,17.570559,17.580627,5057213.000000,1673607125.076934
1673611220.956898,,,,17.490191,17.494202,5057214.000000,1673607125.077941
1673611220.956914,,,,17.491320,17.497736,5057215.000000,1673607125.078948
1673611220.956945,,,,17.559860,17.567381,5057216.000000,1673607125.079955
1673611220.956957,,,,17.633448,17.638445,5057217.000000,1673607125.080962
1673611220.980949,104.882507,4193680.000000,1673611220.969115,,,,
1673611220.980968,104.900597,4193681.000000,1673611220.970116,,,,
1673611220.980992,104.810158,4193682.000000,1673611220.971116,,,,
1673611220.981004,104.773979,4193683.000000,1673611220.972116,,,,
1673611220.981024,104.737801,4193684.000000,1673611220.973115,,,,
1673611220.981047,104.701622,4193685.000000,1673611220.974116,,,,
1673611220.981058,104.683533,4193686.000000,1673611220.975116,,,,
1673611220.981111,104.737801,4193687.000000,1673611220.976115,,,,
1673611220.981119,104.719711,4193688.000000,1673611220.977116,,,,
1673611220.981125,104.701622,4193689.000000,1673611220.978116,,,,
1673611220.987142,,,,17.709776,17.716097,5057218.000000,1673607125.081969
1673611220.987458,,,,17.801661,17.809013,5057219.000000,1673607125.082976
1673611220.987619,,,,17.909986,17.917965,5057220.000000,1673607125.083983
1673611220.988066,,,,17.980545,17.987202,5057221.000000,1673607125.084991
1673611220.988220,,,,18.007471,18.013454,5057222.000000,1673607125.085998
1673611220.988233,,,,18.039373,18.047472,5057223.000000,1673607125.087005
1673611220.988244,,,,18.163782,18.172434,5057224.000000,1673607125.088012
1673611221.001948,,,,18.282133,18.289463,5057225.000000,1673607125.089019
1673611221.002550,,,,18.266195,18.271481,5057226.000000,1673607125.090026
1673611221.003174,,,,18.237442,18.244267,5057227.000000,1673607125.091033
1673611221.003595,,,,18.282904,18.290785,5057228.000000,1673607125.092040
1673611221.004490,,,,18.326849,18.336920,5057229.000000,1673607125.093047
1673611221.004604,,,,18.289850,18.298359,5057230.000000,1673607125.094054
1673611221.005089,,,,18.216022,18.224121,5057231.000000,1673607125.095061
1673611221.009806,,,,18.175995,18.182627,5057232.000000,1673607125.096068
1673611221.010038,,,,18.052114,18.056967,5057233.000000,1673607125.097075
1673611221.010046,,,,17.587843,17.592768,5057234.000000,1673607125.098083
1673611221.010048,,,,17.243414,17.249926,5057235.000000,1673607125.099090
1673611221.010064,,,,17.141363,17.147537,5057236.000000,1673607125.100097
1673611221.010128,,,,17.073400,17.077435,5057237.000000,1673607125.101104
1673611221.010184,,,,17.069818,17.077147,5057238.000000,1673607125.102111
1673611221.010189,,,,17.258728,17.269327,5057239.000000,1673607125.103118
1673611221.011387,,,,17.578659,17.588392,5057240.000000,1673607125.104125
1673611221.011398,,,,17.966002,17.972345,5057241.000000,1673607125.105132
1673611221.011475,,,,18.349327,18.353701,5057242.000000,1673607125.106139
1673611221.031748,,,,18.672337,18.678728,5057243.000000,1673607125.107146
1673611221.031945,,,,18.975319,18.983971,5057244.000000,1673607125.108153
1673611221.032097,,,,19.200483,19.208797,5057245.000000,1673607125.109160
1673611221.034337,104.339806,4193727.000000,1673611221.009981,,,,
1673611221.034440,104.285538,4193728.000000,1673611221.010981,,,,
1673611221.034544,104.267448,4193729.000000,1673611221.011981,,,,
1673611221.034684,,,,19.107157,19.114534,5057246.000000,1673607125.110168
1673611221.034873,,,,18.745155,18.753447,5057247.000000,1673607125.111175
1673611221.034966,104.303627,4193730.000000,1673611221.012981,,,,
1673611221.034983,104.267448,4193731.000000,1673611221.013981,,,,
1673611221.034989,104.249359,4193732.000000,1673611221.014981,,,,
1673611221.034995,104.195091,4193733.000000,1673611221.015981,,,,
1673611221.034999,104.213181,4193734.000000,1673611221.016981,,,,
1673611221.035009,104.177002,4193735.000000,1673611221.017981,,,,
1673611221.035036,104.122734,4193736.000000,1673611221.018981,,,,
1673611221.035043,103.996094,4193741.000000,1673611221.023981,,,,
1673611221.035162,103.978004,4193742.000000,1673611221.024981,,,,
1673611221.035169,103.959915,4193743.000000,1673611221.025981,,,,
1673611221.035210,103.959915,4193744.000000,1673611221.026981,,,,
1673611221.035219,103.923744,4193745.000000,1673611221.027981,,,,
1673611221.035234,103.923744,4193746.000000,1673611221.028981,,,,
1673611221.035243,103.869476,4193747.000000,1673611221.029981,,,,
1673611221.035249,103.869476,4193748.000000,1673611221.030981,,,,
1673611221.035254,103.815193,4193749.000000,1673611221.031981,,,,
1673611221.035262,103.905655,4193750.000000,1673611221.032981,,,,
1673611221.035299,,,,18.531963,18.539341,5057248.000000,1673607125.112182
1673611221.035459,,,,18.474892,18.481884,5057249.000000,1673607125.113189
1673611221.035477,,,,18.435057,18.442602,5057250.000000,1673607125.114196
1673611221.035488,,,,18.364449,18.370457,5057251.000000,1673607125.115203
1673611221.035728,,,,18.315983,18.321486,5057252.000000,1673607125.116210
1673611221.035903,,,,18.291054,18.295280,5057253.000000,1673607125.117217
1673611221.036060,,,,18.219652,18.227488,5057254.000000,1673607125.118224
1673611221.036186,,,,18.178688,18.184767,5057255.000000,1673607125.119231
1673611221.036234,,,,18.157099,18.167122,5057256.000000,1673607125.120238
1673611221.039438,,,,18.106590,18.114088,5057257.000000,1673607125.121245
1673611221.040167,,,,18.080145,18.086416,5057258.000000,1673607125.122252
1673611221.040174,,,,18.063246,18.068771,5057259.000000,1673607125.123260
1673611221.040256,,,,18.047619,18.052063,5057260.000000,1673607125.124267
1673611221.040267,,,,18.053148,18.059202,5057261.000000,1673607125.125274
1673611221.040383,,,,18.067692,18.072834,5057262.000000,1673607125.126281
1673611221.040581,,,,18.094738,18.100817,5057263.000000,1673607125.127288
1673611221.041464,,,,18.126160,18.133608,5057264.000000,1673607125.128295
1673611221.041640,,,,18.159504,18.165150,5057265.000000,1673607125.129302
1673611221.041778,,,,18.210373,18.216452,5057266.000000,1673607125.130309
1673611221.041807,,,,18.206022,18.211235,5057267.000000,1673607125.131316
1673611221.046745,,,,18.114763,18.118679,5057268.000000,1673607125.132323
1673611221.046756,,,,17.933619,17.940058,5057269.000000,1673607125.133330
1673611221.046813,,,,17.771441,17.780525,5057270.000000,1673607125.134337
1673611221.048977,,,,17.674582,17.682993,5057271.000000,1673607125.135345
1673611221.049182,,,,17.615273,17.620342,5057272.000000,1673607125.136352
1673611221.049378,,,,17.603975,17.609646,5057273.000000,1673607125.137359
1673611221.049686,,,,17.643497,17.650345,5057274.000000,1673607125.138366
1673611221.054360,,,,17.731125,17.738142,5057275.000000,1673607125.139373
1673611221.054671,,,,17.872482,17.877409,5057276.000000,1673607125.140380
1673611221.054829,,,,17.955135,17.964315,5057277.000000,1673607125.141387
1673611221.056547,,,,17.980618,17.988115,5057278.000000,1673607125.142394
1673611221.057035,,,,18.128658,18.135435,5057279.000000,1673607125.143401
1673611221.057231,,,,18.380148,18.387548,5057280.000000,1673607125.144408
1673611221.057386,,,,18.505783,18.512440,5057281.000000,1673607125.145415
1673611221.061686,,,,18.501120,18.510397,5057282.000000,1673607125.146422
1673611221.062035,,,,18.485493,18.494530,5057283.000000,1673607125.147429
1673611221.062400,,,,18.445129,18.450703,5057284.000000,1673607125.148437
1673611221.062689,,,,18.385868,18.390770,5057285.000000,1673607125.149444
1673611221.067315,,,,18.317184,18.322760,5057286.000000,1673607125.150451
1673611221.067573,,,,18.262253,18.269846,5057287.000000,1673607125.151458
1673611221.067661,,,,18.191357,18.197147,5057288.000000,1673607125.152465
1673611221.067783,,,,18.083006,18.088173,5057289.000000,1673607125.153472
1673611221.067893,,,,17.980425,17.986168,5057290.000000,1673607125.154479
1673611221.068045,,,,17.844788,17.853825,5057291.000000,1673607125.155486
1673611221.068055,,,,17.698719,17.707106,5057292.000000,1673607125.156493
1673611221.068067,,,,17.594358,17.601231,5057293.000000,1673607125.157500
1673611221.068178,,,,17.477232,17.482519,5057294.000000,1673607125.158507
1673611221.068223,,,,17.315296,17.319115,5057295.000000,1673607125.159514
1673611221.068232,,,,17.154560,17.160038,5057296.000000,1673607125.160522
1673611221.068370,,,,17.097849,17.106283,5057297.000000,1673607125.161529
1673611221.068479,,,,17.191053,17.197830,5057298.000000,1673607125.162536
1673611221.068636,,,,17.424488,17.430086,5057299.000000,1673607125.163543
1673611221.068712,,,,17.697107,17.702898,5057300.000000,1673607125.164550
1673611221.069021,,,,17.971722,17.981192,5057301.000000,1673607125.165557
1673611221.069030,,,,18.266411,18.276194,5057302.000000,1673607125.166564
1673611221.069044,,,,18.558960,18.568670,5057303.000000,1673607125.167571
1673611221.069098,,,,18.667070,18.676323,5057304.000000,1673607125.168578
1673611221.069211,,,,18.639160,18.645697,5057305.000000,1673607125.169585
1673611221.069409,,,,18.703348,18.709236,5057306.000000,1673607125.170592
1673611221.069541,,,,18.752319,18.758110,5057307.000000,1673607125.171599
1673611221.069629,,,,18.630314,18.636560,5057308.000000,1673607125.172606
1673611221.069759,,,,18.398754,18.404762,5057309.000000,1673607125.173614
1673611221.070161,,,,18.135607,18.141012,5057310.000000,1673607125.174621
1673611221.070174,,,,17.944918,17.950949,5057311.000000,1673607125.175628
1673611221.070201,,,,17.842216,17.849426,5057312.000000,1673607125.176635
1673611221.070235,,,,17.813103,17.820528,5057313.000000,1673607125.177642
1673611221.070258,,,,17.808775,17.816465,5057314.000000,1673607125.178649
1673611221.070413,,,,17.791658,17.799494,5057315.000000,1673607125.179656
1673611221.070510,,,,17.792429,17.802042,5057316.000000,1673607125.180663
1673611221.070601,,,,17.821228,17.829016,5057317.000000,1673607125.181670
1673611221.070606,,,,17.869526,17.877577,5057318.000000,1673607125.182677
1673611221.070665,,,,17.957899,17.965710,5057319.000000,1673607125.183684
1673611221.070761,,,,18.069399,18.075430,5057320.000000,1673607125.184691
1673611221.070767,,,,18.249487,18.255302,5057321.000000,1673607125.185699
1673611221.070771,,,,18.440994,18.448996,5057322.000000,1673607125.186706
1673611221.071025,,,,18.556316,18.563309,5057323.000000,1673607125.187713
1673611221.071140,,,,18.569010,18.574705,5057324.000000,1673607125.188720
1673611221.071145,,,,18.508379,18.513186,5057325.000000,1673607125.189727
1673611221.071558,,,,18.465420,18.470490,5057326.000000,1673607125.190734
1673611221.071565,,,,18.424622,18.433971,5057327.000000,1673607125.191741
1673611221.071571,,,,18.354256,18.365431,5057328.000000,1673607125.192748
1673611221.071616,,,,18.239006,18.246046,5057329.000000,1673607125.193755
1673611221.071707,,,,18.207417,18.214554,5057330.000000,1673607125.194762
1673611221.071713,,,,18.221647,18.227488,5057331.000000,1673607125.195769
1673611221.071731,,,,18.193377,18.199913,5057332.000000,1673607125.196776
1673611221.071735,,,,18.159792,18.165270,5057333.000000,1673607125.197783
1673611221.071785,,,,18.139814,18.144354,5057334.000000,1673607125.198791
1673611221.071789,,,,18.122145,18.129425,5057335.000000,1673607125.199798
1673611221.072010,,,,18.121857,18.129570,5057336.000000,1673607125.200805
1673611221.072089,,,,18.123755,18.128609,5057337.000000,1673607125.201812
1673611221.072224,,,,18.092815,18.099302,5057338.000000,1673607125.202819
1673611221.072234,,,,17.986002,17.991938,5057339.000000,1673607125.203826
1673611221.072239,,,,17.834908,17.838150,5057340.000000,1673607125.204833
1673611221.072396,,,,17.721869,17.727228,5057341.000000,1673607125.205840
1673611221.085639,,,,17.631598,17.638855,5057342.000000,1673607125.206847
1673611221.086352,,,,17.635876,17.640104,5057343.000000,1673607125.207854
1673611221.086443,,,,17.681433,17.686695,5057344.000000,1673607125.208861
1673611221.086468,,,,17.769012,17.776703,5057345.000000,1673607125.209868
1673611221.093912,,,,17.891788,17.898973,5057346.000000,1673607125.210876
1673611221.094072,,,,18.037809,18.045620,5057347.000000,1673607125.211883
1673611221.094405,,,,18.151136,18.156326,5057348.000000,1673607125.212890
1673611221.095065,,,,18.176643,18.181210,5057349.000000,1673607125.213897
1673611221.095077,,,,18.207104,18.213856,5057350.000000,1673607125.214904
1673611221.095111,,,,18.200876,18.208086,5057351.000000,1673607125.215911
1673611221.095190,,,,18.158110,18.164501,5057352.000000,1673607125.216918
1673611221.095200,,,,18.114042,18.119593,5057353.000000,1673607125.217925
1673611221.095210,,,,18.080482,18.087162,5057354.000000,1673607125.218932
1673611221.095222,,,,18.016342,18.026796,5057355.000000,1673607125.219939
1673611221.095229,,,,17.961626,17.968594,5057356.000000,1673607125.220946
1673611221.098143,103.833298,4193751.000000,1673611221.037500,,,,
1673611221.098901,103.652390,4193777.000000,1673611221.063500,,,,
1673611221.099157,103.688568,4193778.000000,1673611221.064500,,,,
1673611221.099169,,,,17.903639,17.910463,5057357.000000,1673607125.221953
1673611221.099552,,,,17.896957,17.904070,5057358.000000,1673607125.222960
1673611221.099626,,,,17.893446,17.900583,5057359.000000,1673607125.223968
1673611221.099637,,,,17.835293,17.841997,5057360.000000,1673607125.224975
1673611221.099978,103.670479,4193779.000000,1673611221.065500,,,,
1673611221.099990,103.706657,4193780.000000,1673611221.066500,,,,
1673611221.099996,103.670479,4193781.000000,1673611221.067500,,,,
1673611221.100034,103.688568,4193782.000000,1673611221.068500,,,,
