__time,/gdx/grip_force_stream/grip_force,/gdx/grip_force_stream/header/seq,/gdx/grip_force_stream/header/stamp,/shimmer0/emg_stream/emg_ch1,/shimmer0/emg_stream/emg_ch2,/shimmer0/emg_stream/header/seq,/shimmer0/emg_stream/header/stamp
1673611170.533981,,,,20.456240,20.462416,5007131.000000,1673607074.640349
1673611170.534000,,,,20.453331,20.460661,5007132.000000,1673607074.641356
1673611170.534257,,,,20.461241,20.469004,5007133.000000,1673607074.642364
1673611170.534387,,,,20.479223,20.489847,5007134.000000,1673607074.643371
1673611170.536772,,,,20.483358,20.492826,5007135.000000,1673607074.644378
1673611170.536787,,,,20.486868,20.496962,5007136.000000,1673607074.645385
1673611170.536834,,,,20.495787,20.505449,5007137.000000,1673607074.646392
1673611170.536842,,,,20.503504,20.510859,5007138.000000,1673607074.647399
1673611170.537006,,,,20.496820,20.504606,5007139.000000,1673607074.648406
1673611170.537016,,,,20.479416,20.489077,5007140.000000,1673607074.649413
1673611170.537052,,,,20.462347,20.469940,5007141.000000,1673607074.650420
1673611170.541150,,,,20.450279,20.457607,5007142.000000,1673607074.651427
1673611170.541530,,,,20.436239,20.442535,5007143.000000,1673607074.652434
1673611170.541536,,,,20.416262,20.425417,5007144.000000,1673607074.653441
1673611170.543379,,,,20.402367,20.412170,5007145.000000,1673607074.654449
1673611170.543843,,,,20.407583,20.415825,5007146.000000,1673607074.655456
1673611170.543891,,,,20.428858,20.437149,5007147.000000,1673607074.656463
1673611170.543900,,,,20.410372,20.418854,5007148.000000,1673607074.657470
1673611170.548729,,,,20.386402,20.392385,5007149.000000,1673607074.658477
1673611170.548830,,,,20.382580,20.387169,5007150.000000,1673607074.659484
1673611170.548927,,,,20.414410,20.421499,5007151.000000,1673607074.660491
1673611170.549079,,,,20.464750,20.474989,5007152.000000,1673607074.661498
1673611170.549150,,,,20.469776,20.482801,5007153.000000,1673607074.662505
1673611170.549262,,,,20.457514,20.466022,5007154.000000,1673607074.663512
1673611170.550973,,,,20.472324,20.481359,5007155.000000,1673607074.664519
1673611170.551214,,,,20.493959,20.503189,5007156.000000,1673607074.665526
1673611170.551255,,,,20.501774,20.509584,5007157.000000,1673607074.666533
1673611170.551423,,,,20.501221,20.509848,5007158.000000,1673607074.667541
1673611170.556335,,,,20.509684,20.514391,5007159.000000,1673607074.668548
1673611170.556432,,,,20.518145,20.521435,5007160.000000,1673607074.669555
1673611170.556547,,,,20.497133,20.502611,5007161.000000,1673607074.670562
1673611170.556639,,,,20.474079,20.480566,5007162.000000,1673607074.671569
1673611170.556750,,,,20.452587,20.458738,5007163.000000,1673607074.672576
1673611170.556764,,,,20.442898,20.451164,5007164.000000,1673607074.673583
1673611170.556932,,,,20.447971,20.454458,5007165.000000,1673607074.674590
1673611170.558721,,,,20.450855,20.455036,5007166.000000,1673607074.675597
1673611170.559021,,,,20.444485,20.450180,5007167.000000,1673607074.676604
1673611170.559160,,,,20.428354,20.436308,5007168.000000,1673607074.677611
1673611170.559465,,,,20.421719,20.429865,5007169.000000,1673607074.678618
1673611170.559744,,,,20.411669,20.418999,5007170.000000,1673607074.679626
1673611170.559757,,,,20.403208,20.411522,5007171.000000,1673607074.680633
1673611170.559852,,,,20.413040,20.421667,5007172.000000,1673607074.681640
1673611170.559862,,,,20.440325,20.446766,5007173.000000,1673607074.682647
1673611170.563610,,,,20.477781,20.485422,5007174.000000,1673607074.683654
1673611170.563786,,,,20.489489,20.497059,5007175.000000,1673607074.684661
1673611170.563974,,,,20.473381,20.477922,5007176.000000,1673607074.685668
1673611170.566191,,,,20.459558,20.466263,5007177.000000,1673607074.686675
1673611170.566236,,,,20.444485,20.450756,5007178.000000,1673607074.687682
1673611170.566351,,,,20.430349,20.437582,5007179.000000,1673607074.688689
1673611170.579908,,,,20.409386,20.417292,5007180.000000,1673607074.689696
1673611170.580428,,,,20.386667,20.394140,5007181.000000,1673607074.690703
1673611170.580589,,,,20.380898,20.388828,5007182.000000,1673607074.691710
1673611170.580600,,,,20.405371,20.409719,5007183.000000,1673607074.692718
1673611170.587919,,,,20.430372,20.438929,5007184.000000,1673607074.693725
1673611170.587943,,,,20.431263,20.439697,5007185.000000,1673607074.694732
1673611170.587967,,,,20.430517,20.434841,5007186.000000,1673607074.695739
1673611170.593479,1.370824,4143294.000000,1673611170.583156,,,,
1673611170.593492,1.388913,4143295.000000,1673611170.584157,,,,
1673611170.593496,1.388913,4143296.000000,1673611170.585156,,,,
1673611170.593503,1.352735,4143297.000000,1673611170.586156,,,,
1673611170.593509,1.316557,4143298.000000,1673611170.587156,,,,
1673611170.593513,1.316557,4143299.000000,1673611170.588156,,,,
1673611170.593531,1.298468,4143300.000000,1673611170.589156,,,,
1673611170.593536,1.334646,4143301.000000,1673611170.590156,,,,
1673611170.593540,1.280371,4143302.000000,1673611170.591156,,,,
1673611170.593556,1.262282,4143303.000000,1673611170.592156,,,,
1673611170.593823,,,,20.455471,20.458954,5007187.000000,1673607074.696746
1673611170.593885,,,,20.439724,20.445179,5007188.000000,1673607074.697753
1673611170.594166,,,,20.403736,20.412268,5007189.000000,1673607074.698760
1673611170.594176,,,,20.383278,20.391785,5007190.000000,1673607074.699767
1673611170.596006,,,,20.376114,20.385990,5007191.000000,1673607074.700774
1673611170.596102,,,,20.377340,20.386784,5007192.000000,1673607074.701781
1673611170.596284,,,,20.408497,20.417892,5007193.000000,1673607074.702788
1673611170.596393,,,,20.456722,20.465397,5007194.000000,1673607074.703795
1673611170.601147,,,,20.494610,20.501289,5007195.000000,1673607074.704803
1673611170.601160,,,,20.517881,20.526363,5007196.000000,1673607074.705810
1673611170.601425,,,,20.521872,20.530619,5007197.000000,1673607074.706817
1673611170.601679,,,,20.501148,20.510809,5007198.000000,1673607074.707824
1673611170.603420,,,,20.492157,20.501410,5007199.000000,1673607074.708831
1673611170.603765,,,,20.483526,20.489775,5007200.000000,1673607074.709838
1673611170.603817,,,,20.473526,20.481119,5007201.000000,1673607074.710845
1673611170.611458,,,,20.454702,20.462368,5007202.000000,1673607074.711852
1673611170.611580,,,,20.433138,20.438015,5007203.000000,1673607074.712859
1673611170.611843,,,,20.419651,20.424576,5007204.000000,1673607074.713866
1673611170.612283,,,,20.418112,20.421572,5007205.000000,1673607074.714873
1673611170.612303,,,,20.413328,20.419071,5007206.000000,1673607074.715880
1673611170.612527,,,,20.402222,20.408060,5007207.000000,1673607074.716887
1673611170.612835,,,,20.396837,20.404165,5007208.000000,1673607074.717895
1673611170.616710,,,,20.398134,20.404886,5007209.000000,1673607074.718902
1673611170.616737,,,,20.402174,20.409407,5007210.000000,1673607074.719909
1673611170.617034,,,,20.414555,20.425442,5007211.000000,1673607074.720916
1673611170.617280,,,,20.430590,20.439625,5007212.000000,1673607074.721923
1673611170.617640,,,,20.447371,20.454266,5007213.000000,1673607074.722930
1673611170.618033,,,,20.451073,20.459940,5007214.000000,1673607074.723937
1673611170.618194,,,,20.449821,20.460276,5007215.000000,1673607074.724944
1673611170.618437,,,,20.470257,20.474796,5007216.000000,1673607074.725951
1673611170.618604,,,,20.492735,20.500328,5007217.000000,1673607074.726958
1673611170.619087,,,,20.483887,20.491241,5007218.000000,1673607074.727965
1673611170.619161,,,,20.454966,20.463930,5007219.000000,1673607074.728972
1673611170.623977,,,,20.424988,20.434120,5007220.000000,1673607074.729980
1673611170.624293,,,,20.405106,20.414503,5007221.000000,1673607074.730987
1673611170.624553,,,,20.393135,20.401882,5007222.000000,1673607074.731994
1673611170.624807,,,,20.394096,20.399094,5007223.000000,1673607074.733001
1673611170.625040,,,,20.411476,20.418951,5007224.000000,1673607074.734008
1673611170.625234,,,,20.431311,20.439384,5007225.000000,1673607074.735015
1673611170.625570,,,,20.439243,20.449627,5007226.000000,1673607074.736022
1673611170.626338,,,,20.434677,20.441982,5007227.000000,1673607074.737029
1673611170.626572,,,,20.419699,20.427149,5007228.000000,1673607074.738036
1673611170.626737,,,,20.406620,20.415464,5007229.000000,1673607074.739043
1673611170.627141,,,,20.386955,20.399597,5007230.000000,1673607074.740050
1673611170.627381,,,,20.383398,20.394838,5007231.000000,1673607074.741057
1673611170.627566,,,,20.392582,20.402555,5007232.000000,1673607074.742064
1673611170.627993,,,,20.410395,20.421186,5007233.000000,1673607074.743072
1673611170.628004,,,,20.438089,20.448015,5007234.000000,1673607074.744079
1673611170.632039,,,,20.471674,20.480879,5007235.000000,1673607074.745086
1673611170.632256,,,,20.474680,20.483019,5007236.000000,1673607074.746093
1673611170.646115,,,,20.461819,20.470205,5007237.000000,1673607074.747100
1673611170.646134,1.208014,4143306.000000,1673611170.587465,,,,
1673611170.646282,,,,20.461168,20.467993,5007238.000000,1673607074.748107
1673611170.646289,1.189925,4143307.000000,1673611170.588465,,,,
1673611170.646466,,,,20.462852,20.470108,5007239.000000,1673607074.749114
1673611170.646567,,,,20.463020,20.470734,5007240.000000,1673607074.750121
1673611170.646642,1.153747,4143308.000000,1673611170.589465,,,,
1673611170.647020,1.135650,4143309.000000,1673611170.590465,,,,
1673611170.647029,1.171836,4143310.000000,1673611170.591465,,,,
1673611170.647033,1.117561,4143311.000000,1673611170.592465,,,,
1673611170.647037,1.117561,4143312.000000,1673611170.593465,,,,
1673611170.647101,1.117561,4143313.000000,1673611170.594465,,,,
1673611170.647137,1.063294,4143314.000000,1673611170.595465,,,,
1673611170.647149,1.063294,4143315.000000,1673611170.596465,,,,
1673611170.647155,1.208014,4143355.000000,1673611170.636465,,,,
1673611170.647163,1.226103,4143356.000000,1673611170.637465,,,,
1673611170.647170,1.208014,4143357.000000,1673611170.638465,,,,
1673611170.647179,1.171836,4143358.000000,1673611170.639465,,,,
1673611170.647248,1.171836,4143359.000000,1673611170.640465,,,,
1673611170.647255,1.189925,4143360.000000,1673611170.641465,,,,
1673611170.647270,1.189925,4143361.000000,1673611170.642465,,,,
1673611170.647278,1.171836,4143362.000000,1673611170.643465,,,,
1673611170.647295,1.226103,4143363.000000,1673611170.644465,,,,
1673611170.647321,1.189925,4143364.000000,1673611170.645465,,,,
1673611170.648676,,,,20.453260,20.462103,5007241.000000,1673607074.751128
1673611170.648725,,,,20.438354,20.446598,5007242.000000,1673607074.752135
1673611170.648732,,,,20.431190,20.437847,5007243.000000,1673607074.753142
1673611170.648746,,,,20.423208,20.429672,5007244.000000,1673607074.754149
1673611170.653584,,,,20.417559,20.423542,5007245.000000,1673607074.755157
1673611170.653769,,,,20.407846,20.413254,5007246.000000,1673607074.756164
1673611170.653974,,,,20.390104,20.393612,5007247.000000,1673607074.757171
1673611170.655994,,,,20.376427,20.384115,5007248.000000,1673607074.758178
1673611170.656615,,,,20.373686,20.380125,5007249.000000,1673607074.759185
1673611170.656666,,,,20.371641,20.377504,5007250.000000,1673607074.760192
1673611170.656682,,,,20.371138,20.378225,5007251.000000,1673607074.761199
1673611170.661424,,,,20.375896,20.383081,5007252.000000,1673607074.762206
1673611170.661447,,,,20.380945,20.386328,5007253.000000,1673607074.763213
1673611170.661460,,,,20.390104,20.395655,5007254.000000,1673607074.764220
1673611170.661568,,,,20.408304,20.415104,5007255.000000,1673607074.765227
1673611170.663606,,,,20.436359,20.443737,5007256.000000,1673607074.766234
1673611170.664169,,,,20.446985,20.454844,5007257.000000,1673607074.767241
1673611170.664273,,,,20.441936,20.449194,5007258.000000,1673607074.768249
1673611170.670930,,,,20.449173,20.454964,5007259.000000,1673607074.769256
1673611170.671494,,,,20.458958,20.465925,5007260.000000,1673607074.770263
1673611170.671519,,,,20.462635,20.470205,5007261.000000,1673607074.771270
1673611170.672014,,,,20.461313,20.465782,5007262.000000,1673607074.772277
1673611170.672632,,,,20.459126,20.466623,5007263.000000,1673607074.773284
1673611170.672646,,,,20.453476,20.460253,5007264.000000,1673607074.774291
1673611170.673103,,,,20.435253,20.441019,5007265.000000,1673607074.775298
1673611170.673124,,,,20.423306,20.431477,5007266.000000,1673607074.776305
1673611170.673169,,,,20.426214,20.431597,5007267.000000,1673607074.777312
1673611170.673178,,,,20.428137,20.436092,5007268.000000,1673607074.778319
1673611170.673408,,,,20.428137,20.433905,5007269.000000,1673607074.779326
1673611170.673942,,,,20.416502,20.425707,5007270.000000,1673607074.780334
1673611170.674489,,,,20.412439,20.421522,5007271.000000,1673607074.781341
1673611170.675057,,,,20.427824,20.436501,5007272.000000,1673607074.782348
1673611170.675582,,,,20.453669,20.462776,5007273.000000,1673607074.783355
1673611170.675617,,,,20.469271,20.478548,5007274.000000,1673607074.784362
1673611170.675627,,,,20.468645,20.477177,5007275.000000,1673607074.785369
1673611170.675897,,,,20.466410,20.475687,5007276.000000,1673607074.786376
1673611170.675910,,,,20.470881,20.478115,5007277.000000,1673607074.787383
1673611170.675929,,,,20.475306,20.484077,5007278.000000,1673607074.788390
1673611170.676153,,,,20.478357,20.486889,5007279.000000,1673607074.789397
1673611170.676170,,,,20.474487,20.482971,5007280.000000,1673607074.790404
1673611170.676204,,,,20.468285,20.474676,5007281.000000,1673607074.791411
1673611170.676636,,,,20.457130,20.463690,5007282.000000,1673607074.792418
1673611170.677065,,,,20.438379,20.446453,5007283.000000,1673607074.793426
1673611170.677393,,,,20.426983,20.433159,5007284.000000,1673607074.794433
1673611170.677746,,,,20.419651,20.427725,5007285.000000,1673607074.795440
1673611170.677754,,,,20.411333,20.417652,5007286.000000,1673607074.796447
1673611170.677958,,,,20.407413,20.414022,5007287.000000,1673607074.797454
1673611170.678179,,,,20.403351,20.410656,5007288.000000,1673607074.798461
1673611170.678401,,,,20.406860,20.410273,5007289.000000,1673607074.799468
1673611170.678609,,,,20.421165,20.426811,5007290.000000,1673607074.800475
1673611170.678933,,,,20.421358,20.428759,5007291.000000,1673607074.801482
1673611170.678939,,,,20.421190,20.428495,5007292.000000,1673607074.802489
1673611170.679035,,,,20.430157,20.436789,5007293.000000,1673607074.803496
1673611170.679182,,,,20.440758,20.449530,5007294.000000,1673607074.804503
1673611170.679391,,,,20.457539,20.466335,5007295.000000,1673607074.805511
1673611170.679527,,,,20.469511,20.479076,5007296.000000,1673607074.806518
1673611170.679750,,,,20.470978,20.479605,5007297.000000,1673607074.807525
1673611170.683573,,,,20.463093,20.469893,5007298.000000,1673607074.808532
1673611170.683942,,,,20.448332,20.454626,5007299.000000,1673607074.809539
1673611170.684059,,,,20.438883,20.447487,5007300.000000,1673607074.810546
1673611170.684067,,,,20.430470,20.438736,5007301.000000,1673607074.811553
1673611170.686026,,,,20.424507,20.427965,5007302.000000,1673607074.812560
1673611170.686031,,,,20.418064,20.425562,5007303.000000,1673607074.813567
1673611170.686195,,,,20.427536,20.436163,5007304.000000,1673607074.814574
1673611170.691179,,,,20.446672,20.452007,5007305.000000,1673607074.815581
1673611170.691328,,,,20.439243,20.447247,5007306.000000,1673607074.816588
1673611170.691465,,,,20.428354,20.435490,5007307.000000,1673607074.817595
1673611170.691638,,,,20.428425,20.434938,5007308.000000,1673607074.818603
1673611170.715092,,,,20.433426,20.438568,5007309.000000,1673607074.819610
1673611170.715476,,,,20.436768,20.444000,5007310.000000,1673607074.820617
1673611170.715611,,,,20.449173,20.454746,5007311.000000,1673607074.821624
1673611170.715660,,,,20.457083,20.463570,5007312.000000,1673607074.822631
1673611170.720464,1.226103,4143365.000000,1673611170.659603,,,,
1673611170.720482,1.244192,4143366.000000,1673611170.660603,,,,
1673611170.721023,1.280371,4143371.000000,1673611170.665603,,,,
1673611170.721070,1.244192,4143372.000000,1673611170.666603,,,,
1673611170.721646,,,,20.460833,20.469219,5007313.000000,1673607074.823638
1673611170.721939,,,,20.468765,20.475517,5007314.000000,1673607074.824645
1673611170.722151,1.244192,4143373.000000,1673611170.667603,,,,
1673611170.722173,1.280371,4143374.000000,1673611170.668603,,,,
1673611170.722179,1.334646,4143375.000000,1673611170.669603,,,,
1673611170.722242,1.316557,4143376.000000,1673611170.670603,,,,
1673611170.722252,1.316557,4143377.000000,1673611170.671603,,,,
1673611170.722274,1.316557,4143378.000000,1673611170.672603,,,,
1673611170.722601,1.298468,4143379.000000,1673611170.673603,,,,
1673611170.722786,,,,20.470978,20.478571,5007315.000000,1673607074.825652
1673611170.722922,,,,20.476387,20.485975,5007316.000000,1673607074.826659
1673611170.722941,,,,20.482157,20.488621,5007317.000000,1673607074.827666
1673611170.723310,,,,20.477781,20.483765,5007318.000000,1673607074.828673
1673611170.723915,1.298468,4143380.000000,1673611170.674603,,,,
1673611170.723927,1.624087,4143416.000000,1673611170.710603,,,,
1673611170.723933,1.642177,4143417.000000,1673611170.711603,,,,
1673611170.723938,1.624087,4143418.000000,1673611170.712603,,,,
1673611170.723969,1.642177,4143419.000000,1673611170.713603,,,,
1673611170.723976,1.714541,4143420.000000,1673611170.714603,,,,
1673611170.724028,1.714541,4143421.000000,1673611170.715603,,,,
1673611170.724036,1.678355,4143422.000000,1673611170.716603,,,,
1673611170.724042,1.678355,4143423.000000,1673611170.717603,,,,
1673611170.724047,1.732630,4143424.000000,1673611170.718603,,,,
1673611170.724062,1.732630,4143425.000000,1673611170.719603,,,,
1673611170.724369,,,,20.463573,20.470974,5007319.000000,1673607074.829680
1673611170.724379,,,,20.449293,20.455612,5007320.000000,1673607074.830688
1673611170.724511,,,,20.442369,20.448593,5007321.000000,1673607074.831695
1673611170.724703,,,,20.445253,20.456478,5007322.000000,1673607074.832702
1673611170.725275,,,,20.444292,20.451525,5007323.000000,1673607074.833709
1673611170.725282,,,,20.433643,20.438183,5007324.000000,1673607074.834716
1673611170.725365,,,,20.412439,20.418711,5007325.000000,1673607074.835723
1673611170.725371,,,,20.391548,20.398926,5007326.000000,1673607074.836730
1673611170.725382,,,,20.381403,20.390463,5007327.000000,1673607074.837737
1673611170.725389,,,,20.387846,20.395512,5007328.000000,1673607074.838744
1673611170.725470,,,,20.400179,20.403973,5007329.000000,1673607074.839751
1673611170.725482,,,,20.407223,20.412844,5007330.000000,1673607074.840758
1673611170.728542,,,,20.426407,20.435490,5007331.000000,1673607074.841765
1673611170.728554,,,,20.472059,20.479845,5007332.000000,1673607074.842772
1673611170.731190,,,,20.486748,20.493452,5007333.000000,1673607074.843780
1673611170.731378,,,,20.471266,20.480736,5007334.000000,1673607074.844787
1673611170.731388,,,,20.460833,20.470901,5007335.000000,1673607074.845794
1673611170.731576,,,,20.470207,20.476912,5007336.000000,1673607074.846801
1673611170.731582,,,,20.481796,20.487780,5007337.000000,1673607074.847808
1673611170.731707,,,,20.474703,20.481770,5007338.000000,1673607074.848815
1673611170.731712,,,,20.460447,20.467922,5007339.000000,1673607074.849822
1673611170.736545,,,,20.446024,20.454556,5007340.000000,1673607074.850829
1673611170.736559,,,,20.447418,20.456333,5007341.000000,1673607074.851836
1673611170.736863,,,,20.461962,20.471432,5007342.000000,1673607074.852843
1673611170.736872,,,,20.459221,20.467970,5007343.000000,1673607074.853850
1673611170.736926,,,,20.446264,20.455156,5007344.000000,1673607074.854857
1673611170.736952,,,,20.439051,20.447752,5007345.000000,1673607074.855865
1673611170.737018,,,,20.426575,20.435129,5007346.000000,1673607074.856872
1673611170.737025,,,,20.423738,20.430683,5007347.000000,1673607074.857879
1673611170.744016,,,,20.427391,20.435081,5007348.000000,1673607074.858886
1673611170.744024,,,,20.425421,20.431452,5007349.000000,1673607074.859893
1673611170.744065,,,,20.423761,20.429600,5007350.000000,1673607074.860900
1673611170.744209,,,,20.423016,20.431139,5007351.000000,1673607074.861907
1673611170.744304,,,,20.430109,20.437510,5007352.000000,1673607074.862914
1673611170.744312,,,,20.440878,20.445852,5007353.000000,1673607074.863921
1673611170.744384,,,,20.458427,20.465349,5007354.000000,1673607074.864928
1673611170.746327,,,,20.474440,20.484100,5007355.000000,1673607074.865935
1673611170.746736,,,,20.485088,20.491842,5007356.000000,1673607074.866942
1673611170.746795,,,,20.484848,20.492636,5007357.000000,1673607074.867949
1673611170.747041,,,,20.484465,20.494413,5007358.000000,1673607074.868957
1673611170.747364,,,,20.485401,20.491913,5007359.000000,1673607074.869964
1673611170.747702,,,,20.478357,20.481697,5007360.000000,1673607074.870971
1673611170.747949,,,,20.463596,20.468498,5007361.000000,1673607074.871978
1673611170.748344,,,,20.450615,20.457800,5007362.000000,1673607074.872985
1673611170.751952,,,,20.435951,20.442871,5007363.000000,1673607074.873992
1673611170.751967,,,,20.428907,20.436333,5007364.000000,1673607074.874999
1673611170.752191,,,,20.423929,20.431765,5007365.000000,1673607074.876006
1673611170.752508,,,,20.419218,20.428663,5007366.000000,1673607074.877013
1673611170.752815,,,,20.414457,20.422075,5007367.000000,1673607074.878020
1673611170.753031,,,,20.417223,20.424864,5007368.000000,1673607074.879027
1673611170.753462,,,,20.421333,20.431957,5007369.000000,1673607074.880034
1673611170.753474,,,,20.430542,20.440924,5007370.000000,1673607074.881042
1673611170.753497,,,,20.446264,20.453352,5007371.000000,1673607074.882049
1673611170.754156,,,,20.459246,20.467850,5007372.000000,1673607074.883056
1673611170.754358,,,,20.468838,20.477634,5007373.000000,1673607074.884063
1673611170.754893,,,,20.471724,20.479197,5007374.000000,1673607074.885070
1673611170.755073,,,,20.475473,20.480806,5007375.000000,1673607074.886077
1673611170.755470,,,,20.476362,20.483379,5007376.000000,1673607074.887084
1673611170.755902,,,,20.474703,20.482010,5007377.000000,1673607074.888091
1673611170.755913,,,,20.469967,20.478043,5007378.000000,1673607074.889098
1673611170.756025,,,,20.465471,20.473402,5007379.000000,1673607074.890105
1673611170.756503,,,,20.462154,20.469748,5007380.000000,1673607074.891112
1673611170.756663,,,,20.454823,20.464170,5007381.000000,1673607074.892119
1673611170.756705,,,,20.443235,20.451525,5007382.000000,1673607074.893126
1673611170.756852,,,,20.428858,20.436741,5007383.000000,1673607074.894134
1673611170.768423,,,,20.415564,20.423855,5007384.000000,1673607074.895141
1673611170.768797,,,,20.407198,20.415802,5007385.000000,1673607074.896148
1673611170.768823,,,,20.396452,20.406353,5007386.000000,1673607074.897155
1673611170.768833,,,,20.388157,20.396280,5007387.000000,1673607074.898162
1673611170.769011,,,,20.387941,20.396618,5007388.000000,1673607074.899169
1673611170.769028,,,,20.397268,20.406763,5007389.000000,1673607074.900176
1673611170.769184,,,,20.405996,20.413277,5007390.000000,1673607074.901183
1673611170.775116,,,,20.409121,20.417629,5007391.000000,1673607074.902190
1673611170.775413,,,,20.415588,20.420898,5007392.000000,1673607074.903197
1673611170.775422,,,,20.426407,20.432558,5007393.000000,1673607074.904204
1673611170.775588,,,,20.438931,20.447392,5007394.000000,1673607074.905211
1673611170.775786,,,,20.445423,20.451717,5007395.000000,1673607074.906219
1673611170.775942,,,,20.440783,20.445755,5007396.000000,1673607074.907226
1673611170.777338,1.841164,4143477.000000,1673611170.766594,,,,
1673611170.777358,1.859262,4143478.000000,1673611170.767594,,,,
1673611170.777364,1.859262,4143479.000000,1673611170.768594,,,,
1673611170.777395,1.877351,4143480.000000,1673611170.769594,,,,
1673611170.777404,1.895440,4143481.000000,1673611170.770594,,,,
1673611170.777410,1.931618,4143482.000000,1673611170.771594,,,,
1673611170.777419,1.877351,4143483.000000,1673611170.772594,,,,
1673611170.777424,1.895440,4143484.000000,1673611170.773594,,,,
1673611170.777464,1.877351,4143485.000000,1673611170.774594,,,,
1673611170.777487,1.913529,4143486.000000,1673611170.775594,,,,
1673611170.781121,,,,20.431936,20.437054,5007397.000000,1673607074.908233
1673611170.781259,,,,20.431959,20.442776,5007398.000000,1673607074.909240
1673611170.781512,,,,20.448019,20.458113,5007399.000000,1673607074.910247
1673611170.781589,,,,20.448500,20.456333,5007400.000000,1673607074.911254
1673611170.783336,,,,20.439604,20.447151,5007401.000000,1673607074.912261
1673611170.783422,,,,20.435999,20.442944,5007402.000000,1673607074.913268
1673611170.783504,,,,20.434195,20.441332,5007403.000000,1673607074.914275
1673611170.783569,,,,20.429676,20.438736,5007404.000000,1673607074.915282
1673611170.791054,,,,20.423906,20.432365,5007405.000000,1673607074.916289
1673611170.791237,,,,20.423473,20.429649,5007406.000000,1673607074.917296
1673611170.791394,,,,20.435831,20.442535,5007407.000000,1673607074.918303
1673611170.796202,,,,20.450953,20.457680,5007408.000000,1673607074.919311
1673611170.796233,,,,20.462492,20.470230,5007409.000000,1673607074.920318
1673611170.796244,,,,20.467516,20.475637,5007410.000000,1673607074.921325
1673611170.796470,,,,20.472757,20.479412,5007411.000000,1673607074.922332
1673611170.799594,,,,20.481747,20.488596,5007412.000000,1673607074.923339
1673611170.799917,,,,20.488695,20.493645,5007413.000000,1673607074.924346
1673611170.799949,,,,20.490978,20.496866,5007414.000000,1673607074.925353
1673611170.799961,,,,20.493406,20.502563,5007415.000000,1673607074.926360
1673611170.800813,,,,20.492397,20.501049,5007416.000000,1673607074.927367
1673611170.800919,,,,20.487013,20.489750,5007417.000000,1673607074.928374
1673611170.800940,,,,20.473093,20.480278,5007418.000000,1673607074.929381
1673611170.804490,,,,20.452347,20.459602,5007419.000000,1673607074.930388
1673611170.804743,,,,20.426527,20.435009,5007420.000000,1673607074.931396
1673611170.804761,,,,20.407824,20.417099,5007421.000000,1673607074.932403
1673611170.806475,,,,20.404289,20.413301,5007422.000000,1673607074.933410
1673611170.806494,,,,20.425877,20.434120,5007423.000000,1673607074.934417
1673611170.806625,,,,20.442682,20.451574,5007424.000000,1673607074.935424
1673611170.806905,,,,20.443306,20.451694,5007425.000000,1673607074.936431
1673611170.811380,,,,20.448212,20.456839,5007426.000000,1673607074.937438
1673611170.811398,,,,20.432177,20.440851,5007427.000000,1673607074.938445
1673611170.811692,,,,20.420324,20.427917,5007428.000000,1673607074.939452
1673611170.813781,,,,20.413954,20.425154,5007429.000000,1673607074.940459
1673611170.814052,,,,20.418858,20.427389,5007430.000000,1673607074.941466
1673611170.814170,,,,20.437754,20.444651,5007431.000000,1673607074.942473
1673611170.814376,,,,20.458307,20.467129,5007432.000000,1673607074.943480
1673611170.814761,,,,20.479008,20.486816,5007433.000000,1673607074.944488
1673611170.814816,,,,20.485186,20.493019,5007434.000000,1673607074.945495
1673611170.814923,,,,20.477083,20.485352,5007435.000000,1673607074.946502
1673611170.814942,,,,20.475136,20.485615,5007436.000000,1673607074.947509
1673611170.827535,,,,20.480064,20.487707,5007437.000000,1673607074.948516
1673611170.827907,,,,20.482037,20.488501,5007438.000000,1673607074.949523
1673611170.827990,,,,20.475065,20.481647,5007439.000000,1673607074.950530
1673611170.828087,,,,20.461218,20.466839,5007440.000000,1673607074.951537
1673611170.828173,,,,20.449148,20.456118,5007441.000000,1673607074.952544
1673611170.828350,,,,20.443283,20.449963,5007442.000000,1673607074.953551
1673611170.834988,,,,20.432825,20.439144,5007443.000000,1673607074.954558
1673611170.835194,,,,20.414698,20.421860,5007444.000000,1673607074.955565
1673611170.835311,,,,20.401573,20.409863,5007445.000000,1673607074.956573
1673611170.835372,,,,20.395370,20.404093,5007446.000000,1673607074.957580
1673611170.835624,,,,20.395658,20.402676,5007447.000000,1673607074.958587
1673611170.840445,2.022071,4143538.000000,1673611170.829994,,,,
1673611170.840461,2.022071,4143539.000000,1673611170.830995,,,,
1673611170.840468,2.112517,4143540.000000,1673611170.831995,,,,
1673611170.840472,2.112517,4143541.000000,1673611170.832994,,,,
1673611170.840474,2.112517,4143542.000000,1673611170.833994,,,,
1673611170.840477,2.148703,4143543.000000,1673611170.834995,,,,
1673611170.840489,2.130614,4143544.000000,1673611170.835994,,,,
1673611170.840496,2.130614,4143545.000000,1673611170.836994,,,,
1673611170.840500,2.148703,4143546.000000,1673611170.837995,,,,
1673611170.840513,2.148703,4143547.000000,1673611170.838995,,,,
1673611170.845565,,,,20.395081,20.402748,5007448.000000,1673607074.959594
1673611170.846172,,,,20.395130,20.403131,5007449.000000,1673607074.960601
1673611170.846291,,,,20.407343,20.416859,5007450.000000,1673607074.961608
1673611170.849067,,,,20.418713,20.426643,5007451.000000,1673607074.962615
1673611170.849086,,,,20.433643,20.440779,5007452.000000,1673607074.963622
1673611170.849446,,,,20.446720,20.455036,5007453.000000,1673607074.964629
1673611170.849678,,,,20.454149,20.464003,5007454.000000,1673607074.965636
1673611170.850101,,,,20.460928,20.469748,5007455.000000,1673607074.966643
1673611170.850127,,,,20.473188,20.480158,5007456.000000,1673607074.967650
1673611170.850589,,,,20.473814,20.480686,5007457.000000,1673607074.968657
1673611170.853218,,,,20.466242,20.473307,5007458.000000,1673607074.969665
1673611170.853547,,,,20.459846,20.466286,5007459.000000,1673607074.970672
1673611170.853568,,,,20.450542,20.456718,5007460.000000,1673607074.971679
1673611170.853579,,,,20.443283,20.447775,5007461.000000,1673607074.972686
1673611170.856239,,,,20.427391,20.434698,5007462.000000,1673607074.973693
1673611170.856259,,,,20.418280,20.426428,5007463.000000,1673607074.974700
1673611170.856581,,,,20.411909,20.421474,5007464.000000,1673607074.975707
1673611170.860631,,,,20.399145,20.408493,5007465.000000,1673607074.976714
1673611170.860713,,,,20.392942,20.402435,5007466.000000,1673607074.977721
1673611170.860723,,,,20.384960,20.393925,5007467.000000,1673607074.978728
1673611170.860915,,,,20.381474,20.389502,5007468.000000,1673607074.979735
1673611170.861115,,,,20.389721,20.397387,5007469.000000,1673607074.980742
1673611170.861412,,,,20.404457,20.414961,5007470.000000,1673607074.981750
1673611170.861689,,,,20.417944,20.425755,5007471.000000,1673607074.982757
1673611170.861826,,,,20.438715,20.446260,5007472.000000,1673607074.983764
1673611170.863698,,,,20.456745,20.464989,5007473.000000,1673607074.984771
1673611170.863713,,,,20.469416,20.476768,5007474.000000,1673607074.985778
1673611170.868354,,,,20.482252,20.488260,5007475.000000,1673607074.986785
1673611170.868785,,,,20.498312,20.505833,5007476.000000,1673607074.987792
1673611170.869714,,,,20.499369,20.507492,5007477.000000,1673607074.988799
1673611170.869743,,,,20.486242,20.495785,5007478.000000,1673607074.989806
1673611170.869805,,,,20.470425,20.477154,5007479.000000,1673607074.990813
1673611170.869824,,,,20.450855,20.457680,5007480.000000,1673607074.991820
1673611170.869834,,,,20.437033,20.445875,5007481.000000,1673607074.992827
1673611170.869846,,,,20.432465,20.438303,5007482.000000,1673607074.993834
1673611170.871500,,,,20.425734,20.432245,5007483.000000,1673607074.994842
1673611170.871940,,,,20.414915,20.424263,5007484.000000,1673607074.995849
1673611170.872029,,,,20.410107,20.416979,5007485.000000,1673607074.996856
1673611170.872269,,,,20.421093,20.428591,5007486.000000,1673607074.997863
1673611170.872407,,,,20.437849,20.445179,5007487.000000,1673607074.998870
1673611170.872597,,,,20.440758,20.449266,5007488.000000,1673607074.999877
1673611170.872792,,,,20.440517,20.446381,5007489.000000,1673607075.000884
1673611170.875509,,,,20.449148,20.454243,5007490.000000,1673607075.001891
1673611170.875728,,,,20.453524,20.458498,5007491.000000,1673607075.002898
1673611170.875900,,,,20.453669,20.463427,5007492.000000,1673607075.003905
1673611170.876307,,,,20.451096,20.458328,5007493.000000,1673607075.004912
1673611170.880155,,,,20.446720,20.455853,5007494.000000,1673607075.005919
1673611170.880305,,,,20.445063,20.454819,5007495.000000,1673607075.006927
1673611170.880327,,,,20.449173,20.458233,5007496.000000,1673607075.007934
1673611170.880760,,,,20.449846,20.458593,5007497.000000,1673607075.008941
1673611170.894802,,,,20.446697,20.457294,5007498.000000,1673607075.009948
1673611170.895025,,,,20.448475,20.457487,5007499.000000,1673607075.010955
1673611170.903306,,,,20.457106,20.465950,5007500.000000,1673607075.011962
1673611170.903529,,,,20.448692,20.455397,5007501.000000,1673607075.012969
1673611170.903554,,,,20.425661,20.430418,5007502.000000,1673607075.013976
1673611170.903575,,,,20.406982,20.414719,5007503.000000,1673607075.014983
1673611170.903648,,,,20.402294,20.410728,5007504.000000,1673607075.015990
1673611170.906049,2.691408,4143599.000000,1673611170.894255,,,,
1673611170.906071,2.691408,4143600.000000,1673611170.895256,,,,
1673611170.906075,2.691408,4143601.000000,1673611170.896255,,,,
1673611170.906085,2.763764,4143602.000000,1673611170.897255,,,,
1673611170.906094,2.709497,4143603.000000,1673611170.898255,,,,
1673611170.906098,2.799942,4143604.000000,1673611170.899256,,,,
1673611170.906104,2.836128,4143605.000000,1673611170.900255,,,,
1673611170.906151,2.818031,4143606.000000,1673611170.901255,,,,
1673611170.906168,2.836128,4143607.000000,1673611170.902256,,,,
1673611170.906185,2.854218,4143608.000000,1673611170.903255,,,,
1673611170.908712,,,,20.406069,20.413229,5007505.000000,1673607075.016997
1673611170.908803,,,,20.415636,20.421186,5007506.000000,1673607075.018004
1673611170.911279,,,,20.414675,20.419264,5007507.000000,1673607075.019011
1673611170.911292,,,,20.416765,20.422436,5007508.000000,1673607075.020019
1673611170.911509,,,,20.428930,20.435514,5007509.000000,1673607075.021026
1673611170.911704,,,,20.423929,20.427269,5007510.000000,1673607075.022033
1673611170.911886,,,,20.405586,20.413036,5007511.000000,1673607075.023040
1673611170.916166,,,,20.398111,20.405752,5007512.000000,1673607075.024047
1673611170.916296,,,,20.395081,20.402315,5007513.000000,1673607075.025054
1673611170.916456,,,,20.394167,20.399549,5007514.000000,1673607075.026061
1673611170.918951,,,,20.398159,20.404766,5007515.000000,1673607075.027068
1673611170.919247,,,,20.408688,20.416811,5007516.000000,1673607075.028075
1673611170.919563,,,,20.416454,20.425827,5007517.000000,1673607075.029082
1673611170.919782,,,,20.428545,20.436716,5007518.000000,1673607075.030089
1673611170.920399,,,,20.446625,20.453810,5007519.000000,1673607075.031096
1673611170.920447,,,,20.461241,20.466984,5007520.000000,1673607075.032104
1673611170.920506,,,,20.454172,20.460781,5007521.000000,1673607075.033111
1673611170.924072,,,,20.448402,20.456285,5007522.000000,1673607075.034118
1673611170.924194,,,,20.444820,20.453737,5007523.000000,1673607075.035125
1673611170.924738,,,,20.440037,20.447895,5007524.000000,1673607075.036132
1673611170.924989,,,,20.437248,20.445660,5007525.000000,1673607075.037139
1673611170.925066,,,,20.429939,20.441332,5007526.000000,1673607075.038146
1673611170.925079,,,,20.430470,20.441813,5007527.000000,1673607075.039153
1673611170.925088,,,,20.433113,20.442631,5007528.000000,1673607075.040160
1673611170.926231,,,,20.431286,20.441164,5007529.000000,1673607075.041167
1673611170.926614,,,,20.430902,20.441692,5007530.000000,1673607075.042174
1673611170.927136,,,,20.430613,20.439795,5007531.000000,1673607075.043181
1673611170.927182,,,,20.440687,20.449289,5007532.000000,1673607075.044188
1673611170.927341,,,,20.454197,20.461407,5007533.000000,1673607075.045196
1673611170.927399,,,,20.458981,20.468546,5007534.000000,1673607075.046203
1673611170.927407,,,,20.467972,20.473307,5007535.000000,1673607075.047210
1673611170.931394,,,,20.481867,20.489655,5007536.000000,1673607075.048217
1673611170.931990,,,,20.488047,20.493380,5007537.000000,1673607075.049224
1673611170.932102,,,,20.479078,20.486408,5007538.000000,1673607075.050231
1673611170.932146,,,,20.469872,20.477369,5007539.000000,1673607075.051238
1673611170.932153,,,,20.463814,20.469604,5007540.000000,1673607075.052245
1673611170.932166,,,,20.449894,20.454123,5007541.000000,1673607075.053252
1673611170.932176,,,,20.437201,20.444000,5007542.000000,1673607075.054259
1673611170.933426,,,,20.427921,20.435490,5007543.000000,1673607075.055266
1673611170.933651,,,,20.422104,20.429289,5007544.000000,1673607075.056273
1673611170.933825,,,,20.416477,20.425537,5007545.000000,1673607075.057281
1673611170.933996,,,,20.410395,20.419552,5007546.000000,1673607075.058288
1673611170.947513,,,,20.408880,20.420658,5007547.000000,1673607075.059295
1673611170.947529,,,,20.412102,20.421091,5007548.000000,1673607075.060302
1673611170.947535,,,,20.418159,20.427677,5007549.000000,1673607075.061309
1673611170.948447,2.872307,4143609.000000,1673611170.887957,,,,
1673611170.949437,2.890396,4143610.000000,1673611170.888957,,,,
1673611170.949446,2.926574,4143611.000000,1673611170.889957,,,,
1673611170.949450,2.872307,4143612.000000,1673611170.890957,,,,
1673611170.949470,2.872307,4143613.000000,1673611170.891957,,,,
1673611170.949487,3.740631,4143660.000000,1673611170.938957,,,,
1673611170.949491,3.740631,4143661.000000,1673611170.939957,,,,
1673611170.949512,3.758720,4143662.000000,1673611170.940957,,,,
1673611170.949516,3.812995,4143663.000000,1673611170.941957,,,,
1673611170.949523,3.812995,4143664.000000,1673611170.942957,,,,
1673611170.949537,3.831084,4143665.000000,1673611170.943957,,,,
1673611170.949545,3.903440,4143666.000000,1673611170.944957,,,,
1673611170.949552,3.867262,4143667.000000,1673611170.945957,,,,
1673611170.949564,3.885351,4143668.000000,1673611170.946957,,,,
1673611170.949579,3.903440,4143669.000000,1673611170.947957,,,,
1673611170.953810,,,,20.428497,20.438160,5007550.000000,1673607075.062316
1673611170.954470,,,,20.440783,20.448353,5007551.000000,1673607075.063323
1673611170.954520,,,,20.445326,20.453402,5007552.000000,1673607075.064330
1673611170.954636,,,,20.448885,20.456430,5007553.000000,1673607075.065337
1673611170.954649,,,,20.456289,20.465061,5007554.000000,1673607075.066344
1673611170.955894,,,,20.466963,20.474436,5007555.000000,1673607075.067351
1673611170.956162,,,,20.469656,20.478428,5007556.000000,1673607075.068358
1673611170.961208,,,,20.471241,20.479340,5007557.000000,1673607075.069366
1673611170.961521,,,,20.470905,20.476383,5007558.000000,1673607075.070373
1673611170.961664,,,,20.459871,20.465517,5007559.000000,1673607075.071380
1673611170.961969,,,,20.441408,20.447102,5007560.000000,1673607075.072387
1673611170.963927,,,,20.435158,20.440708,5007561.000000,1673607075.073394
1673611170.964050,,,,20.435518,20.441669,5007562.000000,1673607075.074401
1673611170.964339,,,,20.434435,20.442053,5007563.000000,1673607075.075408
1673611170.964354,,,,20.430902,20.437822,5007564.000000,1673607075.076415
1673611170.968817,,,,20.419531,20.427124,5007565.000000,1673607075.077422
1673611170.969237,,,,20.415972,20.424383,5007566.000000,1673607075.078429
1673611170.969257,,,,20.414387,20.422846,5007567.000000,1673607075.079436
1673611170.971009,,,,20.407511,20.415945,5007568.000000,1673607075.080443
1673611170.971619,,,,20.406860,20.415609,5007569.000000,1673607075.081450
1673611170.971639,,,,20.415083,20.420851,5007570.000000,1673607075.082458
1673611170.971651,,,,20.425949,20.435780,5007571.000000,1673607075.083465
1673611170.976347,,,,20.448187,20.454651,5007572.000000,1673607075.084472
1673611170.977054,,,,20.460592,20.467537,5007573.000000,1673607075.085479
1673611170.977144,,,,20.466457,20.475470,5007574.000000,1673607075.086486
1673611170.977159,,,,20.471939,20.479219,5007575.000000,1673607075.087493
1673611170.979282,,,,20.475737,20.482298,5007576.000000,1673607075.088500
1673611170.979425,,,,20.474415,20.480639,5007577.000000,1673607075.089507
1673611170.979445,,,,20.471771,20.480736,5007578.000000,1673607075.090514
1673611170.979712,,,,20.463453,20.472055,5007579.000000,1673607075.091521
1673611170.979832,,,,20.440975,20.447271,5007580.000000,1673607075.092528
1673611170.979975,,,,20.421141,20.427750,5007581.000000,1673607075.093535
1673611170.983443,,,,20.407583,20.413782,5007582.000000,1673607075.094543
1673611170.983705,,,,20.413761,20.418518,5007583.000000,1673607075.095550
1673611170.983764,,,,20.421886,20.426861,5007584.000000,1673607075.096557
1673611170.983769,,,,20.394650,20.402363,5007585.000000,1673607075.097564
1673611170.986639,,,,20.364574,20.372480,5007586.000000,1673607075.098571
1673611170.986650,,,,20.366737,20.373106,5007587.000000,1673607075.099578
1673611170.986790,,,,20.375536,20.382408,5007588.000000,1673607075.100585
1673611170.986933,,,,20.383661,20.391039,5007589.000000,1673607075.101592
1673611170.986939,,,,20.402727,20.410513,5007590.000000,1673607075.102599
1673611170.987082,,,,20.422895,20.430563,5007591.000000,1673607075.103606
1673611170.987218,,,,20.438835,20.448400,5007592.000000,1673607075.104613
1673611170.987302,,,,20.460905,20.467152,5007593.000000,1673607075.105620
1673611170.987358,,,,20.487734,20.495159,5007594.000000,1673607075.106627
1673611170.987557,,,,20.503143,20.510618,5007595.000000,1673607075.107635
1673611170.987564,,,,20.484608,20.489702,5007596.000000,1673607075.108642
1673611171.017264,,,,20.480042,20.489918,5007597.000000,1673607075.109649
1673611171.017285,,,,20.495594,20.503550,5007598.000000,1673607075.110656
1673611171.017672,,,,20.488455,20.496746,5007599.000000,1673607075.111663
1673611171.017887,,,,20.460760,20.468859,5007600.000000,1673607075.112670
1673611171.017909,,,,20.435349,20.441069,5007601.000000,1673607075.113677
1673611171.018167,,,,20.418665,20.425898,5007602.000000,1673607075.114684
1673611171.018222,,,,20.412294,20.418325,5007603.000000,1673607075.115691
1673611171.018469,,,,20.405996,20.413710,5007604.000000,1673607075.116698
1673611171.018651,,,,20.400803,20.408709,5007605.000000,1673607075.117705
1673611171.019140,,,,20.396645,20.403902,5007606.000000,1673607075.118712
1673611171.019707,,,,20.395058,20.402868,5007607.000000,1673607075.119720
1673611171.020033,,,,20.404675,20.412796,5007608.000000,1673607075.120727
1673611171.020050,,,,20.411741,20.421885,5007609.000000,1673607075.121734
1673611171.020139,,,,20.423185,20.433544,5007610.000000,1673607075.122741
1673611171.020574,,,,20.441721,20.448666,5007611.000000,1673607075.123748
1673611171.020586,,,,20.461554,20.464796,5007612.000000,1673607075.124755
1673611171.020615,,,,20.476339,20.481216,5007613.000000,1673607075.125762
1673611171.020675,,,,20.476507,20.482779,5007614.000000,1673607075.126769
1673611171.020976,,,,20.461601,20.468306,5007615.000000,1673607075.127776
1673611171.021198,,,,20.452995,20.458569,5007616.000000,1673607075.128783
1673611171.021477,,,,20.449846,20.455397,5007617.000000,1673607075.129790
1673611171.021884,,,,20.445303,20.452368,5007618.000000,1673607075.130797
1673611171.021902,,,,20.436552,20.443399,5007619.000000,1673607075.131804
1673611171.022151,,,,20.426502,20.433832,5007620.000000,1673607075.132812
1673611171.022766,,,,20.421501,20.425467,5007621.000000,1673607075.133819
1673611171.022926,,,,20.414867,20.423086,5007622.000000,1673607075.134826
1673611171.023016,,,,20.417536,20.424456,5007623.000000,1673607075.135833
1673611171.023904,,,,20.422152,20.429216,5007624.000000,1673607075.136840
1673611171.024099,3.975805,4143676.000000,1673611170.968625,,,,
1673611171.024340,,,,20.417175,20.425034,5007625.000000,1673607075.137847
1673611171.024348,,,,20.415516,20.423542,5007626.000000,1673607075.138854
1673611171.024352,,,,20.424339,20.432318,5007627.000000,1673607075.139861
1673611171.024488,,,,20.431456,20.441452,5007628.000000,1673607075.140868
1673611171.024501,,,,20.437441,20.444025,5007629.000000,1673607075.141875
1673611171.024515,,,,20.438522,20.444361,5007630.000000,1673607075.142882
1673611171.024518,,,,20.435349,20.443352,5007631.000000,1673607075.143889
1673611171.025635,3.993894,4143677.000000,1673611170.969625,,,,
1673611171.025643,4.030072,4143678.000000,1673611170.970625,,,,
1673611171.025659,4.084348,4143679.000000,1673611170.971625,,,,
1673611171.025664,4.066250,4143680.000000,1673611170.972625,,,,
1673611171.025669,4.138615,4143681.000000,1673611170.973625,,,,
1673611171.025698,4.174793,4143682.000000,1673611170.974625,,,,
1673611171.025720,4.120526,4143683.000000,1673611170.975625,,,,
1673611171.025726,4.192882,4143684.000000,1673611170.976625,,,,
1673611171.025731,4.192882,4143685.000000,1673611170.977625,,,,
1673611171.025735,4.627044,4143721.000000,1673611171.013625,,,,
1673611171.025794,4.699409,4143722.000000,1673611171.014625,,,,
1673611171.025820,4.663230,4143723.000000,1673611171.015625,,,,
1673611171.025827,4.608955,4143724.000000,1673611171.016625,,,,
1673611171.025840,4.608955,4143725.000000,1673611171.017625,,,,
1673611171.025844,4.663230,4143726.000000,1673611171.018625,,,,
1673611171.025854,4.717498,4143727.000000,1673611171.019625,,,,
1673611171.025862,4.735587,4143728.000000,1673611171.020625,,,,
1673611171.025869,4.771765,4143729.000000,1673611171.021625,,,,
1673611171.025886,4.753676,4143730.000000,1673611171.022625,,,,
1673611171.028520,,,,20.438835,20.448063,5007632.000000,1673607075.144897
1673611171.028686,,,,20.449148,20.455660,5007633.000000,1673607075.145904
1673611171.028963,,,,20.451143,20.456671,5007634.000000,1673607075.146911
1673611171.028985,,,,20.445038,20.450708,5007635.000000,1673607075.147918
1673611171.030992,,,,20.441288,20.448183,5007636.000000,1673607075.148925
1673611171.031034,,,,20.435759,20.442726,5007637.000000,1673607075.149932
1673611171.031055,,,,20.421671,20.427029,5007638.000000,1673607075.150939
1673611171.038953,,,,20.403015,20.410969,5007639.000000,1673607075.151946
1673611171.039307,,,,20.387966,20.395775,5007640.000000,1673607075.152953
1673611171.039472,,,,20.385178,20.390583,5007641.000000,1673607075.153960
1673611171.039710,,,,20.389311,20.396688,5007642.000000,1673607075.154967
1673611171.039907,,,,20.400970,20.408398,5007643.000000,1673607075.155974
1673611171.040087,,,,20.413473,20.420008,5007644.000000,1673607075.156981
1673611171.040300,,,,20.422945,20.431885,5007645.000000,1673607075.157989
1673611171.043928,,,,20.431118,20.439554,5007646.000000,1673607075.158996
1673611171.044033,,,,20.427849,20.437750,5007647.000000,1673607075.160003
1673611171.044185,,,,20.431503,20.435875,5007648.000000,1673607075.161010
1673611171.044335,,,,20.438931,20.445467,5007649.000000,1673607075.162017
1673611171.044519,,,,20.448692,20.456406,5007650.000000,1673607075.163024
1673611171.044745,,,,20.453260,20.461502,5007651.000000,1673607075.164031
1673611171.044882,,,,20.452635,20.462849,5007652.000000,1673607075.165038
1673611171.045952,,,,20.459871,20.467560,5007653.000000,1673607075.166045
1673611171.046197,,,,20.469559,20.476889,5007654.000000,1673607075.167052
1673611171.046442,,,,20.476049,20.482393,5007655.000000,1673607075.168059
1673611171.046503,,,,20.477516,20.485615,5007656.000000,1673607075.169066
1673611171.046688,,,,20.477421,20.485542,5007657.000000,1673607075.170074
1673611171.051360,,,,20.468645,20.477682,5007658.000000,1673607075.171081
1673611171.051377,,,,20.459846,20.468546,5007659.000000,1673607075.172088
1673611171.054125,,,,20.454630,20.461550,5007660.000000,1673607075.173095
1673611171.054155,,,,20.441792,20.448713,5007661.000000,1673607075.174102
1673611171.054544,,,,20.429869,20.436813,5007662.000000,1673607075.175109
1673611171.054695,,,,20.419651,20.425346,5007663.000000,1673607075.176116
1673611171.078266,4.807951,4143731.000000,1673611171.017291,,,,
1673611171.078282,4.771765,4143732.000000,1673611171.018291,,,,
1673611171.080001,4.826040,4143733.000000,1673611171.019291,,,,
1673611171.080036,6.761685,4143782.000000,1673611171.068291,,,,
1673611171.080049,6.834041,4143783.000000,1673611171.069291,,,,
1673611171.080054,6.942584,4143784.000000,1673611171.070291,,,,
1673611171.080060,6.924494,4143785.000000,1673611171.071291,,,,
1673611171.080065,7.014948,4143786.000000,1673611171.072291,,,,
1673611171.080131,7.087304,4143787.000000,1673611171.073291,,,,
1673611171.080141,7.232025,4143788.000000,1673611171.074291,,,,
1673611171.080162,7.322478,4143789.000000,1673611171.075291,,,,
1673611171.080340,7.394835,4143790.000000,1673611171.076291,,,,
1673611171.080352,7.412924,4143791.000000,1673611171.077291,,,,
1673611171.081241,,,,20.405323,20.410849,5007664.000000,1673607075.177123
1673611171.081425,,,,20.369959,20.377024,5007665.000000,1673607075.178130
1673611171.081586,,,,20.342602,20.353199,5007666.000000,1673607075.179137
1673611171.081693,,,,20.331350,20.338488,5007667.000000,1673607075.180144
1673611171.083329,,,,20.322599,20.329880,5007668.000000,1673607075.181151
1673611171.083439,,,,20.330893,20.340530,5007669.000000,1673607075.182158
1673611171.083465,,,,20.346159,20.352718,5007670.000000,1673607075.183166
1673611171.088556,,,,20.355824,20.361879,5007671.000000,1673607075.184173
1673611171.088721,,,,20.362915,20.367960,5007672.000000,1673607075.185180
1673611171.088859,,,,20.368589,20.376904,5007673.000000,1673607075.186187
1673611171.088867,,,,20.380537,20.387722,5007674.000000,1673607075.187194
1673611171.090987,,,,20.391716,20.400993,5007675.000000,1673607075.188201
1673611171.091408,,,,20.397751,20.409119,5007676.000000,1673607075.189208
1673611171.091425,,,,20.411356,20.421331,5007677.000000,1673607075.190215
1673611171.091504,,,,20.422295,20.428904,5007678.000000,1673607075.191222
1673611171.096762,,,,20.427944,20.435009,5007679.000000,1673607075.192229
1673611171.097283,,,,20.432417,20.437920,5007680.000000,1673607075.193236
1673611171.097326,,,,20.410875,20.418613,5007681.000000,1673607075.194243
1673611171.097342,,,,20.412775,20.418373,5007682.000000,1673607075.195251
1673611171.097357,,,,20.432610,20.440371,5007683.000000,1673607075.196258
1673611171.097364,,,,20.432104,20.439409,5007684.000000,1673607075.197265
1673611171.098529,,,,20.415997,20.421114,5007685.000000,1673607075.198272
1673611171.098874,,,,20.412006,20.418974,5007686.000000,1673607075.199279
1673611171.099167,,,,20.416765,20.425226,5007687.000000,1673607075.200286
1673611171.099318,,,,20.428738,20.436260,5007688.000000,1673607075.201293
1673611171.104309,,,,20.452875,20.461695,5007689.000000,1673607075.202300
1673611171.104646,,,,20.489754,20.496506,5007690.000000,1673607075.203307
1673611171.104821,,,,20.506365,20.513935,5007691.000000,1673607075.204314
1673611171.105132,,,,20.507303,20.518023,5007692.000000,1673607075.205321
1673611171.105517,,,,20.518410,20.529322,5007693.000000,1673607075.206328
1673611171.105855,,,,20.517183,20.523960,5007694.000000,1673607075.207335
1673611171.106090,,,,20.482685,20.489222,5007695.000000,1673607075.208343
1673611171.106314,,,,20.450542,20.457993,5007696.000000,1673607075.209350
1673611171.106518,,,,20.432247,20.439144,5007697.000000,1673607075.210357
1673611171.106610,,,,20.415371,20.421932,5007698.000000,1673607075.211364
1673611171.106804,,,,20.405586,20.413181,5007699.000000,1673607075.212371
1673611171.111502,,,,20.406693,20.415562,5007700.000000,1673607075.213378
1673611171.111516,,,,20.407944,20.414623,5007701.000000,1673607075.214385
1673611171.112072,,,,20.411068,20.420273,5007702.000000,1673607075.215392
1673611171.112081,,,,20.402342,20.412964,5007703.000000,1673607075.216399
1673611171.112100,,,,20.404482,20.413542,5007704.000000,1673607075.217406
1673611171.112179,,,,20.447994,20.455517,5007705.000000,1673607075.218413
1673611171.113536,,,,20.445759,20.453424,5007706.000000,1673607075.219420
1673611171.113847,,,,20.387293,20.394693,5007707.000000,1673607075.220428
1673611171.114076,,,,20.325964,20.333271,5007708.000000,1673607075.221435
1673611171.114342,,,,20.280096,20.285116,5007709.000000,1673607075.222442
1673611171.119282,,,,20.250814,20.257519,5007710.000000,1673607075.223449
1673611171.119534,,,,20.208815,20.215639,5007711.000000,1673607075.224456
1673611171.119949,,,,20.160927,20.167679,5007712.000000,1673607075.225463
1673611171.120245,,,,20.138256,20.147123,5007713.000000,1673607075.226470
1673611171.120266,,,,20.164221,20.173136,5007714.000000,1673607075.227477
1673611171.120749,,,,20.207085,20.216120,5007715.000000,1673607075.228484
1673611171.120911,,,,20.246367,20.254923,5007716.000000,1673607075.229491
1673611171.121095,,,,20.276056,20.287882,5007717.000000,1673607075.230498
1673611171.121522,,,,20.309881,20.320601,5007718.000000,1673607075.231505
1673611171.121777,,,,20.357338,20.366205,5007719.000000,1673607075.232512
1673611171.122077,,,,20.418690,20.426403,5007720.000000,1673607075.233520
1673611171.126144,,,,20.482325,20.489485,5007721.000000,1673607075.234527
1673611171.126477,,,,20.479078,20.487226,5007722.000000,1673607075.235534
1673611171.126695,,,,20.396019,20.403036,5007723.000000,1673607075.236541
1673611171.126978,,,,20.369934,20.377697,5007724.000000,1673607075.237548
1673611171.128475,,,,20.404697,20.413349,5007725.000000,1673607075.238555
1673611171.128617,,,,20.401501,20.408686,5007726.000000,1673607075.239562
1673611171.128810,,,,20.356520,20.364283,5007727.000000,1673607075.240569
1673611171.129080,,,,20.322527,20.329327,5007728.000000,1673607075.241576
1673611171.142263,,,,20.333538,20.341444,5007729.000000,1673607075.242583
1673611171.142507,,,,20.348227,20.355820,5007730.000000,1673607075.243590
1673611171.150103,,,,20.334860,20.341780,5007731.000000,1673607075.244597
1673611171.150113,,,,20.305651,20.314135,5007732.000000,1673607075.245605
1673611171.150255,,,,20.297525,20.304037,5007733.000000,1673607075.246612
1673611171.150263,,,,20.278341,20.284733,5007734.000000,1673607075.247619
1673611171.154215,7.521466,4143792.000000,1673611171.093183,,,,
1673611171.156263,7.611920,4143793.000000,1673611171.094183,,,,
1673611171.156293,7.684276,4143794.000000,1673611171.095183,,,,
1673611171.156307,7.684276,4143795.000000,1673611171.096183,,,,
1673611171.156349,17.036871,4143843.000000,1673611171.144183,,,,
1673611171.156355,17.326313,4143844.000000,1673611171.145183,,,,
1673611171.156370,17.670029,4143845.000000,1673611171.146183,,,,
1673611171.156411,18.031826,4143846.000000,1673611171.147183,,,,
1673611171.156426,18.375544,4143847.000000,1673611171.148183,,,,
1673611171.156443,18.845884,4143848.000000,1673611171.149183,,,,
1673611171.156458,19.153414,4143849.000000,1673611171.150183,,,,
1673611171.156546,19.551399,4143850.000000,1673611171.151183,,,,
1673611171.156556,19.895115,4143851.000000,1673611171.152183,,,,
1673611171.156601,20.311188,4143852.000000,1673611171.153183,,,,
1673611171.156633,,,,20.223288,20.232300,5007735.000000,1673607075.248626
1673611171.156918,,,,20.151791,20.161020,5007736.000000,1673607075.249633
1673611171.157578,,,,20.079885,20.087696,5007737.000000,1673607075.250640
1673611171.157602,,,,20.078468,20.086134,5007738.000000,1673607075.251647
1673611171.157620,,,,20.120394,20.128420,5007739.000000,1673607075.252654
1673611171.157672,,,,20.183380,20.188955,5007740.000000,1673607075.253661
1673611171.157939,,,,20.204199,20.209316,5007741.000000,1673607075.254668
1673611171.158476,,,,20.187370,20.193090,5007742.000000,1673607075.255675
1673611171.158942,,,,20.192371,20.197802,5007743.000000,1673607075.256682
1673611171.158962,,,,20.198141,20.204437,5007744.000000,1673607075.257689
1673611171.159140,,,,20.244732,20.252878,5007745.000000,1673607075.258697
1673611171.164040,,,,20.320267,20.330145,5007746.000000,1673607075.259704
1673611171.164257,,,,20.390635,20.399960,5007747.000000,1673607075.260711
1673611171.164549,,,,20.465929,20.474148,5007748.000000,1673607075.261718
1673611171.165089,,,,20.540888,20.549730,5007749.000000,1673607075.262725
1673611171.165110,,,,20.608130,20.616972,5007750.000000,1673607075.263732
1673611171.165119,,,,20.601950,20.609713,5007751.000000,1673607075.264739
1673611171.165133,,,,20.548485,20.557112,5007752.000000,1673607075.265746
1673611171.167187,,,,20.480162,20.485134,5007753.000000,1673607075.266753
1673611171.167203,,,,20.448933,20.457104,5007754.000000,1673607075.267760
1673611171.167240,,,,20.436407,20.444410,5007755.000000,1673607075.268767
1673611171.167257,,,,20.423954,20.432293,5007756.000000,1673607075.269774
1673611171.167270,,,,20.430637,20.442583,5007757.000000,1673607075.270782
1673611171.167618,,,,20.431358,20.441717,5007758.000000,1673607075.271789
1673611171.167749,,,,20.435638,20.442823,5007759.000000,1673607075.272796
1673611171.168110,,,,20.442152,20.451958,5007760.000000,1673607075.273803
1673611171.168504,,,,20.467636,20.478258,5007761.000000,1673607075.274810
1673611171.168595,,,,20.528963,20.535162,5007762.000000,1673607075.275817
1673611171.172366,,,,20.613659,20.621035,5007763.000000,1673607075.276824
1673611171.172536,,,,20.649141,20.655823,5007764.000000,1673607075.277831
1673611171.172640,,,,20.625439,20.635122,5007765.000000,1673607075.278838
1673611171.173015,,,,20.404144,20.413445,5007766.000000,1673607075.279845
1673611171.173033,,,,20.262810,20.270668,5007767.000000,1673607075.280852
1673611171.173203,,,,20.184582,20.192272,5007768.000000,1673607075.281859
1673611171.173489,,,,20.220234,20.227659,5007769.000000,1673607075.282866
1673611171.173719,,,,20.310747,20.317692,5007770.000000,1673607075.283874
1673611171.173908,,,,20.371473,20.379309,5007771.000000,1673607075.284881
1673611171.174269,,,,20.415083,20.424192,5007772.000000,1673607075.285888
1673611171.174513,,,,20.434484,20.442102,5007773.000000,1673607075.286895
1673611171.175117,,,,20.447321,20.454363,5007774.000000,1673607075.287902
1673611171.175277,,,,20.459822,20.467752,5007775.000000,1673607075.288909
1673611171.175902,,,,20.439341,20.448088,5007776.000000,1673607075.289916
1673611171.175914,,,,20.419844,20.427004,5007777.000000,1673607075.290923
1673611171.175922,,,,20.394384,20.401329,5007778.000000,1673607075.291930
1673611171.175927,,,,20.400490,20.405752,5007779.000000,1673607075.292937
1673611171.175932,,,,20.418304,20.424072,5007780.000000,1673607075.293944
1673611171.176005,,,,20.354622,20.362120,5007781.000000,1673607075.294951
1673611171.176032,,,,20.289230,20.297089,5007782.000000,1673607075.295959
1673611171.176044,,,,20.246367,20.254465,5007783.000000,1673607075.296966
1673611171.176054,,,,20.222326,20.227684,5007784.000000,1673607075.297973
1673611171.176072,,,,20.242496,20.248503,5007785.000000,1673607075.298980
1673611171.176147,,,,20.270359,20.277882,5007786.000000,1673607075.299987
1673611171.176380,,,,20.252256,20.262230,5007787.000000,1673607075.300994
1673611171.178978,,,,20.239515,20.244368,5007788.000000,1673607075.302001
1673611171.179134,,,,20.267233,20.273096,5007789.000000,1673607075.303008
1673611171.179382,,,,20.286682,20.294348,5007790.000000,1673607075.304015
1673611171.179577,,,,20.311949,20.316442,5007791.000000,1673607075.305022
1673611171.179796,,,,20.340052,20.344593,5007792.000000,1673607075.306029
1673611171.180086,,,,20.414242,20.421354,5007793.000000,1673607075.307036
1673611171.180291,,,,20.487709,20.495592,5007794.000000,1673607075.308043
1673611171.180498,,,,20.496172,20.504391,5007795.000000,1673607075.309051
1673611171.180980,,,,20.459438,20.468954,5007796.000000,1673607075.310058
1673611171.181244,,,,20.398832,20.407627,5007797.000000,1673607075.311065
1673611171.181376,,,,20.361641,20.370293,5007798.000000,1673607075.312072
1673611171.195832,,,,20.312069,20.319927,5007799.000000,1673607075.313079
1673611171.195841,,,,20.230860,20.240715,5007800.000000,1673607075.314086
1673611171.195933,,,,20.180447,20.190252,5007801.000000,1673607075.315093
1673611171.195940,,,,20.153955,20.160683,5007802.000000,1673607075.316100
1673611171.195976,,,,20.126596,20.132652,5007803.000000,1673607075.317107
1673611171.196139,,,,20.088661,20.096880,5007804.000000,1673607075.318114
1673611171.196248,,,,20.013918,20.022161,5007805.000000,1673607075.319121
1673611171.196413,,,,19.979179,19.986317,5007806.000000,1673607075.320128
1673611171.202472,,,,20.031757,20.039951,5007807.000000,1673607075.321136
1673611171.202979,,,,20.156574,20.165876,5007808.000000,1673607075.322143
1673611171.203370,,,,20.269951,20.276487,5007809.000000,1673607075.323150
1673611171.203659,,,,20.190351,20.195902,5007810.000000,1673607075.324157
1673611171.208993,,,,20.004831,20.012329,5007811.000000,1673607075.325164
1673611171.209215,20.745350,4143853.000000,1673611171.148082,,,,
1673611171.209230,,,,19.972496,19.979753,5007812.000000,1673607075.326171
1673611171.209376,21.089060,4143854.000000,1673611171.149082,,,,
1673611171.209815,,,,19.998846,20.003145,5007813.000000,1673607075.327178
1673611171.209828,,,,19.997763,20.002399,5007814.000000,1673607075.328185
1673611171.209832,,,,19.992258,19.997353,5007815.000000,1673607075.329192
1673611171.209891,,,,20.106884,20.113419,5007816.000000,1673607075.330199
1673611171.209900,21.541309,4143855.000000,1673611171.150082,,,,
1673611171.209965,21.903116,4143856.000000,1673611171.151082,,,,
1673611171.211056,,,,20.280529,20.287449,5007817.000000,1673607075.331206
1673611171.211288,22.301100,4143857.000000,1673611171.152082,,,,
1673611171.211302,22.753351,4143858.000000,1673611171.153082,,,,
1673611171.211338,23.133245,4143859.000000,1673611171.154082,,,,
1673611171.211346,41.585175,4143904.000000,1673611171.199082,,,,
1673611171.211351,42.037422,4143905.000000,1673611171.200082,,,,
1673611171.211438,42.435410,4143906.000000,1673611171.201082,,,,
1673611171.211447,42.887657,4143907.000000,1673611171.202082,,,,
1673611171.211461,43.339909,4143908.000000,1673611171.203082,,,,
1673611171.211512,43.792171,4143909.000000,1673611171.204082,,,,
1673611171.211562,44.190144,4143910.000000,1673611171.205082,,,,
1673611171.211569,44.642406,4143911.000000,1673611171.206082,,,,
1673611171.211573,45.058479,4143912.000000,1673611171.207082,,,,
1673611171.211602,45.438366,4143913.000000,1673611171.208082,,,,
1673611171.211730,,,,20.370777,20.376183,5007818.000000,1673607075.332213
1673611171.211748,,,,20.468357,20.476936,5007819.000000,1673607075.333220
1673611171.216085,,,,20.593103,20.604015,5007820.000000,1673607075.334228
1673611171.216322,,,,20.656017,20.663828,5007821.000000,1673607075.335235
1673611171.216573,,,,20.705564,20.711548,5007822.000000,1673607075.336242
1673611171.216580,,,,20.828268,20.836174,5007823.000000,1673607075.337249
1673611171.218821,,,,20.913300,20.920532,5007824.000000,1673607075.338256
1673611171.219109,,,,20.861444,20.867571,5007825.000000,1673607075.339263
1673611171.219572,,,,20.705132,20.710634,5007826.000000,1673607075.340270
1673611171.219678,,,,20.597383,20.606899,5007827.000000,1673607075.341277
1673611171.219690,,,,20.580410,20.588964,5007828.000000,1673607075.342284
1673611171.219864,,,,20.576996,20.586826,5007829.000000,1673607075.343291
1673611171.220066,,,,20.562740,20.571825,5007830.000000,1673607075.344298
1673611171.220369,,,,20.532377,20.539635,5007831.000000,1673607075.345305
1673611171.223596,,,,20.484680,20.494534,5007832.000000,1673607075.346313
1673611171.223899,,,,20.416525,20.427197,5007833.000000,1673607075.347320
1673611171.224110,,,,20.389240,20.397820,5007834.000000,1673607075.348327
1673611171.226036,,,,20.399145,20.404455,5007835.000000,1673607075.349334
1673611171.226126,,,,20.398014,20.404886,5007836.000000,1673607075.350341
1673611171.226282,,,,20.396212,20.403156,5007837.000000,1673607075.351348
1673611171.231315,,,,20.400299,20.408037,5007838.000000,1673607075.352355
1673611171.231491,,,,20.420107,20.427052,5007839.000000,1673607075.353362
1673611171.231704,,,,20.432369,20.439985,5007840.000000,1673607075.354369
1673611171.231718,,,,20.439774,20.446140,5007841.000000,1673607075.355376
1673611171.231790,,,,20.436239,20.443087,5007842.000000,1673607075.356383
1673611171.231925,,,,20.369743,20.376543,5007843.000000,1673607075.357390
1673611171.232057,,,,20.325581,20.332838,5007844.000000,1673607075.358397
1673611171.233418,,,,20.250477,20.258192,5007845.000000,1673607075.359405
1673611171.233427,,,,20.182058,20.189003,5007846.000000,1673607075.360412
1673611171.233629,,,,20.151358,20.158953,5007847.000000,1673607075.361419
1673611171.233635,,,,20.141382,20.149889,5007848.000000,1673607075.362426
1673611171.241177,,,,20.141695,20.151331,5007849.000000,1673607075.363433
1673611171.241189,,,,20.143713,20.152845,5007850.000000,1673607075.364440
1673611171.241194,,,,20.222855,20.231411,5007851.000000,1673607075.365447
1673611171.241276,,,,20.315027,20.324976,5007852.000000,1673607075.366454
1673611171.254863,,,,20.389023,20.397987,5007853.000000,1673607075.367461
1673611171.255136,,,,20.466650,20.472921,5007854.000000,1673607075.368468
1673611171.255630,,,,20.540623,20.549875,5007855.000000,1673607075.369475
1673611171.262885,,,,20.633299,20.642576,5007856.000000,1673607075.370482
1673611171.262910,,,,20.694315,20.703590,5007857.000000,1673607075.371490
1673611171.262959,,,,20.652122,20.659452,5007858.000000,1673607075.372497
1673611171.263192,,,,20.536175,20.542711,5007859.000000,1673607075.373504
1673611171.266028,67.327415,4143965.000000,1673611171.254410,,,,
1673611171.266040,67.707306,4143966.000000,1673611171.255410,,,,
1673611171.266044,68.141472,4143967.000000,1673611171.256410,,,,
1673611171.266051,68.467094,4143968.000000,1673611171.257410,,,,
1673611171.266064,68.846985,4143969.000000,1673611171.258410,,,,
1673611171.266073,69.226883,4143970.000000,1673611171.259410,,,,
1673611171.266091,69.679131,4143971.000000,1673611171.260410,,,,
1673611171.266145,70.022850,4143972.000000,1673611171.261410,,,,
1673611171.266159,70.384651,4143973.000000,1673611171.262410,,,,
1673611171.266168,70.746445,4143974.000000,1673611171.263410,,,,
1673611171.268792,,,,20.435879,20.443832,5007860.000000,1673607075.374511
1673611171.268803,,,,20.374863,20.382938,5007861.000000,1673607075.375518
1673611171.268813,,,,20.271057,20.278673,5007862.000000,1673607075.376525
1673611171.271171,,,,20.082579,20.090750,5007863.000000,1673607075.377532
1673611171.271786,,,,19.939297,19.948116,5007864.000000,1673607075.378539
1673611171.271797,,,,19.899124,19.906191,5007865.000000,1673607075.379546
1673611171.271842,,,,19.895134,19.899097,5007866.000000,1673607075.380553
1673611171.271896,,,,19.868521,19.870850,5007867.000000,1673607075.381560
1673611171.271913,,,,19.867945,19.874481,5007868.000000,1673607075.382567
1673611171.271926,,,,19.932686,19.938812,5007869.000000,1673607075.383574
1673611171.277030,,,,20.011274,20.019278,5007870.000000,1673607075.384582
1673611171.277045,,,,20.088734,20.096495,5007871.000000,1673607075.385589
1673611171.277065,,,,20.234467,20.244921,5007872.000000,1673607075.386596
1673611171.277291,,,,20.429268,20.439384,5007873.000000,1673607075.387603
1673611171.277322,,,,20.642651,20.651760,5007874.000000,1673607075.388610
1673611171.277642,,,,20.823580,20.832832,5007875.000000,1673607075.389617
1673611171.277781,,,,20.881062,20.888943,5007876.000000,1673607075.390624
1673611171.278721,,,,20.777903,20.786602,5007877.000000,1673607075.391631
1673611171.278743,,,,20.661692,20.669958,5007878.000000,1673607075.392638
1673611171.278893,,,,20.643229,20.653442,5007879.000000,1673607075.393645
1673611171.278936,,,,20.634478,20.645052,5007880.000000,1673607075.394652
1673611171.283750,,,,20.580435,20.588293,5007881.000000,1673607075.395659
1673611171.283803,,,,20.476843,20.483620,5007882.000000,1673607075.396667
1673611171.283915,,,,20.404675,20.412653,5007883.000000,1673607075.397674
1673611171.284051,,,,20.354933,20.362047,5007884.000000,1673607075.398681
1673611171.286171,,,,20.342337,20.348848,5007885.000000,1673607075.399688
1673611171.286346,,,,20.299353,20.311249,5007886.000000,1673607075.400695
1673611171.286354,,,,20.267403,20.279444,5007887.000000,1673607075.401702
1673611171.286606,,,,20.259588,20.268650,5007888.000000,1673607075.402709
1673611171.286719,,,,20.274446,20.281391,5007889.000000,1673607075.403716
1673611171.286807,,,,20.297045,20.306538,5007890.000000,1673607075.404723
1673611171.291331,,,,20.327551,20.335289,5007891.000000,1673607075.405730
1673611171.291648,,,,20.339188,20.344040,5007892.000000,1673607075.406737
1673611171.291735,,,,20.352674,20.360556,5007893.000000,1673607075.407744
1673611171.291821,,,,20.342049,20.352718,5007894.000000,1673607075.408751
1673611171.292257,,,,20.334114,20.344017,5007895.000000,1673607075.409759
1673611171.292268,,,,20.326204,20.332525,5007896.000000,1673607075.410766
1673611171.292462,,,,20.356760,20.363562,5007897.000000,1673607075.411773
1673611171.292632,,,,20.435806,20.440851,5007898.000000,1673607075.412780
1673611171.293530,,,,20.518385,20.523455,5007899.000000,1673607075.413787
1673611171.293540,,,,20.535070,20.541943,5007900.000000,1673607075.414794
1673611171.293551,,,,20.521391,20.527037,5007901.000000,1673607075.415801
1673611171.298579,,,,20.470087,20.477850,5007902.000000,1673607075.416808
1673611171.299151,,,,20.412510,20.420778,5007903.000000,1673607075.417815
1673611171.299169,,,,20.365271,20.371975,5007904.000000,1673607075.418822
1673611171.299209,,,,20.310555,20.315456,5007905.000000,1673607075.419829
1673611171.301101,,,,20.207973,20.215569,5007906.000000,1673607075.420836
1673611171.302122,,,,20.101402,20.108587,5007907.000000,1673607075.421844
1673611171.302147,,,,20.022213,20.031033,5007908.000000,1673607075.422851
1673611171.302160,,,,19.978146,19.988482,5007909.000000,1673607075.423858
1673611171.315215,,,,20.010336,20.018194,5007910.000000,1673607075.424865
1673611171.315362,,,,20.099623,20.108948,5007911.000000,1673607075.425872
1673611171.315557,,,,20.202925,20.210833,5007912.000000,1673607075.426879
1673611171.322301,,,,20.324282,20.331179,5007913.000000,1673607075.427886
1673611171.322515,,,,20.414577,20.421835,5007914.000000,1673607075.428893
1673611171.322952,,,,20.463596,20.471792,5007915.000000,1673607075.429900
1673611171.328855,71.090157,4143975.000000,1673611171.268059,,,,
1673611171.328877,71.470062,4143976.000000,1673611171.269059,,,,
1673611171.328885,71.849945,4143977.000000,1673611171.270059,,,,
1673611171.328918,,,,20.456289,20.462152,5007916.000000,1673607075.430907
1673611171.329311,,,,20.404024,20.410656,5007917.000000,1673607075.431914
1673611171.329520,,,,20.332792,20.338127,5007918.000000,1673607075.432921
1673611171.329532,,,,20.218697,20.224728,5007919.000000,1673607075.433928
1673611171.329587,74.183563,4143984.000000,1673611171.277059,,,,
1673611171.329786,,,,20.075871,20.082359,5007920.000000,1673607075.434936
1673611171.329918,,,,19.940235,19.946627,5007921.000000,1673607075.435943
1673611171.330075,,,,19.878283,19.882269,5007922.000000,1673607075.436950
1673611171.330258,74.473022,4143985.000000,1673611171.278059,,,,
1673611171.330384,74.816734,4143986.000000,1673611171.279059,,,,
1673611171.330434,75.088089,4143987.000000,1673611171.280059,,,,
1673611171.330601,75.431793,4143988.000000,1673611171.281059,,,,
1673611171.330617,75.685059,4143989.000000,1673611171.282059,,,,
1673611171.330626,76.028763,4143990.000000,1673611171.283059,,,,
1673611171.330631,76.318207,4143991.000000,1673611171.284059,,,,
1673611171.330643,76.607651,4143992.000000,1673611171.285059,,,,
1673611171.330688,76.897087,4143993.000000,1673611171.286059,,,,
1673611171.330695,85.164284,4144026.000000,1673611171.319059,,,,
1673611171.330700,85.381371,4144027.000000,1673611171.320059,,,,
1673611171.330704,85.580345,4144028.000000,1673611171.321059,,,,
1673611171.330710,85.905968,4144029.000000,1673611171.322059,,,,
1673611171.330735,86.068787,4144030.000000,1673611171.323059,,,,
1673611171.330761,86.358231,4144031.000000,1673611171.324059,,,,
1673611171.330769,86.557220,4144032.000000,1673611171.325059,,,,
1673611171.330776,86.720024,4144033.000000,1673611171.326059,,,,
1673611171.330783,86.937111,4144034.000000,1673611171.327059,,,,
1673611171.330790,87.190376,4144035.000000,1673611171.328059,,,,
1673611171.332132,,,,19.811304,19.818274,5007923.000000,1673607075.437957
1673611171.332201,,,,19.801641,19.808201,5007924.000000,1673607075.438964
1673611171.332322,,,,19.877729,19.885082,5007925.000000,1673607075.439971
1673611171.332384,,,,20.029472,20.037188,5007926.000000,1673607075.440978
1673611171.332559,,,,20.242136,20.250547,5007927.000000,1673607075.441985
1673611171.332677,,,,20.425228,20.432005,5007928.000000,1673607075.442992
1673611171.333030,,,,20.602911,20.611443,5007929.000000,1673607075.443999
1673611171.333148,,,,20.762060,20.771025,5007930.000000,1673607075.445006
1673611171.333281,,,,20.855434,20.865889,5007931.000000,1673607075.446013
1673611171.333328,,,,20.906689,20.914234,5007932.000000,1673607075.447021
1673611171.333395,,,,20.900991,20.908920,5007933.000000,1673607075.448028
1673611171.333400,,,,20.848534,20.855791,5007934.000000,1673607075.449035
1673611171.333754,,,,20.868849,20.879663,5007935.000000,1673607075.450042
1673611171.333762,,,,20.869257,20.880049,5007936.000000,1673607075.451049
1673611171.333778,,,,20.759777,20.767538,5007937.000000,1673607075.452056
1673611171.333786,,,,20.664913,20.674116,5007938.000000,1673607075.453063
1673611171.333795,,,,20.653950,20.662554,5007939.000000,1673607075.454070
1673611171.333799,,,,20.653204,20.659187,5007940.000000,1673607075.455077
1673611171.333801,,,,20.626713,20.633297,5007941.000000,1673607075.456084
1673611171.336015,,,,20.582020,20.589615,5007942.000000,1673607075.457091
1673611171.336146,,,,20.533772,20.544298,5007943.000000,1673607075.458098
1673611171.336309,,,,20.469078,20.479677,5007944.000000,1673607075.459105
1673611171.336318,,,,20.314041,20.324255,5007945.000000,1673607075.460113
1673611171.340372,,,,20.144939,20.153927,5007946.000000,1673607075.461120
1673611171.340650,,,,20.015745,20.021706,5007947.000000,1673607075.462127
1673611171.344274,,,,19.975983,19.981653,5007948.000000,1673607075.463134
1673611171.344568,,,,19.991753,19.997881,5007949.000000,1673607075.464141
1673611171.344701,,,,19.999662,20.006559,5007950.000000,1673607075.465148
1673611171.344939,,,,20.030844,20.035624,5007951.000000,1673607075.466155
1673611171.345122,,,,20.127991,20.134142,5007952.000000,1673607075.467162
1673611171.345140,,,,20.270454,20.273602,5007953.000000,1673607075.468169
1673611171.345323,,,,20.347218,20.354403,5007954.000000,1673607075.469176
1673611171.345775,,,,20.388710,20.400150,5007955.000000,1673607075.470183
1673611171.346035,,,,20.473911,20.482994,5007956.000000,1673607075.471190
1673611171.346059,,,,20.595699,20.604256,5007957.000000,1673607075.472198
1673611171.346194,,,,20.624235,20.633488,5007958.000000,1673607075.473205
1673611171.348195,,,,20.494585,20.504295,5007959.000000,1673607075.474212
1673611171.348477,,,,20.417030,20.424913,5007960.000000,1673607075.475219
1673611171.348561,,,,20.443018,20.453882,5007961.000000,1673607075.476226
1673611171.348576,,,,20.480738,20.492033,5007962.000000,1673607075.477233
1673611171.351663,,,,20.530766,20.538961,5007963.000000,1673607075.478240
1673611171.351741,,,,20.526295,20.533167,5007964.000000,1673607075.479247
1673611171.352085,,,,20.480642,20.489775,5007965.000000,1673607075.480254
1673611171.352182,,,,20.439917,20.447174,5007966.000000,1673607075.481261
1673611171.352530,,,,20.416334,20.421234,5007967.000000,1673607075.482268
1673611171.352790,,,,20.432920,20.438208,5007968.000000,1673607075.483275
1673611171.353204,,,,20.463140,20.471191,5007969.000000,1673607075.484282
1673611171.353502,,,,20.428810,20.436092,5007970.000000,1673607075.485290
1673611171.355494,,,,20.335388,20.341612,5007971.000000,1673607075.486297
1673611171.355584,,,,20.184727,20.194820,5007972.000000,1673607075.487304
1673611171.358645,,,,20.049883,20.057116,5007973.000000,1673607075.488311
1673611171.358965,,,,20.026901,20.031921,5007974.000000,1673607075.489318
1673611171.358983,,,,20.095705,20.100822,5007975.000000,1673607075.490325
1673611171.358996,,,,20.234467,20.240402,5007976.000000,1673607075.491332
1673611171.363050,,,,20.405155,20.411690,5007977.000000,1673607075.492339
1673611171.363342,,,,20.506798,20.515497,5007978.000000,1673607075.493346
1673611171.363561,,,,20.538963,20.548361,5007979.000000,1673607075.494353
1673611171.363881,,,,20.580074,20.586779,5007980.000000,1673607075.495360
1673611171.377004,,,,20.653133,20.659838,5007981.000000,1673607075.496367
1673611171.377027,,,,20.719076,20.727991,5007982.000000,1673607075.497375
1673611171.377401,,,,20.765522,20.772852,5007983.000000,1673607075.498382
1673611171.381224,,,,20.720999,20.724386,5007984.000000,1673607075.499389
1673611171.381862,,,,20.654743,20.659620,5007985.000000,1673607075.500396
1673611171.381886,,,,20.603464,20.612621,5007986.000000,1673607075.501403
1673611171.381918,,,,20.540888,20.548193,5007987.000000,1673607075.502410
1673611171.384284,87.371277,4144036.000000,1673611171.323276,,,,
1673611171.384415,87.642632,4144037.000000,1673611171.324276,,,,
1673611171.384607,,,,20.458958,20.465975,5007988.000000,1673607075.503417
1673611171.384618,,,,20.362267,20.369907,5007989.000000,1673607075.504424
1673611171.384799,87.950165,4144038.000000,1673611171.325276,,,,
1673611171.384840,88.076790,4144039.000000,1673611171.326276,,,,
1673611171.384905,88.293869,4144040.000000,1673611171.327276,,,,
1673611171.385021,,,,20.256056,20.263889,5007990.000000,1673607075.505431
1673611171.385029,,,,20.087723,20.095125,5007991.000000,1673607075.506438
1673611171.385209,,,,19.912540,19.920567,5007992.000000,1673607075.507445
1673611171.385218,,,,19.890806,19.899723,5007993.000000,1673607075.508452
1673611171.385245,,,,19.961535,19.969032,5007994.000000,1673607075.509459
1673611171.386034,88.510956,4144041.000000,1673611171.328276,,,,
1673611171.386045,88.728027,4144042.000000,1673611171.329276,,,,
1673611171.386049,88.963203,4144043.000000,1673611171.330276,,,,
1673611171.386052,89.126015,4144044.000000,1673611171.331276,,,,
1673611171.386097,94.969131,4144087.000000,1673611171.374276,,,,
1673611171.386127,95.095757,4144088.000000,1673611171.375276,,,,
1673611171.386131,95.150017,4144089.000000,1673611171.376276,,,,
1673611171.386134,95.204308,4144090.000000,1673611171.377276,,,,
1673611171.386142,95.294746,4144091.000000,1673611171.378276,,,,
1673611171.386146,95.367104,4144092.000000,1673611171.379276,,,,
1673611171.386152,95.421371,4144093.000000,1673611171.380276,,,,
1673611171.386171,95.457565,4144094.000000,1673611171.381276,,,,
1673611171.386179,95.529922,4144095.000000,1673611171.382276,,,,
1673611171.386193,95.584190,4144096.000000,1673611171.383276,,,,
1673611171.388516,,,,20.076664,20.086807,5007995.000000,1673607075.510467
1673611171.388598,,,,20.191265,20.201023,5007996.000000,1673607075.511474
1673611171.388737,,,,20.242712,20.251268,5007997.000000,1673607075.512481
1673611171.388820,,,,20.271633,20.280790,5007998.000000,1673607075.513488
1673611171.391339,,,,20.266441,20.274731,5007999.000000,1673607075.514495
1673611171.391541,,,,20.307766,20.314928,5008000.000000,1673607075.515502
1673611171.391561,,,,20.279495,20.287161,5008001.000000,1673607075.516509
1673611171.391599,,,,20.140709,20.146547,5008002.000000,1673607075.517516
1673611171.391610,,,,20.082651,20.090219,5008003.000000,1673607075.518523
1673611171.391618,,,,20.106714,20.116449,5008004.000000,1673607075.519530
1673611171.391621,,,,20.021492,20.030767,5008005.000000,1673607075.520537
1673611171.398688,,,,19.967640,19.977566,5008006.000000,1673607075.521544
1673611171.398701,,,,20.035748,20.044111,5008007.000000,1673607075.522552
1673611171.398710,,,,20.197708,20.205446,5008008.000000,1673607075.523559
1673611171.404108,,,,20.350847,20.360580,5008009.000000,1673607075.524566
1673611171.404130,,,,20.475616,20.484245,5008010.000000,1673607075.525573
1673611171.404677,,,,20.620991,20.629475,5008011.000000,1673607075.526580
1673611171.404777,,,,20.734293,20.742319,5008012.000000,1673607075.527587
1673611171.411789,,,,20.784273,20.791483,5008013.000000,1673607075.528594
1673611171.412070,,,,20.835672,20.842810,5008014.000000,1673607075.529601
1673611171.412451,,,,20.885557,20.893536,5008015.000000,1673607075.530608
1673611171.412469,,,,20.813051,20.822664,5008016.000000,1673607075.531615
1673611171.413821,,,,20.672293,20.682339,5008017.000000,1673607075.532622
1673611171.414104,,,,20.524660,20.534369,5008018.000000,1673607075.533629
1673611171.414117,,,,20.348467,20.357214,5008019.000000,1673607075.534636
1673611171.414155,,,,20.247761,20.257421,5008020.000000,1673607075.535644
1673611171.414431,,,,20.154917,20.163761,5008021.000000,1673607075.536651
1673611171.414659,,,,20.106451,20.114237,5008022.000000,1673607075.537658
1673611171.418925,,,,20.144171,20.149431,5008023.000000,1673607075.538665
1673611171.419250,,,,20.218817,20.224054,5008024.000000,1673607075.539672
1673611171.419378,,,,20.298439,20.305624,5008025.000000,1673607075.540679
1673611171.419389,,,,20.399794,20.405872,5008026.000000,1673607075.541686
1673611171.419615,,,,20.462515,20.471384,5008027.000000,1673607075.542693
1673611171.420016,,,,20.432850,20.443304,5008028.000000,1673607075.543700
1673611171.420028,,,,20.329811,20.337694,5008029.000000,1673607075.544707
1673611171.421528,,,,20.241823,20.249489,5008030.000000,1673607075.545714
1673611171.421551,,,,20.179438,20.189268,5008031.000000,1673607075.546721
1673611171.421572,,,,20.135059,20.143759,5008032.000000,1673607075.547729
1673611171.421721,,,,20.118063,20.126352,5008033.000000,1673607075.548736
1673611171.434862,,,,20.078035,20.086710,5008034.000000,1673607075.549743
1673611171.435170,,,,20.109047,20.118467,5008035.000000,1673607075.550750
1673611171.435185,,,,20.213190,20.219173,5008036.000000,1673607075.551757
1673611171.435192,,,,20.328442,20.334400,5008037.000000,1673607075.552764
1673611171.448862,,,,20.430157,20.436020,5008038.000000,1673607075.553771
1673611171.449275,,,,20.505812,20.513670,5008039.000000,1673607075.554778
1673611171.449310,,,,20.637289,20.647167,5008040.000000,1673607075.555785
1673611171.452057,,,,20.842524,20.850119,5008041.000000,1673607075.556792
1673611171.452079,,,,20.868536,20.877523,5008042.000000,1673607075.557799
1673611171.452379,,,,20.710373,20.720707,5008043.000000,1673607075.558806
1673611171.452673,,,,20.622433,20.629906,5008044.000000,1673607075.559813
1673611171.452880,,,,20.594090,20.600409,5008045.000000,1673607075.560821
1673611171.452895,99.473572,4144148.000000,1673611171.439571,,,,
1673611171.452991,99.365036,4144149.000000,1673611171.440572,,,,
1673611171.453006,99.437393,4144150.000000,1673611171.441571,,,,
1673611171.453024,99.491661,4144151.000000,1673611171.442571,,,,
1673611171.453034,99.527840,4144152.000000,1673611171.443571,,,,
1673611171.453120,99.545921,4144153.000000,1673611171.444571,,,,
1673611171.453139,99.582100,4144154.000000,1673611171.445571,,,,
1673611171.453147,99.636391,4144155.000000,1673611171.446571,,,,
1673611171.453182,99.654472,4144156.000000,1673611171.447572,,,,
1673611171.453188,99.618279,4144157.000000,1673611171.448571,,,,
1673611171.453518,,,,20.536945,20.544273,5008046.000000,1673607075.561828
1673611171.453686,,,,20.502590,20.511459,5008047.000000,1673607075.562835
1673611171.458384,,,,20.505211,20.514200,5008048.000000,1673607075.563842
1673611171.458673,,,,20.517063,20.524273,5008049.000000,1673607075.564849
1673611171.458690,,,,20.502783,20.509464,5008050.000000,1673607075.565856
1673611171.463581,,,,20.496990,20.503862,5008051.000000,1673607075.566863
1673611171.463897,,,,20.485426,20.492947,5008052.000000,1673607075.567870
1673611171.464085,,,,20.425636,20.434961,5008053.000000,1673607075.568877
1673611171.464121,,,,20.357651,20.365292,5008054.000000,1673607075.569884
1673611171.464211,,,,20.284111,20.288435,5008055.000000,1673607075.570891
1673611171.466169,,,,20.207685,20.212297,5008056.000000,1673607075.571898
1673611171.466183,,,,20.113783,20.121281,5008057.000000,1673607075.572906
1673611171.466189,,,,19.977545,19.985909,5008058.000000,1673607075.573913
1673611171.471391,,,,19.870998,19.876619,5008059.000000,1673607075.574920
1673611171.471711,,,,19.728773,19.735743,5008060.000000,1673607075.575927
1673611171.471867,,,,19.596142,19.602005,5008061.000000,1673607075.576934
1673611171.472057,,,,19.523563,19.531494,5008062.000000,1673607075.577941
1673611171.472220,,,,19.615831,19.624771,5008063.000000,1673607075.578948
1673611171.472316,,,,19.802771,19.810341,5008064.000000,1673607075.579955
1673611171.472400,,,,20.056158,20.063391,5008065.000000,1673607075.580962
1673611171.473629,,,,20.309233,20.317331,5008066.000000,1673607075.581969
1673611171.473807,,,,20.598560,20.607237,5008067.000000,1673607075.582976
1673611171.473862,,,,20.847692,20.857090,5008068.000000,1673607075.583983
1673611171.474042,,,,20.973257,20.981236,5008069.000000,1673607075.584991
1673611171.478981,,,,21.053263,21.059559,5008070.000000,1673607075.585998
1673611171.479238,,,,20.962126,20.969406,5008071.000000,1673607075.587005
1673611171.479258,,,,20.752373,20.757851,5008072.000000,1673607075.588012
1673611171.481509,,,,20.629211,20.634499,5008073.000000,1673607075.589019
1673611171.481999,,,,20.565001,20.574301,5008074.000000,1673607075.590026
1673611171.482450,,,,20.510668,20.519176,5008075.000000,1673607075.591033
1673611171.482467,,,,20.472780,20.481096,5008076.000000,1673607075.592040
1673611171.482477,,,,20.476267,20.484581,5008077.000000,1673607075.593047
1673611171.482796,,,,20.475401,20.482731,5008078.000000,1673607075.594054
1673611171.483250,,,,20.453115,20.459002,5008079.000000,1673607075.595061
1673611171.483284,,,,20.433546,20.441189,5008080.000000,1673607075.596068
1673611171.495769,,,,20.364117,20.371326,5008081.000000,1673607075.597075
1673611171.495783,,,,20.353251,20.360435,5008082.000000,1673607075.598083
1673611171.495996,,,,20.360727,20.367264,5008083.000000,1673607075.599090
1673611171.496021,,,,20.392725,20.400728,5008084.000000,1673607075.600097
1673611171.496088,,,,20.423328,20.432318,5008085.000000,1673607075.601104
1673611171.496140,,,,20.435469,20.444794,5008086.000000,1673607075.602111
1673611171.496180,,,,20.470520,20.479532,5008087.000000,1673607075.603118
1673611171.496345,,,,20.493216,20.501362,5008088.000000,1673607075.604125
1673611171.496467,,,,20.518578,20.525715,5008089.000000,1673607075.605132
1673611171.496570,,,,20.529877,20.537230,5008090.000000,1673607075.606139
1673611171.496691,,,,20.494585,20.499559,5008091.000000,1673607075.607146
1673611171.496839,,,,20.466625,20.469580,5008092.000000,1673607075.608153
1673611171.496964,,,,20.457586,20.464891,5008093.000000,1673607075.609160
1673611171.502238,,,,20.430349,20.441404,5008094.000000,1673607075.610168
1673611171.502319,,,,20.394264,20.403301,5008095.000000,1673607075.611175
1673611171.502462,,,,20.359526,20.368994,5008096.000000,1673607075.612182
1673611171.502628,,,,20.282284,20.290478,5008097.000000,1673607075.613189
1673611171.510373,,,,20.196362,20.204412,5008098.000000,1673607075.614196
1673611171.510394,,,,20.172033,20.179771,5008099.000000,1673607075.615203
1673611171.510723,,,,20.157465,20.165226,5008100.000000,1673607075.616210
1673611171.510848,,,,20.168524,20.177584,5008101.000000,1673607075.617217
1673611171.516591,,,,20.232904,20.241243,5008102.000000,1673607075.618224
1673611171.516607,99.690651,4144158.000000,1673611171.455508,,,,
1673611171.516810,99.690651,4144159.000000,1673611171.456508,,,,
1673611171.516826,99.708740,4144160.000000,1673611171.457508,,,,
1673611171.517123,99.690651,4144161.000000,1673611171.458508,,,,
1673611171.517205,,,,20.248770,20.256533,5008103.000000,1673607075.619231
1673611171.517599,,,,20.197468,20.206697,5008104.000000,1673607075.620238
1673611171.517741,99.690651,4144162.000000,1673611171.459508,,,,
1673611171.517840,,,,20.195833,20.205446,5008105.000000,1673607075.621245
1673611171.517878,,,,20.279446,20.287689,5008106.000000,1673607075.622252
1673611171.517894,,,,20.328297,20.337164,5008107.000000,1673607075.623260
1673611171.518698,99.690651,4144163.000000,1673611171.460508,,,,
1673611171.518710,99.744919,4144164.000000,1673611171.461508,,,,
1673611171.518720,99.744919,4144165.000000,1673611171.462508,,,,
1673611171.518749,99.726830,4144166.000000,1673611171.463508,,,,
1673611171.518759,98.026360,4144209.000000,1673611171.506508,,,,
1673611171.518768,98.008270,4144210.000000,1673611171.507508,,,,
1673611171.518775,97.881630,4144211.000000,1673611171.508508,,,,
1673611171.518782,97.827362,4144212.000000,1673611171.509508,,,,
1673611171.518787,97.773102,4144213.000000,1673611171.510508,,,,
1673611171.518840,97.773102,4144214.000000,1673611171.511508,,,,
1673611171.518860,97.682655,4144215.000000,1673611171.512508,,,,
1673611171.518864,97.664551,4144216.000000,1673611171.513508,,,,
1673611171.518882,97.574104,4144217.000000,1673611171.514508,,,,
1673611171.518897,97.537926,4144218.000000,1673611171.515508,,,,
1673611171.523811,,,,20.374407,20.382986,5008108.000000,1673607075.624267
1673611171.523939,,,,20.423138,20.433519,5008109.000000,1673607075.625274
1673611171.523955,,,,20.420059,20.431139,5008110.000000,1673607075.626281
1673611171.523991,,,,20.388735,20.399261,5008111.000000,1673607075.627288
1673611171.526161,,,,20.330725,20.338247,5008112.000000,1673607075.628295
1673611171.526178,,,,20.292645,20.299614,5008113.000000,1673607075.629302
1673611171.526190,,,,20.307718,20.317091,5008114.000000,1673607075.630309
1673611171.531227,,,,20.341808,20.350435,5008115.000000,1673607075.631316
1673611171.531611,,,,20.334404,20.339977,5008116.000000,1673607075.632323
1673611171.531947,,,,20.313704,20.321899,5008117.000000,1673607075.633330
1673611171.532122,,,,20.239996,20.249947,5008118.000000,1673607075.634337
1673611171.532420,,,,20.107100,20.117313,5008119.000000,1673607075.635345
1673611171.533478,,,,20.039257,20.050745,5008120.000000,1673607075.636352
1673611171.533781,,,,20.026852,20.032547,5008121.000000,1673607075.637359
1673611171.533996,,,,19.984999,19.990259,5008122.000000,1673607075.638366
1673611171.539450,,,,19.902298,19.909195,5008123.000000,1673607075.639373
1673611171.540087,,,,19.836931,19.841930,5008124.000000,1673607075.640380
1673611171.540110,,,,19.879940,19.886574,5008125.000000,1673607075.641387
1673611171.540327,,,,20.051182,20.058487,5008126.000000,1673607075.642394
1673611171.540483,,,,20.230692,20.238838,5008127.000000,1673607075.643401
1673611171.540940,,,,20.391644,20.402075,5008128.000000,1673607075.644408
1673611171.540955,,,,20.638493,20.645725,5008129.000000,1673607075.645415
1673611171.540962,,,,20.865194,20.873701,5008130.000000,1673607075.646422
1673611171.541768,,,,20.952919,20.960032,5008131.000000,1673607075.647429
1673611171.541794,,,,20.951019,20.958229,5008132.000000,1673607075.648437
1673611171.541878,,,,20.950394,20.960585,5008133.000000,1673607075.649444
1673611171.542245,,,,20.878536,20.887115,5008134.000000,1673607075.650451
1673611171.542277,,,,20.744125,20.751528,5008135.000000,1673607075.651458
1673611171.542492,,,,20.566898,20.570671,5008136.000000,1673607075.652465
1673611171.555001,,,,20.279976,20.283459,5008137.000000,1673607075.653472
1673611171.555017,,,,20.084381,20.092072,5008138.000000,1673607075.654479
1673611171.555227,,,,20.068659,20.077143,5008139.000000,1673607075.655486
1673611171.555353,,,,20.107918,20.113588,5008140.000000,1673607075.656493
1673611171.560943,97.537926,4144219.000000,1673611171.500336,,,,
1673611171.561857,97.483658,4144220.000000,1673611171.501336,,,,
1673611171.561875,97.302750,4144221.000000,1673611171.502336,,,,
1673611171.561881,97.429390,4144222.000000,1673611171.503336,,,,
1673611171.561885,97.393196,4144223.000000,1673611171.504336,,,,
1673611171.561890,97.393196,4144224.000000,1673611171.505336,,,,
1673611171.561948,99.184128,4144270.000000,1673611171.551336,,,,
1673611171.561969,99.166039,4144271.000000,1673611171.552336,,,,
1673611171.562006,99.220306,4144272.000000,1673611171.553336,,,,
1673611171.562011,99.184128,4144273.000000,1673611171.554336,,,,
1673611171.562017,99.238396,4144274.000000,1673611171.555336,,,,
1673611171.562019,99.184128,4144275.000000,1673611171.556336,,,,
1673611171.562030,99.220306,4144276.000000,1673611171.557336,,,,
1673611171.562035,99.147949,4144277.000000,1673611171.558336,,,,
1673611171.562043,99.166039,4144278.000000,1673611171.559336,,,,
1673611171.562056,99.202217,4144279.000000,1673611171.560336,,,,
1673611171.562216,,,,20.076231,20.083008,5008141.000000,1673607075.657500
1673611171.562357,,,,20.132679,20.141764,5008142.000000,1673607075.658507
1673611171.562479,,,,20.288822,20.298941,5008143.000000,1673607075.659514
1673611171.568698,,,,20.399506,20.405151,5008144.000000,1673607075.660522
1673611171.568891,,,,20.463428,20.471046,5008145.000000,1673607075.661529
1673611171.568964,,,,20.512280,20.522085,5008146.000000,1673607075.662536
1673611171.568980,,,,20.577694,20.586969,5008147.000000,1673607075.663543
1673611171.571065,,,,20.715229,20.725660,5008148.000000,1673607075.664550
1673611171.571414,,,,20.862646,20.874687,5008149.000000,1673607075.665557
1673611171.571962,,,,20.905367,20.916758,5008150.000000,1673607075.666564
1673611171.572007,,,,20.764681,20.773212,5008151.000000,1673607075.667571
1673611171.576440,,,,20.615870,20.620554,5008152.000000,1673607075.668578
1673611171.576535,,,,20.488791,20.495064,5008153.000000,1673607075.669585
1673611171.576842,,,,20.414675,20.420826,5008154.000000,1673607075.670592
1673611171.578775,,,,20.374382,20.383202,5008155.000000,1673607075.671599
1673611171.579023,,,,20.335148,20.345819,5008156.000000,1673607075.672606
1673611171.579034,,,,20.322960,20.334352,5008157.000000,1673607075.673614
1673611171.584076,,,,20.368229,20.376711,5008158.000000,1673607075.674621
1673611171.584307,,,,20.425396,20.432919,5008159.000000,1673607075.675628
1673611171.584327,,,,20.442657,20.450323,5008160.000000,1673607075.676635
1673611171.584447,,,,20.448402,20.457560,5008161.000000,1673607075.677642
1673611171.586544,,,,20.486795,20.496218,5008162.000000,1673607075.678649
1673611171.586577,,,,20.514803,20.525307,5008163.000000,1673607075.679656
1673611171.586904,,,,20.509106,20.519224,5008164.000000,1673607075.680663
1673611171.587108,,,,20.492445,20.500040,5008165.000000,1673607075.681670
1673611171.591282,,,,20.460207,20.466431,5008166.000000,1673607075.682677
1673611171.591298,,,,20.432610,20.439985,5008167.000000,1673607075.683684
1673611171.591464,,,,20.407246,20.417580,5008168.000000,1673607075.684691
1673611171.593699,,,,20.393496,20.400560,5008169.000000,1673607075.685699
1673611171.593709,,,,20.399456,20.406906,5008170.000000,1673607075.686706
1673611171.593731,,,,20.426382,20.432028,5008171.000000,1673607075.687713
1673611171.593736,,,,20.414194,20.420753,5008172.000000,1673607075.688720
1673611171.598840,,,,20.410755,20.418180,5008173.000000,1673607075.689727
1673611171.599096,,,,20.464174,20.469700,5008174.000000,1673607075.690734
1673611171.599107,,,,20.500019,20.503117,5008175.000000,1673607075.691741
1673611171.599118,,,,20.501436,20.505760,5008176.000000,1673607075.692748
1673611171.599258,,,,20.477829,20.487995,5008177.000000,1673607075.693755
1673611171.599330,,,,20.422224,20.430443,5008178.000000,1673607075.694762
1673611171.606510,,,,20.358131,20.365652,5008179.000000,1673607075.695769
1673611171.606769,,,,20.295240,20.305286,5008180.000000,1673607075.696776
1673611171.607126,,,,20.297718,20.304638,5008181.000000,1673607075.697783
1673611171.607143,,,,20.308704,20.316273,5008182.000000,1673607075.698791
1673611171.607153,,,,20.289591,20.299397,5008183.000000,1673607075.699798
1673611171.607160,,,,20.256657,20.266485,5008184.000000,1673607075.700805
1673611171.607178,,,,20.199873,20.208740,5008185.000000,1673607075.701812
1673611171.607181,,,,20.028944,20.036274,5008186.000000,1673607075.702819
1673611171.608437,,,,19.841427,19.848108,5008187.000000,1673607075.703826
1673611171.608543,,,,19.770245,19.776876,5008188.000000,1673607075.704833
1673611171.608639,,,,19.757479,19.765673,5008189.000000,1673607075.705840
1673611171.623589,,,,19.743919,19.753460,5008190.000000,1673607075.706847
1673611171.623616,,,,19.768320,19.777645,5008191.000000,1673607075.707854
1673611171.623627,,,,19.813589,19.821302,5008192.000000,1673607075.708861
1673611171.623667,,,,19.970358,19.978287,5008193.000000,1673607075.709868
1673611171.630279,,,,20.206532,20.214725,5008194.000000,1673607075.710876
1673611171.630650,,,,20.397053,20.403204,5008195.000000,1673607075.711883
1673611171.630840,,,,20.576803,20.584133,5008196.000000,1673607075.712890
1673611171.631155,,,,20.785788,20.796339,5008197.000000,1673607075.713897
1673611171.631237,,,,20.934792,20.944670,5008198.000000,1673607075.714904
1673611171.631472,,,,20.933350,20.940269,5008199.000000,1673607075.715911
1673611171.631540,,,,20.856155,20.864206,5008200.000000,1673607075.716918
1673611171.635685,99.202217,4144280.000000,1673611171.574869,,,,
1673611171.636108,,,,20.808796,20.816124,5008201.000000,1673607075.717925
1673611171.636246,99.166039,4144285.000000,1673611171.579869,,,,
1673611171.636688,,,,20.807329,20.815403,5008202.000000,1673607075.718932
1673611171.636782,,,,20.791222,20.799320,5008203.000000,1673607075.719939
1673611171.637651,99.184128,4144286.000000,1673611171.580869,,,,
1673611171.637690,99.166039,4144287.000000,1673611171.581869,,,,
1673611171.638018,99.166039,4144288.000000,1673611171.582869,,,,
1673611171.638031,99.184128,4144289.000000,1673611171.583869,,,,
1673611171.638062,99.147949,4144290.000000,1673611171.584869,,,,
1673611171.638072,99.147949,4144291.000000,1673611171.585869,,,,
1673611171.638081,99.129860,4144292.000000,1673611171.586869,,,,
1673611171.638096,99.021309,4144293.000000,1673611171.587869,,,,
1673611171.638104,99.093681,4144294.000000,1673611171.588869,,,,
1673611171.638164,98.587158,4144331.000000,1673611171.625869,,,,
1673611171.638179,98.550980,4144332.000000,1673611171.626869,,,,
1673611171.638215,98.569069,4144333.000000,1673611171.627869,,,,
1673611171.638243,98.514786,4144334.000000,1673611171.628869,,,,
1673611171.638251,98.478607,4144335.000000,1673611171.629869,,,,
1673611171.638271,98.442429,4144336.000000,1673611171.630869,,,,
1673611171.638279,98.514786,4144337.000000,1673611171.631869,,,,
1673611171.638299,98.460518,4144338.000000,1673611171.632869,,,,
1673611171.638306,98.442429,4144339.000000,1673611171.633869,,,,
1673611171.638328,98.370071,4144340.000000,1673611171.634869,,,,
1673611171.644175,,,,20.705421,20.712196,5008204.000000,1673607075.720946
1673611171.644189,,,,20.571659,20.576801,5008205.000000,1673607075.721953
1673611171.644200,,,,20.475328,20.482634,5008206.000000,1673607075.722960
1673611171.644215,,,,20.422825,20.430706,5008207.000000,1673607075.723968
1673611171.644326,,,,20.384647,20.394791,5008208.000000,1673607075.724975
1673611171.644384,,,,20.355055,20.363922,5008209.000000,1673607075.725982
1673611171.644604,,,,20.327528,20.332500,5008210.000000,1673607075.726989
1673611171.646505,,,,20.302622,20.307066,5008211.000000,1673607075.727996
1673611171.646647,,,,20.284975,20.292330,5008212.000000,1673607075.729003
1673611171.646854,,,,20.269541,20.277712,5008213.000000,1673607075.730010
1673611171.646922,,,,20.235332,20.243814,5008214.000000,1673607075.731017
1673611171.646930,,,,20.189775,20.197802,5008215.000000,1673607075.732024
1673611171.647105,,,,20.163258,20.171213,5008216.000000,1673607075.733031
1673611171.647323,,,,20.142151,20.151691,5008217.000000,1673607075.734038
1673611171.647509,,,,20.130756,20.141283,5008218.000000,1673607075.735045
1673611171.647738,,,,20.141405,20.150322,5008219.000000,1673607075.736053
1673611171.647747,,,,20.208599,20.216192,5008220.000000,1673607075.737060
1673611171.647835,,,,20.350990,20.358320,5008221.000000,1673607075.738067
1673611171.647889,,,,20.514322,20.522781,5008222.000000,1673607075.739074
1673611171.651374,,,,20.651089,20.658659,5008223.000000,1673607075.740081
1673611171.651465,,,,20.715950,20.721357,5008224.000000,1673607075.741088
1673611171.651767,,,,20.725567,20.733906,5008225.000000,1673607075.742095
1673611171.651783,,,,20.711382,20.717726,5008226.000000,1673607075.743102
1673611171.651792,,,,20.740110,20.746912,5008227.000000,1673607075.744109
1673611171.652035,,,,20.705542,20.716043,5008228.000000,1673607075.745116
1673611171.652234,,,,20.617865,20.624859,5008229.000000,1673607075.746123
1673611171.654024,,,,20.554808,20.559252,5008230.000000,1673607075.747130
1673611171.654153,,,,20.508312,20.514969,5008231.000000,1673607075.748137
1673611171.654172,,,,20.433186,20.439194,5008232.000000,1673607075.749145
1673611171.654370,,,,20.335100,20.340002,5008233.000000,1673607075.750152
1673611171.654876,,,,20.216219,20.221819,5008234.000000,1673607075.751159
1673611171.654896,,,,20.156864,20.162270,5008235.000000,1673607075.752166
1673611171.660083,,,,20.153234,20.158495,5008236.000000,1673607075.753173
1673611171.661112,,,,20.186049,20.195446,5008237.000000,1673607075.754180
1673611171.661414,,,,20.219465,20.227589,5008238.000000,1673607075.755187
1673611171.661425,,,,20.325773,20.335987,5008239.000000,1673607075.756194
1673611171.661715,,,,20.409626,20.420177,5008240.000000,1673607075.757201
1673611171.661931,,,,20.494730,20.502491,5008241.000000,1673607075.758208
1673611171.661946,,,,20.542162,20.550694,5008242.000000,1673607075.759215
1673611171.661969,,,,20.557716,20.565069,5008243.000000,1673607075.760222
1673611171.662174,,,,20.544422,20.550764,5008244.000000,1673607075.761230
1673611171.663445,,,,20.534733,20.544466,5008245.000000,1673607075.762237
1673611171.663464,,,,20.488430,20.496794,5008246.000000,1673607075.763244
1673611171.663479,,,,20.433233,20.439890,5008247.000000,1673607075.764251
1673611171.663488,,,,20.167513,20.176405,5008251.000000,1673607075.768279
1673611171.663533,,,,20.203983,20.212082,5008252.000000,1673607075.769286
1673611171.663658,,,,20.210522,20.219366,5008253.000000,1673607075.770293
1673611171.663701,,,,20.179365,20.186502,5008254.000000,1673607075.771300
1673611171.663838,,,,20.169991,20.178497,5008255.000000,1673607075.772307
1673611171.663853,,,,20.258099,20.264563,5008256.000000,1673607075.773314
1673611171.663871,,,,20.404890,20.413975,5008257.000000,1673607075.774322
1673611171.663975,,,,20.509706,20.516699,5008258.000000,1673607075.775329
1673611171.663984,,,,20.566828,20.576464,5008259.000000,1673607075.776336
1673611171.664023,,,,20.652628,20.659718,5008260.000000,1673607075.777343
1673611171.666262,,,,20.669912,20.674959,5008261.000000,1673607075.778350
1673611171.666782,,,,20.541391,20.548386,5008262.000000,1673607075.779357
1673611171.666876,,,,20.405899,20.414288,5008263.000000,1673607075.780364
1673611171.666934,,,,20.378494,20.386713,5008264.000000,1673607075.781371
1673611171.669493,,,,20.392412,20.399357,5008265.000000,1673607075.782378
1673611171.669736,,,,20.408737,20.418663,5008266.000000,1673607075.783385
1673611171.669928,,,,20.413160,20.421715,5008267.000000,1673607075.784392
1673611171.670198,,,,20.397486,20.403324,5008268.000000,1673607075.785399
1673611171.670531,,,,20.315628,20.321466,5008269.000000,1673607075.786407
1673611171.670539,,,,20.231173,20.235714,5008270.000000,1673607075.787414
1673611171.670728,,,,20.237736,20.244272,5008271.000000,1673607075.788421
1673611171.670962,,,,20.260695,20.269201,5008272.000000,1673607075.789428
1673611171.671185,,,,20.323753,20.331011,5008273.000000,1673607075.790435
1673611171.671197,,,,20.388519,20.397146,5008274.000000,1673607075.791442
1673611171.671360,,,,20.411598,20.419577,5008275.000000,1673607075.792449
1673611171.671497,,,,20.488720,20.495352,5008276.000000,1673607075.793456
1673611171.671763,,,,20.547066,20.553265,5008277.000000,1673607075.794463
1673611171.672001,,,,20.557524,20.564829,5008278.000000,1673607075.795470
1673611171.672017,,,,20.545576,20.550573,5008279.000000,1673607075.796477
1673611171.682522,,,,20.514130,20.520426,5008280.000000,1673607075.797484
1673611171.683123,,,,20.485594,20.493019,5008281.000000,1673607075.798491
1673611171.683139,,,,20.505692,20.514751,5008282.000000,1673607075.799499
1673611171.683146,,,,20.502710,20.509199,5008283.000000,1673607075.800506
1673611171.683150,,,,20.491964,20.499630,5008284.000000,1673607075.801513
1673611171.683180,,,,20.506029,20.513550,5008285.000000,1673607075.802520
1673611171.690665,98.406250,4144344.000000,1673611171.632918,,,,
1673611171.690836,98.297714,4144345.000000,1673611171.633918,,,,
1673611171.691011,,,,20.520237,20.525089,5008286.000000,1673607075.803527
1673611171.691115,,,,20.484440,20.494270,5008287.000000,1673607075.804534
1673611171.691146,,,,20.430950,20.439384,5008288.000000,1673607075.805541
1673611171.691241,,,,20.417776,20.423830,5008289.000000,1673607075.806548
1673611171.691248,,,,20.396259,20.405584,5008290.000000,1673607075.807555
1673611171.691253,,,,20.390995,20.399694,5008291.000000,1673607075.808562
1673611171.691270,,,,20.428064,20.434866,5008292.000000,1673607075.809569
1673611171.691382,,,,20.472492,20.476864,5008293.000000,1673607075.810576
1673611171.691393,98.261536,4144346.000000,1673611171.634918,,,,
1673611171.691509,,,,20.455519,20.459820,5008294.000000,1673607075.811584
1673611171.691565,98.189163,4144347.000000,1673611171.635918,,,,
1673611171.691729,,,,20.416357,20.422245,5008295.000000,1673607075.812591
1673611171.691733,,,,20.389721,20.398155,5008296.000000,1673607075.813598
1673611171.691872,98.243446,4144348.000000,1673611171.636918,,,,
1673611171.691876,98.189163,4144349.000000,1673611171.637918,,,,
1673611171.691890,98.189163,4144350.000000,1673611171.638918,,,,
1673611171.691893,98.080627,4144351.000000,1673611171.639918,,,,
1673611171.691900,98.044449,4144352.000000,1673611171.640918,,,,
1673611171.691914,97.990181,4144353.000000,1673611171.641918,,,,
1673611171.691916,96.416336,4144392.000000,1673611171.680918,,,,
1673611171.691945,96.434425,4144393.000000,1673611171.681918,,,,
1673611171.691949,96.416336,4144394.000000,1673611171.682918,,,,
1673611171.691954,96.398247,4144395.000000,1673611171.683918,,,,
1673611171.691959,96.398247,4144396.000000,1673611171.684918,,,,
1673611171.691976,96.343979,4144397.000000,1673611171.685918,,,,
1673611171.691979,96.307800,4144398.000000,1673611171.686918,,,,
1673611171.691981,96.343979,4144399.000000,1673611171.687918,,,,
1673611171.692041,96.362068,4144400.000000,1673611171.688918,,,,
1673611171.692044,96.289711,4144401.000000,1673611171.689918,,,,
1673611171.699002,,,,20.363781,20.372433,5008297.000000,1673607075.814605
1673611171.699022,,,,20.269278,20.277016,5008298.000000,1673607075.815612
1673611171.699046,,,,20.186867,20.193834,5008299.000000,1673607075.816619
1673611171.699140,,,,20.131645,20.141354,5008300.000000,1673607075.817626
1673611171.699353,,,,20.033440,20.043388,5008301.000000,1673607075.818633
1673611171.699662,,,,19.862776,19.870899,5008302.000000,1673607075.819640
1673611171.699736,,,,19.745193,19.753532,5008303.000000,1673607075.820647
1673611171.699914,,,,19.743101,19.748461,5008304.000000,1673607075.821654
1673611171.703571,,,,19.853640,19.860489,5008305.000000,1673607075.822661
1673611171.703768,,,,19.996418,20.006271,5008306.000000,1673607075.823668
1673611171.706350,,,,20.187731,20.198500,5008307.000000,1673607075.824676
1673611171.706468,,,,20.448212,20.459412,5008308.000000,1673607075.825683
1673611171.706521,,,,20.730062,20.737247,5008309.000000,1673607075.826690
1673611171.706671,,,,20.925993,20.932962,5008310.000000,1673607075.827697
1673611171.706948,,,,20.977943,20.985538,5008311.000000,1673607075.828704
1673611171.707082,,,,20.888754,20.896877,5008312.000000,1673607075.829711
1673611171.707311,,,,20.844736,20.852522,5008313.000000,1673607075.830718
1673611171.707325,,,,20.804108,20.811508,5008314.000000,1673607075.831725
1673611171.711734,,,,20.658445,20.664885,5008315.000000,1673607075.832732
1673611171.711907,,,,20.518866,20.525209,5008316.000000,1673607075.833739
1673611171.711919,,,,20.458933,20.467537,5008317.000000,1673607075.834746
1673611171.712324,,,,20.418665,20.425922,5008318.000000,1673607075.835753
1673611171.712343,,,,20.385225,20.393299,5008319.000000,1673607075.836761
1673611171.712605,,,,20.394720,20.401882,5008320.000000,1673607075.837768
1673611171.712619,,,,20.413593,20.421354,5008321.000000,1673607075.838775
1673611171.713501,,,,20.401091,20.411066,5008322.000000,1673607075.839782
1673611171.713694,,,,20.390923,20.400656,5008323.000000,1673607075.840789
1673611171.714076,,,,20.416790,20.426428,5008324.000000,1673607075.841796
1673611171.714088,,,,20.464222,20.473186,5008325.000000,1673607075.842803
1673611171.718890,,,,20.505571,20.514704,5008326.000000,1673607075.843810
1673611171.719290,,,,20.537739,20.546028,5008327.000000,1673607075.844817
1673611171.720089,,,,20.541801,20.548769,5008328.000000,1673607075.845824
1673611171.720103,,,,20.556610,20.562233,5008329.000000,1673607075.846831
1673611171.720108,,,,20.536993,20.544153,5008330.000000,1673607075.847838
1673611171.720210,,,,20.484247,20.492395,5008331.000000,1673607075.848845
1673611171.720708,,,,20.425877,20.432150,5008332.000000,1673607075.849853
1673611171.721314,,,,20.359526,20.366856,5008333.000000,1673607075.850860
1673611171.721675,,,,20.220211,20.226505,5008334.000000,1673607075.851867
1673611171.722005,,,,20.140949,20.150034,5008335.000000,1673607075.852874
1673611171.722585,,,,20.208046,20.215256,5008336.000000,1673607075.853881
1673611171.722607,,,,20.236870,20.244200,5008337.000000,1673607075.854888
1673611171.722630,,,,20.220234,20.227779,5008338.000000,1673607075.855895
1673611171.726429,,,,20.215090,20.227949,5008339.000000,1673607075.856902
1673611171.726529,,,,20.194487,20.203091,5008340.000000,1673607075.857909
1673611171.726878,,,,20.146599,20.154530,5008341.000000,1673607075.858916
1673611171.727060,,,,20.088251,20.098562,5008342.000000,1673607075.859923
1673611171.727224,,,,20.008629,20.016176,5008343.000000,1673607075.860930
1673611171.727406,,,,20.000095,20.008074,5008344.000000,1673607075.861938
1673611171.727654,,,,20.066784,20.077358,5008345.000000,1673607075.862945
1673611171.727820,,,,20.086208,20.094355,5008346.000000,1673607075.863952
1673611171.728595,,,,20.098373,20.106808,5008347.000000,1673607075.864959
1673611171.728608,,,,20.210546,20.216890,5008348.000000,1673607075.865966
1673611171.728679,,,,20.377941,20.384766,5008349.000000,1673607075.866973
1673611171.742624,,,,20.538773,20.545597,5008350.000000,1673607075.867980
1673611171.742851,,,,20.666956,20.673275,5008351.000000,1673607075.868987
1673611171.743056,,,,20.804060,20.811245,5008352.000000,1673607075.869994
1673611171.743283,,,,20.918421,20.929501,5008353.000000,1673607075.871001
1673611171.743384,,,,20.924862,20.937073,5008354.000000,1673607075.872008
1673611171.743530,,,,20.772951,20.780136,5008355.000000,1673607075.873015
1673611171.743720,,,,20.551947,20.557905,5008356.000000,1673607075.874022
1673611171.743776,,,,20.333994,20.340891,5008357.000000,1673607075.875030
1673611171.749942,,,,20.163620,20.170612,5008358.000000,1673607075.876037
1673611171.749955,,,,20.004904,20.010983,5008359.000000,1673607075.877044
1673611171.749968,,,,19.883980,19.891453,5008360.000000,1673607075.878051
1673611171.755741,96.723869,4144453.000000,1673611171.745018,,,,
1673611171.755759,96.687691,4144454.000000,1673611171.746018,,,,
1673611171.755765,96.723869,4144455.000000,1673611171.747018,,,,
1673611171.755770,96.741959,4144456.000000,1673611171.748018,,,,
1673611171.755818,96.705780,4144457.000000,1673611171.749018,,,,
1673611171.755829,96.778137,4144458.000000,1673611171.750018,,,,
1673611171.755836,96.778137,4144459.000000,1673611171.751018,,,,
1673611171.755876,96.778137,4144460.000000,1673611171.752018,,,,
1673611171.755893,96.850510,4144461.000000,1673611171.753018,,,,
1673611171.755899,96.796227,4144462.000000,1673611171.754018,,,,
1673611171.756162,,,,19.857199,19.867027,5008361.000000,1673607075.879058
1673611171.756367,,,,19.908646,19.918547,5008362.000000,1673607075.880065
1673611171.756563,,,,19.988388,19.996149,5008363.000000,1673607075.881072
1673611171.759072,,,,20.105417,20.111664,5008364.000000,1673607075.882079
1673611171.759089,,,,20.238264,20.243767,5008365.000000,1673607075.883086
1673611171.759095,,,,20.370127,20.378756,5008366.000000,1673607075.884093
1673611171.759364,,,,20.528843,20.536606,5008367.000000,1673607075.885100
1673611171.759446,,,,20.681259,20.688829,5008368.000000,1673607075.886107
1673611171.759695,,,,20.755377,20.763308,5008369.000000,1673607075.887115
1673611171.759912,,,,20.799082,20.806364,5008370.000000,1673607075.888122
1673611171.764095,,,,20.821297,20.827543,5008371.000000,1673607075.889129
1673611171.764105,,,,20.817041,20.821581,5008372.000000,1673607075.890136
1673611171.764111,,,,20.759296,20.764317,5008373.000000,1673607075.891143
1673611171.764471,,,,20.646641,20.653275,5008374.000000,1673607075.892150
1673611171.764792,,,,20.534733,20.542231,5008375.000000,1673607075.893157
1673611171.765125,,,,20.470570,20.476431,5008376.000000,1673607075.894164
1673611171.765438,,,,20.401981,20.409431,5008377.000000,1673607075.895171
1673611171.765889,,,,20.322311,20.330986,5008378.000000,1673607075.896178
1673611171.766361,,,,20.322840,20.331852,5008379.000000,1673607075.897185
1673611171.767017,,,,20.373734,20.382528,5008380.000000,1673607075.898192
1673611171.767244,,,,20.403761,20.411980,5008381.000000,1673607075.899199
1673611171.767268,,,,20.380512,20.389597,5008382.000000,1673607075.900207
1673611171.771344,,,,20.344765,20.351109,5008383.000000,1673607075.901214
1673611171.771748,,,,20.351976,20.359449,5008384.000000,1673607075.902221
1673611171.771761,,,,20.378950,20.387096,5008385.000000,1673607075.903228
1673611171.773830,,,,20.418039,20.425274,5008386.000000,1673607075.904235
1673611171.773922,,,,20.394817,20.403517,5008387.000000,1673607075.905242
1673611171.774035,,,,20.345966,20.353344,5008388.000000,1673607075.906249
1673611171.778874,,,,20.306950,20.313461,5008389.000000,1673607075.907256
1673611171.779469,,,,20.280264,20.287041,5008390.000000,1673607075.908263
1673611171.779616,,,,20.243313,20.251989,5008391.000000,1673607075.909270
1673611171.779628,,,,20.192299,20.200783,5008392.000000,1673607075.910277
1673611171.779672,,,,20.172802,20.181839,5008393.000000,1673607075.911284
1673611171.780996,,,,20.199488,20.207561,5008394.000000,1673607075.912292
1673611171.781255,,,,20.235525,20.247229,5008395.000000,1673607075.913299
1673611171.787603,,,,20.286226,20.296776,5008396.000000,1673607075.914306
1673611171.787615,,,,20.420036,20.425827,5008397.000000,1673607075.915313
1673611171.787696,,,,20.472252,20.480398,5008398.000000,1673607075.916320
1673611171.787800,,,,20.511005,20.521652,5008399.000000,1673607075.917327
1673611171.787813,,,,20.528770,20.536413,5008400.000000,1673607075.918334
1673611171.787817,,,,20.513409,20.520401,5008401.000000,1673607075.919341
1673611171.787876,,,,20.508865,20.515955,5008402.000000,1673607075.920348
1673611171.787885,,,,20.539204,20.546726,5008403.000000,1673607075.921355
1673611171.788762,,,,20.524107,20.531219,5008404.000000,1673607075.922362
1673611171.788949,,,,20.464655,20.473330,5008405.000000,1673607075.923369
1673611171.789020,,,,20.417992,20.425489,5008406.000000,1673607075.924376
1673611171.802657,,,,20.442802,20.450010,5008407.000000,1673607075.925384
1673611171.802754,,,,20.477011,20.484221,5008408.000000,1673607075.926391
1673611171.802892,,,,20.500835,20.506891,5008409.000000,1673607075.927398
1673611171.803267,,,,20.453621,20.459940,5008410.000000,1673607075.928405
1673611171.803283,,,,20.357746,20.364618,5008411.000000,1673607075.929412
1673611171.803292,,,,20.288149,20.296368,5008412.000000,1673607075.930419
1673611171.803296,,,,20.316181,20.325241,5008413.000000,1673607075.931426
1673611171.803310,,,,20.402269,20.408518,5008414.000000,1673607075.932433
1673611171.816326,,,,20.490137,20.497034,5008415.000000,1673607075.933440
1673611171.816392,,,,20.508217,20.515450,5008416.000000,1673607075.934447
1673611171.816824,,,,20.474342,20.482634,5008417.000000,1673607075.935454
1673611171.817099,,,,20.433426,20.442102,5008418.000000,1673607075.936461
1673611171.818488,,,,20.336109,20.344185,5008419.000000,1673607075.937469
1673611171.818869,,,,20.280384,20.287642,5008420.000000,1673607075.938476
1673611171.819385,96.886688,4144463.000000,1673611171.758302,,,,
1673611171.819397,96.886688,4144464.000000,1673611171.759302,,,,
1673611171.820063,96.922867,4144465.000000,1673611171.760302,,,,
1673611171.821094,96.886688,4144466.000000,1673611171.761302,,,,
1673611171.821115,96.959038,4144467.000000,1673611171.762302,,,,
1673611171.821155,98.659515,4144514.000000,1673611171.809302,,,,
1673611171.821225,98.677605,4144515.000000,1673611171.810302,,,,
1673611171.821235,98.749954,4144516.000000,1673611171.811302,,,,
1673611171.821243,98.768044,4144517.000000,1673611171.812302,,,,
1673611171.821260,98.768044,4144518.000000,1673611171.813302,,,,
1673611171.821341,98.822327,4144519.000000,1673611171.814302,,,,
1673611171.821347,98.840416,4144520.000000,1673611171.815302,,,,
1673611171.821388,98.948952,4144521.000000,1673611171.816302,,,,
1673611171.821398,98.967041,4144522.000000,1673611171.817302,,,,
1673611171.821404,98.985130,4144523.000000,1673611171.818302,,,,
1673611171.824379,,,,20.271729,20.279877,5008421.000000,1673607075.939483
1673611171.824558,,,,20.205954,20.214077,5008422.000000,1673607075.940490
1673611171.824730,,,,20.084646,20.088634,5008423.000000,1673607075.941497
1673611171.824743,,,,19.997187,20.003603,5008424.000000,1673607075.942504
1673611171.824808,,,,20.014208,20.022089,5008425.000000,1673607075.943511
1673611171.824945,,,,20.057552,20.065891,5008426.000000,1673607075.944518
1673611171.824953,,,,20.097580,20.106424,5008427.000000,1673607075.945525
1673611171.826063,,,,20.120298,20.127026,5008428.000000,1673607075.946532
1673611171.826347,,,,20.214994,20.221458,5008429.000000,1673607075.947539
1673611171.826361,,,,20.342192,20.351637,5008430.000000,1673607075.948546
1673611171.826589,,,,20.418209,20.426908,5008431.000000,1673607075.949553
1673611171.831043,,,,20.474440,20.483908,5008432.000000,1673607075.950561
1673611171.831282,,,,20.514420,20.525234,5008433.000000,1673607075.951568
1673611171.831752,,,,20.521992,20.529778,5008434.000000,1673607075.952575
1673611171.831772,,,,20.523699,20.531292,5008435.000000,1673607075.953582
1673611171.833945,,,,20.510332,20.516844,5008436.000000,1673607075.954589
1673611171.834436,,,,20.540648,20.547712,5008437.000000,1673607075.955596
1673611171.834618,,,,20.598537,20.605650,5008438.000000,1673607075.956603
1673611171.834639,,,,20.609619,20.616972,5008439.000000,1673607075.957610
1673611171.835247,,,,20.553556,20.562809,5008440.000000,1673607075.958617
1673611171.835429,,,,20.458525,20.465181,5008441.000000,1673607075.959624
1673611171.835443,,,,20.364887,20.371542,5008442.000000,1673607075.960631
1673611171.838640,,,,20.349741,20.357719,5008443.000000,1673607075.961638
1673611171.839119,,,,20.398880,20.408325,5008444.000000,1673607075.962646
1673611171.839141,,,,20.407871,20.415009,5008445.000000,1673607075.963653
1673611171.841573,,,,20.397871,20.403950,5008446.000000,1673607075.964660
1673611171.842108,,,,20.394672,20.401882,5008447.000000,1673607075.965667
1673611171.842129,,,,20.358347,20.366758,5008448.000000,1673607075.966674
1673611171.842164,,,,20.391644,20.399382,5008449.000000,1673607075.967681
1673611171.842271,,,,20.469318,20.476070,5008450.000000,1673607075.968688
1673611171.842301,,,,20.535213,20.540068,5008451.000000,1673607075.969695
1673611171.842359,,,,20.624645,20.631660,5008452.000000,1673607075.970702
1673611171.846898,,,,20.689074,20.697941,5008453.000000,1673607075.971709
1673611171.847054,,,,20.713306,20.723713,5008454.000000,1673607075.972716
1673611171.847379,,,,20.671114,20.679310,5008455.000000,1673607075.973723
1673611171.847649,,,,20.595026,20.600216,5008456.000000,1673607075.974730
1673611171.847663,,,,20.538002,20.544706,5008457.000000,1673607075.975738
1673611171.847822,,,,20.519371,20.528624,5008458.000000,1673607075.976745
1673611171.848167,,,,20.522688,20.530716,5008459.000000,1673607075.977752
1673611171.848360,,,,20.529684,20.535091,5008460.000000,1673607075.978759
1673611171.849170,,,,20.503000,20.511219,5008461.000000,1673607075.979766
1673611171.849176,,,,20.459270,20.468113,5008462.000000,1673607075.980773
1673611171.849412,,,,20.382870,20.392698,5008463.000000,1673607075.981780
1673611171.849429,,,,20.287668,20.297426,5008464.000000,1673607075.982787
1673611171.849495,,,,20.229851,20.239489,5008465.000000,1673607075.983794
1673611171.849532,,,,20.186216,20.192104,5008466.000000,1673607075.984801
1673611171.862468,,,,20.136045,20.142340,5008467.000000,1673607075.985808
1673611171.862538,,,,20.067240,20.074955,5008468.000000,1673607075.986815
