__time,/gdx/grip_force_stream/grip_force,/gdx/grip_force_stream/header/seq,/gdx/grip_force_stream/header/stamp,/shimmer0/emg_stream/emg_ch1,/shimmer0/emg_stream/emg_ch2,/shimmer0/emg_stream/header/seq,/shimmer0/emg_stream/header/stamp
1673611124.709658,,,,21.373459,21.381124,4961620.000000,1673607028.807128
1673611124.710062,,,,21.366152,21.375788,4961621.000000,1673607028.808135
1673611124.710223,,,,21.354755,21.367470,4961622.000000,1673607028.809142
1673611124.710595,,,,21.353481,21.363865,4961623.000000,1673607028.810149
1673611124.710661,,,,21.356848,21.367950,4961624.000000,1673607028.811156
1673611124.710989,,,,21.366222,21.374826,4961625.000000,1673607028.812163
1673611124.711047,,,,21.372089,21.381918,4961626.000000,1673607028.813170
1673611124.716991,,,,21.380383,21.387737,4961627.000000,1673607028.814178
1673611124.717174,,,,21.386009,21.393578,4961628.000000,1673607028.815185
1673611124.717432,,,,21.389254,21.398746,4961629.000000,1673607028.816192
1673611124.717448,,,,21.395794,21.405983,4961630.000000,1673607028.817199
1673611124.722099,0.683399,4097423.000000,1673611124.712123,,,,
1673611124.722107,0.701488,4097424.000000,1673611124.713123,,,,
1673611124.722111,0.719577,4097425.000000,1673611124.714123,,,,
1673611124.722116,0.791941,4097426.000000,1673611124.715122,,,,
1673611124.722122,0.737674,4097427.000000,1673611124.716123,,,,
1673611124.722127,0.737674,4097428.000000,1673611124.717123,,,,
1673611124.722139,0.773852,4097429.000000,1673611124.718122,,,,
1673611124.722200,0.755763,4097430.000000,1673611124.719123,,,,
1673611124.722207,0.755763,4097431.000000,1673611124.720123,,,,
1673611124.723140,,,,21.400818,21.408316,4961631.000000,1673607028.818206
1673611124.723401,,,,21.403246,21.410143,4961632.000000,1673607028.819213
1673611124.723417,,,,21.398510,21.406921,4961633.000000,1673607028.820220
1673611124.725406,,,,21.394302,21.402929,4961634.000000,1673607028.821227
1673611124.725677,,,,21.390793,21.399084,4961635.000000,1673607028.822234
1673611124.725687,,,,21.380720,21.386173,4961636.000000,1673607028.823241
1673611124.730935,,,,21.368507,21.374706,4961637.000000,1673607028.824248
1673611124.731112,,,,21.364252,21.371342,4961638.000000,1673607028.825255
1673611124.731174,,,,21.364347,21.370979,4961639.000000,1673607028.826262
1673611124.731351,,,,21.361176,21.370739,4961640.000000,1673607028.827270
1673611124.731481,,,,21.354467,21.363432,4961641.000000,1673607028.828277
1673611124.731658,,,,21.348625,21.358263,4961642.000000,1673607028.829284
1673611124.731816,,,,21.357351,21.366053,4961643.000000,1673607028.830291
1673611124.732923,,,,21.368027,21.376078,4961644.000000,1673607028.831298
1673611124.732931,,,,21.374493,21.381943,4961645.000000,1673607028.832305
1673611124.733080,,,,21.381802,21.389107,4961646.000000,1673607028.833312
1673611124.733116,,,,21.385912,21.394108,4961647.000000,1673607028.834319
1673611124.738640,,,,21.385191,21.390718,4961648.000000,1673607028.835326
1673611124.739284,,,,21.391659,21.395885,4961649.000000,1673607028.836333
1673611124.739583,,,,21.400721,21.404301,4961650.000000,1673607028.837340
1673611124.740026,,,,21.408678,21.411705,4961651.000000,1673607028.838347
1673611124.740486,,,,21.418608,21.423725,4961652.000000,1673607028.839355
1673611124.740570,,,,21.417862,21.425745,4961653.000000,1673607028.840362
1673611124.740585,,,,21.408895,21.417067,4961654.000000,1673607028.841369
1673611124.740971,,,,21.390240,21.398434,4961655.000000,1673607028.842376
1673611124.741289,,,,21.367449,21.376389,4961656.000000,1673607028.843383
1673611124.741397,,,,21.350477,21.356749,4961657.000000,1673607028.844390
1673611124.741467,,,,21.335306,21.340881,4961658.000000,1673607028.845397
1673611124.746328,,,,21.319849,21.327707,4961659.000000,1673607028.846404
1673611124.746833,,,,21.313046,21.323547,4961660.000000,1673607028.847411
1673611124.747778,,,,21.318237,21.325064,4961661.000000,1673607028.848418
1673611124.747797,,,,21.323696,21.332010,4961662.000000,1673607028.849425
1673611124.747812,,,,21.337807,21.346939,4961663.000000,1673607028.850432
1673611124.747989,,,,21.361704,21.371702,4961664.000000,1673607028.851439
1673611124.748006,,,,21.384830,21.391294,4961665.000000,1673607028.852447
1673611124.748082,,,,21.394447,21.400406,4961666.000000,1673607028.853454
1673611124.748089,,,,21.380239,21.387497,4961667.000000,1673607028.854461
1673611124.748097,,,,21.341534,21.351267,4961668.000000,1673607028.855468
1673611124.748338,,,,21.320810,21.331770,4961669.000000,1673607028.856475
1673611124.748562,,,,21.319777,21.328886,4961670.000000,1673607028.857482
1673611124.748854,,,,21.321964,21.331121,4961671.000000,1673607028.858489
1673611124.748861,,,,21.326099,21.335327,4961672.000000,1673607028.859496
1673611124.749041,,,,21.330908,21.338020,4961673.000000,1673607028.860503
1673611124.749556,,,,21.344610,21.353647,4961674.000000,1673607028.861510
1673611124.749610,,,,21.367979,21.377663,4961675.000000,1673607028.862517
1673611124.749798,,,,21.413294,21.422379,4961676.000000,1673607028.863524
1673611124.753972,,,,21.445677,21.453320,4961677.000000,1673607028.864532
1673611124.753990,,,,21.433994,21.440794,4961678.000000,1673607028.865539
1673611124.754091,,,,21.400866,21.407042,4961679.000000,1673607028.866546
1673611124.754125,,,,21.372690,21.380381,4961680.000000,1673607028.867553
1673611124.754137,,,,21.358988,21.369635,4961681.000000,1673607028.868560
1673611124.754156,,,,21.357351,21.366894,4961682.000000,1673607028.869567
1673611124.754167,,,,21.355717,21.364008,4961683.000000,1673607028.870574
1673611124.755736,,,,21.355621,21.363600,4961684.000000,1673607028.871581
1673611124.755750,,,,21.366247,21.375908,4961685.000000,1673607028.872588
1673611124.755896,,,,21.370670,21.379082,4961686.000000,1673607028.873595
1673611124.755908,,,,21.375286,21.382231,4961687.000000,1673607028.874602
1673611124.769627,,,,21.382017,21.390574,4961688.000000,1673607028.875609
1673611124.769725,,,,21.400770,21.409565,4961689.000000,1673607028.876616
1673611124.769937,,,,21.406227,21.415527,4961690.000000,1673607028.877624
1673611124.770027,,,,21.409737,21.418774,4961691.000000,1673607028.878631
1673611124.770178,,,,21.413872,21.422546,4961692.000000,1673607028.879638
1673611124.770215,,,,21.403606,21.410166,4961693.000000,1673607028.880645
1673611124.777091,,,,21.380119,21.389708,4961694.000000,1673607028.881652
1673611124.777107,,,,21.362352,21.371845,4961695.000000,1673607028.882659
1673611124.777166,,,,21.351824,21.361460,4961696.000000,1673607028.883666
1673611124.777270,,,,21.346222,21.353479,4961697.000000,1673607028.884673
1673611124.783419,,,,21.342567,21.349512,4961698.000000,1673607028.885680
1673611124.783674,,,,21.335403,21.342131,4961699.000000,1673607028.886687
1673611124.784193,,,,21.329296,21.336531,4961700.000000,1673607028.887694
1673611124.786331,,,,21.333937,21.340305,4961701.000000,1673607028.888701
1673611124.786759,,,,21.349947,21.358046,4961702.000000,1673607028.889709
1673611124.786772,,,,21.371176,21.379009,4961703.000000,1673607028.890716
1673611124.786937,,,,21.378605,21.384756,4961704.000000,1673607028.891723
1673611124.790272,1.009027,4097483.000000,1673611124.777022,,,,
1673611124.790300,0.990929,4097484.000000,1673611124.778023,,,,
1673611124.790332,1.063294,4097485.000000,1673611124.779022,,,,
1673611124.790339,1.063294,4097486.000000,1673611124.780022,,,,
1673611124.790347,1.009027,4097487.000000,1673611124.781022,,,,
1673611124.790372,1.099472,4097488.000000,1673611124.782022,,,,
1673611124.790379,1.117561,4097489.000000,1673611124.783022,,,,
1673611124.790416,1.135650,4097490.000000,1673611124.784022,,,,
1673611124.790420,1.081383,4097491.000000,1673611124.785022,,,,
1673611124.790447,1.081383,4097492.000000,1673611124.786022,,,,
1673611124.790595,,,,21.377138,21.381798,4961705.000000,1673607028.892730
1673611124.790782,,,,21.376801,21.383938,4961706.000000,1673607028.893737
1673611124.790964,,,,21.374470,21.381943,4961707.000000,1673607028.894744
1673611124.790973,,,,21.374420,21.380716,4961708.000000,1673607028.895751
1673611124.792837,,,,21.371944,21.381054,4961709.000000,1673607028.896758
1673611124.792977,,,,21.368315,21.376221,4961710.000000,1673607028.897765
1673611124.793143,,,,21.372786,21.379923,4961711.000000,1673607028.898772
1673611124.799604,,,,21.379999,21.389732,4961712.000000,1673607028.899779
1673611124.799768,,,,21.383629,21.393435,4961713.000000,1673607028.900786
1673611124.799784,,,,21.372065,21.381655,4961714.000000,1673607028.901793
1673611124.800696,,,,21.361246,21.368528,4961715.000000,1673607028.902801
1673611124.800710,,,,21.346846,21.354994,4961716.000000,1673607028.903808
1673611124.801644,,,,21.361246,21.371918,4961720.000000,1673607028.907836
1673611124.802178,,,,21.381561,21.391510,4961721.000000,1673607028.908843
1673611124.802192,,,,21.360550,21.369514,4961722.000000,1673607028.909850
1673611124.802319,,,,21.333841,21.343622,4961723.000000,1673607028.910857
1673611124.802345,,,,21.327469,21.336290,4961724.000000,1673607028.911864
1673611124.802356,,,,21.326725,21.334078,4961725.000000,1673607028.912871
1673611124.802418,,,,21.332758,21.338886,4961726.000000,1673607028.913878
1673611124.802431,,,,21.336245,21.343742,4961727.000000,1673607028.914886
1673611124.802472,,,,21.340668,21.351147,4961728.000000,1673607028.915893
1673611124.802555,,,,21.346630,21.356291,4961729.000000,1673607028.916900
1673611124.802659,,,,21.366488,21.376558,4961730.000000,1673607028.917907
1673611124.802672,,,,21.405914,21.411921,4961731.000000,1673607028.918914
1673611124.802687,,,,21.409689,21.416634,4961732.000000,1673607028.919921
1673611124.802813,,,,21.389904,21.401392,4961733.000000,1673607028.920928
1673611124.806315,,,,21.389832,21.400599,4961734.000000,1673607028.921935
1673611124.806467,,,,21.393173,21.402353,4961735.000000,1673607028.922942
1673611124.806483,,,,21.373026,21.380524,4961736.000000,1673607028.923949
1673611124.813536,,,,21.333311,21.338285,4961737.000000,1673607028.924956
1673611124.813962,,,,21.294847,21.301743,4961738.000000,1673607028.925963
1673611124.814114,,,,21.254580,21.263615,4961739.000000,1673607028.926970
1673611124.814224,,,,21.222652,21.232435,4961740.000000,1673607028.927978
1673611124.814281,,,,21.241669,21.251451,4961741.000000,1673607028.928985
1673611124.814453,,,,21.294895,21.302105,4961742.000000,1673607028.929992
1673611124.814754,,,,21.366873,21.374346,4961743.000000,1673607028.930999
1673611124.814768,,,,21.408005,21.416777,4961744.000000,1673607028.932006
1673611124.815676,,,,21.394037,21.401608,4961745.000000,1673607028.933013
1673611124.815921,,,,21.383244,21.388987,4961746.000000,1673607028.934020
1673611124.816139,,,,21.380888,21.390261,4961747.000000,1673607028.935027
1673611124.816183,,,,21.362953,21.369562,4961748.000000,1673607028.936034
1673611124.816442,,,,21.342880,21.352036,4961749.000000,1673607028.937041
1673611124.816670,,,,21.331989,21.342541,4961750.000000,1673607028.938048
1673611124.820736,,,,21.355501,21.361292,4961751.000000,1673607028.939055
1673611124.820747,,,,21.392643,21.399637,4961752.000000,1673607028.940063
1673611124.821055,,,,21.412165,21.420238,4961753.000000,1673607028.941070
1673611124.821067,,,,21.401106,21.408772,4961754.000000,1673607028.942077
1673611124.822994,,,,21.381994,21.390476,4961755.000000,1673607028.943084
1673611124.823154,,,,21.373629,21.380644,4961756.000000,1673607028.944091
1673611124.823342,,,,21.372305,21.380043,4961757.000000,1673607028.945098
1673611124.837440,,,,21.360310,21.368961,4961758.000000,1673607028.946105
1673611124.837548,,,,21.338528,21.345810,4961759.000000,1673607028.947112
1673611124.838095,,,,21.330355,21.336506,4961760.000000,1673607028.948119
1673611124.838850,,,,21.356222,21.363575,4961761.000000,1673607028.949126
1673611124.844377,,,,21.380600,21.387327,4961762.000000,1673607028.950133
1673611124.844583,,,,21.375023,21.380957,4961763.000000,1673607028.951140
1673611124.844836,,,,21.357304,21.363094,4961764.000000,1673607028.952147
1673611124.845139,,,,21.344154,21.349945,4961765.000000,1673607028.953155
1673611124.851118,,,,21.343409,21.349920,4961766.000000,1673607028.954162
1673611124.851625,,,,21.343288,21.348431,4961767.000000,1673607028.955169
1673611124.851792,,,,21.357304,21.362854,4961768.000000,1673607028.956176
1673611124.852031,,,,21.398870,21.404734,4961769.000000,1673607028.957183
1673611124.852045,,,,21.417334,21.424351,4961770.000000,1673607028.958190
1673611124.852496,,,,21.411587,21.418917,4961771.000000,1673607028.959197
1673611124.853620,,,,21.400793,21.408363,4961772.000000,1673607028.960204
1673611124.853647,,,,21.376585,21.385357,4961773.000000,1673607028.961211
1673611124.854090,,,,21.371729,21.378674,4961774.000000,1673607028.962218
1673611124.854754,,,,21.389999,21.396391,4961775.000000,1673607028.963225
1673611124.854769,1.117561,4097493.000000,1673611124.793025,,,,
1673611124.855100,,,,21.403774,21.411417,4961776.000000,1673607028.964232
1673611124.855126,1.099472,4097494.000000,1673611124.794025,,,,
1673611124.855650,1.081383,4097495.000000,1673611124.795025,,,,
1673611124.855874,,,,21.390144,21.397762,4961777.000000,1673607028.965240
1673611124.855895,,,,21.376560,21.385284,4961778.000000,1673607028.966247
1673611124.856042,1.135650,4097496.000000,1673611124.796025,,,,
1673611124.856540,1.171836,4097497.000000,1673611124.797025,,,,
1673611124.857629,1.063294,4097498.000000,1673611124.798025,,,,
1673611124.857639,1.063294,4097499.000000,1673611124.799025,,,,
1673611124.857651,1.081383,4097500.000000,1673611124.800025,,,,
1673611124.857656,1.099472,4097501.000000,1673611124.801025,,,,
1673611124.857662,1.081383,4097502.000000,1673611124.802025,,,,
1673611124.857674,0.846209,4097544.000000,1673611124.844025,,,,
1673611124.857701,0.864306,4097545.000000,1673611124.845025,,,,
1673611124.857707,0.864306,4097546.000000,1673611124.846025,,,,
1673611124.857715,0.755763,4097547.000000,1673611124.847025,,,,
1673611124.857732,0.810030,4097548.000000,1673611124.848025,,,,
1673611124.857835,0.773852,4097549.000000,1673611124.849025,,,,
1673611124.857849,0.737674,4097550.000000,1673611124.850025,,,,
1673611124.857856,0.701488,4097551.000000,1673611124.851025,,,,
1673611124.857867,0.701488,4097552.000000,1673611124.852025,,,,
1673611124.857878,0.773852,4097553.000000,1673611124.853025,,,,
1673611124.858588,,,,21.370647,21.379347,4961779.000000,1673607028.967254
1673611124.858593,,,,21.365093,21.375404,4961780.000000,1673607028.968261
1673611124.858716,,,,21.366127,21.375259,4961781.000000,1673607028.969268
1673611124.858918,,,,21.370911,21.380476,4961782.000000,1673607028.970275
1673611124.859041,,,,21.372065,21.380934,4961783.000000,1673607028.971282
1673611124.859226,,,,21.368555,21.377062,4961784.000000,1673607028.972289
1673611124.859304,,,,21.367762,21.375187,4961785.000000,1673607028.973296
1673611124.859385,,,,21.368387,21.374393,4961786.000000,1673607028.974303
1673611124.860939,,,,21.368410,21.379370,4961787.000000,1673607028.975310
1673611124.860997,,,,21.371199,21.382328,4961788.000000,1673607028.976317
1673611124.861174,,,,21.359709,21.369370,4961789.000000,1673607028.977324
1673611124.861205,,,,21.336870,21.344175,4961790.000000,1673607028.978332
1673611124.861268,,,,21.328695,21.335810,4961791.000000,1673607028.979339
1673611124.861277,,,,21.343023,21.351242,4961792.000000,1673607028.980346
1673611124.861289,,,,21.374132,21.384083,4961793.000000,1673607028.981353
1673611124.865554,,,,21.404785,21.412594,4961794.000000,1673607028.982360
1673611124.865701,,,,21.399158,21.407042,4961795.000000,1673607028.983367
1673611124.865711,,,,21.374926,21.385380,4961796.000000,1673607028.984374
1673611124.868411,,,,21.361727,21.370115,4961797.000000,1673607028.985381
1673611124.868839,,,,21.361198,21.370428,4961798.000000,1673607028.986388
1673611124.869371,,,,21.364828,21.374538,4961799.000000,1673607028.987395
1673611124.869533,,,,21.366463,21.374754,4961800.000000,1673607028.988402
1673611124.869537,,,,21.367979,21.375284,4961801.000000,1673607028.989409
1673611124.869557,,,,21.355116,21.363287,4961802.000000,1673607028.990417
1673611124.869589,,,,21.347832,21.358648,4961803.000000,1673607028.991424
1673611124.869595,,,,21.347471,21.357204,4961804.000000,1673607028.992431
1673611124.873536,,,,21.338432,21.349152,4961805.000000,1673607028.993438
1673611124.873718,,,,21.331749,21.340689,4961806.000000,1673607028.994445
1673611124.873811,,,,21.327614,21.335232,4961807.000000,1673607028.995452
1673611124.873933,,,,21.319416,21.325399,4961808.000000,1673607028.996459
1673611124.874042,,,,21.309151,21.316288,4961809.000000,1673607028.997466
1673611124.874123,,,,21.318840,21.328333,4961810.000000,1673607028.998473
1673611124.874291,,,,21.322229,21.330280,4961811.000000,1673607028.999480
1673611124.877413,,,,21.305761,21.312658,4961812.000000,1673607029.000487
1673611124.877786,,,,21.290039,21.297585,4961813.000000,1673607029.001494
1673611124.877800,,,,21.283981,21.294003,4961814.000000,1673607029.002501
1673611124.878248,,,,21.293621,21.303883,4961815.000000,1673607029.003509
1673611124.878290,,,,21.328720,21.336843,4961816.000000,1673607029.004516
1673611124.878885,,,,21.372858,21.378481,4961817.000000,1673607029.005523
1673611124.878903,,,,21.421564,21.428486,4961818.000000,1673607029.006530
1673611124.878913,,,,21.448996,21.456396,4961819.000000,1673607029.007537
1673611124.878926,,,,21.418655,21.426178,4961820.000000,1673607029.008544
1673611124.879192,,,,21.372570,21.379610,4961821.000000,1673607029.009551
1673611124.879209,,,,21.345381,21.353912,4961822.000000,1673607029.010558
1673611124.881233,,,,21.338167,21.347469,4961823.000000,1673607029.011565
1673611124.882244,,,,21.345884,21.353119,4961824.000000,1673607029.012572
1673611124.882259,,,,21.379782,21.386053,4961825.000000,1673607029.013579
1673611124.882265,,,,21.395649,21.402233,4961826.000000,1673607029.014586
1673611124.882319,,,,21.375166,21.383410,4961827.000000,1673607029.015594
1673611124.882328,,,,21.358337,21.366989,4961828.000000,1673607029.016601
1673611124.882575,,,,21.377018,21.385212,4961829.000000,1673607029.017608
1673611124.883296,,,,21.402380,21.408819,4961830.000000,1673607029.018615
1673611124.883306,,,,21.409712,21.415527,4961831.000000,1673607029.019622
1673611124.883411,,,,21.400866,21.409252,4961832.000000,1673607029.020629
1673611124.885238,,,,21.395096,21.403963,4961833.000000,1673607029.021636
1673611124.885252,,,,21.404280,21.411730,4961834.000000,1673607029.022643
1673611124.885445,,,,21.402861,21.410093,4961835.000000,1673607029.023650
1673611124.885696,,,,21.382187,21.392496,4961836.000000,1673607029.024657
1673611124.885953,,,,21.346678,21.355547,4961837.000000,1673607029.025664
1673611124.886240,,,,21.317326,21.324846,4961838.000000,1673607029.026671
1673611124.886486,,,,21.300520,21.311888,4961839.000000,1673607029.027678
1673611124.900252,,,,21.304775,21.313019,4961840.000000,1673607029.028686
1673611124.900863,,,,21.308598,21.317057,4961841.000000,1673607029.029693
1673611124.901222,,,,21.309559,21.318548,4961842.000000,1673607029.030700
1673611124.901239,,,,21.325644,21.333477,4961843.000000,1673607029.031707
1673611124.901504,,,,21.355886,21.364298,4961844.000000,1673607029.032714
1673611124.901737,,,,21.398750,21.410646,4961845.000000,1673607029.033721
1673611124.902353,,,,21.405867,21.415960,4961846.000000,1673607029.034728
1673611124.902647,,,,21.378845,21.387760,4961847.000000,1673607029.035735
1673611124.906251,,,,21.373652,21.382278,4961848.000000,1673607029.036742
1673611124.906260,,,,21.392595,21.401367,4961849.000000,1673607029.037749
1673611124.906325,,,,21.402981,21.412186,4961850.000000,1673607029.038756
1673611124.906451,,,,21.404640,21.413652,4961851.000000,1673607029.039763
1673611124.906568,,,,21.398943,21.405407,4961852.000000,1673607029.040771
1673611124.906695,,,,21.390455,21.396343,4961853.000000,1673607029.041778
1673611124.910840,,,,21.370142,21.377640,4961854.000000,1673607029.042785
1673611124.910967,,,,21.349947,21.360113,4961855.000000,1673607029.043792
1673611124.911159,,,,21.346004,21.354176,4961856.000000,1673607029.044799
1673611124.911295,,,,21.339851,21.347757,4961857.000000,1673607029.045806
1673611124.911445,,,,21.328695,21.335930,4961858.000000,1673607029.046813
1673611124.911514,0.719577,4097564.000000,1673611124.860260,,,,
1673611124.911732,,,,21.340788,21.345858,4961859.000000,1673607029.047820
1673611124.911739,,,,21.350861,21.355257,4961860.000000,1673607029.048827
1673611124.911745,,,,21.353529,21.360163,4961861.000000,1673607029.049834
1673611124.912747,0.647221,4097565.000000,1673611124.861260,,,,
1673611124.912761,0.611043,4097566.000000,1673611124.862260,,,,
1673611124.912770,0.592954,4097567.000000,1673611124.863260,,,,
1673611124.912789,0.556767,4097568.000000,1673611124.864260,,,,
1673611124.912793,0.538678,4097569.000000,1673611124.865260,,,,
1673611124.912809,0.484411,4097570.000000,1673611124.866260,,,,
1673611124.912814,0.502500,4097571.000000,1673611124.867260,,,,
1673611124.912838,0.520589,4097572.000000,1673611124.868260,,,,
1673611124.912843,0.502500,4097573.000000,1673611124.869260,,,,
1673611124.912846,0.122605,4097605.000000,1673611124.901260,,,,
1673611124.912867,0.086427,4097606.000000,1673611124.902260,,,,
1673611124.912870,0.032160,4097607.000000,1673611124.903260,,,,
1673611124.913337,0.032160,4097608.000000,1673611124.904260,,,,
1673611124.913369,0.068338,4097609.000000,1673611124.905260,,,,
1673611124.913374,0.032160,4097610.000000,1673611124.906260,,,,
1673611124.913378,0.014062,4097611.000000,1673611124.907260,,,,
1673611124.913401,-0.004027,4097612.000000,1673611124.908260,,,,
1673611124.913411,-0.040205,4097613.000000,1673611124.909260,,,,
1673611124.913431,-0.004027,4097614.000000,1673611124.910260,,,,
1673611124.913449,,,,21.351631,21.360065,4961862.000000,1673607029.050841
1673611124.913461,,,,21.348986,21.357615,4961863.000000,1673607029.051848
1673611124.913494,,,,21.350067,21.355883,4961864.000000,1673607029.052855
1673611124.918183,,,,21.352064,21.361557,4961865.000000,1673607029.053863
1673611124.918339,,,,21.352425,21.360283,4961866.000000,1673607029.054870
1673611124.918594,,,,21.351774,21.357830,4961867.000000,1673607029.055877
1673611124.918690,,,,21.351992,21.355835,4961868.000000,1673607029.056884
1673611124.920491,,,,21.341173,21.345810,4961869.000000,1673607029.057891
1673611124.920502,,,,21.321892,21.329870,4961870.000000,1673607029.058898
1673611124.920592,,,,21.312204,21.320110,4961871.000000,1673607029.059905
1673611124.920705,,,,21.322710,21.328909,4961872.000000,1673607029.060912
1673611124.925648,,,,21.369396,21.378241,4961873.000000,1673607029.061919
1673611124.925653,,,,21.418753,21.429760,4961874.000000,1673607029.062926
1673611124.928667,,,,21.400265,21.410526,4961875.000000,1673607029.063933
1673611124.928680,,,,21.359371,21.366028,4961876.000000,1673607029.064940
1673611124.928690,,,,21.333984,21.341747,4961877.000000,1673607029.065948
1673611124.928696,,,,21.329994,21.338886,4961878.000000,1673607029.066955
1673611124.928735,,,,21.325739,21.335690,4961879.000000,1673607029.067962
1673611124.928750,,,,21.309776,21.316313,4961880.000000,1673607029.068969
1673611124.928757,,,,21.307396,21.315279,4961881.000000,1673607029.069976
1673611124.928771,,,,21.316122,21.324558,4961882.000000,1673607029.070983
1673611124.933049,,,,21.339754,21.346579,4961883.000000,1673607029.071990
1673611124.933160,,,,21.359203,21.365667,4961884.000000,1673607029.072997
1673611124.933288,,,,21.382570,21.388771,4961885.000000,1673607029.074004
1673611124.936088,,,,21.402380,21.410912,4961886.000000,1673607029.075011
1673611124.936324,,,,21.396465,21.405142,4961887.000000,1673607029.076018
1673611124.936610,,,,21.384998,21.393627,4961888.000000,1673607029.077025
1673611124.936857,,,,21.382355,21.393147,4961889.000000,1673607029.078032
1673611124.937157,,,,21.388077,21.396391,4961890.000000,1673607029.079040
1673611124.937408,,,,21.380262,21.386583,4961891.000000,1673607029.080047
1673611124.937438,,,,21.368963,21.377520,4961892.000000,1673607029.081054
1673611124.937745,,,,21.372595,21.379730,4961893.000000,1673607029.082061
1673611124.940799,,,,21.379446,21.387617,4961894.000000,1673607029.083068
1673611124.940984,,,,21.377113,21.386223,4961895.000000,1673607029.084075
1673611124.941680,,,,21.367496,21.375668,4961896.000000,1673607029.085082
1673611124.941703,,,,21.340525,21.348190,4961897.000000,1673607029.086089
1673611124.943594,,,,21.319489,21.327442,4961898.000000,1673607029.087096
1673611124.943980,,,,21.312180,21.317730,4961899.000000,1673607029.088103
1673611124.944353,,,,21.305281,21.312586,4961900.000000,1673607029.089110
1673611124.944571,,,,21.309439,21.317057,4961901.000000,1673607029.090117
1673611124.945115,,,,21.321579,21.330568,4961902.000000,1673607029.091125
1673611124.945134,,,,21.339851,21.348093,4961903.000000,1673607029.092132
1673611124.945152,,,,21.358723,21.366989,4961904.000000,1673607029.093139
1673611124.957022,,,,21.367449,21.377640,4961905.000000,1673607029.094146
1673611124.957181,,,,21.368219,21.377375,4961906.000000,1673607029.095153
1673611124.957392,,,,21.371777,21.379467,4961907.000000,1673607029.096160
1673611124.957549,,,,21.377859,21.385332,4961908.000000,1673607029.097167
1673611124.957720,,,,21.381706,21.388601,4961909.000000,1673607029.098174
1673611124.957928,,,,21.381897,21.389107,4961910.000000,1673607029.099181
1673611124.964566,,,,21.375792,21.382736,4961911.000000,1673607029.100188
1673611124.964698,,,,21.361511,21.367229,4961912.000000,1673607029.101195
1673611124.964719,,,,21.338793,21.347660,4961913.000000,1673607029.102202
1673611124.964730,,,,21.325979,21.336843,4961914.000000,1673607029.103209
1673611124.966551,-0.365824,4097666.000000,1673611124.955850,,,,
1673611124.966566,-0.365824,4097667.000000,1673611124.956850,,,,
1673611124.966578,-0.329646,4097668.000000,1673611124.957850,,,,
1673611124.966585,-0.383913,4097669.000000,1673611124.958850,,,,
1673611124.966631,-0.383913,4097670.000000,1673611124.959850,,,,
1673611124.966658,-0.329646,4097671.000000,1673611124.960850,,,,
1673611124.966667,-0.383913,4097672.000000,1673611124.961850,,,,
1673611124.966675,-0.383913,4097673.000000,1673611124.962850,,,,
1673611124.966705,-0.347735,4097674.000000,1673611124.963850,,,,
1673611124.966709,-0.347735,4097675.000000,1673611124.964850,,,,
1673611124.973113,,,,21.325066,21.333092,4961915.000000,1673607029.104217
1673611124.973369,,,,21.321844,21.326626,4961916.000000,1673607029.105224
1673611124.973552,,,,21.327253,21.332251,4961917.000000,1673607029.106231
1673611124.978207,,,,21.324490,21.331024,4961918.000000,1673607029.107238
1673611124.978645,,,,21.313934,21.322273,4961919.000000,1673607029.108245
1673611124.978877,,,,21.307011,21.314846,4961920.000000,1673607029.109252
1673611124.979418,,,,21.309896,21.320183,4961921.000000,1673607029.110259
1673611124.980563,,,,21.330763,21.339895,4961922.000000,1673607029.111266
1673611124.980870,,,,21.337976,21.345665,4961923.000000,1673607029.112273
1673611124.981254,,,,21.335909,21.343502,4961924.000000,1673607029.113280
1673611124.981567,,,,21.340620,21.349054,4961925.000000,1673607029.114287
1673611124.995063,,,,21.350380,21.360283,4961926.000000,1673607029.115294
1673611124.995568,,,,21.372835,21.385860,4961927.000000,1673607029.116302
1673611124.995582,,,,21.396297,21.405598,4961928.000000,1673607029.117309
1673611124.995607,,,,21.399136,21.408028,4961929.000000,1673607029.118316
1673611124.995794,,,,21.388966,21.398964,4961930.000000,1673607029.119323
1673611124.995903,,,,21.373459,21.383770,4961931.000000,1673607029.120330
1673611125.001349,,,,21.364468,21.371918,4961932.000000,1673607029.121337
1673611125.001380,,,,21.354227,21.362061,4961933.000000,1673607029.122344
1673611125.001614,,,,21.343456,21.350113,4961934.000000,1673607029.123351
1673611125.001776,,,,21.334875,21.342613,4961935.000000,1673607029.124358
1673611125.002318,,,,21.325619,21.333693,4961936.000000,1673607029.125365
1673611125.002347,,,,21.317686,21.323427,4961937.000000,1673607029.126372
1673611125.002782,,,,21.318022,21.323427,4961938.000000,1673607029.127379
1673611125.002925,,,,21.324177,21.328957,4961939.000000,1673607029.128386
1673611125.003258,,,,21.337831,21.346483,4961940.000000,1673607029.129394
1673611125.003468,,,,21.348770,21.355690,4961941.000000,1673607029.130401
1673611125.003815,,,,21.342976,21.348478,4961942.000000,1673607029.131408
1673611125.016731,,,,21.334082,21.340376,4961943.000000,1673607029.132415
1673611125.016945,,,,21.334946,21.342276,4961944.000000,1673607029.133422
1673611125.017126,,,,21.345116,21.353119,4961945.000000,1673607029.134429
1673611125.017137,,,,21.357834,21.366606,4961946.000000,1673607029.135436
1673611125.024537,,,,21.360983,21.369682,4961947.000000,1673607029.136443
1673611125.024565,,,,21.354948,21.361773,4961948.000000,1673607029.137450
1673611125.024581,,,,21.357063,21.363647,4961949.000000,1673607029.138457
1673611125.024601,,,,21.359636,21.367495,4961950.000000,1673607029.139464
1673611125.029892,-0.329646,4097676.000000,1673611124.968823,,,,
1673611125.030846,,,,21.357424,21.364105,4961951.000000,1673607029.140471
1673611125.031064,-0.311557,4097693.000000,1673611124.985823,,,,
1673611125.031092,-0.293468,4097694.000000,1673611124.986823,,,,
1673611125.031138,-0.311557,4097695.000000,1673611124.987823,,,,
1673611125.031152,-0.275379,4097696.000000,1673611124.988823,,,,
1673611125.031190,-0.311557,4097697.000000,1673611124.989823,,,,
1673611125.031325,-0.347735,4097698.000000,1673611124.990823,,,,
1673611125.031471,-0.311557,4097699.000000,1673611124.991823,,,,
1673611125.031640,-0.311557,4097700.000000,1673611124.992823,,,,
1673611125.031765,-0.311557,4097701.000000,1673611124.993823,,,,
1673611125.033689,-0.365824,4097702.000000,1673611124.994823,,,,
1673611125.033711,-0.112561,4097727.000000,1673611125.019823,,,,
1673611125.033721,-0.166836,4097728.000000,1673611125.020823,,,,
1673611125.033746,-0.148747,4097729.000000,1673611125.021823,,,,
1673611125.033756,-0.094472,4097730.000000,1673611125.022823,,,,
1673611125.033789,-0.130658,4097731.000000,1673611125.023823,,,,
1673611125.033804,-0.130658,4097732.000000,1673611125.024823,,,,
1673611125.033815,-0.094472,4097733.000000,1673611125.025823,,,,
1673611125.033824,-0.130658,4097734.000000,1673611125.026823,,,,
1673611125.033843,-0.076383,4097735.000000,1673611125.027823,,,,
1673611125.033902,-0.076383,4097736.000000,1673611125.028823,,,,
1673611125.033928,,,,21.352520,21.359632,4961952.000000,1673607029.141479
1673611125.033937,,,,21.352135,21.357374,4961953.000000,1673607029.142486
1673611125.033973,,,,21.345932,21.353094,4961954.000000,1673607029.143493
1673611125.034349,,,,21.332758,21.341026,4961955.000000,1673607029.144500
1673611125.034628,,,,21.329874,21.337420,4961956.000000,1673607029.145507
1673611125.034918,,,,21.345116,21.351845,4961957.000000,1673607029.146514
1673611125.038475,,,,21.348265,21.356483,4961958.000000,1673607029.147521
1673611125.038697,,,,21.335546,21.343189,4961959.000000,1673607029.148528
1673611125.038916,,,,21.321098,21.329126,4961960.000000,1673607029.149535
1673611125.038930,,,,21.322084,21.329870,4961961.000000,1673607029.150542
1673611125.039165,,,,21.326387,21.334606,4961962.000000,1673607029.151549
1673611125.039317,,,,21.333696,21.344584,4961963.000000,1673607029.152556
1673611125.039495,,,,21.351461,21.361605,4961964.000000,1673607029.153563
1673611125.040736,,,,21.363554,21.372639,4961965.000000,1673607029.154571
1673611125.040851,,,,21.366608,21.375957,4961966.000000,1673607029.155578
1673611125.041027,,,,21.367208,21.377832,4961967.000000,1673607029.156585
1673611125.041157,,,,21.369757,21.380764,4961968.000000,1673607029.157592
1673611125.041368,,,,21.371223,21.382639,4961969.000000,1673607029.158599
1673611125.041408,,,,21.374060,21.381870,4961970.000000,1673607029.159606
1673611125.041412,,,,21.370911,21.379370,4961971.000000,1673607029.160613
1673611125.045719,,,,21.362833,21.371677,4961972.000000,1673607029.161620
1673611125.045999,,,,21.358435,21.366076,4961973.000000,1673607029.162627
1673611125.046475,,,,21.353098,21.359249,4961974.000000,1673607029.163634
1673611125.046675,,,,21.350573,21.354561,4961975.000000,1673607029.164641
1673611125.048039,,,,21.348530,21.356531,4961976.000000,1673607029.165648
1673611125.048533,,,,21.348265,21.356916,4961977.000000,1673607029.166656
1673611125.048551,,,,21.333649,21.341026,4961978.000000,1673607029.167663
1673611125.053365,,,,21.305666,21.314941,4961979.000000,1673607029.168670
1673611125.053479,,,,21.296385,21.306551,4961980.000000,1673607029.169677
1673611125.053660,,,,21.306387,21.314436,4961981.000000,1673607029.170684
1673611125.055487,,,,21.327061,21.332035,4961982.000000,1673607029.171691
1673611125.055493,,,,21.344082,21.351362,4961983.000000,1673607029.172698
1673611125.055628,,,,21.354155,21.362831,4961984.000000,1673607029.173705
1673611125.055727,,,,21.363050,21.371029,4961985.000000,1673607029.174712
1673611125.061183,,,,21.367737,21.374273,4961986.000000,1673607029.175719
1673611125.061195,,,,21.364252,21.370283,4961987.000000,1673607029.176726
1673611125.061201,,,,21.361416,21.367470,4961988.000000,1673607029.177733
1673611125.061204,,,,21.358385,21.365522,4961989.000000,1673607029.178741
1673611125.061207,,,,21.354034,21.361485,4961990.000000,1673607029.179748
1673611125.061259,,,,21.359108,21.364779,4961991.000000,1673607029.180755
1673611125.061264,,,,21.362064,21.368864,4961992.000000,1673607029.181762
1673611125.062906,,,,21.353914,21.361605,4961993.000000,1673607029.182769
1673611125.063303,,,,21.339273,21.347469,4961994.000000,1673607029.183776
1673611125.063514,,,,21.332663,21.340929,4961995.000000,1673607029.184783
1673611125.063529,,,,21.329416,21.336746,4961996.000000,1673607029.185790
1673611125.077027,,,,21.332687,21.337395,4961997.000000,1673607029.186797
1673611125.077374,,,,21.339106,21.343502,4961998.000000,1673607029.187804
1673611125.077731,,,,21.335716,21.343309,4961999.000000,1673607029.188811
1673611125.078036,,,,21.330835,21.340376,4962000.000000,1673607029.189818
1673611125.084608,,,,21.345331,21.352734,4962001.000000,1673607029.190825
1673611125.084630,,,,21.353699,21.361340,4962002.000000,1673607029.191833
1673611125.086306,-0.112561,4097737.000000,1673611125.025151,,,,
1673611125.086554,-0.094472,4097738.000000,1673611125.026151,,,,
1673611125.088253,-0.203014,4097739.000000,1673611125.027151,,,,
1673611125.088286,-0.058294,4097740.000000,1673611125.028151,,,,
1673611125.088305,-0.076383,4097741.000000,1673611125.029151,,,,
1673611125.088318,0.430135,4097788.000000,1673611125.076151,,,,
1673611125.088335,0.484411,4097789.000000,1673611125.077151,,,,
1673611125.088407,0.412046,4097790.000000,1673611125.078151,,,,
1673611125.088417,0.466322,4097791.000000,1673611125.079151,,,,
1673611125.088436,0.520589,4097792.000000,1673611125.080151,,,,
1673611125.088453,0.484411,4097793.000000,1673611125.081151,,,,
1673611125.088487,0.538678,4097794.000000,1673611125.082151,,,,
1673611125.088504,0.520589,4097795.000000,1673611125.083151,,,,
1673611125.088562,0.556767,4097796.000000,1673611125.084151,,,,
1673611125.088575,0.520589,4097797.000000,1673611125.085151,,,,
1673611125.090900,,,,21.361679,21.369297,4962003.000000,1673607029.192840
1673611125.091153,,,,21.366825,21.374466,4962004.000000,1673607029.193847
1673611125.091319,,,,21.364637,21.374418,4962005.000000,1673607029.194854
1673611125.091480,,,,21.356655,21.365955,4962006.000000,1673607029.195861
1673611125.091681,,,,21.346582,21.356075,4962007.000000,1673607029.196868
1673611125.091980,,,,21.343288,21.355307,4962008.000000,1673607029.197875
1673611125.092024,,,,21.348145,21.357855,4962009.000000,1673607029.198882
1673611125.092063,,,,21.349659,21.358166,4962010.000000,1673607029.199889
1673611125.092880,,,,21.351871,21.358528,4962011.000000,1673607029.200896
1673611125.093118,,,,21.346630,21.348984,4962012.000000,1673607029.201903
1673611125.093148,,,,21.356871,21.361124,4962013.000000,1673607029.202910
1673611125.098209,,,,21.374950,21.383530,4962014.000000,1673607029.203918
1673611125.098785,,,,21.360838,21.369537,4962015.000000,1673607029.204925
1673611125.098796,,,,21.318600,21.325832,4962016.000000,1673607029.205932
1673611125.098819,,,,21.304174,21.312298,4962017.000000,1673607029.206939
1673611125.100803,,,,21.309799,21.317297,4962018.000000,1673607029.207946
1673611125.101060,,,,21.320690,21.329029,4962019.000000,1673607029.208953
1673611125.101323,,,,21.330547,21.339895,4962020.000000,1673607029.209960
1673611125.101820,,,,21.347857,21.356796,4962021.000000,1673607029.210967
1673611125.101943,,,,21.360838,21.369610,4962022.000000,1673607029.211974
1673611125.101956,,,,21.350044,21.360571,4962023.000000,1673607029.212981
1673611125.101975,,,,21.346462,21.357615,4962024.000000,1673607029.213988
1673611125.106052,,,,21.352978,21.364609,4962025.000000,1673607029.214995
1673611125.106071,,,,21.353889,21.363575,4962026.000000,1673607029.216002
1673611125.106469,,,,21.355862,21.363094,4962027.000000,1673607029.217010
1673611125.106574,,,,21.360332,21.365980,4962028.000000,1673607029.218017
1673611125.106752,,,,21.362137,21.371485,4962029.000000,1673607029.219024
1673611125.106932,,,,21.365454,21.373745,4962030.000000,1673607029.220031
1673611125.107086,,,,21.366007,21.373240,4962031.000000,1673607029.221038
1673611125.108388,,,,21.371008,21.381798,4962032.000000,1673607029.222045
1673611125.108642,,,,21.371969,21.382519,4962033.000000,1673607029.223052
1673611125.108866,,,,21.358385,21.366316,4962034.000000,1673607029.224059
1673611125.109053,,,,21.342808,21.352926,4962035.000000,1673607029.225066
1673611125.109432,,,,21.337326,21.346579,4962036.000000,1673607029.226073
1673611125.109444,,,,21.333431,21.342709,4962037.000000,1673607029.227080
1673611125.109448,,,,21.330547,21.337179,4962038.000000,1673607029.228087
1673611125.109470,,,,21.322685,21.330856,4962039.000000,1673607029.229095
1673611125.113058,,,,21.318359,21.328020,4962040.000000,1673607029.230102
1673611125.113068,,,,21.320402,21.327780,4962041.000000,1673607029.231109
1673611125.113182,,,,21.327469,21.333765,4962042.000000,1673607029.232116
1673611125.116544,,,,21.334322,21.341843,4962043.000000,1673607029.233123
1673611125.116649,,,,21.344202,21.353502,4962044.000000,1673607029.234130
1673611125.116782,,,,21.347303,21.357805,4962045.000000,1673607029.235137
1673611125.116827,,,,21.352304,21.361460,4962046.000000,1673607029.236144
1673611125.116973,,,,21.355406,21.362253,4962047.000000,1673607029.237151
1673611125.117103,,,,21.357977,21.365740,4962048.000000,1673607029.238158
1673611125.117206,,,,21.363434,21.371292,4962049.000000,1673607029.239165
1673611125.117380,,,,21.356127,21.365139,4962050.000000,1673607029.240172
1673611125.117485,,,,21.337807,21.343815,4962051.000000,1673607029.241179
1673611125.117645,,,,21.333263,21.339703,4962052.000000,1673607029.242187
1673611125.117800,,,,21.340860,21.347900,4962053.000000,1673607029.243194
1673611125.117932,,,,21.342663,21.348263,4962054.000000,1673607029.244201
1673611125.118288,,,,21.330956,21.334438,4962055.000000,1673607029.245208
1673611125.118298,,,,21.313864,21.321745,4962056.000000,1673607029.246215
1673611125.118305,,,,21.312107,21.320326,4962057.000000,1673607029.247222
1673611125.120486,,,,21.317806,21.323044,4962058.000000,1673607029.248229
1673611125.120747,,,,21.323071,21.330063,4962059.000000,1673607029.249236
1673611125.120764,,,,21.313959,21.320496,4962060.000000,1673607029.250243
1673611125.123323,,,,21.316675,21.322586,4962061.000000,1673607029.251250
1673611125.123611,,,,21.329994,21.339487,4962062.000000,1673607029.252257
1673611125.123899,,,,21.345261,21.357157,4962063.000000,1673607029.253264
1673611125.123910,,,,21.360165,21.370235,4962064.000000,1673607029.254272
1673611125.123920,,,,21.365046,21.373047,4962065.000000,1673607029.255279
1673611125.123932,,,,21.364540,21.373650,4962066.000000,1673607029.256286
1673611125.124147,,,,21.359539,21.367542,4962067.000000,1673607029.257293
1673611125.129841,,,,21.355909,21.364248,4962068.000000,1673607029.258300
1673611125.130206,,,,21.361271,21.367735,4962069.000000,1673607029.259307
1673611125.130218,,,,21.360453,21.368721,4962070.000000,1673607029.260314
1673611125.130230,,,,21.351534,21.360113,4962071.000000,1673607029.261321
1673611125.130240,,,,21.355141,21.363625,4962072.000000,1673607029.262328
1673611125.130582,,,,21.351967,21.361317,4962073.000000,1673607029.263335
1673611125.130630,,,,21.335884,21.342323,4962074.000000,1673607029.264342
1673611125.142132,0.538678,4097798.000000,1673611125.080858,,,,
1673611125.142329,0.611043,4097799.000000,1673611125.081857,,,,
1673611125.142889,0.574856,4097800.000000,1673611125.082857,,,,
1673611125.142900,0.592954,4097801.000000,1673611125.083858,,,,
1673611125.143132,,,,21.330355,21.336771,4962075.000000,1673607029.265349
1673611125.143238,0.574856,4097802.000000,1673611125.084857,,,,
1673611125.143256,0.629132,4097803.000000,1673611125.085857,,,,
1673611125.143263,0.647221,4097804.000000,1673611125.086858,,,,
1673611125.143588,0.864306,4097831.000000,1673611125.113858,,,,
1673611125.143602,,,,21.351944,21.360353,4962076.000000,1673607029.266356
1673611125.143734,0.882395,4097832.000000,1673611125.114857,,,,
1673611125.143750,,,,21.376368,21.386463,4962077.000000,1673607029.267364
1673611125.143843,0.864306,4097833.000000,1673611125.115857,,,,
1673611125.144024,0.900484,4097834.000000,1673611125.116858,,,,
1673611125.144167,,,,21.362810,21.373119,4962078.000000,1673607029.268371
1673611125.144426,0.882395,4097835.000000,1673611125.117857,,,,
1673611125.144446,0.864306,4097836.000000,1673611125.118857,,,,
1673611125.144454,0.936662,4097837.000000,1673611125.119858,,,,
1673611125.144459,0.972840,4097838.000000,1673611125.120857,,,,
1673611125.144466,0.918573,4097839.000000,1673611125.121857,,,,
1673611125.144533,0.918573,4097840.000000,1673611125.122858,,,,
1673611125.144550,1.135650,4097849.000000,1673611125.131857,,,,
1673611125.144556,1.063294,4097850.000000,1673611125.132858,,,,
1673611125.144572,1.081383,4097851.000000,1673611125.133857,,,,
1673611125.144615,1.117561,4097852.000000,1673611125.134857,,,,
1673611125.144627,1.081383,4097853.000000,1673611125.135857,,,,
1673611125.144633,1.063294,4097854.000000,1673611125.136858,,,,
1673611125.144638,1.099472,4097855.000000,1673611125.137857,,,,
1673611125.144664,1.135650,4097856.000000,1673611125.138857,,,,
1673611125.144671,1.189925,4097857.000000,1673611125.139858,,,,
1673611125.144678,1.171836,4097858.000000,1673611125.140857,,,,
1673611125.145603,,,,21.347977,21.357975,4962079.000000,1673607029.269378
1673611125.145723,,,,21.346222,21.354200,4962080.000000,1673607029.270385
1673611125.145939,,,,21.350597,21.357470,4962081.000000,1673607029.271392
1673611125.150630,,,,21.352858,21.359970,4962082.000000,1673607029.272399
1673611125.150765,,,,21.352953,21.362350,4962083.000000,1673607029.273406
1673611125.150826,,,,21.359684,21.368336,4962084.000000,1673607029.274413
1673611125.153265,,,,21.362785,21.371149,4962085.000000,1673607029.275420
1673611125.153481,,,,21.369684,21.379875,4962086.000000,1673607029.276427
1673611125.153532,,,,21.377451,21.384226,4962087.000000,1673607029.277434
1673611125.153604,,,,21.376778,21.382423,4962088.000000,1673607029.278441
1673611125.153719,,,,21.372810,21.378769,4962089.000000,1673607029.279449
1673611125.153834,,,,21.364878,21.373360,4962090.000000,1673607029.280456
1673611125.154008,,,,21.367882,21.377039,4962091.000000,1673607029.281463
1673611125.158000,,,,21.364565,21.373577,4962092.000000,1673607029.282470
1673611125.158130,,,,21.348169,21.357517,4962093.000000,1673607029.283477
1673611125.158246,,,,21.340042,21.347229,4962094.000000,1673607029.284484
1673611125.158345,,,,21.338528,21.348646,4962095.000000,1673607029.285491
1673611125.160809,,,,21.338432,21.348143,4962096.000000,1673607029.286498
1673611125.161857,,,,21.325739,21.334583,4962097.000000,1673607029.287505
1673611125.161888,,,,21.317636,21.326578,4962098.000000,1673607029.288512
1673611125.161900,,,,21.313046,21.323380,4962099.000000,1673607029.289519
1673611125.161911,,,,21.309248,21.319654,4962100.000000,1673607029.290526
1673611125.161922,,,,21.314440,21.324678,4962101.000000,1673607029.291533
1673611125.161999,,,,21.327349,21.336531,4962102.000000,1673607029.292541
1673611125.162022,,,,21.343914,21.351988,4962103.000000,1673607029.293548
1673611125.165784,,,,21.345140,21.353479,4962104.000000,1673607029.294555
1673611125.165879,,,,21.346703,21.355282,4962105.000000,1673607029.295562
1673611125.166082,,,,21.361559,21.370859,4962106.000000,1673607029.296569
1673611125.168242,,,,21.372450,21.381437,4962107.000000,1673607029.297576
1673611125.168368,,,,21.369083,21.378962,4962108.000000,1673607029.298583
1673611125.168704,,,,21.366007,21.374418,4962109.000000,1673607029.299590
1673611125.168805,,,,21.359108,21.366293,4962110.000000,1673607029.300597
1673611125.173578,,,,21.349154,21.356436,4962111.000000,1673607029.301604
1673611125.173809,,,,21.343096,21.352325,4962112.000000,1673607029.302611
1673611125.173831,,,,21.346895,21.357252,4962113.000000,1673607029.303618
1673611125.174171,,,,21.344297,21.352085,4962114.000000,1673607029.304626
1673611125.174580,,,,21.333143,21.341410,4962115.000000,1673607029.305633
1673611125.174599,,,,21.328142,21.338478,4962116.000000,1673607029.306640
1673611125.175786,,,,21.322853,21.333164,4962117.000000,1673607029.307647
1673611125.175800,,,,21.320089,21.330809,4962118.000000,1673607029.308654
1673611125.175808,,,,21.317421,21.326481,4962119.000000,1673607029.309661
1673611125.175817,,,,21.318047,21.325184,4962120.000000,1673607029.310668
1673611125.181045,,,,21.327686,21.337252,4962121.000000,1673607029.311675
1673611125.181384,,,,21.331196,21.340160,4962122.000000,1673607029.312682
1673611125.182336,,,,21.336245,21.342974,4962123.000000,1673607029.313689
1673611125.182354,,,,21.343987,21.351482,4962124.000000,1673607029.314696
1673611125.182369,,,,21.352352,21.360451,4962125.000000,1673607029.315703
1673611125.182415,,,,21.357834,21.366076,4962126.000000,1673607029.316710
1673611125.182431,,,,21.363554,21.374033,4962127.000000,1673607029.317718
1673611125.182448,,,,21.362450,21.374321,4962128.000000,1673607029.318725
1673611125.183236,,,,21.361631,21.369297,4962129.000000,1673607029.319732
1673611125.183272,,,,21.358747,21.367134,4962130.000000,1673607029.320739
1673611125.183290,,,,21.355356,21.363167,4962131.000000,1673607029.321746
1673611125.196835,,,,21.351582,21.358959,4962132.000000,1673607029.322753
1673611125.197154,,,,21.342495,21.351027,4962133.000000,1673607029.323760
1673611125.197232,,,,21.334032,21.342876,4962134.000000,1673607029.324767
1673611125.197244,,,,21.327782,21.338140,4962135.000000,1673607029.325774
1673611125.204201,,,,21.321772,21.332130,4962136.000000,1673607029.326781
1673611125.204457,,,,21.311939,21.320639,4962137.000000,1673607029.327788
1673611125.204582,,,,21.299654,21.309557,4962138.000000,1673607029.328795
1673611125.208706,1.605998,4097910.000000,1673611125.197608,,,,
1673611125.208725,1.605998,4097911.000000,1673611125.198609,,,,
1673611125.208732,1.569820,4097912.000000,1673611125.199609,,,,
1673611125.208901,1.605998,4097913.000000,1673611125.200608,,,,
1673611125.208913,1.624087,4097914.000000,1673611125.201608,,,,
1673611125.208924,1.624087,4097915.000000,1673611125.202609,,,,
1673611125.208935,1.605998,4097916.000000,1673611125.203609,,,,
1673611125.208957,1.642177,4097917.000000,1673611125.204608,,,,
1673611125.208971,1.624087,4097918.000000,1673611125.205609,,,,
1673611125.208977,1.714541,4097919.000000,1673611125.206609,,,,
1673611125.210966,,,,21.296915,21.305567,4962139.000000,1673607029.329803
1673611125.210982,,,,21.296169,21.304773,4962140.000000,1673607029.330810
1673611125.210996,,,,21.304535,21.310734,4962141.000000,1673607029.331817
1673611125.213354,,,,21.309391,21.316433,4962142.000000,1673607029.332824
1673611125.213532,,,,21.312780,21.318716,4962143.000000,1673607029.333831
1673611125.214033,,,,21.311338,21.317635,4962144.000000,1673607029.334838
1673611125.214061,,,,21.314392,21.324198,4962145.000000,1673607029.335845
1673611125.214072,,,,21.317902,21.327082,4962146.000000,1673607029.336852
1673611125.214077,,,,21.324657,21.333117,4962147.000000,1673607029.337859
1673611125.214147,,,,21.341846,21.351675,4962148.000000,1673607029.338866
1673611125.218589,,,,21.362570,21.371389,4962149.000000,1673607029.339873
1673611125.219174,,,,21.376560,21.383265,4962150.000000,1673607029.340880
1673611125.219656,,,,21.373699,21.381557,4962151.000000,1673607029.341887
1673611125.219679,,,,21.369253,21.377928,4962152.000000,1673607029.342895
1673611125.219692,,,,21.364347,21.372759,4962153.000000,1673607029.343902
1673611125.219764,,,,21.362089,21.371222,4962154.000000,1673607029.344909
1673611125.219809,,,,21.352880,21.360451,4962155.000000,1673607029.345916
1673611125.219894,,,,21.342255,21.348310,4962156.000000,1673607029.346923
1673611125.221212,,,,21.332157,21.339439,4962157.000000,1673607029.347930
1673611125.221497,,,,21.322926,21.331554,4962158.000000,1673607029.348937
1673611125.221542,,,,21.320883,21.329535,4962159.000000,1673607029.349944
1673611125.221547,,,,21.320978,21.328020,4962160.000000,1673607029.350951
1673611125.221983,,,,21.327061,21.335352,4962161.000000,1673607029.351958
1673611125.222218,,,,21.335836,21.345184,4962162.000000,1673607029.352965
1673611125.222505,,,,21.343023,21.352829,4962163.000000,1673607029.353972
1673611125.222519,,,,21.351824,21.359777,4962164.000000,1673607029.354980
1673611125.223138,,,,21.356871,21.364586,4962165.000000,1673607029.355987
1673611125.223198,,,,21.360212,21.366726,4962166.000000,1673607029.356994
1673611125.226385,,,,21.369974,21.375139,4962167.000000,1673607029.358001
1673611125.226402,,,,21.378965,21.388338,4962168.000000,1673607029.359008
1673611125.226491,,,,21.382235,21.393267,4962169.000000,1673607029.360015
1673611125.226506,,,,21.371969,21.381870,4962170.000000,1673607029.361022
1673611125.226662,,,,21.360022,21.372711,4962171.000000,1673607029.362029
1673611125.226835,,,,21.351704,21.362902,4962172.000000,1673607029.363036
1673611125.227033,,,,21.336485,21.346025,4962173.000000,1673607029.364043
1673611125.227286,,,,21.326075,21.333910,4962174.000000,1673607029.365050
1673611125.228427,,,,21.324224,21.332563,4962175.000000,1673607029.366057
1673611125.228523,,,,21.319344,21.326818,4962176.000000,1673607029.367064
1673611125.228717,,,,21.311123,21.321650,4962177.000000,1673607029.368072
1673611125.228922,,,,21.314728,21.324942,4962178.000000,1673607029.369079
1673611125.229130,,,,21.326868,21.335545,4962179.000000,1673607029.370086
1673611125.229384,,,,21.332207,21.341410,4962180.000000,1673607029.371093
1673611125.229596,,,,21.330547,21.337132,4962181.000000,1673607029.372100
1673611125.234253,,,,21.331028,21.338308,4962182.000000,1673607029.373107
1673611125.234272,,,,21.343481,21.351435,4962183.000000,1673607029.374114
1673611125.234288,,,,21.357616,21.363335,4962184.000000,1673607029.375121
1673611125.234778,,,,21.366247,21.372326,4962185.000000,1673607029.376128
1673611125.235172,,,,21.372377,21.377472,4962186.000000,1673607029.377135
1673611125.235403,,,,21.369421,21.375765,4962187.000000,1673607029.378142
1673611125.235834,,,,21.362017,21.369995,4962188.000000,1673607029.379149
1673611125.235850,,,,21.352135,21.358671,4962189.000000,1673607029.380157
1673611125.235886,,,,21.339561,21.345232,4962190.000000,1673607029.381164
1673611125.236114,,,,21.333191,21.340040,4962191.000000,1673607029.382171
1673611125.236458,,,,21.322205,21.333212,4962192.000000,1673607029.383178
1673611125.236762,,,,21.299726,21.309700,4962193.000000,1673607029.384185
1673611125.237205,,,,21.281721,21.289001,4962194.000000,1673607029.385192
1673611125.237237,,,,21.275999,21.284626,4962195.000000,1673607029.386199
1673611125.238093,,,,21.296698,21.304388,4962196.000000,1673607029.387206
1673611125.238242,,,,21.322132,21.327707,4962197.000000,1673607029.388213
1673611125.238286,,,,21.329754,21.337852,4962198.000000,1673607029.389220
1673611125.242873,,,,21.330235,21.336651,4962199.000000,1673607029.390227
1673611125.243095,,,,21.327301,21.334776,4962200.000000,1673607029.391234
1673611125.243119,,,,21.330330,21.339151,4962201.000000,1673607029.392241
1673611125.243126,,,,21.336317,21.344536,4962202.000000,1673607029.393249
1673611125.243405,,,,21.347471,21.354368,4962203.000000,1673607029.394256
1673611125.243806,,,,21.346750,21.353647,4962204.000000,1673607029.395263
1673611125.243815,,,,21.346798,21.352133,4962205.000000,1673607029.396270
1673611125.243981,,,,21.354660,21.360571,4962206.000000,1673607029.397277
1673611125.244472,,,,21.361126,21.367374,4962207.000000,1673607029.398284
1673611125.244721,,,,21.366488,21.373384,4962208.000000,1673607029.399291
1673611125.244995,,,,21.367762,21.375307,4962209.000000,1673607029.400298
1673611125.248463,,,,21.360237,21.364874,4962210.000000,1673607029.401305
1673611125.248628,,,,21.333361,21.343983,4962211.000000,1673607029.402312
1673611125.248632,,,,21.315546,21.324631,4962212.000000,1673607029.403319
1673611125.248830,,,,21.299103,21.308018,4962213.000000,1673607029.404326
1673611125.248839,,,,21.283596,21.291695,4962214.000000,1673607029.405334
1673611125.248846,,,,21.268354,21.276789,4962215.000000,1673607029.406341
1673611125.248935,,,,21.257631,21.265490,4962216.000000,1673607029.407348
1673611125.249016,,,,21.246237,21.254913,4962217.000000,1673607029.408355
1673611125.264838,,,,21.249891,21.259577,4962218.000000,1673607029.409362
1673611125.264854,,,,21.266815,21.274553,4962219.000000,1673607029.410369
1673611125.265126,,,,21.276407,21.283762,4962220.000000,1673607029.411376
1673611125.265412,,,,21.288765,21.298450,4962221.000000,1673607029.412383
1673611125.265421,,,,21.336893,21.342493,4962222.000000,1673607029.413390
1673611125.265625,,,,21.354347,21.358791,4962223.000000,1673607029.414397
1673611125.271953,,,,21.369061,21.377567,4962224.000000,1673607029.415404
1673611125.272274,,,,21.377306,21.385189,4962225.000000,1673607029.416411
1673611125.272566,,,,21.383989,21.388481,4962226.000000,1673607029.417418
1673611125.272578,,,,21.384062,21.390789,4962227.000000,1673607029.418426
1673611125.272624,1.696444,4097920.000000,1673611125.211486,,,,
1673611125.272777,1.678355,4097921.000000,1673611125.212486,,,,
1673611125.274996,1.732630,4097922.000000,1673611125.213486,,,,
1673611125.275025,1.750719,4097923.000000,1673611125.214486,,,,
1673611125.275035,1.750719,4097924.000000,1673611125.215486,,,,
1673611125.275058,1.768808,4097925.000000,1673611125.216486,,,,
1673611125.275085,1.823075,4097926.000000,1673611125.217486,,,,
1673611125.275092,2.637132,4097971.000000,1673611125.262486,,,,
1673611125.275158,2.691408,4097972.000000,1673611125.263486,,,,
1673611125.275166,2.709497,4097973.000000,1673611125.264486,,,,
1673611125.275182,2.727586,4097974.000000,1673611125.265486,,,,
1673611125.275191,2.781853,4097975.000000,1673611125.266486,,,,
1673611125.275201,2.854218,4097976.000000,1673611125.267486,,,,
1673611125.275207,2.781853,4097977.000000,1673611125.268486,,,,
1673611125.275338,2.763764,4097978.000000,1673611125.269486,,,,
1673611125.275346,2.818031,4097979.000000,1673611125.270486,,,,
1673611125.275369,2.781853,4097980.000000,1673611125.271486,,,,
1673611125.278152,,,,21.378748,21.385550,4962228.000000,1673607029.419433
1673611125.278539,,,,21.374229,21.380764,4962229.000000,1673607029.420440
1673611125.278552,,,,21.364660,21.372013,4962230.000000,1673607029.421447
1673611125.280470,,,,21.353699,21.364176,4962231.000000,1673607029.422454
1673611125.280766,,,,21.334345,21.343405,4962232.000000,1673607029.423461
1673611125.280777,,,,21.310713,21.319822,4962233.000000,1673607029.424468
1673611125.280792,,,,21.288357,21.296143,4962234.000000,1673607029.425475
1673611125.286230,,,,21.267248,21.277462,4962235.000000,1673607029.426482
1673611125.286349,,,,21.263041,21.270491,4962236.000000,1673607029.427489
1673611125.286590,,,,21.251574,21.260153,4962237.000000,1673607029.428496
1673611125.286606,,,,21.237366,21.245176,4962238.000000,1673607029.429503
1673611125.286706,,,,21.232918,21.240728,4962239.000000,1673607029.430511
1673611125.287003,,,,21.244024,21.250753,4962240.000000,1673607029.431518
1673611125.287289,,,,21.258905,21.265850,4962241.000000,1673607029.432525
1673611125.287373,,,,21.275351,21.282295,4962242.000000,1673607029.433532
1673611125.287891,,,,21.300304,21.306576,4962243.000000,1673607029.434539
1673611125.288067,,,,21.331244,21.340616,4962244.000000,1673607029.435546
1673611125.293607,,,,21.360477,21.371943,4962245.000000,1673607029.436553
1673611125.293615,,,,21.385263,21.395885,4962246.000000,1673607029.437560
1673611125.293748,,,,21.398485,21.407354,4962247.000000,1673607029.438567
1673611125.293932,,,,21.396585,21.406464,4962248.000000,1673607029.439574
1673611125.294048,,,,21.389687,21.398434,4962249.000000,1673607029.440581
1673611125.294231,,,,21.383244,21.393147,4962250.000000,1673607029.441588
1673611125.294405,,,,21.375359,21.383410,4962251.000000,1673607029.442595
1673611125.294415,,,,21.349371,21.355835,4962252.000000,1673607029.443603
1673611125.295363,,,,21.320930,21.328068,4962253.000000,1673607029.444610
1673611125.295507,,,,21.307709,21.314341,4962254.000000,1673607029.445617
1673611125.295568,,,,21.302059,21.308764,4962255.000000,1673607029.446624
1673611125.301173,,,,21.286625,21.295925,4962256.000000,1673607029.447631
1673611125.301193,,,,21.278379,21.288040,4962257.000000,1673607029.448638
1673611125.301519,,,,21.285398,21.294699,4962258.000000,1673607029.449645
1673611125.302037,,,,21.301146,21.309557,4962259.000000,1673607029.450652
1673611125.302181,,,,21.312397,21.319822,4962260.000000,1673607029.451659
1673611125.302263,,,,21.319704,21.328428,4962261.000000,1673607029.452666
1673611125.302274,,,,21.332808,21.342709,4962262.000000,1673607029.453673
1673611125.305064,,,,21.337446,21.345137,4962263.000000,1673607029.454680
1673611125.305508,,,,21.344490,21.351507,4962264.000000,1673607029.455688
1673611125.305886,,,,21.342928,21.350185,4962265.000000,1673607029.456695
1673611125.305899,,,,21.323696,21.334679,4962266.000000,1673607029.457702
1673611125.308236,,,,21.310690,21.321144,4962267.000000,1673607029.458709
1673611125.308429,,,,21.300858,21.308235,4962268.000000,1673607029.459716
1673611125.308832,,,,21.284557,21.293257,4962269.000000,1673607029.460723
1673611125.308934,,,,21.268042,21.275972,4962270.000000,1673607029.461730
1673611125.312574,,,,21.252607,21.258951,4962271.000000,1673607029.462737
1673611125.312894,,,,21.246141,21.253855,4962272.000000,1673607029.463744
1673611125.312913,,,,21.239939,21.249792,4962273.000000,1673607029.464751
1673611125.327614,,,,21.247030,21.254768,4962274.000000,1673607029.465758
1673611125.327726,,,,21.250973,21.259912,4962275.000000,1673607029.466765
1673611125.328022,,,,21.262440,21.273617,4962276.000000,1673607029.467772
1673611125.328037,,,,21.271551,21.281694,4962277.000000,1673607029.468780
1673611125.337925,3.017027,4097990.000000,1673611125.286118,,,,
1673611125.337938,2.998938,4097991.000000,1673611125.287118,,,,
1673611125.338465,,,,21.281601,21.290180,4962278.000000,1673607029.469787
1673611125.338781,,,,21.304487,21.310038,4962279.000000,1673607029.470794
1673611125.338876,3.053205,4097992.000000,1673611125.288118,,,,
1673611125.338886,3.053205,4097993.000000,1673611125.289118,,,,
1673611125.338895,3.071295,4097994.000000,1673611125.290118,,,,
1673611125.338900,3.071295,4097995.000000,1673611125.291118,,,,
1673611125.338931,3.017027,4097996.000000,1673611125.292118,,,,
1673611125.339025,3.107481,4097997.000000,1673611125.293118,,,,
1673611125.339034,3.161748,4097998.000000,1673611125.294118,,,,
1673611125.339037,3.161748,4097999.000000,1673611125.295118,,,,
1673611125.339059,4.229068,4098032.000000,1673611125.328118,,,,
1673611125.339069,4.192882,4098033.000000,1673611125.329118,,,,
1673611125.339076,4.283336,4098034.000000,1673611125.330118,,,,
1673611125.339082,4.319514,4098035.000000,1673611125.331118,,,,
1673611125.339095,4.409967,4098036.000000,1673611125.332118,,,,
1673611125.339101,4.409967,4098037.000000,1673611125.333118,,,,
1673611125.339107,4.446145,4098038.000000,1673611125.334118,,,,
1673611125.339110,4.518510,4098039.000000,1673611125.335118,,,,
1673611125.339125,4.627044,4098040.000000,1673611125.336118,,,,
1673611125.339134,4.699409,4098041.000000,1673611125.337118,,,,
1673611125.339151,,,,21.313046,21.320639,4962280.000000,1673607029.471801
1673611125.339304,,,,21.307108,21.316288,4962281.000000,1673607029.472808
1673611125.339538,,,,21.311892,21.318548,4962282.000000,1673607029.473815
1673611125.339571,,,,21.318815,21.324991,4962283.000000,1673607029.474822
1673611125.339577,,,,21.313261,21.320158,4962284.000000,1673607029.475829
1673611125.340654,,,,21.305473,21.313139,4962285.000000,1673607029.476836
1673611125.340788,,,,21.301098,21.309797,4962286.000000,1673607029.477843
1673611125.340918,,,,21.297346,21.307081,4962287.000000,1673607029.478850
1673611125.340922,,,,21.283789,21.291670,4962288.000000,1673607029.479857
1673611125.341080,,,,21.270878,21.281044,4962289.000000,1673607029.480865
1673611125.341101,,,,21.267849,21.277559,4962290.000000,1673607029.481872
1673611125.345775,,,,21.295544,21.305807,4962291.000000,1673607029.482879
1673611125.346037,,,,21.331869,21.342108,4962292.000000,1673607029.483886
1673611125.346277,,,,21.351221,21.358696,4962293.000000,1673607029.484893
1673611125.346663,,,,21.350285,21.358311,4962294.000000,1673607029.485900
1673611125.346682,,,,21.354275,21.361437,4962295.000000,1673607029.486907
1673611125.347923,,,,21.367666,21.376125,4962296.000000,1673607029.487914
1673611125.348173,,,,21.371489,21.380716,4962297.000000,1673607029.488921
1673611125.348411,,,,21.372618,21.379683,4962298.000000,1673607029.489928
1673611125.353525,,,,21.366896,21.374634,4962299.000000,1673607029.490935
1673611125.353609,,,,21.352760,21.362398,4962300.000000,1673607029.491942
1673611125.353620,,,,21.344130,21.353960,4962301.000000,1673607029.492949
1673611125.355836,,,,21.335138,21.346506,4962302.000000,1673607029.493957
1673611125.356279,,,,21.295231,21.305517,4962303.000000,1673607029.494964
1673611125.356591,,,,21.238111,21.245464,4962304.000000,1673607029.495971
1673611125.356660,,,,21.186256,21.194235,4962305.000000,1673607029.496978
1673611125.361323,,,,21.150412,21.158197,4962306.000000,1673607029.497985
1673611125.361674,,,,21.130915,21.136633,4962307.000000,1673607029.498992
1673611125.361695,,,,21.103966,21.112232,4962308.000000,1673607029.499999
1673611125.361996,,,,21.083458,21.091461,4962309.000000,1673607029.501006
1673611125.362193,,,,21.076942,21.084105,4962310.000000,1673607029.502013
1673611125.362521,,,,21.094805,21.100693,4962311.000000,1673607029.503020
1673611125.362756,,,,21.124039,21.128700,4962312.000000,1673607029.504027
1673611125.363055,,,,21.171591,21.176060,4962313.000000,1673607029.505034
1673611125.364052,,,,21.200079,21.208273,4962314.000000,1673607029.506042
1673611125.364218,,,,21.228374,21.236210,4962315.000000,1673607029.507049
1673611125.364245,,,,21.272778,21.278736,4962316.000000,1673607029.508056
1673611125.364258,,,,21.294895,21.303835,4962317.000000,1673607029.509063
1673611125.364502,,,,21.320618,21.328934,4962318.000000,1673607029.510070
1673611125.364544,,,,21.350260,21.355474,4962319.000000,1673607029.511077
1673611125.364650,,,,21.341221,21.348503,4962320.000000,1673607029.512084
1673611125.368505,,,,21.314728,21.321793,4962321.000000,1673607029.513091
1673611125.368626,,,,21.286264,21.292608,4962322.000000,1673607029.514098
1673611125.370672,,,,21.277922,21.283930,4962323.000000,1673607029.515105
1673611125.371100,,,,21.294870,21.303089,4962324.000000,1673607029.516112
1673611125.371271,,,,21.318359,21.327562,4962325.000000,1673607029.517119
1673611125.371290,,,,21.346678,21.353840,4962326.000000,1673607029.518126
1673611125.384537,,,,21.378700,21.385550,4962327.000000,1673607029.519134
1673611125.384654,,,,21.393124,21.398266,4962328.000000,1673607029.520141
1673611125.384679,,,,21.385744,21.394180,4962329.000000,1673607029.521148
1673611125.384738,,,,21.379950,21.389780,4962330.000000,1673607029.522155
1673611125.391908,,,,21.396563,21.406776,4962331.000000,1673607029.523162
1673611125.391980,5.893352,4098062.000000,1673611125.350587,,,,
1673611125.391988,5.965717,4098063.000000,1673611125.351587,,,,
1673611125.391994,6.019984,4098064.000000,1673611125.352587,,,,
1673611125.391998,6.074259,4098065.000000,1673611125.353587,,,,
1673611125.392028,6.200891,4098066.000000,1673611125.354587,,,,
1673611125.392037,6.291336,4098067.000000,1673611125.355587,,,,
1673611125.392075,6.345612,4098068.000000,1673611125.356587,,,,
1673611125.392100,6.472243,4098069.000000,1673611125.357587,,,,
1673611125.392153,6.635053,4098070.000000,1673611125.358587,,,,
1673611125.392160,6.653142,4098071.000000,1673611125.359587,,,,
1673611125.392198,,,,21.376417,21.385405,4962332.000000,1673607029.524169
1673611125.392383,6.707409,4098072.000000,1673611125.360587,,,,
1673611125.392393,,,,21.323576,21.333452,4962333.000000,1673607029.525176
1673611125.392530,6.870219,4098073.000000,1673611125.361587,,,,
1673611125.392581,,,,21.277008,21.286261,4962334.000000,1673607029.526183
1673611125.393319,7.014948,4098074.000000,1673611125.362587,,,,
1673611125.393338,7.033037,4098075.000000,1673611125.363587,,,,
1673611125.393359,7.123482,4098076.000000,1673611125.364587,,,,
1673611125.393365,8.950584,4098093.000000,1673611125.381587,,,,
1673611125.393385,9.077216,4098094.000000,1673611125.382587,,,,
1673611125.393391,9.276212,4098095.000000,1673611125.383587,,,,
1673611125.393402,9.366657,4098096.000000,1673611125.384587,,,,
1673611125.393414,9.493289,4098097.000000,1673611125.385587,,,,
1673611125.393421,9.601831,4098098.000000,1673611125.386587,,,,
1673611125.393494,9.728463,4098099.000000,1673611125.387587,,,,
1673611125.393524,9.927451,4098100.000000,1673611125.388587,,,,
1673611125.393532,10.035994,4098101.000000,1673611125.389587,,,,
1673611125.393552,10.162625,4098102.000000,1673611125.390587,,,,
1673611125.398149,,,,21.248520,21.258591,4962335.000000,1673607029.527190
1673611125.398420,,,,21.240395,21.248926,4962336.000000,1673607029.528197
1673611125.398434,,,,21.238880,21.244743,4962337.000000,1673607029.529204
1673611125.400959,,,,21.242199,21.248711,4962338.000000,1673607029.530211
1673611125.401183,,,,21.259748,21.267702,4962339.000000,1673607029.531219
1673611125.401503,,,,21.293020,21.302393,4962340.000000,1673607029.532226
1673611125.401627,,,,21.328793,21.336266,4962341.000000,1673607029.533233
1673611125.402085,,,,21.353601,21.360210,4962342.000000,1673607029.534240
1673611125.402156,,,,21.365719,21.372375,4962343.000000,1673607029.535247
1673611125.402205,,,,21.373316,21.379395,4962344.000000,1673607029.536254
1673611125.406099,,,,21.379229,21.387255,4962345.000000,1673607029.537261
1673611125.406119,,,,21.399952,21.409182,4962346.000000,1673607029.538268
1673611125.406296,,,,21.426060,21.437187,4962347.000000,1673607029.539275
1673611125.406310,,,,21.440893,21.448439,4962348.000000,1673607029.540282
1673611125.406545,,,,21.395937,21.401825,4962349.000000,1673607029.541289
1673611125.406881,,,,21.324970,21.332756,4962350.000000,1673607029.542296
1673611125.406903,,,,21.265036,21.271740,4962351.000000,1673607029.543303
1673611125.406944,,,,21.231596,21.238085,4962352.000000,1673607029.544311
1673611125.407896,,,,21.230227,21.238205,4962353.000000,1673607029.545318
1673611125.408011,,,,21.225826,21.233950,4962354.000000,1673607029.546325
1673611125.413112,,,,21.237846,21.246017,4962355.000000,1673607029.547332
1673611125.413246,,,,21.255108,21.263880,4962356.000000,1673607029.548339
1673611125.413570,,,,21.269941,21.278881,4962357.000000,1673607029.549346
1673611125.413964,,,,21.293404,21.302416,4962358.000000,1673607029.550353
1673611125.416084,,,,21.319223,21.327515,4962359.000000,1673607029.551360
1673611125.416104,,,,21.329634,21.336554,4962360.000000,1673607029.552367
1673611125.416382,,,,21.330667,21.337852,4962361.000000,1673607029.553374
1673611125.416620,,,,21.327902,21.338238,4962362.000000,1673607029.554381
1673611125.417242,,,,21.341846,21.351267,4962363.000000,1673607029.555388
1673611125.417621,,,,21.370214,21.379370,4962364.000000,1673607029.556396
1673611125.417674,,,,21.384951,21.390574,4962365.000000,1673607029.557403
1673611125.421820,,,,21.402260,21.411224,4962366.000000,1673607029.558410
1673611125.422128,,,,21.406202,21.413748,4962367.000000,1673607029.559417
1673611125.422155,,,,21.401394,21.407810,4962368.000000,1673607029.560424
1673611125.422238,,,,21.405674,21.413340,4962369.000000,1673607029.561431
1673611125.422850,,,,21.376272,21.387184,4962370.000000,1673607029.562438
1673611125.422869,,,,21.320114,21.329775,4962371.000000,1673607029.563445
1673611125.422876,,,,21.271336,21.280155,4962372.000000,1673607029.564452
1673611125.422881,,,,21.234217,21.240248,4962373.000000,1673607029.565459
1673611125.423300,,,,21.208229,21.216808,4962374.000000,1673607029.566466
1673611125.423334,,,,21.188635,21.193417,4962375.000000,1673607029.567473
1673611125.423707,,,,21.169788,21.176348,4962376.000000,1673607029.568480
1673611125.423811,,,,21.154980,21.163654,4962377.000000,1673607029.569488
1673611125.427944,,,,21.145388,21.150888,4962378.000000,1673607029.570495
1673611125.428089,,,,21.194525,21.201374,4962379.000000,1673607029.571502
1673611125.431032,,,,21.242439,21.249359,4962380.000000,1673607029.572509
1673611125.431049,,,,21.279749,21.289867,4962381.000000,1673607029.573516
1673611125.431056,,,,21.325811,21.334318,4962382.000000,1673607029.574523
1673611125.431072,,,,21.373964,21.380764,4962383.000000,1673607029.575530
1673611125.436819,,,,21.416035,21.425337,4962384.000000,1673607029.576537
1673611125.436957,,,,21.420916,21.428366,4962385.000000,1673607029.577544
1673611125.437005,,,,21.396635,21.404156,4962386.000000,1673607029.578551
1673611125.437014,,,,21.376585,21.385765,4962387.000000,1673607029.579558
1673611125.452487,,,,21.360117,21.369274,4962388.000000,1673607029.580565
1673611125.452501,,,,21.340788,21.350521,4962389.000000,1673607029.581573
1673611125.452511,,,,21.327518,21.334871,4962390.000000,1673607029.582580
1673611125.452898,,,,21.287804,21.295324,4962391.000000,1673607029.583587
1673611125.453617,,,,21.236790,21.246618,4962392.000000,1673607029.584594
1673611125.453896,,,,21.168346,21.175026,4962393.000000,1673607029.585601
1673611125.453916,,,,21.075188,21.082373,4962394.000000,1673607029.586608
1673611125.458155,,,,21.014029,21.021166,4962395.000000,1673607029.587615
1673611125.458398,,,,20.992128,21.000635,4962396.000000,1673607029.588622
1673611125.458730,,,,20.997826,21.005732,4962397.000000,1673607029.589629
1673611125.458882,,,,21.026434,21.034340,4962398.000000,1673607029.590636
1673611125.460675,,,,21.086464,21.097591,4962399.000000,1673607029.591643
1673611125.460774,,,,21.176640,21.186300,4962400.000000,1673607029.592650
1673611125.460854,,,,21.256575,21.266090,4962401.000000,1673607029.593657
1673611125.460974,,,,21.323647,21.331457,4962402.000000,1673607029.594665
1673611125.466634,,,,21.390938,21.399998,4962403.000000,1673607029.595672
1673611125.466651,,,,21.443321,21.452213,4962404.000000,1673607029.596679
1673611125.466665,,,,21.457890,21.465988,4962405.000000,1673607029.597686
1673611125.466801,,,,21.478853,21.487720,4962406.000000,1673607029.598693
1673611125.466956,,,,21.469093,21.477648,4962407.000000,1673607029.599700
1673611125.467041,,,,21.437551,21.443968,4962408.000000,1673607029.600707
1673611125.467054,,,,21.406227,21.417715,4962409.000000,1673607029.601714
1673611125.468566,,,,21.394014,21.402306,4962410.000000,1673607029.602721
1673611125.468582,,,,21.375071,21.384203,4962411.000000,1673607029.603728
1673611125.469196,10.307346,4098103.000000,1673611125.407880,,,,
1673611125.469316,10.433978,4098104.000000,1673611125.408880,,,,
1673611125.469370,10.651063,4098105.000000,1673611125.409879,,,,
1673611125.470972,10.723419,4098106.000000,1673611125.410880,,,,
1673611125.470984,10.904318,4098107.000000,1673611125.411880,,,,
1673611125.471034,11.085225,4098108.000000,1673611125.412879,,,,
1673611125.471041,18.701162,4098154.000000,1673611125.458879,,,,
1673611125.471063,18.863974,4098155.000000,1673611125.459880,,,,
1673611125.471073,19.117237,4098156.000000,1673611125.460880,,,,
1673611125.471084,19.207689,4098157.000000,1673611125.461879,,,,
1673611125.471092,19.460953,4098158.000000,1673611125.462879,,,,
1673611125.471102,19.659941,4098159.000000,1673611125.463880,,,,
1673611125.471128,19.822750,4098160.000000,1673611125.464880,,,,
1673611125.471134,20.003649,4098161.000000,1673611125.465879,,,,
1673611125.471147,20.220736,4098162.000000,1673611125.466880,,,,
1673611125.471161,20.419724,4098163.000000,1673611125.467880,,,,
1673611125.474046,,,,21.364925,21.373960,4962412.000000,1673607029.604735
1673611125.474158,,,,21.363844,21.371197,4962413.000000,1673607029.605742
1673611125.474316,,,,21.371151,21.377760,4962414.000000,1673607029.606750
1673611125.474331,,,,21.386705,21.392569,4962415.000000,1673607029.607757
1673611125.474798,,,,21.385359,21.391054,4962416.000000,1673607029.608764
1673611125.474900,,,,21.381248,21.388506,4962417.000000,1673607029.609771
1673611125.474958,,,,21.366945,21.374393,4962418.000000,1673607029.610778
1673611125.475014,,,,21.333649,21.338453,4962419.000000,1673607029.611785
1673611125.475814,,,,21.270374,21.277920,4962420.000000,1673607029.612792
1673611125.476002,,,,21.184862,21.193922,4962421.000000,1673607029.613799
1673611125.476047,,,,21.121323,21.130335,4962422.000000,1673607029.614806
1673611125.476126,,,,21.069756,21.075932,4962423.000000,1673607029.615813
1673611125.476209,,,,20.997898,21.005178,4962424.000000,1673607029.616820
1673611125.476307,,,,20.967991,20.974072,4962425.000000,1673607029.617827
1673611125.476497,,,,20.957991,20.964720,4962426.000000,1673607029.618834
1673611125.480528,,,,20.982416,20.991789,4962427.000000,1673607029.619842
1673611125.480668,,,,21.037758,21.046312,4962428.000000,1673607029.620849
1673611125.480815,,,,21.103388,21.110765,4962429.000000,1673607029.621856
1673611125.482981,,,,21.171398,21.179834,4962430.000000,1673607029.622863
1673611125.482998,,,,21.244963,21.252100,4962431.000000,1673607029.623870
1673611125.483275,,,,21.331436,21.338453,4962432.000000,1673607029.624877
1673611125.483285,,,,21.432550,21.438822,4962433.000000,1673607029.625884
1673611125.488229,,,,21.529554,21.536619,4962434.000000,1673607029.626891
1673611125.488240,,,,21.589439,21.595135,4962435.000000,1673607029.627898
1673611125.488329,,,,21.614130,21.620089,4962436.000000,1673607029.628905
1673611125.490562,,,,21.590931,21.598211,4962437.000000,1673607029.629912
1673611125.490696,,,,21.540565,21.545538,4962438.000000,1673607029.630919
1673611125.490777,,,,21.481522,21.487432,4962439.000000,1673607029.631927
1673611125.490861,,,,21.439161,21.447598,4962440.000000,1673607029.632934
1673611125.505748,,,,21.429882,21.439953,4962441.000000,1673607029.633941
1673611125.505814,,,,21.444908,21.453583,4962442.000000,1673607029.634948
1673611125.505899,,,,21.457962,21.465122,4962443.000000,1673607029.635955
1673611125.505913,,,,21.451231,21.461205,4962444.000000,1673607029.636962
1673611125.512148,,,,21.440773,21.446444,4962445.000000,1673607029.637969
1673611125.512687,,,,21.430435,21.438461,4962446.000000,1673607029.638976
1673611125.512879,,,,21.408222,21.416273,4962447.000000,1673607029.639983
1673611125.512900,,,,21.346125,21.354321,4962448.000000,1673607029.640990
1673611125.513200,,,,21.277658,21.285252,4962449.000000,1673607029.641997
1673611125.513609,,,,21.204720,21.213875,4962450.000000,1673607029.643004
1673611125.515655,29.482876,4098215.000000,1673611125.503585,,,,
1673611125.515667,29.699961,4098216.000000,1673611125.504585,,,,
1673611125.515700,29.808504,4098217.000000,1673611125.505585,,,,
1673611125.515711,29.953224,4098218.000000,1673611125.506585,,,,
1673611125.515717,30.152212,4098219.000000,1673611125.507585,,,,
1673611125.515722,30.315022,4098220.000000,1673611125.508585,,,,
1673611125.515731,30.459743,4098221.000000,1673611125.509585,,,,
1673611125.515738,30.658739,4098222.000000,1673611125.510585,,,,
1673611125.515761,30.803459,4098223.000000,1673611125.511585,,,,
1673611125.515828,31.038626,4098224.000000,1673611125.512585,,,,
1673611125.518439,,,,21.148127,21.153654,4962451.000000,1673607029.644011
1673611125.518809,,,,21.080334,21.087061,4962452.000000,1673607029.645019
1673611125.518821,,,,21.023718,21.031336,4962453.000000,1673607029.646026
1673611125.519110,,,,21.027060,21.038235,4962454.000000,1673607029.647033
1673611125.519161,,,,21.070982,21.079777,4962455.000000,1673607029.648040
1673611125.519251,,,,21.138512,21.145937,4962456.000000,1673607029.649047
1673611125.519419,,,,21.202940,21.212698,4962457.000000,1673607029.650054
1673611125.519606,,,,21.273499,21.284145,4962458.000000,1673607029.651061
1673611125.520499,,,,21.335764,21.346436,4962459.000000,1673607029.652068
1673611125.520639,,,,21.397116,21.405935,4962460.000000,1673607029.653075
1673611125.520735,,,,21.452986,21.459785,4962461.000000,1673607029.654082
1673611125.526113,,,,21.485561,21.493587,4962462.000000,1673607029.655089
1673611125.526442,,,,21.502438,21.512554,4962463.000000,1673607029.656096
1673611125.526464,,,,21.516212,21.525105,4962464.000000,1673607029.657104
1673611125.526474,,,,21.516668,21.526331,4962465.000000,1673607029.658111
1673611125.528481,,,,21.527294,21.536186,4962466.000000,1673607029.659118
1673611125.528716,,,,21.527464,21.536356,4962467.000000,1673607029.660125
1673611125.528916,,,,21.494743,21.504093,4962468.000000,1673607029.661132
1673611125.529174,,,,21.460943,21.470581,4962469.000000,1673607029.662139
1673611125.529598,,,,21.432720,21.441395,4962470.000000,1673607029.663146
1673611125.529777,,,,21.407982,21.414709,4962471.000000,1673607029.664153
1673611125.530058,,,,21.373026,21.378313,4962472.000000,1673607029.665160
1673611125.534205,,,,21.311098,21.317129,4962473.000000,1673607029.666167
1673611125.534235,,,,21.245371,21.253397,4962474.000000,1673607029.667174
1673611125.534536,,,,21.183756,21.193008,4962475.000000,1673607029.668181
1673611125.535328,,,,21.114902,21.124468,4962476.000000,1673607029.669188
1673611125.535353,,,,21.072784,21.080738,4962477.000000,1673607029.670196
1673611125.536007,,,,21.051725,21.057732,4962478.000000,1673607029.671203
1673611125.536133,,,,21.029270,21.037754,4962479.000000,1673607029.672210
1673611125.536530,,,,21.030857,21.038813,4962480.000000,1673607029.673217
1673611125.536849,,,,21.069010,21.076315,4962481.000000,1673607029.674224
1673611125.537077,,,,21.122189,21.132233,4962482.000000,1673607029.675231
1673611125.537252,,,,21.167553,21.176540,4962483.000000,1673607029.676238
1673611125.537897,,,,21.334826,21.343021,4962485.000000,1673607029.678252
1673611125.537909,,,,21.429426,21.435745,4962486.000000,1673607029.679259
1673611125.537913,,,,21.513927,21.519791,4962487.000000,1673607029.680266
1673611125.537932,,,,21.559149,21.564722,4962488.000000,1673607029.681273
1673611125.537936,,,,21.559029,21.562679,4962489.000000,1673607029.682281
1673611125.537990,,,,21.519073,21.524864,4962490.000000,1673607029.683288
1673611125.537995,,,,21.468107,21.475918,4962491.000000,1673607029.684295
1673611125.538043,,,,21.438200,21.447069,4962492.000000,1673607029.685302
1673611125.538089,,,,21.425797,21.431274,4962493.000000,1673607029.686309
1673611125.538107,,,,21.413174,21.419638,4962494.000000,1673607029.687316
1673611125.540623,,,,21.398798,21.405935,4962495.000000,1673607029.688323
1673611125.540666,,,,21.379061,21.384706,4962496.000000,1673607029.689330
1673611125.540680,,,,21.337784,21.341700,4962497.000000,1673607029.690337
1673611125.549063,,,,21.301170,21.308546,4962498.000000,1673607029.691344
1673611125.549080,,,,21.261190,21.271091,4962499.000000,1673607029.692351
1673611125.549086,,,,21.217508,21.228420,4962500.000000,1673607029.693358
1673611125.549097,,,,21.208735,21.219622,4962501.000000,1673607029.694366
1673611125.549108,,,,21.222630,21.233757,4962502.000000,1673607029.695373
1673611125.549169,,,,21.234144,21.244598,4962503.000000,1673607029.696380
1673611125.549176,,,,21.233471,21.240849,4962504.000000,1673607029.697387
1673611125.549203,,,,21.215946,21.223757,4962505.000000,1673607029.698394
1673611125.550696,,,,21.225681,21.231544,4962506.000000,1673607029.699401
1673611125.550905,,,,21.262920,21.269985,4962507.000000,1673607029.700408
1673611125.551003,,,,21.314415,21.322659,4962508.000000,1673607029.701415
1673611125.551257,,,,21.368650,21.377472,4962509.000000,1673607029.702422
1673611125.551273,,,,21.426781,21.435890,4962510.000000,1673607029.703429
1673611125.551284,,,,21.464861,21.474283,4962511.000000,1673607029.704436
1673611125.565175,,,,21.462770,21.472649,4962512.000000,1673607029.705443
1673611125.565241,,,,21.443226,21.452213,4962513.000000,1673607029.706450
1673611125.565573,,,,21.400793,21.408484,4962514.000000,1673607029.707458
1673611125.566185,,,,21.347591,21.355427,4962515.000000,1673607029.708465
1673611125.566206,,,,21.315329,21.321985,4962516.000000,1673607029.709472
1673611125.566482,,,,21.299030,21.304941,4962517.000000,1673607029.710479
1673611125.566495,,,,21.292540,21.297752,4962518.000000,1673607029.711486
1673611125.566687,,,,21.292610,21.299747,4962519.000000,1673607029.712493
1673611125.573036,,,,21.295641,21.304220,4962520.000000,1673607029.713500
1673611125.573059,,,,21.306747,21.316504,4962521.000000,1673607029.714507
1673611125.573132,,,,21.332037,21.341097,4962522.000000,1673607029.715514
1673611125.573556,,,,21.362040,21.372351,4962523.000000,1673607029.716521
1673611125.573778,,,,21.385143,21.393578,4962524.000000,1673607029.717528
1673611125.573793,,,,21.406467,21.415407,4962525.000000,1673607029.718535
1673611125.573812,,,,21.424257,21.432501,4962526.000000,1673607029.719543
1673611125.578945,,,,21.427454,21.435505,4962527.000000,1673607029.720550
1673611125.578961,,,,21.368170,21.377087,4962528.000000,1673607029.721557
1673611125.579040,,,,21.222364,21.232578,4962529.000000,1673607029.722564
1673611125.579166,,,,21.087713,21.096029,4962530.000000,1673607029.723571
1673611125.579643,,,,21.006121,21.011454,4962531.000000,1673607029.724578
1673611125.579887,,,,20.969217,20.976210,4962532.000000,1673607029.725585
1673611125.580063,,,,20.959457,20.967148,4962533.000000,1673607029.726592
1673611125.580081,,,,20.978834,20.986307,4962534.000000,1673607029.727599
1673611125.580103,,,,21.029102,21.036047,4962535.000000,1673607029.728606
1673611125.580160,,,,21.095165,21.105982,4962536.000000,1673607029.729613
1673611125.580166,,,,21.243834,21.251379,4962537.000000,1673607029.730620
1673611125.580263,34.946095,4098252.000000,1673611125.545420,,,,
1673611125.580579,35.090813,4098253.000000,1673611125.546420,,,,
1673611125.580779,,,,21.306963,21.314966,4962538.000000,1673607029.731627
1673611125.580944,,,,21.380913,21.388098,4962539.000000,1673607029.732635
1673611125.581106,,,,21.469261,21.478008,4962540.000000,1673607029.733642
1673611125.581335,35.181267,4098254.000000,1673611125.547420,,,,
1673611125.581347,35.344078,4098255.000000,1673611125.548420,,,,
1673611125.581377,35.452618,4098256.000000,1673611125.549420,,,,
1673611125.581385,35.543072,4098257.000000,1673611125.550420,,,,
1673611125.581393,35.687794,4098258.000000,1673611125.551420,,,,
1673611125.581409,35.778240,4098259.000000,1673611125.552420,,,,
1673611125.581415,35.868694,4098260.000000,1673611125.553420,,,,
1673611125.581443,,,,21.581940,21.588547,4962541.000000,1673607029.734649
1673611125.581471,36.031502,4098261.000000,1673611125.554420,,,,
1673611125.581482,37.551075,4098276.000000,1673611125.569420,,,,
1673611125.581489,37.623428,4098277.000000,1673611125.570420,,,,
1673611125.581493,37.768150,4098278.000000,1673611125.571420,,,,
1673611125.581497,37.822426,4098279.000000,1673611125.572420,,,,
1673611125.581514,37.876694,4098280.000000,1673611125.573420,,,,
1673611125.581519,38.021416,4098281.000000,1673611125.574420,,,,
1673611125.581532,38.075691,4098282.000000,1673611125.575420,,,,
1673611125.581543,38.184223,4098283.000000,1673611125.576420,,,,
1673611125.581550,38.292767,4098284.000000,1673611125.577420,,,,
1673611125.581572,38.365131,4098285.000000,1673611125.578420,,,,
1673611125.581676,,,,21.632761,21.640812,4962542.000000,1673607029.735656
1673611125.581796,,,,21.608215,21.615232,4962543.000000,1673607029.736663
1673611125.585706,,,,21.550398,21.558544,4962544.000000,1673607029.737670
1673611125.585780,,,,21.526550,21.534985,4962545.000000,1673607029.738677
1673611125.586138,,,,21.505802,21.512794,4962546.000000,1673607029.739684
1673611125.586154,,,,21.477194,21.481087,4962547.000000,1673607029.740691
1673611125.593113,,,,21.458082,21.463898,4962548.000000,1673607029.741698
1673611125.593362,,,,21.437984,21.445457,4962549.000000,1673607029.742705
1673611125.593567,,,,21.422911,21.432451,4962550.000000,1673607029.743712
1673611125.593732,,,,21.409184,21.418461,4962551.000000,1673607029.744720
1673611125.595385,,,,21.395023,21.402065,4962552.000000,1673607029.745727
1673611125.595484,,,,21.384903,21.393410,4962553.000000,1673607029.746734
1673611125.595670,,,,21.367088,21.373672,4962554.000000,1673607029.747741
1673611125.600786,,,,21.348385,21.358023,4962555.000000,1673607029.748748
1673611125.601187,,,,21.342735,21.352036,4962556.000000,1673607029.749755
1673611125.601416,,,,21.331749,21.339848,4962557.000000,1673607029.750762
1673611125.603609,,,,21.291939,21.299147,4962558.000000,1673607029.751769
1673611125.603632,,,,21.206547,21.213202,4962559.000000,1673607029.752776
1673611125.603916,,,,21.137526,21.144735,4962560.000000,1673607029.753783
1673611125.604259,,,,21.130795,21.135239,4962561.000000,1673607029.754790
1673611125.604460,,,,21.147070,21.154856,4962562.000000,1673607029.755797
1673611125.604803,,,,21.193684,21.202192,4962563.000000,1673607029.756804
1673611125.604818,,,,21.251621,21.258205,4962564.000000,1673607029.757812
1673611125.604825,,,,21.284702,21.292536,4962565.000000,1673607029.758819
1673611125.608395,,,,21.299294,21.307392,4962566.000000,1673607029.759826
1673611125.608426,,,,21.339008,21.347157,4962567.000000,1673607029.760833
1673611125.608439,,,,21.371872,21.381197,4962568.000000,1673607029.761840
1673611125.611058,,,,21.395336,21.402714,4962569.000000,1673607029.762847
1673611125.611528,,,,21.416445,21.422907,4962570.000000,1673607029.763854
1673611125.611542,,,,21.444427,21.451227,4962571.000000,1673607029.764861
1673611125.611729,,,,21.465847,21.471975,4962572.000000,1673607029.765868
1673611125.611750,,,,21.451231,21.457743,4962573.000000,1673607029.766875
1673611125.612409,,,,21.395216,21.404877,4962574.000000,1673607029.767882
1673611125.612462,,,,21.291721,21.298473,4962575.000000,1673607029.768889
1673611125.631988,,,,21.192627,21.200220,4962576.000000,1673607029.769897
1673611125.632031,,,,21.140289,21.146513,4962577.000000,1673607029.770904
1673611125.632114,,,,21.115120,21.121752,4962578.000000,1673607029.771911
1673611125.633407,38.473675,4098286.000000,1673611125.572978,,,,
1673611125.634818,38.509853,4098287.000000,1673611125.573978,,,,
1673611125.634840,42.037422,4098337.000000,1673611125.623978,,,,
1673611125.634858,42.073601,4098338.000000,1673611125.624978,,,,
1673611125.634874,42.109787,4098339.000000,1673611125.625978,,,,
1673611125.634883,42.164055,4098340.000000,1673611125.626978,,,,
1673611125.634893,42.254509,4098341.000000,1673611125.627978,,,,
1673611125.634950,42.308777,4098342.000000,1673611125.628978,,,,
1673611125.634958,42.344955,4098343.000000,1673611125.629978,,,,
1673611125.634999,42.381134,4098344.000000,1673611125.630978,,,,
1673611125.635009,42.453495,4098345.000000,1673611125.631978,,,,
1673611125.635020,42.435410,4098346.000000,1673611125.632978,,,,
1673611125.638298,,,,21.114832,21.121727,4962579.000000,1673607029.772918
1673611125.638649,,,,21.117115,21.123507,4962580.000000,1673607029.773925
1673611125.638666,,,,21.137117,21.146202,4962581.000000,1673607029.774932
1673611125.638810,,,,21.167336,21.175747,4962582.000000,1673607029.775939
1673611125.638980,,,,21.187986,21.194956,4962583.000000,1673607029.776946
1673611125.641105,,,,21.215826,21.224911,4962584.000000,1673607029.777953
1673611125.641127,,,,21.294197,21.300951,4962585.000000,1673607029.778960
1673611125.641133,,,,21.390480,21.396919,4962586.000000,1673607029.779967
1673611125.641162,,,,21.484528,21.491232,4962587.000000,1673607029.780974
1673611125.641176,,,,21.542225,21.545755,4962588.000000,1673607029.781981
1673611125.641183,,,,21.541094,21.545996,4962589.000000,1673607029.782989
1673611125.645813,,,,21.496138,21.505968,4962590.000000,1673607029.783996
1673611125.646094,,,,21.445221,21.453896,4962591.000000,1673607029.785003
1673611125.646134,,,,21.410217,21.416874,4962592.000000,1673607029.786010
1673611125.646142,,,,21.385769,21.392544,4962593.000000,1673607029.787017
1673611125.648101,,,,21.371992,21.379250,4962594.000000,1673607029.788024
1673611125.648366,,,,21.361006,21.365860,4962595.000000,1673607029.789031
1673611125.648490,,,,21.349274,21.355810,4962596.000000,1673607029.790038
1673611125.648499,,,,21.339706,21.346243,4962597.000000,1673607029.791045
1673611125.653464,,,,21.325138,21.332491,4962598.000000,1673607029.792052
1673611125.653582,,,,21.301651,21.308836,4962599.000000,1673607029.793059
1673611125.654080,,,,21.275686,21.283039,4962600.000000,1673607029.794066
1673611125.656231,,,,21.259604,21.267967,4962601.000000,1673607029.795074
1673611125.656251,,,,21.249603,21.257917,4962602.000000,1673607029.796081
1673611125.656284,,,,21.229626,21.235872,4962603.000000,1673607029.797088
1673611125.656296,,,,21.168947,21.178728,4962604.000000,1673607029.798095
1673611125.661429,,,,21.139256,21.147259,4962605.000000,1673607029.799102
1673611125.661654,,,,21.124399,21.134373,4962606.000000,1673607029.800109
1673611125.662097,,,,21.134472,21.143389,4962607.000000,1673607029.801116
1673611125.662127,,,,21.172239,21.181637,4962608.000000,1673607029.802123
1673611125.662140,,,,21.218998,21.228661,4962609.000000,1673607029.803130
1673611125.662147,,,,21.269964,21.276669,4962610.000000,1673607029.804137
1673611125.663333,,,,21.320715,21.326721,4962611.000000,1673607029.805144
1673611125.663583,,,,21.358868,21.365547,4962612.000000,1673607029.806151
1673611125.663855,,,,21.408390,21.415312,4962613.000000,1673607029.807158
1673611125.664117,,,,21.433464,21.440889,4962614.000000,1673607029.808166
1673611125.664312,,,,21.442215,21.448126,4962615.000000,1673607029.809173
1673611125.664483,,,,21.445173,21.448967,4962616.000000,1673607029.810180
1673611125.664801,,,,21.446375,21.453535,4962617.000000,1673607029.811187
1673611125.664937,,,,21.449789,21.460026,4962618.000000,1673607029.812194
1673611125.668215,,,,21.435196,21.446997,4962619.000000,1673607029.813201
1673611125.668370,,,,21.426157,21.432837,4962620.000000,1673607029.814208
1673611125.668449,,,,21.429522,21.436106,4962621.000000,1673607029.815215
1673611125.670549,,,,21.420097,21.429880,4962622.000000,1673607029.816222
1673611125.670874,,,,21.405434,21.416153,4962623.000000,1673607029.817229
1673611125.671228,,,,21.377474,21.385044,4962624.000000,1673607029.818236
1673611125.671287,,,,21.314054,21.321672,4962625.000000,1673607029.819243
1673611125.684606,,,,21.234289,21.243517,4962626.000000,1673607029.820251
1673611125.684859,,,,21.138704,21.147717,4962627.000000,1673607029.821258
1673611125.685240,,,,20.996817,21.003063,4962628.000000,1673607029.822265
1673611125.685261,,,,20.873199,20.882860,4962629.000000,1673607029.823272
1673611125.685266,,,,20.837307,20.848820,4962630.000000,1673607029.824279
1673611125.685376,,,,20.886711,20.895266,4962631.000000,1673607029.825286
1673611125.685492,,,,20.966188,20.973711,4962632.000000,1673607029.826293
1673611125.692167,,,,21.050955,21.057491,4962633.000000,1673607029.827300
1673611125.692189,,,,21.135290,21.141802,4962634.000000,1673607029.828307
1673611125.692194,,,,21.224792,21.233036,4962635.000000,1673607029.829314
1673611125.697872,42.507763,4098347.000000,1673611125.637125,,,,
1673611125.698021,42.543949,4098348.000000,1673611125.638125,,,,
1673611125.698036,42.562038,4098349.000000,1673611125.639125,,,,
1673611125.698045,42.652485,4098350.000000,1673611125.640125,,,,
1673611125.698062,42.688671,4098351.000000,1673611125.641125,,,,
1673611125.698225,,,,21.333984,21.341650,4962636.000000,1673607029.830321
1673611125.698469,,,,21.444235,21.452166,4962637.000000,1673607029.831328
1673611125.698544,42.724850,4098352.000000,1673611125.642125,,,,
1673611125.698755,,,,21.548210,21.555443,4962638.000000,1673607029.832335
1673611125.698768,,,,21.632183,21.639849,4962639.000000,1673607029.833343
1673611125.698877,43.159012,4098362.000000,1673611125.652125,,,,
1673611125.698892,43.195190,4098363.000000,1673611125.653125,,,,
1673611125.698961,43.267555,4098364.000000,1673611125.654125,,,,
1673611125.699046,43.267555,4098365.000000,1673611125.655125,,,,
1673611125.699121,43.321819,4098366.000000,1673611125.656125,,,,
1673611125.699170,43.430363,4098367.000000,1673611125.657125,,,,
1673611125.699277,43.466541,4098368.000000,1673611125.658125,,,,
1673611125.699347,43.466541,4098369.000000,1673611125.659125,,,,
1673611125.699360,43.520817,4098370.000000,1673611125.660125,,,,
1673611125.699458,43.593174,4098371.000000,1673611125.661125,,,,
1673611125.700100,44.732849,4098398.000000,1673611125.688125,,,,
1673611125.700133,44.823303,4098399.000000,1673611125.689125,,,,
1673611125.700144,44.841393,4098400.000000,1673611125.690125,,,,
1673611125.700153,44.895660,4098401.000000,1673611125.691125,,,,
1673611125.700172,44.913757,4098402.000000,1673611125.692125,,,,
1673611125.700504,44.931847,4098403.000000,1673611125.693125,,,,
1673611125.700522,44.949936,4098404.000000,1673611125.694125,,,,
1673611125.700538,44.968025,4098405.000000,1673611125.695125,,,,
1673611125.700547,45.094654,4098406.000000,1673611125.696125,,,,
1673611125.700635,45.112743,4098407.000000,1673611125.697125,,,,
1673611125.700899,,,,21.680986,21.688677,4962640.000000,1673607029.834350
1673611125.701394,,,,21.662355,21.669540,4962641.000000,1673607029.835357
1673611125.701467,,,,21.595690,21.602875,4962642.000000,1673607029.836364
1673611125.705998,,,,21.516981,21.524960,4962643.000000,1673607029.837371
1673611125.706247,,,,21.463251,21.470989,4962644.000000,1673607029.838378
1673611125.706257,,,,21.438370,21.445675,4962645.000000,1673607029.839385
1673611125.706268,,,,21.403078,21.413532,4962646.000000,1673607029.840392
1673611125.706411,,,,21.354900,21.362831,4962647.000000,1673607029.841399
1673611125.706593,,,,21.319441,21.327347,4962648.000000,1673607029.842406
1673611125.706781,,,,21.296482,21.305830,4962649.000000,1673607029.843413
1673611125.707027,,,,21.288740,21.298161,4962650.000000,1673607029.844420
1673611125.707986,,,,21.277153,21.285347,4962651.000000,1673607029.845428
1673611125.708112,,,,21.252705,21.261044,4962652.000000,1673607029.846435
1673611125.708302,,,,21.231716,21.240416,4962653.000000,1673607029.847442
1673611125.708496,,,,21.238232,21.244383,4962654.000000,1673607029.848449
1673611125.713661,,,,21.242800,21.251139,4962655.000000,1673607029.849456
1673611125.713787,,,,21.264124,21.271790,4962656.000000,1673607029.850463
1673611125.714067,,,,21.310450,21.317707,4962657.000000,1673607029.851470
1673611125.714283,,,,21.321531,21.328766,4962658.000000,1673607029.852477
1673611125.714357,,,,21.321579,21.329390,4962659.000000,1673607029.853484
1673611125.714750,,,,21.307852,21.315374,4962660.000000,1673607029.854491
1673611125.714794,,,,21.300905,21.307730,4962661.000000,1673607029.855498
1673611125.715724,,,,21.313934,21.324678,4962662.000000,1673607029.856505
1673611125.715770,,,,21.347015,21.352446,4962663.000000,1673607029.857512
1673611125.716172,,,,21.374613,21.380116,4962664.000000,1673607029.858520
1673611125.716194,,,,21.398533,21.406704,4962665.000000,1673607029.859527
1673611125.720771,,,,21.425386,21.434231,4962666.000000,1673607029.860534
1673611125.720934,,,,21.437239,21.447044,4962667.000000,1673607029.861541
1673611125.723323,,,,21.438560,21.448751,4962668.000000,1673607029.862548
1673611125.723722,,,,21.437384,21.447765,4962669.000000,1673607029.863555
1673611125.723744,,,,21.407644,21.416368,4962670.000000,1673607029.864562
1673611125.723756,,,,21.359684,21.367182,4962671.000000,1673607029.865569
1673611125.728176,,,,21.327782,21.337011,4962672.000000,1673607029.866576
1673611125.728694,,,,21.316339,21.324701,4962673.000000,1673607029.867583
1673611125.728860,,,,21.304632,21.315615,4962674.000000,1673607029.868590
1673611125.728871,,,,21.302853,21.311888,4962675.000000,1673607029.869597
1673611125.730984,,,,21.307060,21.314581,4962676.000000,1673607029.870605
1673611125.731851,,,,21.310184,21.319605,4962677.000000,1673607029.871612
1673611125.731873,,,,21.301458,21.309149,4962678.000000,1673607029.872619
1673611125.732128,,,,21.279894,21.288641,4962679.000000,1673607029.873626
1673611125.732595,,,,21.259699,21.268808,4962680.000000,1673607029.874633
1673611125.733266,,,,21.233856,21.241882,4962681.000000,1673607029.875640
1673611125.733363,,,,21.196424,21.202866,4962682.000000,1673607029.876647
1673611125.735775,,,,21.130096,21.137354,4962683.000000,1673607029.877654
1673611125.735785,,,,21.052639,21.058092,4962684.000000,1673607029.878661
1673611125.735793,,,,20.999966,21.007536,4962685.000000,1673607029.879668
1673611125.735801,,,,21.013813,21.019772,4962686.000000,1673607029.880675
1673611125.738436,,,,21.041147,21.048332,4962687.000000,1673607029.881682
1673611125.738718,,,,21.058769,21.068357,4962688.000000,1673607029.882689
1673611125.738726,,,,21.091703,21.099586,4962689.000000,1673607029.883697
1673611125.738755,,,,21.151686,21.160313,4962690.000000,1673607029.884704
1673611125.738850,,,,21.203661,21.215895,4962691.000000,1673607029.885711
1673611125.738955,,,,21.255589,21.264793,4962692.000000,1673607029.886718
1673611125.752446,,,,21.327158,21.334896,4962693.000000,1673607029.887725
1673611125.753557,,,,21.498856,21.509550,4962694.000000,1673607029.888732
1673611125.753587,,,,21.588190,21.595879,4962695.000000,1673607029.889739
1673611125.754097,,,,21.610498,21.616892,4962696.000000,1673607029.890746
1673611125.754132,,,,21.560423,21.568930,4962697.000000,1673607029.891753
1673611125.754143,,,,21.514650,21.521355,4962698.000000,1673607029.892760
1673611125.754443,,,,21.481161,21.489836,4962699.000000,1673607029.893767
1673611125.760231,,,,21.466520,21.472527,4962700.000000,1673607029.894774
1673611125.760483,,,,21.457096,21.462984,4962701.000000,1673607029.895782
1673611125.760495,,,,21.440748,21.447044,4962702.000000,1673607029.896789
1673611125.760601,,,,21.423223,21.427740,4962703.000000,1673607029.897796
1673611125.760748,,,,21.402332,21.408651,4962704.000000,1673607029.898803
1673611125.760762,,,,21.385408,21.395910,4962705.000000,1673607029.899810
1673611125.760773,,,,21.374878,21.383530,4962706.000000,1673607029.900817
1673611125.760953,,,,21.363363,21.370331,4962707.000000,1673607029.901824
1673611125.763112,45.130833,4098408.000000,1673611125.702311,,,,
1673611125.763130,45.185108,4098409.000000,1673611125.703310,,,,
1673611125.763156,45.275555,4098410.000000,1673611125.704310,,,,
1673611125.763171,45.329830,4098411.000000,1673611125.705311,,,,
1673611125.763228,45.384098,4098412.000000,1673611125.706311,,,,
1673611125.764541,45.438366,4098413.000000,1673611125.707310,,,,
1673611125.764552,46.903667,4098459.000000,1673611125.753310,,,,
1673611125.764581,46.921757,4098460.000000,1673611125.754311,,,,
1673611125.764591,46.994114,4098461.000000,1673611125.755311,,,,
1673611125.764596,47.012211,4098462.000000,1673611125.756310,,,,
1673611125.764661,47.030300,4098463.000000,1673611125.757310,,,,
1673611125.764672,47.048389,4098464.000000,1673611125.758311,,,,
1673611125.764682,47.066479,4098465.000000,1673611125.759310,,,,
1673611125.764689,47.120747,4098466.000000,1673611125.760310,,,,
1673611125.764701,47.138844,4098467.000000,1673611125.761311,,,,
1673611125.764711,47.211201,4098468.000000,1673611125.762311,,,,
1673611125.765942,,,,21.337759,21.343935,4962708.000000,1673607029.902831
1673611125.766012,,,,21.304703,21.312466,4962709.000000,1673607029.903838
1673611125.766021,,,,21.237101,21.244551,4962710.000000,1673607029.904845
1673611125.766058,,,,21.134256,21.140816,4962711.000000,1673607029.905852
1673611125.768029,,,,21.019150,21.025639,4962712.000000,1673607029.906859
1673611125.768040,,,,20.936787,20.943588,4962713.000000,1673607029.907866
1673611125.768071,,,,20.917650,20.924643,4962714.000000,1673607029.908874
1673611125.773312,,,,20.951452,20.958637,4962715.000000,1673607029.909881
1673611125.773329,,,,21.003500,21.009651,4962716.000000,1673607029.910888
1673611125.773474,,,,21.091152,21.099131,4962717.000000,1673607029.911895
1673611125.775559,,,,21.189718,21.198273,4962718.000000,1673607029.912902
1673611125.776037,,,,21.285376,21.293545,4962719.000000,1673607029.913909
1673611125.776103,,,,21.381706,21.390549,4962720.000000,1673607029.914916
1673611125.776111,,,,21.464933,21.471350,4962721.000000,1673607029.915923
1673611125.780804,,,,21.541887,21.549963,4962722.000000,1673607029.916930
1673611125.780818,,,,21.614298,21.624367,4962723.000000,1673607029.917937
1673611125.781053,,,,21.645670,21.652905,4962724.000000,1673607029.918944
1673611125.782960,,,,21.623241,21.628454,4962725.000000,1673607029.919951
1673611125.783230,,,,21.551552,21.560925,4962726.000000,1673607029.920959
1673611125.783237,,,,21.476618,21.484571,4962727.000000,1673607029.921966
1673611125.783389,,,,21.435797,21.442862,4962728.000000,1673607029.922973
1673611125.788564,,,,21.420050,21.428005,4962729.000000,1673607029.923980
1673611125.788812,,,,21.408583,21.416536,4962730.000000,1673607029.924987
1673611125.788819,,,,21.386585,21.395164,4962731.000000,1673607029.925994
1673611125.788971,,,,21.363266,21.368792,4962732.000000,1673607029.927001
1673611125.789084,,,,21.340715,21.347109,4962733.000000,1673607029.928008
1673611125.789177,,,,21.322084,21.328548,4962734.000000,1673607029.929015
1673611125.789315,,,,21.273764,21.281404,4962735.000000,1673607029.930022
1673611125.789344,,,,21.250517,21.258326,4962736.000000,1673607029.931029
1673611125.790378,,,,21.244530,21.251379,4962737.000000,1673607029.932036
1673611125.790443,,,,21.242920,21.250994,4962738.000000,1673607029.933043
1673611125.795972,,,,21.236259,21.243925,4962739.000000,1673607029.934051
1673611125.796347,,,,21.217966,21.224188,4962740.000000,1673607029.935058
1673611125.796637,,,,21.278572,21.284771,4962741.000000,1673607029.936065
1673611125.796651,,,,21.348482,21.353287,4962742.000000,1673607029.937072
1673611125.797024,,,,21.378435,21.386894,4962743.000000,1673607029.938079
1673611125.797521,,,,21.403751,21.412811,4962744.000000,1673607029.939086
1673611125.797739,,,,21.431807,21.437525,4962745.000000,1673607029.940093
1673611125.797856,,,,21.448418,21.454617,4962746.000000,1673607029.941100
1673611125.800082,,,,21.447264,21.453560,4962747.000000,1673607029.942107
1673611125.800412,,,,21.430483,21.440338,4962748.000000,1673607029.943114
1673611125.801007,,,,21.396851,21.407665,4962749.000000,1673607029.944121
1673611125.801291,,,,21.366705,21.376148,4962750.000000,1673607029.945128
1673611125.801762,,,,21.353746,21.361557,4962751.000000,1673607029.946136
1673611125.801972,,,,21.349539,21.357855,4962752.000000,1673607029.947143
1673611125.801990,,,,21.351341,21.360619,4962753.000000,1673607029.948150
1673611125.815823,,,,21.352880,21.363792,4962754.000000,1673607029.949157
1673611125.815853,,,,21.341534,21.351627,4962755.000000,1673607029.950164
1673611125.816017,,,,21.316435,21.325855,4962756.000000,1673607029.951171
1673611125.816031,,,,21.300280,21.306383,4962757.000000,1673607029.952178
1673611125.823246,,,,21.291409,21.299820,4962758.000000,1673607029.953185
1673611125.823680,,,,21.280470,21.288208,4962759.000000,1673607029.954192
1673611125.823795,,,,21.269363,21.276213,4962760.000000,1673607029.955199
1673611125.823813,,,,21.265469,21.271645,4962761.000000,1673607029.956206
1673611125.826145,,,,21.267441,21.271790,4962762.000000,1673607029.957213
1673611125.826259,,,,21.274340,21.276814,4962763.000000,1673607029.958220
1673611125.828093,,,,21.273138,21.281790,4962764.000000,1673607029.959228
1673611125.828745,,,,21.268787,21.281525,4962765.000000,1673607029.960235
1673611125.828974,,,,21.276335,21.284603,4962766.000000,1673607029.961242
1673611125.829072,,,,21.270134,21.278303,4962767.000000,1673607029.962249
1673611125.829345,,,,21.255901,21.262774,4962768.000000,1673607029.963256
1673611125.833085,48.061436,4098520.000000,1673611125.819176,,,,
1673611125.833101,48.151890,4098521.000000,1673611125.820176,,,,
1673611125.833109,48.079525,4098522.000000,1673611125.821176,,,,
1673611125.833115,48.061436,4098523.000000,1673611125.822176,,,,
1673611125.833124,48.133801,4098524.000000,1673611125.823176,,,,
1673611125.833142,48.169975,4098525.000000,1673611125.824176,,,,
1673611125.833176,48.115700,4098526.000000,1673611125.825176,,,,
1673611125.833183,48.097614,4098527.000000,1673611125.826176,,,,
1673611125.833322,48.097614,4098528.000000,1673611125.827176,,,,
1673611125.833330,48.151890,4098529.000000,1673611125.828176,,,,
1673611125.833686,,,,21.258425,21.266235,4962769.000000,1673607029.964263
1673611125.833693,,,,21.265926,21.275467,4962770.000000,1673607029.965270
1673611125.833697,,,,21.273787,21.284433,4962771.000000,1673607029.966277
1673611125.833732,,,,21.282948,21.292631,4962772.000000,1673607029.967284
1673611125.833860,,,,21.286793,21.293064,4962773.000000,1673607029.968291
1673611125.833868,,,,21.290039,21.298330,4962774.000000,1673607029.969298
1673611125.835423,,,,21.307228,21.318789,4962775.000000,1673607029.970305
1673611125.835530,,,,21.315233,21.325304,4962776.000000,1673607029.971313
1673611125.835704,,,,21.324705,21.332756,4962777.000000,1673607029.972320
1673611125.835854,,,,21.303068,21.309605,4962778.000000,1673607029.973327
1673611125.840764,,,,21.256670,21.263447,4962779.000000,1673607029.974334
1673611125.840882,,,,21.229528,21.236450,4962780.000000,1673607029.975341
1673611125.840894,,,,21.211306,21.217890,4962781.000000,1673607029.976348
1673611125.841031,,,,21.214575,21.220871,4962782.000000,1673607029.977355
1673611125.848649,,,,21.226452,21.233805,4962783.000000,1673607029.978362
1673611125.848922,,,,21.253786,21.264000,4962784.000000,1673607029.979369
1673611125.848930,,,,21.301531,21.309917,4962785.000000,1673607029.980376
1673611125.848941,,,,21.364758,21.371412,4962786.000000,1673607029.981383
1673611125.848984,,,,21.414352,21.421970,4962787.000000,1673607029.982390
1673611125.848989,,,,21.452480,21.457863,4962788.000000,1673607029.983397
1673611125.849027,,,,21.487244,21.493828,4962789.000000,1673607029.984405
1673611125.851047,,,,21.496017,21.506136,4962790.000000,1673607029.985412
1673611125.851067,,,,21.493254,21.501232,4962791.000000,1673607029.986419
1673611125.851077,,,,21.465679,21.474379,4962792.000000,1673607029.987426
1673611125.851557,,,,21.403847,21.410023,4962793.000000,1673607029.988433
1673611125.851951,,,,21.301987,21.308811,4962794.000000,1673607029.989440
1673611125.852315,,,,21.202675,21.210510,4962795.000000,1673607029.990447
1673611125.855954,,,,21.132044,21.140360,4962796.000000,1673607029.991454
1673611125.856691,,,,21.024343,21.033258,4962797.000000,1673607029.992461
1673611125.856870,,,,20.910318,20.918850,4962798.000000,1673607029.993468
1673611125.856972,,,,20.864954,20.874712,4962799.000000,1673607029.994475
1673611125.858400,,,,20.891087,20.901276,4962800.000000,1673607029.995482
1673611125.858456,,,,20.981358,20.988543,4962801.000000,1673607029.996490
1673611125.858727,,,,21.085213,21.092037,4962802.000000,1673607029.997497
1673611125.859028,,,,21.187553,21.196493,4962803.000000,1673607029.998504
1673611125.859039,,,,21.269484,21.277149,4962804.000000,1673607029.999511
1673611125.859231,,,,21.359684,21.368431,4962805.000000,1673607030.000518
1673611125.859382,,,,21.441181,21.449690,4962806.000000,1673607030.001525
1673611125.872252,,,,21.490681,21.497843,4962807.000000,1673607030.002532
1673611125.872846,,,,21.522030,21.530537,4962808.000000,1673607030.003539
1673611125.873027,,,,21.531382,21.541885,4962809.000000,1673607030.004546
1673611125.873045,,,,21.551744,21.560709,4962810.000000,1673607030.005553
1673611125.879534,,,,21.583790,21.588860,4962811.000000,1673607030.006560
1673611125.880093,,,,21.576506,21.580975,4962812.000000,1673607030.007567
1673611125.880106,,,,21.519434,21.525177,4962813.000000,1673607030.008574
1673611125.885733,48.151890,4098530.000000,1673611125.825112,,,,
1673611125.885747,48.133801,4098531.000000,1673611125.826112,,,,
1673611125.885756,48.206154,4098532.000000,1673611125.827111,,,,
1673611125.885885,,,,21.474718,21.480341,4962814.000000,1673607030.009582
1673611125.886088,48.188065,4098533.000000,1673611125.828112,,,,
1673611125.886105,48.206154,4098534.000000,1673611125.829112,,,,
1673611125.886114,48.224243,4098535.000000,1673611125.830112,,,,
1673611125.886308,48.206154,4098536.000000,1673611125.831112,,,,
1673611125.886387,,,,21.444981,21.452406,4962815.000000,1673607030.010589
1673611125.886474,48.242332,4098537.000000,1673611125.832112,,,,
1673611125.886509,,,,21.423344,21.431562,4962816.000000,1673607030.011596
1673611125.886556,,,,21.418295,21.428509,4962817.000000,1673607030.012603
1673611125.886563,,,,21.427767,21.434977,4962818.000000,1673607030.013610
1673611125.886569,,,,21.421829,21.428461,4962819.000000,1673607030.014617
1673611125.886667,,,,21.408390,21.416849,4962820.000000,1673607030.015624
1673611125.886912,48.278519,4098538.000000,1673611125.833112,,,,
1673611125.886947,48.332787,4098539.000000,1673611125.834111,,,,
1673611125.887310,48.296608,4098540.000000,1673611125.835112,,,,
1673611125.887320,48.314697,4098541.000000,1673611125.836112,,,,
1673611125.887325,48.296608,4098542.000000,1673611125.837111,,,,
1673611125.887328,48.260429,4098543.000000,1673611125.838112,,,,
1673611125.887332,48.531776,4098581.000000,1673611125.876112,,,,
1673611125.887347,48.549873,4098582.000000,1673611125.877112,,,,
1673611125.887370,48.531776,4098583.000000,1673611125.878112,,,,
1673611125.887375,48.549873,4098584.000000,1673611125.879112,,,,
1673611125.887378,48.531776,4098585.000000,1673611125.880111,,,,
1673611125.887401,48.531776,4098586.000000,1673611125.881112,,,,
1673611125.887404,48.567963,4098587.000000,1673611125.882112,,,,
1673611125.887406,48.586052,4098588.000000,1673611125.883111,,,,
1673611125.887416,48.622227,4098589.000000,1673611125.884112,,,,
1673611125.887422,48.567963,4098590.000000,1673611125.885112,,,,
1673611125.888002,,,,21.395962,21.403315,4962821.000000,1673607030.016631
1673611125.888033,,,,21.382860,21.389900,4962822.000000,1673607030.017638
1673611125.888038,,,,21.346222,21.353262,4962823.000000,1673607030.018645
1673611125.888113,,,,21.282875,21.288881,4962824.000000,1673607030.019652
1673611125.893280,,,,21.208590,21.214716,4962825.000000,1673607030.020659
1673611125.893413,,,,21.156902,21.163389,4962826.000000,1673607030.021667
1673611125.893419,,,,21.122717,21.130142,4962827.000000,1673607030.022674
1673611125.893423,,,,21.103893,21.113146,4962828.000000,1673607030.023681
1673611125.895474,,,,21.085814,21.096605,4962829.000000,1673607030.024688
1673611125.895482,,,,21.088652,21.099707,4962830.000000,1673607030.025695
1673611125.895511,,,,21.113220,21.118603,4962831.000000,1673607030.026702
1673611125.901191,,,,21.157455,21.162766,4962832.000000,1673607030.027709
1673611125.901690,,,,21.213158,21.220558,4962833.000000,1673607030.028716
1673611125.902271,,,,21.273836,21.283089,4962834.000000,1673607030.029723
1673611125.902621,,,,21.357351,21.366461,4962835.000000,1673607030.030730
1673611125.902671,,,,21.451567,21.460316,4962836.000000,1673607030.031737
1673611125.903204,,,,21.481977,21.490702,4962837.000000,1673607030.032744
1673611125.903490,,,,21.471785,21.478466,4962838.000000,1673607030.033751
1673611125.903962,,,,21.457241,21.463320,4962839.000000,1673607030.034759
1673611125.904475,,,,21.456448,21.466373,4962840.000000,1673607030.035766
1673611125.904888,,,,21.464380,21.473705,4962841.000000,1673607030.036773
1673611125.905021,,,,21.462217,21.469498,4962842.000000,1673607030.037780
1673611125.905433,,,,21.470415,21.478128,4962843.000000,1673607030.038787
1673611125.905853,,,,21.475151,21.482864,4962844.000000,1673607030.039794
1673611125.906398,,,,21.500200,21.508612,4962845.000000,1673607030.040801
1673611125.906820,,,,21.511356,21.518709,4962846.000000,1673607030.041808
1673611125.908327,,,,21.483324,21.490919,4962847.000000,1673607030.042815
1673611125.908531,,,,21.445461,21.452021,4962848.000000,1673607030.043822
1673611125.908672,,,,21.412550,21.417980,4962849.000000,1673607030.044829
1673611125.910751,,,,21.384855,21.393818,4962850.000000,1673607030.045836
1673611125.910770,,,,21.363483,21.370235,4962851.000000,1673607030.046844
1673611125.910793,,,,21.358627,21.365572,4962852.000000,1673607030.047851
1673611125.915751,,,,21.345188,21.352901,4962853.000000,1673607030.048858
1673611125.916035,,,,21.326147,21.333693,4962854.000000,1673607030.049865
1673611125.916179,,,,21.302299,21.310711,4962855.000000,1673607030.050872
1673611125.916227,,,,21.267128,21.275034,4962856.000000,1673607030.051879
1673611125.916406,,,,21.216787,21.226641,4962857.000000,1673607030.052886
1673611125.918217,,,,21.149618,21.162188,4962858.000000,1673607030.053893
1673611125.918224,,,,21.123606,21.131392,4962859.000000,1673607030.054900
1673611125.918457,,,,21.133606,21.139950,4962860.000000,1673607030.055907
1673611125.932178,,,,21.174452,21.179234,4962861.000000,1673607030.056914
1673611125.932292,,,,21.197964,21.203562,4962862.000000,1673607030.057921
1673611125.932298,,,,21.193924,21.201952,4962863.000000,1673607030.058928
1673611125.932348,,,,21.206570,21.216351,4962864.000000,1673607030.059936
1673611125.932493,,,,21.268042,21.273136,4962865.000000,1673607030.060943
1673611125.932503,,,,21.368843,21.372759,4962866.000000,1673607030.061950
1673611125.932657,,,,21.435411,21.440914,4962867.000000,1673607030.062957
1673611125.939559,,,,21.472242,21.480244,4962868.000000,1673607030.063964
1673611125.939566,,,,21.479549,21.490198,4962869.000000,1673607030.064971
1673611125.939570,,,,21.474237,21.481735,4962870.000000,1673607030.065978
1673611125.939587,,,,21.466568,21.473970,4962871.000000,1673607030.066985
1673611125.940757,48.730770,4098642.000000,1673611125.930467,,,,
1673611125.940768,48.730770,4098643.000000,1673611125.931467,,,,
1673611125.940781,48.712681,4098644.000000,1673611125.932467,,,,
1673611125.940784,48.712681,4098645.000000,1673611125.933467,,,,
1673611125.940791,48.694592,4098646.000000,1673611125.934467,,,,
1673611125.940795,48.676495,4098647.000000,1673611125.935467,,,,
1673611125.940804,48.730770,4098648.000000,1673611125.936467,,,,
1673611125.940829,48.712681,4098649.000000,1673611125.937467,,,,
1673611125.940834,48.730770,4098650.000000,1673611125.938467,,,,
1673611125.940837,48.676495,4098651.000000,1673611125.939467,,,,
1673611125.946218,,,,21.443466,21.451756,4962872.000000,1673607030.067992
1673611125.946449,,,,21.407957,21.417089,4962873.000000,1673607030.068999
1673611125.946702,,,,21.403439,21.415455,4962874.000000,1673607030.070006
1673611125.946789,,,,21.413679,21.423750,4962875.000000,1673607030.071013
1673611125.947012,,,,21.413559,21.421995,4962876.000000,1673607030.072021
1673611125.947225,,,,21.409832,21.416897,4962877.000000,1673607030.073028
1673611125.948664,,,,21.413534,21.421923,4962878.000000,1673607030.074035
1673611125.948984,,,,21.405025,21.414398,4962879.000000,1673607030.075042
1673611125.949003,,,,21.389904,21.400190,4962880.000000,1673607030.076049
1673611125.949474,,,,21.366175,21.372686,4962881.000000,1673607030.077056
1673611125.949497,,,,21.331221,21.336771,4962882.000000,1673607030.078063
1673611125.949723,,,,21.308550,21.317177,4962883.000000,1673607030.079070
1673611125.949960,,,,21.297058,21.305349,4962884.000000,1673607030.080077
1673611125.950150,,,,21.291794,21.300493,4962885.000000,1673607030.081084
1673611125.950383,,,,21.290688,21.298594,4962886.000000,1673607030.082091
1673611125.950773,,,,21.286697,21.293257,4962887.000000,1673607030.083098
1673611125.951194,,,,21.275158,21.283304,4962888.000000,1673607030.084105
1673611125.953586,,,,21.263739,21.272005,4962889.000000,1673607030.085113
1673611125.953869,,,,21.274172,21.283762,4962890.000000,1673607030.086120
1673611125.954178,,,,21.273476,21.280083,4962891.000000,1673607030.087127
1673611125.954480,,,,21.255974,21.265610,4962892.000000,1673607030.088134
1673611125.954598,,,,21.235466,21.246210,4962893.000000,1673607030.089141
1673611125.954614,,,,21.224600,21.235847,4962894.000000,1673607030.090148
1673611125.954621,,,,21.234169,21.244528,4962895.000000,1673607030.091155
1673611125.955558,,,,21.268522,21.279577,4962896.000000,1673607030.092162
1673611125.955992,,,,21.300640,21.310326,4962897.000000,1673607030.093169
1673611125.956122,,,,21.335043,21.346436,4962898.000000,1673607030.094176
1673611125.960913,,,,21.375431,21.387905,4962899.000000,1673607030.095183
1673611125.960927,,,,21.431061,21.440601,4962900.000000,1673607030.096190
1673611125.960946,,,,21.487917,21.497072,4962901.000000,1673607030.097198
1673611125.960955,,,,21.508976,21.517435,4962902.000000,1673607030.098205
1673611125.963039,,,,21.490105,21.499477,4962903.000000,1673607030.099212
1673611125.963486,,,,21.471664,21.480244,4962904.000000,1673607030.100219
1673611125.963615,,,,21.467459,21.476927,4962905.000000,1673607030.101226
1673611125.963731,,,,21.452192,21.460676,4962906.000000,1673607030.102233
1673611125.968199,,,,21.414207,21.421658,4962907.000000,1673607030.103240
1673611125.968524,,,,21.381634,21.386654,4962908.000000,1673607030.104247
1673611125.968959,,,,21.350670,21.356531,4962909.000000,1673607030.105254
1673611125.970639,,,,21.310184,21.316696,4962910.000000,1673607030.106261
1673611125.970999,,,,21.254650,21.263374,4962911.000000,1673607030.107268
1673611125.971424,,,,21.197844,21.208202,4962912.000000,1673607030.108275
1673611125.971638,,,,21.184933,21.195436,4962913.000000,1673607030.109282
1673611125.976138,,,,21.200247,21.209740,4962914.000000,1673607030.110290
1673611125.976241,,,,21.219961,21.227219,4962915.000000,1673607030.111297
1673611125.976410,,,,21.229408,21.237844,4962916.000000,1673607030.112304
1673611125.978579,,,,21.236357,21.243902,4962917.000000,1673607030.113311
1673611125.978968,,,,21.252054,21.261620,4962918.000000,1673607030.114318
1673611125.979430,,,,21.291409,21.297825,4962919.000000,1673607030.115325
1673611125.979756,,,,21.338985,21.345737,4962920.000000,1673607030.116332
1673611125.979780,,,,21.365526,21.373817,4962921.000000,1673607030.117339
1673611125.979794,,,,21.356150,21.366413,4962922.000000,1673607030.118346
1673611125.979808,,,,21.340067,21.350113,4962923.000000,1673607030.119353
1673611125.991808,,,,21.337854,21.346819,4962924.000000,1673607030.120360
1673611125.991995,,,,21.338264,21.347349,4962925.000000,1673607030.121367
1673611125.992158,,,,21.331148,21.339943,4962926.000000,1673607030.122375
1673611125.992307,,,,21.319223,21.327250,4962927.000000,1673607030.123382
1673611125.999969,,,,21.342375,21.348286,4962928.000000,1673607030.124389
1673611125.999990,,,,21.379301,21.384684,4962929.000000,1673607030.125396
1673611125.999998,,,,21.390648,21.398724,4962930.000000,1673607030.126403
1673611126.003553,48.748859,4098652.000000,1673611125.942720,,,,
1673611126.003611,48.640316,4098653.000000,1673611125.943720,,,,
1673611126.003679,48.567963,4098654.000000,1673611125.944720,,,,
1673611126.004830,48.658405,4098655.000000,1673611125.945720,,,,
1673611126.004855,48.640316,4098656.000000,1673611125.946720,,,,
1673611126.004863,48.622227,4098657.000000,1673611125.947720,,,,
1673611126.004874,48.586052,4098658.000000,1673611125.948720,,,,
1673611126.004908,47.826260,4098703.000000,1673611125.993720,,,,
1673611126.004914,47.790081,4098704.000000,1673611125.994720,,,,
