__time,/gdx/grip_force_stream/grip_force,/gdx/grip_force_stream/header/seq,/gdx/grip_force_stream/header/stamp,/shimmer0/emg_stream/emg_ch1,/shimmer0/emg_stream/emg_ch2,/shimmer0/emg_stream/header/seq,/shimmer0/emg_stream/header/stamp
1673611580.025041,,,,9.400428,9.405762,5409929.000000,1673606972.186584
1673611580.025159,,,,9.377517,9.382514,5409930.000000,1673606972.187591
1673611580.030017,,,,9.371627,9.376408,5409931.000000,1673606972.188598
1673611580.030090,,,,9.390571,9.393982,5409932.000000,1673606972.189605
1673611580.030206,,,,9.399538,9.402276,5409933.000000,1673606972.190612
1673611580.032640,,,,9.400476,9.402396,5409934.000000,1673606972.191619
1673611580.032800,,,,9.415597,9.418672,5409935.000000,1673606972.192626
1673611580.032897,,,,9.380691,9.382779,5409936.000000,1673606972.193633
1673611580.033085,,,,9.352900,9.357609,5409937.000000,1673606972.194640
1673611580.033228,,,,9.360881,9.366143,5409938.000000,1673606972.195647
1673611580.033468,,,,9.390523,9.393549,5409939.000000,1673606972.196654
1673611580.033502,,,,9.392350,9.395905,5409940.000000,1673606972.197661
1673611580.033507,,,,9.400596,9.404655,5409941.000000,1673606972.198668
1673611580.037771,,,,9.427593,9.429274,5409942.000000,1673606972.199676
1673611580.038026,,,,9.447042,9.446558,5409943.000000,1673606972.200683
1673611580.038272,,,,9.444205,9.447592,5409944.000000,1673606972.201690
1673611580.038286,,,,9.429156,9.432903,5409945.000000,1673606972.202697
1673611580.038290,,,,9.418818,9.425138,5409946.000000,1673606972.203704
1673611580.038321,,,,9.410789,9.419296,5409947.000000,1673606972.204711
1673611580.040023,,,,9.379104,9.384847,5409948.000000,1673606972.205718
1673611580.040065,,,,9.338572,9.342752,5409949.000000,1673606972.206725
1673611580.040106,,,,9.337729,9.341261,5409950.000000,1673606972.207732
1673611580.040129,,,,9.372757,9.378211,5409951.000000,1673606972.208739
1673611580.040182,,,,9.401678,9.406363,5409952.000000,1673606972.209746
1673611580.044927,,,,9.390450,9.395473,5409953.000000,1673606972.210753
1673611580.044950,,,,9.376195,9.380519,5409954.000000,1673606972.211761
1673611580.048151,,,,9.370160,9.373403,5409955.000000,1673606972.212768
1673611580.048430,,,,9.369800,9.371240,5409956.000000,1673606972.213775
1673611580.048448,,,,9.384777,9.386745,5409957.000000,1673606972.214782
1673611580.048557,,,,9.408289,9.409560,5409958.000000,1673606972.215789
1673611580.048864,,,,9.414299,9.415594,5409959.000000,1673606972.216796
1673611580.048878,,,,9.413169,9.415306,5409960.000000,1673606972.217803
1673611580.049383,,,,9.421055,9.425667,5409961.000000,1673606972.218810
1673611580.049409,,,,9.422617,9.426821,5409962.000000,1673606972.219817
1673611580.061620,,,,9.420069,9.422157,5409963.000000,1673606972.220824
1673611580.061754,,,,9.424035,9.425018,5409964.000000,1673606972.221831
1673611580.062023,,,,9.428483,9.433408,5409965.000000,1673606972.222838
1673611580.062200,,,,9.457428,9.463459,5409966.000000,1673606972.223845
1673611580.068722,,,,9.482815,9.486249,5409967.000000,1673606972.224853
1673611580.069444,,,,9.468030,9.471393,5409968.000000,1673606972.225860
1673611580.069737,,,,9.437882,9.439851,5409969.000000,1673606972.226867
1673611580.072906,-0.365824,4338138.000000,1673611580.012125,,,,
1673611580.072925,-0.402011,4338139.000000,1673611580.013125,,,,
1673611580.072973,-0.383913,4338140.000000,1673611580.014125,,,,
1673611580.074290,-0.420100,4338141.000000,1673611580.015125,,,,
1673611580.074305,-0.383913,4338142.000000,1673611580.016125,,,,
1673611580.074314,-0.166836,4338189.000000,1673611580.063125,,,,
1673611580.074322,-0.112561,4338190.000000,1673611580.064125,,,,
1673611580.074325,-0.130658,4338191.000000,1673611580.065125,,,,
1673611580.074330,-0.094472,4338192.000000,1673611580.066125,,,,
1673611580.074339,-0.094472,4338193.000000,1673611580.067125,,,,
1673611580.074348,-0.094472,4338194.000000,1673611580.068125,,,,
1673611580.074382,-0.076383,4338195.000000,1673611580.069125,,,,
1673611580.074410,-0.058294,4338196.000000,1673611580.070125,,,,
1673611580.074415,-0.112561,4338197.000000,1673611580.071125,,,,
1673611580.074435,-0.058294,4338198.000000,1673611580.072125,,,,
1673611580.075226,,,,9.414010,9.416748,5409970.000000,1673606972.227874
1673611580.075287,,,,9.404226,9.409704,5409971.000000,1673606972.228881
1673611580.075628,,,,9.404587,9.412132,5409972.000000,1673606972.229888
1673611580.075694,,,,9.398793,9.402156,5409973.000000,1673606972.230895
1673611580.075702,,,,9.387734,9.392948,5409974.000000,1673606972.231902
1673611580.075723,,,,9.388119,9.390688,5409975.000000,1673606972.232909
1673611580.075728,,,,9.375618,9.377370,5409976.000000,1673606972.233916
1673611580.077232,,,,9.369368,9.369292,5409977.000000,1673606972.234923
1673611580.077399,,,,9.377349,9.377250,5409978.000000,1673606972.235930
1673611580.077503,,,,9.375714,9.377370,5409979.000000,1673606972.236938
1673611580.082722,,,,9.382109,9.388693,5409980.000000,1673606972.237945
1673611580.082731,,,,9.391148,9.395713,5409981.000000,1673606972.238952
1673611580.082748,,,,9.409851,9.414536,5409982.000000,1673606972.239959
1673611580.082974,,,,9.407086,9.411459,5409983.000000,1673606972.240966
1673611580.085150,,,,9.380570,9.384125,5409984.000000,1673606972.241973
1673611580.085267,,,,9.380835,9.384365,5409985.000000,1673606972.242980
1673611580.085395,,,,9.405235,9.411652,5409986.000000,1673606972.243987
1673611580.085717,,,,9.426752,9.431125,5409987.000000,1673606972.244994
1673611580.085743,,,,9.441056,9.443746,5409988.000000,1673606972.246001
1673611580.085776,,,,9.416294,9.420354,5409989.000000,1673606972.247008
1673611580.085787,,,,9.376219,9.377610,5409990.000000,1673606972.248015
1673611580.089914,,,,9.353789,9.353570,5409991.000000,1673606972.249022
1673611580.089925,,,,9.361794,9.364076,5409992.000000,1673606972.250030
1673611580.090023,,,,9.373863,9.380062,5409993.000000,1673606972.251037
1673611580.092684,,,,9.383887,9.386818,5409994.000000,1673606972.252044
1673611580.092704,,,,9.398865,9.399896,5409995.000000,1673606972.253051
1673611580.092715,,,,9.397976,9.401771,5409996.000000,1673606972.254058
1673611580.092943,,,,9.369415,9.373908,5409997.000000,1673606972.255065
1673611580.097858,,,,9.347875,9.352824,5409998.000000,1673606972.256072
1673611580.098233,,,,9.368862,9.373571,5409999.000000,1673606972.257079
1673611580.098548,,,,9.394970,9.398622,5410000.000000,1673606972.258086
1673611580.098774,,,,9.393648,9.398212,5410001.000000,1673606972.259093
1673611580.099082,,,,9.398096,9.404247,5410002.000000,1673606972.260100
1673611580.099535,,,,9.416944,9.418623,5410003.000000,1673606972.261107
1673611580.099967,,,,9.422497,9.426003,5410004.000000,1673606972.262115
1673611580.100531,,,,9.422449,9.429274,5410005.000000,1673606972.263122
1673611580.100894,,,,9.407086,9.413070,5410006.000000,1673606972.264129
1673611580.100908,,,,9.388288,9.393429,5410007.000000,1673606972.265136
1673611580.101022,,,,9.386436,9.391217,5410008.000000,1673606972.266143
1673611580.105335,,,,9.391845,9.398285,5410009.000000,1673606972.267150
1673611580.105603,,,,9.398865,9.402251,5410010.000000,1673606972.268157
1673611580.105889,,,,9.409636,9.413046,5410011.000000,1673606972.269164
1673611580.106114,,,,9.420693,9.423792,5410012.000000,1673606972.270171
1673611580.106288,,,,9.439133,9.444515,5410013.000000,1673606972.271178
1673611580.106631,,,,9.455601,9.459372,5410014.000000,1673606972.272185
1673611580.106668,,,,9.442739,9.446630,5410015.000000,1673606972.273192
1673611580.107348,,,,9.456129,9.457497,5410016.000000,1673606972.274199
1673611580.107423,,,,9.539575,9.540293,5410017.000000,1673606972.275207
1673611580.107512,,,,9.583569,9.588950,5410018.000000,1673606972.276214
1673611580.107811,,,,9.533805,9.536879,5410019.000000,1673606972.277221
1673611580.121475,,,,9.477886,9.479301,5410020.000000,1673606972.278228
1673611580.121853,,,,9.423747,9.428913,5410021.000000,1673606972.279235
1673611580.121962,,,,9.425382,9.430812,5410022.000000,1673606972.280242
1673611580.122134,,,,9.448701,9.452160,5410023.000000,1673606972.281249
1673611580.128857,,,,9.461995,9.464877,5410024.000000,1673606972.282256
1673611580.128873,,,,9.470218,9.473676,5410025.000000,1673606972.283263
1673611580.135438,,,,9.468702,9.472763,5410026.000000,1673606972.284270
1673611580.135449,,,,9.432329,9.437279,5410027.000000,1673606972.285277
1673611580.135512,,,,9.395956,9.398068,5410028.000000,1673606972.286284
1673611580.135539,,,,9.397399,9.401218,5410029.000000,1673606972.287292
1673611580.137638,,,,9.421703,9.425451,5410030.000000,1673606972.288299
1673611580.137647,,,,9.399707,9.404511,5410031.000000,1673606972.289306
1673611580.137779,,,,9.330229,9.331043,5410032.000000,1673606972.290313
1673611580.137989,,,,9.339437,9.344626,5410033.000000,1673606972.291320
1673611580.138064,-0.076383,4338199.000000,1673611580.077460,,,,
1673611580.138118,,,,9.347201,9.354939,5410034.000000,1673606972.292327
1673611580.138176,,,,9.302967,9.308927,5410035.000000,1673606972.293334
1673611580.138226,,,,9.302053,9.307412,5410036.000000,1673606972.294341
1673611580.139033,-0.040205,4338200.000000,1673611580.078460,,,,
1673611580.139047,-0.058294,4338201.000000,1673611580.079460,,,,
1673611580.139056,-0.094472,4338202.000000,1673611580.080460,,,,
1673611580.139060,0.303504,4338250.000000,1673611580.128460,,,,
1673611580.139064,0.303504,4338251.000000,1673611580.129460,,,,
1673611580.139068,0.285415,4338252.000000,1673611580.130460,,,,
1673611580.139090,0.339690,4338253.000000,1673611580.131460,,,,
1673611580.139095,0.303504,4338254.000000,1673611580.132460,,,,
1673611580.139101,0.339690,4338255.000000,1673611580.133460,,,,
1673611580.140548,0.375868,4338256.000000,1673611580.134460,,,,
1673611580.140561,0.339690,4338257.000000,1673611580.135460,,,,
1673611580.140573,0.357779,4338258.000000,1673611580.136460,,,,
1673611580.140577,0.375868,4338259.000000,1673611580.137460,,,,
1673611580.143122,,,,9.344966,9.346069,5410037.000000,1673606972.295348
1673611580.143200,,,,9.321767,9.323663,5410038.000000,1673606972.296355
1673611580.143209,,,,9.288255,9.291088,5410039.000000,1673606972.297362
1673611580.143493,,,,9.317680,9.323278,5410040.000000,1673606972.298369
1673611580.143562,,,,9.337032,9.341862,5410041.000000,1673606972.299376
1673611580.143661,,,,9.354198,9.357272,5410042.000000,1673606972.300384
1673611580.143674,,,,9.362275,9.367753,5410043.000000,1673606972.301391
1673611580.143679,,,,9.377637,9.379678,5410044.000000,1673606972.302398
1673611580.145096,,,,9.393191,9.396001,5410045.000000,1673606972.303405
1673611580.145244,,,,9.393335,9.395496,5410046.000000,1673606972.304412
1673611580.145644,,,,9.375401,9.381312,5410047.000000,1673606972.305419
1673611580.145686,,,,9.353477,9.361215,5410048.000000,1673606972.306426
1673611580.145810,,,,9.365617,9.372898,5410049.000000,1673606972.307433
1673611580.145818,,,,9.390883,9.396290,5410050.000000,1673606972.308440
1673611580.150211,,,,9.384729,9.389030,5410051.000000,1673606972.309447
1673611580.150265,,,,9.377589,9.381721,5410052.000000,1673606972.310454
1673611580.150271,,,,9.371459,9.373259,5410053.000000,1673606972.311461
1673611580.150354,,,,9.358189,9.363450,5410054.000000,1673606972.312469
1673611580.150467,,,,9.363598,9.366431,5410055.000000,1673606972.313476
1673611580.152290,,,,9.378070,9.380879,5410056.000000,1673606972.314483
1673611580.152355,,,,9.388239,9.392635,5410057.000000,1673606972.315490
1673611580.157507,,,,9.389970,9.393020,5410058.000000,1673606972.316497
1673611580.157560,,,,9.382518,9.386145,5410059.000000,1673606972.317504
1673611580.157795,,,,9.369488,9.373235,5410060.000000,1673606972.318511
1673611580.158015,,,,9.383119,9.385856,5410061.000000,1673606972.319518
1673611580.159933,,,,9.386268,9.388212,5410062.000000,1673606972.320525
1673611580.159947,,,,9.390018,9.391530,5410063.000000,1673606972.321532
1673611580.160066,,,,9.396413,9.400713,5410064.000000,1673606972.322539
1673611580.160239,,,,9.394273,9.396361,5410065.000000,1673606972.323546
1673611580.165165,,,,9.388455,9.394390,5410066.000000,1673606972.324553
1673611580.165178,,,,9.385980,9.390784,5410067.000000,1673606972.325561
1673611580.165752,,,,9.388215,9.390448,5410068.000000,1673606972.326568
1673611580.165773,,,,9.384369,9.390904,5410069.000000,1673606972.327575
1673611580.167633,,,,9.370305,9.375879,5410070.000000,1673606972.328582
1673611580.168560,,,,9.361554,9.366455,5410071.000000,1673606972.329589
1673611580.168582,,,,9.360929,9.365734,5410072.000000,1673606972.330596
1673611580.168594,,,,9.364343,9.367705,5410073.000000,1673606972.331603
1673611580.168603,,,,9.374992,9.377730,5410074.000000,1673606972.332610
1673611580.168631,,,,9.381748,9.386409,5410075.000000,1673606972.333617
1673611580.181545,,,,9.379464,9.384967,5410076.000000,1673606972.334624
1673611580.181740,,,,9.382036,9.386048,5410077.000000,1673606972.335631
1673611580.181935,,,,9.385474,9.386889,5410078.000000,1673606972.336638
1673611580.182215,,,,9.386580,9.391458,5410079.000000,1673606972.337646
1673611580.182228,,,,9.384777,9.389894,5410080.000000,1673606972.338653
1673611580.182348,,,,9.397927,9.401362,5410081.000000,1673606972.339660
1673611580.182458,,,,9.408529,9.409464,5410082.000000,1673606972.340667
1673611580.188845,,,,9.403240,9.408021,5410083.000000,1673606972.341674
1673611580.188858,,,,9.404226,9.407660,5410084.000000,1673606972.342681
1673611580.188867,,,,9.404178,9.405665,5410085.000000,1673606972.343688
1673611580.189009,,,,9.408914,9.409848,5410086.000000,1673606972.344695
1673611580.192245,0.755763,4338311.000000,1673611580.181808,,,,
1673611580.192257,0.773852,4338312.000000,1673611580.182808,,,,
1673611580.192273,0.791941,4338313.000000,1673611580.183808,,,,
1673611580.192281,0.828119,4338314.000000,1673611580.184808,,,,
1673611580.192286,0.828119,4338315.000000,1673611580.185808,,,,
1673611580.192291,0.810030,4338316.000000,1673611580.186808,,,,
1673611580.192296,0.882395,4338317.000000,1673611580.187808,,,,
1673611580.192307,0.846209,4338318.000000,1673611580.188808,,,,
1673611580.192315,0.882395,4338319.000000,1673611580.189808,,,,
1673611580.192328,0.900484,4338320.000000,1673611580.190808,,,,
1673611580.195058,,,,9.412568,9.417494,5410087.000000,1673606972.345702
1673611580.195158,,,,9.412761,9.416075,5410088.000000,1673606972.346709
1673611580.195325,,,,9.396485,9.396121,5410089.000000,1673606972.347716
1673611580.195536,,,,9.395980,9.397612,5410090.000000,1673606972.348723
1673611580.197362,,,,9.385811,9.391265,5410091.000000,1673606972.349730
1673611580.197372,,,,9.368886,9.372033,5410092.000000,1673606972.350738
1673611580.197537,,,,9.363333,9.367465,5410093.000000,1673606972.351745
1673611580.203162,,,,9.368935,9.372994,5410094.000000,1673606972.352752
1673611580.203187,,,,9.372709,9.376553,5410095.000000,1673606972.353759
1673611580.203247,,,,9.373021,9.374509,5410096.000000,1673606972.354766
1673611580.203421,,,,9.382398,9.383813,5410097.000000,1673606972.355773
1673611580.203434,,,,9.393480,9.398645,5410098.000000,1673606972.356780
1673611580.203535,,,,9.396100,9.402444,5410099.000000,1673606972.357787
1673611580.203777,,,,9.422593,9.426773,5410100.000000,1673606972.358794
1673611580.203907,,,,9.447547,9.449011,5410101.000000,1673606972.359801
1673611580.205457,,,,9.429805,9.431437,5410102.000000,1673606972.360808
1673611580.205463,,,,9.408361,9.411748,5410103.000000,1673606972.361815
1673611580.206264,,,,9.390811,9.394150,5410104.000000,1673606972.362823
1673611580.206322,,,,9.387494,9.393236,5410105.000000,1673606972.363830
1673611580.206659,,,,9.384584,9.386625,5410106.000000,1673606972.364837
1673611580.206674,,,,9.379584,9.382130,5410107.000000,1673606972.365844
1673611580.206689,,,,9.382518,9.385327,5410108.000000,1673606972.366851
1673611580.206694,,,,9.393215,9.396867,5410109.000000,1673606972.367858
1673611580.206704,,,,9.394442,9.399992,5410110.000000,1673606972.368865
1673611580.206712,,,,9.379320,9.381023,5410111.000000,1673606972.369872
1673611580.210281,,,,9.363453,9.364653,5410112.000000,1673606972.370879
1673611580.210846,,,,9.346529,9.351166,5410113.000000,1673606972.371886
1673611580.210862,,,,9.345663,9.350324,5410114.000000,1673606972.372893
1673611580.211071,,,,9.359703,9.363354,5410115.000000,1673606972.373900
1673611580.211087,,,,9.399611,9.403405,5410116.000000,1673606972.374907
1673611580.211129,,,,9.421150,9.426484,5410117.000000,1673606972.375915
1673611580.211146,,,,9.411270,9.415186,5410118.000000,1673606972.376922
1673611580.211156,,,,9.391100,9.392275,5410119.000000,1673606972.377929
1673611580.218195,,,,9.378190,9.379702,5410120.000000,1673606972.378936
1673611580.219162,,,,9.390403,9.393356,5410121.000000,1673606972.379943
1673611580.219238,,,,9.396004,9.399078,5410122.000000,1673606972.380950
1673611580.219464,,,,9.402519,9.405569,5410123.000000,1673606972.381957
1673611580.219529,,,,9.412520,9.415978,5410124.000000,1673606972.382964
1673611580.219590,,,,9.403144,9.407204,5410125.000000,1673606972.383971
1673611580.219961,,,,9.396822,9.400641,5410126.000000,1673606972.384978
1673611580.220123,,,,9.395066,9.398789,5410127.000000,1673606972.385985
1673611580.220136,,,,9.382926,9.385592,5410128.000000,1673606972.386992
1673611580.220150,,,,9.366603,9.369196,5410129.000000,1673606972.388000
1673611580.220865,,,,9.364896,9.368619,5410130.000000,1673606972.389007
1673611580.220883,,,,9.365809,9.370831,5410131.000000,1673606972.390014
1673611580.221103,,,,9.365569,9.370422,5410132.000000,1673606972.391021
1673611580.221112,,,,9.384584,9.390424,5410133.000000,1673606972.392028
1673611580.221148,,,,9.396870,9.401002,5410134.000000,1673606972.393035
1673611580.221178,,,,9.381459,9.383837,5410135.000000,1673606972.394042
1673611580.221185,,,,9.371387,9.373884,5410136.000000,1673606972.395049
1673611580.242004,,,,9.388191,9.391625,5410137.000000,1673606972.396056
1673611580.242151,,,,9.388359,9.391337,5410138.000000,1673606972.397063
1673611580.242457,,,,9.377589,9.380568,5410139.000000,1673606972.398070
1673611580.242488,,,,9.389682,9.392900,5410140.000000,1673606972.399077
1673611580.242576,,,,9.412592,9.415714,5410141.000000,1673606972.400084
1673611580.242900,,,,9.441609,9.445309,5410142.000000,1673606972.401092
1673611580.242906,,,,9.427185,9.429778,5410143.000000,1673606972.402099
1673611580.242910,,,,9.385763,9.390904,5410144.000000,1673606972.403106
1673611580.243086,,,,9.375498,9.381096,5410145.000000,1673606972.404113
1673611580.243096,,,,9.419419,9.425451,5410146.000000,1673606972.405120
1673611580.243100,,,,9.449903,9.456102,5410147.000000,1673606972.406127
1673611580.248861,,,,9.446513,9.450862,5410148.000000,1673606972.407134
1673611580.249022,,,,9.430984,9.435548,5410149.000000,1673606972.408141
1673611580.249172,,,,9.441393,9.445621,5410150.000000,1673606972.409148
1673611580.249364,,,,9.452884,9.455189,5410151.000000,1673606972.410155
1673611580.249418,,,,9.434950,9.436654,5410152.000000,1673606972.411162
1673611580.249573,,,,9.414155,9.418095,5410153.000000,1673606972.412169
1673611580.255646,1.099472,4338336.000000,1673611580.209349,,,,
1673611580.255665,1.081383,4338337.000000,1673611580.210349,,,,
1673611580.256438,1.081383,4338338.000000,1673611580.211349,,,,
1673611580.256460,1.081383,4338339.000000,1673611580.212349,,,,
1673611580.256474,1.081383,4338340.000000,1673611580.213349,,,,
1673611580.256496,1.045205,4338341.000000,1673611580.214349,,,,
1673611580.256503,1.099472,4338342.000000,1673611580.215349,,,,
1673611580.256508,1.135650,4338343.000000,1673611580.216349,,,,
1673611580.256529,1.117561,4338344.000000,1673611580.217349,,,,
1673611580.256536,1.099472,4338345.000000,1673611580.218349,,,,
1673611580.256553,1.334646,4338372.000000,1673611580.245349,,,,
1673611580.256563,1.352735,4338373.000000,1673611580.246349,,,,
1673611580.256572,1.370824,4338374.000000,1673611580.247349,,,,
1673611580.256580,1.407002,4338375.000000,1673611580.248349,,,,
1673611580.256822,,,,9.410092,9.412589,5410154.000000,1673606972.413177
1673611580.256912,1.334646,4338376.000000,1673611580.249349,,,,
1673611580.256923,1.370824,4338377.000000,1673611580.250349,,,,
1673611580.256928,1.388913,4338378.000000,1673611580.251349,,,,
1673611580.256936,1.425100,4338379.000000,1673611580.252349,,,,
1673611580.256958,1.425100,4338380.000000,1673611580.253349,,,,
1673611580.256964,1.461278,4338381.000000,1673611580.254349,,,,
1673611580.257134,,,,9.418242,9.422782,5410155.000000,1673606972.414184
1673611580.257220,,,,9.420045,9.426797,5410156.000000,1673606972.415191
1673611580.257453,,,,9.414900,9.417662,5410157.000000,1673606972.416198
1673611580.257586,,,,9.405308,9.408935,5410158.000000,1673606972.417205
1673611580.257744,,,,9.389970,9.393309,5410159.000000,1673606972.418212
1673611580.257903,,,,9.376603,9.379918,5410160.000000,1673606972.419219
1673611580.258068,,,,9.384440,9.385448,5410161.000000,1673606972.420226
1673611580.258402,,,,9.404731,9.404704,5410162.000000,1673606972.421233
1673611580.258424,,,,9.407832,9.408694,5410163.000000,1673606972.422240
1673611580.258586,,,,9.412785,9.416099,5410164.000000,1673606972.423247
1673611580.263091,,,,9.415189,9.420306,5410165.000000,1673606972.424254
1673611580.263100,,,,9.424637,9.429490,5410166.000000,1673606972.425261
1673611580.263204,,,,9.441128,9.447568,5410167.000000,1673606972.426269
1673611580.263459,,,,9.428916,9.432375,5410168.000000,1673606972.427276
1673611580.263718,,,,9.429324,9.435908,5410169.000000,1673606972.428283
1673611580.263856,,,,9.472982,9.478100,5410170.000000,1673606972.429290
1673611580.264046,,,,9.476035,9.479254,5410171.000000,1673606972.430297
1673611580.264197,,,,9.483055,9.486995,5410172.000000,1673606972.431304
1673611580.264780,,,,9.534934,9.538513,5410173.000000,1673606972.432311
1673611580.264959,,,,9.577462,9.580512,5410174.000000,1673606972.433318
1673611580.265093,,,,9.576332,9.579575,5410175.000000,1673606972.434325
1673611580.265316,,,,9.599724,9.605538,5410176.000000,1673606972.435332
1673611580.269975,,,,9.604893,9.610274,5410177.000000,1673606972.436339
1673611580.270355,,,,9.575515,9.579214,5410178.000000,1673606972.437346
1673611580.272702,,,,9.537795,9.539667,5410179.000000,1673606972.438354
1673611580.273075,,,,9.496830,9.499399,5410180.000000,1673606972.439361
1673611580.273095,,,,9.458894,9.461055,5410181.000000,1673606972.440368
1673611580.273210,,,,9.424949,9.429081,5410182.000000,1673606972.441375
1673611580.273226,,,,9.374969,9.378139,5410183.000000,1673606972.442382
1673611580.277402,,,,9.307102,9.311355,5410184.000000,1673606972.443389
1673611580.277663,,,,9.267941,9.269813,5410185.000000,1673606972.444396
1673611580.280692,,,,9.270657,9.272505,5410186.000000,1673606972.445403
1673611580.280984,,,,9.284553,9.289501,5410187.000000,1673606972.446410
1673611580.281003,,,,9.280729,9.286256,5410188.000000,1673606972.447417
1673611580.281322,,,,9.262002,9.265461,5410189.000000,1673606972.448424
1673611580.281776,,,,9.267796,9.270317,5410190.000000,1673606972.449431
1673611580.282426,,,,9.276667,9.281520,5410191.000000,1673606972.450438
1673611580.282552,,,,9.287004,9.291401,5410192.000000,1673606972.451446
1673611580.285055,,,,9.311790,9.314384,5410193.000000,1673606972.452453
1673611580.285614,,,,9.339869,9.342054,5410194.000000,1673606972.453460
1673611580.286077,,,,9.322176,9.326644,5410195.000000,1673606972.454467
1673611580.286409,,,,9.316406,9.322725,5410196.000000,1673606972.455474
1673611580.286424,,,,9.329268,9.334818,5410197.000000,1673606972.456481
1673611580.287356,,,,9.342707,9.346670,5410198.000000,1673606972.457488
1673611580.287827,,,,9.351481,9.356863,5410199.000000,1673606972.458495
1673611580.287840,,,,9.349751,9.354555,5410200.000000,1673606972.459502
1673611580.301746,,,,9.359270,9.363979,5410201.000000,1673606972.460509
1673611580.301962,,,,9.373214,9.376120,5410202.000000,1673606972.461516
1673611580.301968,,,,9.387878,9.391794,5410203.000000,1673606972.462523
1673611580.302106,,,,9.394586,9.399271,5410204.000000,1673606972.463531
1673611580.302110,,,,9.392687,9.398405,5410205.000000,1673606972.464538
1673611580.302119,,,,9.395211,9.399511,5410206.000000,1673606972.465545
1673611580.302127,,,,9.392422,9.398068,5410207.000000,1673606972.466552
1673611580.309079,,,,9.386821,9.391554,5410208.000000,1673606972.467559
1673611580.309089,,,,9.379392,9.382730,5410209.000000,1673606972.468566
1673611580.309232,,,,9.376195,9.380808,5410210.000000,1673606972.469573
1673611580.309403,,,,9.375185,9.381480,5410211.000000,1673606972.470580
1673611580.309551,,,,9.371555,9.376937,5410212.000000,1673606972.471587
1673611580.309736,,,,9.357226,9.360277,5410213.000000,1673606972.472594
1673611580.309961,,,,9.343740,9.346405,5410214.000000,1673606972.473601
1673611580.309972,,,,9.338812,9.340420,5410215.000000,1673606972.474608
1673611580.310045,1.551723,4338404.000000,1673611580.270816,,,,
1673611580.310105,1.587909,4338405.000000,1673611580.271816,,,,
1673611580.310669,1.533634,4338406.000000,1673611580.272816,,,,
1673611580.310679,1.569820,4338407.000000,1673611580.273816,,,,
1673611580.310689,1.515545,4338408.000000,1673611580.274816,,,,
1673611580.310695,1.533634,4338409.000000,1673611580.275816,,,,
1673611580.310787,1.551723,4338410.000000,1673611580.276816,,,,
1673611580.310796,1.515545,4338411.000000,1673611580.277816,,,,
1673611580.310801,1.551723,4338412.000000,1673611580.278816,,,,
1673611580.310808,1.551723,4338413.000000,1673611580.279816,,,,
1673611580.310814,1.895440,4338433.000000,1673611580.299816,,,,
1673611580.310822,1.895440,4338434.000000,1673611580.300816,,,,
1673611580.310827,1.931618,4338435.000000,1673611580.301816,,,,
1673611580.310831,1.931618,4338436.000000,1673611580.302816,,,,
1673611580.310837,1.967796,4338437.000000,1673611580.303816,,,,
1673611580.310855,2.022071,4338438.000000,1673611580.304816,,,,
1673611580.310859,2.022071,4338439.000000,1673611580.305816,,,,
1673611580.310863,2.040160,4338440.000000,1673611580.306816,,,,
1673611580.310868,2.112517,4338441.000000,1673611580.307816,,,,
1673611580.310870,2.022071,4338442.000000,1673611580.308816,,,,
1673611580.315007,,,,9.344052,9.348088,5410216.000000,1673606972.475616
1673611580.315125,,,,9.343692,9.347559,5410217.000000,1673606972.476623
1673611580.317275,,,,9.357467,9.359364,5410218.000000,1673606972.477630
1673611580.317774,,,,9.398240,9.403093,5410219.000000,1673606972.478637
1673611580.317785,,,,9.427690,9.435331,5410220.000000,1673606972.479644
1673611580.317887,,,,9.434757,9.439082,5410221.000000,1673606972.480651
1673611580.322651,,,,9.429324,9.433433,5410222.000000,1673606972.481658
1673611580.322796,,,,9.415934,9.419682,5410223.000000,1673606972.482665
1673611580.323104,,,,9.403649,9.406699,5410224.000000,1673606972.483672
1673611580.323410,,,,9.423867,9.429008,5410225.000000,1673606972.484679
1673611580.325035,,,,9.448965,9.452809,5410226.000000,1673606972.485686
1673611580.325343,,,,9.447571,9.452353,5410227.000000,1673606972.486693
1673611580.325447,,,,9.443965,9.448794,5410228.000000,1673606972.487700
1673611580.325686,,,,9.441874,9.445597,5410229.000000,1673606972.488708
1673611580.330485,,,,9.433940,9.434707,5410230.000000,1673606972.489715
1673611580.330812,,,,9.431464,9.432735,5410231.000000,1673606972.490722
1673611580.330858,,,,9.429373,9.433336,5410232.000000,1673606972.491729
1673611580.332418,,,,9.410621,9.414704,5410233.000000,1673606972.492736
1673611580.333078,,,,9.403169,9.405882,5410234.000000,1673606972.493743
1673611580.333155,,,,9.427737,9.431653,5410235.000000,1673606972.494750
1673611580.337974,,,,9.447547,9.449563,5410236.000000,1673606972.495757
1673611580.338117,,,,9.447019,9.447304,5410237.000000,1673606972.496764
1673611580.338435,,,,9.425742,9.427326,5410238.000000,1673606972.497771
1673611580.338613,,,,9.411847,9.413094,5410239.000000,1673606972.498778
1673611580.338878,,,,9.399418,9.402083,5410240.000000,1673606972.499785
1673611580.339122,,,,9.366386,9.369148,5410241.000000,1673606972.500793
1673611580.339347,,,,9.322176,9.326404,5410242.000000,1673606972.501800
1673611580.340153,,,,9.330878,9.337655,5410243.000000,1673606972.502807
1673611580.340815,,,,9.360785,9.365397,5410244.000000,1673606972.503814
1673611580.340860,,,,9.386772,9.386745,5410245.000000,1673606972.504821
1673611580.340868,,,,9.393937,9.395184,5410246.000000,1673606972.505828
1673611580.340889,,,,9.404298,9.407252,5410247.000000,1673606972.506835
1673611580.340990,,,,9.433964,9.436293,5410248.000000,1673606972.507842
1673611580.340999,,,,9.454014,9.458218,5410249.000000,1673606972.508849
1673611580.345347,,,,9.476275,9.478388,5410250.000000,1673606972.509856
1673611580.345528,,,,9.519381,9.522046,5410251.000000,1673606972.510863
1673611580.345810,,,,9.524068,9.527623,5410252.000000,1673606972.511870
1673611580.346104,,,,9.493561,9.498798,5410253.000000,1673606972.512877
1673611580.346833,,,,9.481829,9.488149,5410254.000000,1673606972.513885
1673611580.346845,,,,9.461707,9.466104,5410255.000000,1673606972.514892
1673611580.346977,,,,9.450552,9.455381,5410256.000000,1673606972.515899
1673611580.347012,,,,9.438243,9.441438,5410257.000000,1673606972.516906
1673611580.347354,,,,9.458750,9.461151,5410258.000000,1673606972.517913
1673611580.347577,,,,9.461394,9.464709,5410259.000000,1673606972.518920
1673611580.347754,,,,9.415646,9.417445,5410260.000000,1673606972.519927
1673611580.352602,,,,9.432449,9.437135,5410261.000000,1673606972.520934
1673611580.352769,,,,9.562701,9.567410,5410262.000000,1673606972.521941
1673611580.352875,,,,9.674874,9.678670,5410263.000000,1673606972.522948
1673611580.352943,,,,9.733245,9.736944,5410264.000000,1673606972.523955
1673611580.354855,,,,9.762550,9.765697,5410265.000000,1673606972.524962
1673611580.354863,,,,9.752742,9.755792,5410266.000000,1673606972.525970
1673611580.355234,,,,9.675571,9.677540,5410267.000000,1673606972.526977
1673611580.368077,,,,9.535439,9.537456,5410268.000000,1673606972.527984
1673611580.368089,,,,9.463702,9.466704,5410269.000000,1673606972.528991
1673611580.368398,,,,9.459928,9.463075,5410270.000000,1673606972.529998
1673611580.368414,,,,9.462933,9.465791,5410271.000000,1673606972.531005
1673611580.368419,,,,9.442931,9.444612,5410272.000000,1673606972.532012
1673611580.368591,,,,9.379392,9.382899,5410273.000000,1673606972.533019
1673611580.368693,,,,9.343475,9.347631,5410274.000000,1673606972.534026
1673611580.370194,,,,9.329484,9.330972,5410275.000000,1673606972.535033
1673611580.370487,,,,9.334388,9.334530,5410276.000000,1673606972.536040
1673611580.370584,,,,9.352900,9.355685,5410277.000000,1673606972.537047
1673611580.370746,,,,9.392855,9.395352,5410278.000000,1673606972.538054
1673611580.370893,,,,9.435094,9.436942,5410279.000000,1673606972.539062
1673611580.371160,,,,9.485411,9.488702,5410280.000000,1673606972.540069
1673611580.371247,,,,9.576645,9.579021,5410281.000000,1673606972.541076
1673611580.371283,,,,9.639872,9.643642,5410282.000000,1673606972.542083
1673611580.379507,,,,9.652925,9.657129,5410283.000000,1673606972.543090
1673611580.380253,,,,9.627803,9.632680,5410284.000000,1673606972.544097
1673611580.380281,,,,9.518082,9.522551,5410285.000000,1673606972.545104
1673611580.380302,,,,9.412279,9.413839,5410286.000000,1673606972.546111
1673611580.382675,,,,9.385210,9.389414,5410287.000000,1673606972.547118
1673611580.382889,,,,9.370617,9.375927,5410288.000000,1673606972.548125
1673611580.384889,2.076339,4338443.000000,1673611580.323463,,,,
1673611580.386791,2.003982,4338444.000000,1673611580.324463,,,,
1673611580.386810,2.148703,4338445.000000,1673611580.325463,,,,
1673611580.386824,2.130614,4338446.000000,1673611580.326463,,,,
1673611580.386830,2.148703,4338447.000000,1673611580.327463,,,,
1673611580.386834,3.324558,4338494.000000,1673611580.374463,,,,
1673611580.387078,3.378825,4338495.000000,1673611580.375463,,,,
1673611580.387130,3.378825,4338496.000000,1673611580.376463,,,,
1673611580.387140,3.378825,4338497.000000,1673611580.377463,,,,
1673611580.387147,3.396922,4338498.000000,1673611580.378463,,,,
1673611580.387154,3.451190,4338499.000000,1673611580.379463,,,,
1673611580.387159,3.487367,4338500.000000,1673611580.380463,,,,
1673611580.387208,3.415011,4338501.000000,1673611580.381463,,,,
1673611580.387213,3.451190,4338502.000000,1673611580.382463,,,,
1673611580.387229,3.469278,4338503.000000,1673611580.383463,,,,
1673611580.387269,,,,9.340182,9.344626,5410289.000000,1673606972.549132
1673611580.387380,,,,9.389537,9.393236,5410290.000000,1673606972.550139
1673611580.387389,,,,9.508730,9.510338,5410291.000000,1673606972.551147
1673611580.387702,,,,9.659345,9.664149,5410292.000000,1673606972.552154
1673611580.390036,,,,9.812050,9.816639,5410293.000000,1673606972.553161
1673611580.390053,,,,9.962183,9.968960,5410294.000000,1673606972.554168
1673611580.390394,,,,10.044065,10.046755,5410295.000000,1673606972.555175
1673611580.390574,,,,9.977569,9.982085,5410296.000000,1673606972.556182
1673611580.394550,,,,9.830441,9.833515,5410297.000000,1673606972.557189
1673611580.394860,,,,9.711560,9.715669,5410298.000000,1673606972.558196
1673611580.394913,,,,9.624413,9.624627,5410299.000000,1673606972.559203
1673611580.395202,,,,9.602296,9.605659,5410300.000000,1673606972.560210
1673611580.395408,,,,9.570322,9.574695,5410301.000000,1673606972.561217
1673611580.395631,,,,9.436608,9.439971,5410302.000000,1673606972.562224
1673611580.395759,,,,9.265608,9.269476,5410303.000000,1673606972.563231
1673611580.402388,,,,9.187837,9.190984,5410304.000000,1673606972.564239
1673611580.402542,,,,9.116725,9.121627,5410305.000000,1673606972.565246
1673611580.402708,,,,9.140718,9.145258,5410306.000000,1673606972.566253
1673611580.402728,,,,9.213392,9.216034,5410307.000000,1673606972.567260
1673611580.402857,,,,9.217167,9.221467,5410308.000000,1673606972.568267
1673611580.403008,,,,9.305996,9.309311,5410309.000000,1673606972.569274
1673611580.403019,,,,9.389850,9.391625,5410310.000000,1673606972.570281
1673611580.403364,,,,9.447019,9.450477,5410311.000000,1673606972.571288
1673611580.405005,,,,9.482935,9.490264,5410312.000000,1673606972.572295
1673611580.405048,,,,9.503129,9.508511,5410313.000000,1673606972.573302
1673611580.407558,,,,9.490627,9.493293,5410314.000000,1673606972.574309
1673611580.407576,,,,9.442186,9.447568,5410315.000000,1673606972.575316
1673611580.407581,,,,9.370016,9.376456,5410316.000000,1673606972.576324
1673611580.407585,,,,9.313136,9.318590,5410317.000000,1673606972.577331
1673611580.413035,,,,9.278710,9.282843,5410318.000000,1673606972.578338
1673611580.413048,,,,9.263276,9.265461,5410319.000000,1673606972.579345
1673611580.413058,,,,9.182428,9.188459,5410320.000000,1673606972.580352
1673611580.413068,,,,9.103407,9.108548,5410321.000000,1673606972.581359
1673611580.413157,,,,9.141463,9.145138,5410322.000000,1673606972.582366
1673611580.413304,,,,9.220196,9.225890,5410323.000000,1673606972.583373
1673611580.413423,,,,9.250246,9.251926,5410324.000000,1673606972.584380
1673611580.414716,,,,9.283422,9.283347,5410325.000000,1673606972.585387
1673611580.414896,,,,9.346047,9.350036,5410326.000000,1673606972.586394
1673611580.415013,,,,9.464375,9.469637,5410327.000000,1673606972.587401
1673611580.415177,,,,9.515342,9.521300,5410328.000000,1673606972.588408
1673611580.428678,,,,9.557292,9.562121,5410329.000000,1673606972.589416
1673611580.429157,,,,9.621360,9.626165,5410330.000000,1673606972.590423
1673611580.429171,,,,9.672543,9.676482,5410331.000000,1673606972.591430
1673611580.437542,,,,9.712354,9.714995,5410332.000000,1673606972.592437
1673611580.437600,,,,9.631241,9.632608,5410333.000000,1673606972.593444
1673611580.437854,,,,9.480795,9.485095,5410334.000000,1673606972.594451
1673611580.437859,,,,9.339245,9.342222,5410335.000000,1673606972.595458
1673611580.439233,3.487367,4338504.000000,1673611580.378724,,,,
1673611580.439269,3.559732,4338505.000000,1673611580.379724,,,,
1673611580.439324,3.595910,4338506.000000,1673611580.380723,,,,
1673611580.439361,3.613999,4338507.000000,1673611580.381724,,,,
1673611580.440207,9.981727,4338555.000000,1673611580.429724,,,,
1673611580.440216,10.234990,4338556.000000,1673611580.430724,,,,
1673611580.440223,10.578698,4338557.000000,1673611580.431724,,,,
1673611580.440229,10.886229,4338558.000000,1673611580.432724,,,,
1673611580.440234,11.139492,4338559.000000,1673611580.433723,,,,
1673611580.440295,11.410845,4338560.000000,1673611580.434724,,,,
1673611580.440298,11.682197,4338561.000000,1673611580.435724,,,,
1673611580.440302,11.935460,4338562.000000,1673611580.436723,,,,
1673611580.440304,12.279169,4338563.000000,1673611580.437724,,,,
1673611580.440314,12.550521,4338564.000000,1673611580.438724,,,,
1673611580.442281,,,,9.292438,9.293709,5410336.000000,1673606972.596465
1673611580.442458,,,,9.383286,9.387779,5410337.000000,1673606972.597472
1673611580.442465,,,,9.427786,9.431341,5410338.000000,1673606972.598479
1673611580.445115,,,,9.321527,9.326476,5410339.000000,1673606972.599486
1673611580.445237,,,,9.157162,9.160716,5410340.000000,1673606972.600493
1673611580.445472,,,,9.048282,9.051404,5410341.000000,1673606972.601501
1673611580.445545,,,,9.083309,9.086840,5410342.000000,1673606972.602508
1673611580.445625,,,,9.123745,9.123742,5410343.000000,1673606972.603515
1673611580.445751,,,,9.176514,9.180262,5410344.000000,1673606972.604522
1673611580.445922,,,,9.188799,9.194902,5410345.000000,1673606972.605529
1673611580.449913,,,,9.204906,9.208388,5410346.000000,1673606972.606536
1673611580.450174,,,,9.229163,9.234929,5410347.000000,1673606972.607543
1673611580.450278,,,,9.222119,9.227982,5410348.000000,1673606972.608550
1673611580.450329,,,,9.266594,9.268178,5410349.000000,1673606972.609557
1673611580.452565,,,,9.309026,9.311619,5410350.000000,1673606972.610564
1673611580.452765,,,,9.366723,9.368907,5410351.000000,1673606972.611571
1673611580.453027,,,,9.453894,9.455766,5410352.000000,1673606972.612578
1673611580.453192,,,,9.636313,9.638498,5410353.000000,1673606972.613585
1673611580.453197,,,,9.776999,9.780241,5410354.000000,1673606972.614593
1673611580.453211,,,,9.806184,9.811205,5410355.000000,1673606972.615600
1673611580.453418,,,,9.807507,9.808681,5410356.000000,1673606972.616607
1673611580.453423,,,,9.799404,9.802118,5410357.000000,1673606972.617614
1673611580.457717,,,,9.821979,9.826783,5410358.000000,1673606972.618621
1673611580.458109,,,,9.824430,9.830727,5410359.000000,1673606972.619628
1673611580.458117,,,,9.826979,9.830847,5410360.000000,1673606972.620635
1673611580.458184,,,,9.886744,9.889673,5410361.000000,1673606972.621642
1673611580.458281,,,,9.914438,9.918618,5410362.000000,1673606972.622649
1673611580.458288,,,,9.844937,9.849381,5410363.000000,1673606972.623656
1673611580.458371,,,,9.743077,9.745912,5410364.000000,1673606972.624663
1673611580.459774,,,,9.711224,9.716461,5410365.000000,1673606972.625670
1673611580.459952,,,,9.776590,9.781900,5410366.000000,1673606972.626678
1673611580.460110,,,,9.889941,9.892198,5410367.000000,1673606972.627685
1673611580.460220,,,,9.852462,9.856834,5410368.000000,1673606972.628692
1673611580.464851,,,,9.731466,9.736295,5410369.000000,1673606972.629699
1673611580.464954,,,,9.564216,9.570247,5410370.000000,1673606972.630706
1673611580.467337,,,,9.538276,9.543562,5410371.000000,1673606972.631713
1673611580.467347,,,,9.650281,9.651672,5410372.000000,1673606972.632720
1673611580.467604,,,,9.731707,9.733530,5410373.000000,1673606972.633727
1673611580.467622,,,,9.575154,9.579598,5410374.000000,1673606972.634734
1673611580.472435,,,,9.310011,9.313854,5410375.000000,1673606972.635741
1673611580.472628,,,,8.875166,8.878962,5410376.000000,1673606972.636748
1673611580.472912,,,,8.926373,8.928918,5410377.000000,1673606972.637755
1673611580.473048,,,,9.130476,9.133262,5410378.000000,1673606972.638762
1673611580.475076,,,,9.373550,9.377827,5410379.000000,1673606972.639770
1673611580.475087,,,,9.805631,9.809402,5410380.000000,1673606972.640777
1673611580.475173,,,,10.159988,10.162774,5410381.000000,1673606972.641784
1673611580.489322,,,,10.222711,10.227684,5410382.000000,1673606972.642791
1673611580.489606,,,,10.119216,10.123372,5410383.000000,1673606972.643798
1673611580.489950,,,,9.965669,9.968911,5410384.000000,1673606972.644805
1673611580.489967,,,,9.728220,9.729275,5410385.000000,1673606972.645812
1673611580.490165,,,,9.477069,9.480768,5410386.000000,1673606972.646819
1673611580.490494,,,,9.363021,9.367297,5410387.000000,1673606972.647826
1673611580.490715,,,,9.329677,9.333087,5410388.000000,1673606972.648833
1673611580.490723,,,,9.312319,9.314984,5410389.000000,1673606972.649840
1673611580.496650,,,,9.286404,9.288252,5410390.000000,1673606972.650847
1673611580.497201,,,,9.242409,9.245556,5410391.000000,1673606972.651855
1673611580.497216,,,,9.198318,9.199182,5410392.000000,1673606972.652862
1673611580.497649,,,,9.146319,9.147326,5410393.000000,1673606972.653869
1673611580.497670,,,,9.038810,9.042870,5410394.000000,1673606972.654876
1673611580.498043,,,,8.939210,8.943173,5410395.000000,1673606972.655883
1673611580.502406,,,,8.907476,8.913724,5410396.000000,1673606972.656890
1673611580.502473,,,,8.934570,8.939544,5410397.000000,1673606972.657897
1673611580.502717,,,,9.026886,9.032124,5410398.000000,1673606972.658904
1673611580.502826,,,,9.175600,9.181680,5410399.000000,1673606972.659911
1673611580.504102,30.875816,4338616.000000,1673611580.493703,,,,
1673611580.504116,31.273800,4338617.000000,1673611580.494703,,,,
1673611580.504121,31.726051,4338618.000000,1673611580.495703,,,,
1673611580.504125,32.214489,4338619.000000,1673611580.496703,,,,
1673611580.504133,32.594376,4338620.000000,1673611580.497703,,,,
1673611580.504147,33.046635,4338621.000000,1673611580.498703,,,,
1673611580.504151,33.480797,4338622.000000,1673611580.499703,,,,
1673611580.504179,33.933048,4338623.000000,1673611580.500703,,,,
1673611580.504183,34.367210,4338624.000000,1673611580.501703,,,,
1673611580.504188,34.855648,4338625.000000,1673611580.502703,,,,
1673611580.504821,,,,9.286884,9.291569,5410400.000000,1673606972.660918
1673611580.505005,,,,9.305828,9.313374,5410401.000000,1673606972.661925
1673611580.505203,,,,9.394225,9.401483,5410402.000000,1673606972.662932
1673611580.505313,,,,9.605301,9.609794,5410403.000000,1673606972.663939
1673611580.510245,,,,9.648334,9.652297,5410404.000000,1673606972.664947
1673611580.510264,,,,9.589531,9.592701,5410405.000000,1673606972.665954
1673611580.510323,,,,9.504331,9.506131,5410406.000000,1673606972.666961
1673611580.512776,,,,9.432690,9.437592,5410407.000000,1673606972.667968
1673611580.512912,,,,9.408505,9.414729,5410408.000000,1673606972.668975
1673611580.513120,,,,9.438989,9.443746,5410409.000000,1673606972.669982
1673611580.513284,,,,9.431584,9.435812,5410410.000000,1673606972.670989
1673611580.513476,,,,9.280874,9.283876,5410411.000000,1673606972.671996
1673611580.513693,,,,9.159950,9.163313,5410412.000000,1673606972.673003
1673611580.513983,,,,9.083284,9.088258,5410413.000000,1673606972.674010
1673611580.514030,,,,9.044195,9.050010,5410414.000000,1673606972.675017
1673611580.517512,,,,9.081963,9.087801,5410415.000000,1673606972.676024
1673611580.517527,,,,9.169278,9.175261,5410416.000000,1673606972.677032
1673611580.517539,,,,9.320782,9.323519,5410417.000000,1673606972.678039
1673611580.520473,,,,9.507336,9.510818,5410418.000000,1673606972.679046
1673611580.520854,,,,9.586790,9.593686,5410419.000000,1673606972.680053
1673611580.520869,,,,9.499307,9.503727,5410420.000000,1673606972.681060
1673611580.520876,,,,9.501470,9.501563,5410421.000000,1673606972.682067
1673611580.520885,,,,9.487767,9.491201,5410422.000000,1673606972.683074
1673611580.520899,,,,9.274719,9.278395,5410423.000000,1673606972.684081
1673611580.520940,,,,9.159734,9.164082,5410424.000000,1673606972.685088
1673611580.525143,,,,9.176994,9.177978,5410425.000000,1673606972.686095
1673611580.525156,,,,9.239789,9.242887,5410426.000000,1673606972.687102
1673611580.525162,,,,9.240991,9.244930,5410427.000000,1673606972.688109
1673611580.525340,,,,9.210724,9.215961,5410428.000000,1673606972.689116
1673611580.527422,,,,9.206541,9.209062,5410429.000000,1673606972.690124
1673611580.527669,,,,9.247602,9.250075,5410430.000000,1673606972.691131
1673611580.527744,,,,9.336287,9.340467,5410431.000000,1673606972.692138
1673611580.532996,,,,9.457235,9.461921,5410432.000000,1673606972.693145
1673611580.533194,,,,9.543084,9.545005,5410433.000000,1673606972.694152
1673611580.533473,,,,9.617441,9.619699,5410434.000000,1673606972.695159
1673611580.534284,,,,9.690717,9.694224,5410435.000000,1673606972.696166
1673611580.534396,,,,9.733990,9.741367,5410436.000000,1673606972.697173
1673611580.534420,,,,9.874844,9.879288,5410437.000000,1673606972.698180
1673611580.534449,,,,9.961246,9.965882,5410438.000000,1673606972.699187
1673611580.535354,,,,9.897322,9.902679,5410439.000000,1673606972.700194
1673611580.535756,,,,9.844288,9.848973,5410440.000000,1673606972.701201
1673611580.536061,,,,9.852751,9.854719,5410441.000000,1673606972.702209
1673611580.536365,,,,9.861116,9.865249,5410442.000000,1673606972.703216
1673611580.536671,,,,9.832051,9.835222,5410443.000000,1673606972.704223
1673611580.536834,,,,9.735721,9.739660,5410444.000000,1673606972.705230
1673611580.537086,,,,9.565659,9.570680,5410445.000000,1673606972.706237
1673611580.537449,,,,9.436921,9.440837,5410446.000000,1673606972.707244
1673611580.548837,,,,9.519765,9.523777,5410447.000000,1673606972.708251
1673611580.548846,,,,9.628524,9.632512,5410448.000000,1673606972.709258
1673611580.556883,,,,9.757310,9.762908,5410449.000000,1673606972.710265
1673611580.556897,,,,10.036492,10.040625,5410450.000000,1673606972.711272
1673611580.557006,,,,10.112917,10.116088,5410451.000000,1673606972.712279
1673611580.557055,35.307899,4338626.000000,1673611580.495904,,,,
1673611580.557207,,,,10.045724,10.051347,5410452.000000,1673606972.713286
1673611580.558080,35.778240,4338627.000000,1673611580.496904,,,,
1673611580.558086,36.230492,4338628.000000,1673611580.497904,,,,
1673611580.558090,36.700840,4338629.000000,1673611580.498904,,,,
1673611580.558093,37.098824,4338630.000000,1673611580.499904,,,,
1673611580.558107,37.551075,4338631.000000,1673611580.500904,,,,
1673611580.558123,38.039505,4338632.000000,1673611580.501904,,,,
1673611580.558131,57.196953,4338677.000000,1673611580.546904,,,,
1673611580.558135,57.576839,4338678.000000,1673611580.547904,,,,
1673611580.558145,57.884369,4338679.000000,1673611580.548904,,,,
1673611580.558150,58.246166,4338680.000000,1673611580.549904,,,,
1673611580.558159,58.553715,4338681.000000,1673611580.550904,,,,
1673611580.558205,58.879333,4338682.000000,1673611580.551904,,,,
1673611580.558210,59.186863,4338683.000000,1673611580.552904,,,,
1673611580.558215,59.566750,4338684.000000,1673611580.553904,,,,
1673611580.558219,59.838104,4338685.000000,1673611580.554904,,,,
1673611580.558253,60.163723,4338686.000000,1673611580.555904,,,,
1673611580.562419,,,,9.982088,9.983552,5410453.000000,1673606972.714293
1673611580.562672,,,,9.822412,9.824211,5410454.000000,1673606972.715301
1673611580.562678,,,,9.509692,9.511420,5410455.000000,1673606972.716308
1673611580.562828,,,,9.256713,9.261158,5410456.000000,1673606972.717315
1673611580.565343,,,,9.267892,9.270341,5410457.000000,1673606972.718322
1673611580.565524,,,,9.140189,9.141676,5410458.000000,1673606972.719329
1673611580.565565,,,,9.038593,9.041186,5410459.000000,1673606972.720336
1673611580.565635,,,,9.052994,9.055323,5410460.000000,1673606972.721343
1673611580.565886,,,,9.161080,9.163673,5410461.000000,1673606972.722350
1673611580.566228,,,,9.225845,9.230675,5410462.000000,1673606972.723357
1673611580.566238,,,,9.279504,9.284044,5410463.000000,1673606972.724364
1673611580.566348,,,,9.388119,9.392058,5410464.000000,1673606972.725371
1673611580.566365,,,,9.487551,9.492043,5410465.000000,1673606972.726378
1673611580.566369,,,,9.439854,9.443578,5410466.000000,1673606972.727386
1673611580.566394,,,,9.332922,9.336741,5410467.000000,1673606972.728393
1673611580.570366,,,,9.232048,9.236059,5410468.000000,1673606972.729400
1673611580.570386,,,,9.109008,9.115039,5410469.000000,1673606972.730407
1673611580.570404,,,,9.026093,9.031330,5410470.000000,1673606972.731414
1673611580.570483,,,,9.016380,9.022652,5410471.000000,1673606972.732421
1673611580.572258,,,,9.129178,9.131243,5410472.000000,1673606972.733428
1673611580.572460,,,,9.320877,9.324793,5410473.000000,1673606972.734435
1673611580.578041,,,,9.375642,9.382490,5410474.000000,1673606972.735442
1673611580.578072,,,,9.286548,9.290223,5410475.000000,1673606972.736449
1673611580.578446,,,,9.319628,9.322197,5410476.000000,1673606972.737456
1673611580.578567,,,,9.431512,9.434298,5410477.000000,1673606972.738463
1673611580.580102,,,,9.582174,9.586642,5410478.000000,1673606972.739470
1673611580.580176,,,,9.795414,9.801758,5410479.000000,1673606972.740478
1673611580.580424,,,,10.195160,10.203739,5410480.000000,1673606972.741485
1673611580.580831,,,,10.768935,10.772635,5410481.000000,1673606972.742492
1673611580.585542,,,,11.266142,11.269985,5410482.000000,1673606972.743499
1673611580.585590,,,,11.505489,11.509742,5410483.000000,1673606972.744506
1673611580.585761,,,,11.516837,11.520968,5410484.000000,1673606972.745513
1673611580.585994,,,,11.241260,11.245632,5410485.000000,1673606972.746520
1673611580.586179,,,,10.529852,10.532494,5410486.000000,1673606972.747527
1673611580.586366,,,,9.699420,9.705812,5410487.000000,1673606972.748534
1673611580.586541,,,,9.078404,9.085278,5410488.000000,1673606972.749541
1673611580.587599,,,,8.688178,8.691084,5410489.000000,1673606972.750548
1673611580.588022,,,,8.533165,8.534052,5410490.000000,1673606972.751555
1673611580.588057,,,,8.364641,8.366417,5410491.000000,1673606972.752563
1673611580.588063,,,,8.201238,8.205609,5410492.000000,1673606972.753570
1673611580.588094,,,,8.185971,8.190200,5410493.000000,1673606972.754577
1673611580.588227,,,,8.303554,8.305835,5410494.000000,1673606972.755584
1673611580.588234,,,,8.453134,8.455679,5410495.000000,1673606972.756591
1673611580.592423,,,,8.648079,8.651538,5410496.000000,1673606972.757598
1673611580.592737,,,,8.884686,8.892136,5410497.000000,1673606972.758605
1673611580.592745,,,,9.089896,9.095927,5410498.000000,1673606972.759612
1673611580.595263,,,,9.235654,9.241035,5410499.000000,1673606972.760619
1673611580.595288,,,,9.298327,9.302435,5410500.000000,1673606972.761626
1673611580.595753,,,,9.289721,9.293709,5410501.000000,1673606972.762633
1673611580.595899,,,,9.220364,9.222068,5410502.000000,1673606972.763640
1673611580.596063,,,,9.217071,9.221467,5410503.000000,1673606972.764647
1673611580.609046,,,,9.228370,9.233511,5410504.000000,1673606972.765655
1673611580.609259,,,,9.137015,9.140835,5410505.000000,1673606972.766662
1673611580.609561,,,,9.035516,9.039504,5410506.000000,1673606972.767669
1673611580.609889,,,,9.019385,9.024022,5410507.000000,1673606972.768676
1673611580.609899,,,,9.084487,9.088450,5410508.000000,1673606972.769683
1673611580.609909,,,,9.136102,9.138864,5410509.000000,1673606972.770690
1673611580.616782,,,,9.144203,9.147085,5410510.000000,1673606972.771697
1673611580.616938,,,,9.180985,9.185983,5410511.000000,1673606972.772704
1673611580.617170,,,,9.180601,9.184204,5410512.000000,1673606972.773711
1673611580.617517,,,,9.242601,9.244113,5410513.000000,1673606972.774718
1673611580.617577,,,,9.321214,9.322413,5410514.000000,1673606972.775725
1673611580.617682,,,,9.347971,9.350396,5410515.000000,1673606972.776732
1673611580.617692,,,,9.368261,9.370759,5410516.000000,1673606972.777740
1673611580.617738,,,,9.389657,9.393044,5410517.000000,1673606972.778747
1673611580.617915,,,,9.395908,9.398141,5410518.000000,1673606972.779754
1673611580.617921,,,,9.335085,9.337462,5410519.000000,1673606972.780761
1673611580.617976,,,,9.247722,9.251493,5410520.000000,1673606972.781768
1673611580.621079,76.245850,4338738.000000,1673611580.610963,,,,
1673611580.621090,76.589561,4338739.000000,1673611580.611964,,,,
1673611580.621097,76.897087,4338740.000000,1673611580.612963,,,,
1673611580.621105,77.240799,4338741.000000,1673611580.613963,,,,
1673611580.621108,77.548347,4338742.000000,1673611580.614963,,,,
1673611580.621112,77.928230,4338743.000000,1673611580.615963,,,,
1673611580.621117,78.253853,4338744.000000,1673611580.616963,,,,
1673611580.621123,78.507118,4338745.000000,1673611580.617963,,,,
1673611580.621139,78.832733,4338746.000000,1673611580.618963,,,,
1673611580.621143,79.212624,4338747.000000,1673611580.619963,,,,
1673611580.623151,,,,9.234740,9.236756,5410521.000000,1673606972.782775
1673611580.623422,,,,9.260464,9.262167,5410522.000000,1673606972.783782
1673611580.623559,,,,9.326695,9.327822,5410523.000000,1673606972.784789
1673611580.623866,,,,9.444061,9.447087,5410524.000000,1673606972.785796
1673611580.623878,,,,9.570154,9.572820,5410525.000000,1673606972.786803
1673611580.624097,,,,9.619197,9.622800,5410526.000000,1673606972.787810
1673611580.624264,,,,9.599988,9.607799,5410527.000000,1673606972.788817
1673611580.624456,,,,9.615326,9.620155,5410528.000000,1673606972.789824
1673611580.624486,,,,9.562365,9.566833,5410529.000000,1673606972.790832
1673611580.624516,,,,9.467981,9.471993,5410530.000000,1673606972.791839
1673611580.624523,,,,9.440743,9.444395,5410531.000000,1673606972.792846
1673611580.630409,,,,9.515149,9.518488,5410532.000000,1673606972.793853
1673611580.630639,,,,9.570731,9.573925,5410533.000000,1673606972.794860
1673611580.630810,,,,9.589049,9.593205,5410534.000000,1673606972.795867
1673611580.631539,,,,9.559913,9.565535,5410535.000000,1673606972.796874
1673611580.631782,,,,9.624581,9.631406,5410536.000000,1673606972.797881
1673611580.632108,,,,9.742380,9.747618,5410537.000000,1673606972.798888
1673611580.632121,,,,9.831907,9.834525,5410538.000000,1673606972.799895
1673611580.640758,,,,9.757718,9.761177,5410539.000000,1673606972.800902
1673611580.641153,,,,9.721802,9.725958,5410540.000000,1673606972.801909
1673611580.641169,,,,9.883234,9.889794,5410541.000000,1673606972.802917
1673611580.641520,,,,10.065629,10.068560,5410542.000000,1673606972.803924
1673611580.641727,,,,10.109984,10.112241,5410543.000000,1673606972.804931
1673611580.642127,,,,10.248578,10.254705,5410544.000000,1673606972.805938
1673611580.642302,,,,10.478718,10.483788,5410545.000000,1673606972.806945
1673611580.642772,,,,10.281922,10.286199,5410546.000000,1673606972.807952
1673611580.643024,,,,10.142031,10.147388,5410547.000000,1673606972.808959
1673611580.643360,,,,10.054451,10.058679,5410548.000000,1673606972.809966
1673611580.645133,,,,9.825801,9.829476,5410549.000000,1673606972.810973
1673611580.645227,,,,9.557485,9.556952,5410550.000000,1673606972.811980
1673611580.645236,,,,9.312728,9.313974,5410551.000000,1673606972.812987
1673611580.645242,,,,9.076650,9.079508,5410552.000000,1673606972.813994
1673611580.648095,,,,9.000994,9.003371,5410553.000000,1673606972.815001
1673611580.648278,,,,9.297894,9.302988,5410554.000000,1673606972.816009
1673611580.648422,,,,9.511543,9.515675,5410555.000000,1673606972.817016
1673611580.648430,,,,9.508779,9.511997,5410556.000000,1673606972.818023
1673611580.648517,,,,9.411631,9.415643,5410557.000000,1673606972.819030
1673611580.648525,,,,9.435695,9.439996,5410558.000000,1673606972.820037
1673611580.648530,,,,9.597127,9.602149,5410559.000000,1673606972.821044
1673611580.648536,,,,9.623331,9.629915,5410560.000000,1673606972.822051
1673611580.648542,,,,9.613475,9.614963,5410561.000000,1673606972.823058
1673611580.648548,,,,9.549335,9.551640,5410562.000000,1673606972.824065
1673611580.648554,,,,9.500316,9.503343,5410563.000000,1673606972.825072
1673611580.676854,,,,9.626168,9.629988,5410564.000000,1673606972.826079
1673611580.676872,,,,9.828878,9.832818,5410565.000000,1673606972.827086
1673611580.677122,,,,9.903572,9.906935,5410566.000000,1673606972.828094
1673611580.677418,,,,9.897033,9.899843,5410567.000000,1673606972.829101
1673611580.677814,,,,9.950187,9.952539,5410568.000000,1673606972.830108
1673611580.678032,,,,9.901072,9.907248,5410569.000000,1673606972.831115
1673611580.678040,,,,9.775027,9.780290,5410570.000000,1673606972.832122
1673611580.682463,,,,9.581164,9.585152,5410571.000000,1673606972.833129
1673611580.682743,,,,9.393985,9.400256,5410572.000000,1673606972.834136
1673611580.682840,,,,9.160142,9.161798,5410573.000000,1673606972.835143
1673611580.682847,,,,8.744938,8.746426,5410574.000000,1673606972.836150
1673611580.685189,,,,8.671374,8.675097,5410575.000000,1673606972.837157
1673611580.685279,82.306046,4338757.000000,1673611580.633526,,,,
1673611580.685365,,,,8.900624,8.904132,5410576.000000,1673606972.838164
1673611580.685480,82.631668,4338758.000000,1673611580.634526,,,,
1673611580.685504,,,,9.081915,9.085373,5410577.000000,1673606972.839171
1673611580.685621,,,,9.135164,9.140979,5410578.000000,1673606972.840178
1673611580.685629,82.884933,4338759.000000,1673611580.635526,,,,
1673611580.685711,83.192459,4338760.000000,1673611580.636526,,,,
1673611580.685866,,,,9.104681,9.107538,5410579.000000,1673606972.841186
1673611580.685873,,,,9.081482,9.085806,5410580.000000,1673606972.842193
1673611580.686253,83.463814,4338761.000000,1673611580.637526,,,,
1673611580.686262,83.753258,4338762.000000,1673611580.638526,,,,
1673611580.686273,83.988426,4338763.000000,1673611580.639526,,,,
1673611580.686276,84.223587,4338764.000000,1673611580.640526,,,,
1673611580.686280,84.458763,4338765.000000,1673611580.641526,,,,
1673611580.686303,84.693932,4338766.000000,1673611580.642526,,,,
1673611580.686306,89.306923,4338799.000000,1673611580.675526,,,,
1673611580.686314,89.451637,4338800.000000,1673611580.676526,,,,
1673611580.686318,89.578278,4338801.000000,1673611580.677526,,,,
1673611580.686322,89.759171,4338802.000000,1673611580.678526,,,,
1673611580.686332,89.903900,4338803.000000,1673611580.679526,,,,
1673611580.686360,89.994339,4338804.000000,1673611580.680526,,,,
1673611580.686368,90.229515,4338805.000000,1673611580.681526,,,,
1673611580.686372,90.338051,4338806.000000,1673611580.682526,,,,
1673611580.686378,90.482780,4338807.000000,1673611580.683526,,,,
1673611580.686389,90.591316,4338808.000000,1673611580.684526,,,,
1673611580.690155,,,,9.123240,9.128382,5410581.000000,1673606972.843200
1673611580.690161,,,,9.165023,9.171367,5410582.000000,1673606972.844207
1673611580.690163,,,,9.138433,9.142782,5410583.000000,1673606972.845214
1673611580.690330,,,,9.087155,9.093860,5410584.000000,1673606972.846221
1673611580.692207,,,,9.033377,9.039167,5410585.000000,1673606972.847228
1673611580.692300,,,,9.071240,9.077368,5410586.000000,1673606972.848235
1673611580.692572,,,,9.082059,9.087753,5410587.000000,1673606972.849242
1673611580.692581,,,,9.058259,9.062799,5410588.000000,1673606972.850249
1673611580.697347,,,,9.032054,9.033806,5410589.000000,1673606972.851256
1673611580.697587,,,,9.040901,9.044673,5410590.000000,1673606972.852263
1673611580.697850,,,,9.032511,9.037749,5410591.000000,1673606972.853271
1673611580.700268,,,,8.971015,8.973008,5410592.000000,1673606972.854278
1673611580.700328,,,,8.994263,8.993634,5410593.000000,1673606972.855285
1673611580.700572,,,,9.162210,9.164900,5410594.000000,1673606972.856292
1673611580.700605,,,,9.479881,9.483220,5410595.000000,1673606972.857299
1673611580.705133,,,,9.816353,9.819235,5410596.000000,1673606972.858306
1673611580.705381,,,,10.043584,10.045889,5410597.000000,1673606972.859313
1673611580.705937,,,,10.012452,10.013675,5410598.000000,1673606972.860320
1673611580.706008,,,,9.805078,9.807479,5410599.000000,1673606972.861327
1673611580.708158,,,,9.585083,9.589984,5410600.000000,1673606972.862334
1673611580.708179,,,,9.378671,9.380808,5410601.000000,1673606972.863341
1673611580.708206,,,,9.333330,9.334505,5410602.000000,1673606972.864348
1673611580.708218,,,,9.297847,9.300680,5410603.000000,1673606972.865355
1673611580.708495,,,,9.068379,9.069699,5410604.000000,1673606972.866363
1673611580.708790,,,,8.858625,8.860162,5410605.000000,1673606972.867370
1673611580.712564,,,,8.825017,8.828548,5410606.000000,1673606972.868377
1673611580.712919,,,,8.931493,8.936659,5410607.000000,1673606972.869384
1673611580.713133,,,,9.029651,9.034936,5410608.000000,1673606972.870391
1673611580.713340,,,,9.101724,9.106746,5410609.000000,1673606972.871398
1673611580.715409,,,,9.266233,9.270341,5410610.000000,1673606972.872405
1673611580.715429,,,,9.515222,9.520772,5410611.000000,1673606972.873412
1673611580.715721,,,,9.617850,9.622150,5410612.000000,1673606972.874419
1673611580.715745,,,,9.673769,9.677588,5410613.000000,1673606972.875426
1673611580.716024,,,,9.907611,9.913065,5410614.000000,1673606972.876433
1673611580.716223,,,,10.030290,10.037354,5410615.000000,1673606972.877440
1673611580.716464,,,,10.006153,10.010597,5410616.000000,1673606972.878448
1673611580.735314,,,,9.964467,9.966195,5410617.000000,1673606972.879455
1673611580.735460,,,,9.852149,9.854767,5410618.000000,1673606972.880462
1673611580.735478,,,,9.680236,9.682636,5410619.000000,1673606972.881469
1673611580.735491,,,,9.468655,9.472594,5410620.000000,1673606972.882476
1673611580.738258,,,,9.334196,9.338087,5410621.000000,1673606972.883483
1673611580.738268,,,,9.188438,9.191224,5410622.000000,1673606972.884490
1673611580.738278,,,,9.003807,9.004189,5410623.000000,1673606972.885497
1673611580.738348,,,,8.845284,8.845232,5410624.000000,1673606972.886504
1673611580.738809,,,,8.849586,8.854729,5410625.000000,1673606972.887511
1673611580.738966,90.935020,4338810.000000,1673611580.678965,,,,
1673611580.739060,91.152107,4338811.000000,1673611580.679965,,,,
1673611580.739127,91.278748,4338812.000000,1673611580.680965,,,,
1673611580.739218,,,,9.099368,9.104413,5410626.000000,1673606972.888518
1673611580.739233,,,,9.363333,9.365590,5410627.000000,1673606972.889525
1673611580.739430,91.423462,4338813.000000,1673611580.681965,,,,
1673611580.739438,91.622459,4338814.000000,1673611580.682965,,,,
1673611580.739441,,,,9.385980,9.389342,5410628.000000,1673606972.890532
1673611580.739460,,,,9.394730,9.401699,5410629.000000,1673606972.891540
1673611580.739466,,,,9.400235,9.406507,5410630.000000,1673606972.892547
1673611580.740693,91.749077,4338815.000000,1673611580.683965,,,,
1673611580.740716,91.911896,4338816.000000,1673611580.684965,,,,
1673611580.740722,92.128983,4338817.000000,1673611580.685965,,,,
1673611580.740732,92.273697,4338818.000000,1673611580.686965,,,,
1673611580.740762,92.454605,4338819.000000,1673611580.687965,,,,
1673611580.740775,100.450424,4338860.000000,1673611580.728965,,,,
1673611580.740781,100.613243,4338861.000000,1673611580.729965,,,,
1673611580.740789,100.794151,4338862.000000,1673611580.730965,,,,
1673611580.740798,101.029312,4338863.000000,1673611580.731965,,,,
1673611580.740831,101.192131,4338864.000000,1673611580.732965,,,,
1673611580.740838,101.318771,4338865.000000,1673611580.733965,,,,
1673611580.740845,101.481567,4338866.000000,1673611580.734965,,,,
1673611580.740849,101.680565,4338867.000000,1673611580.735965,,,,
1673611580.740858,101.843369,4338868.000000,1673611580.736965,,,,
1673611580.740880,102.024277,4338869.000000,1673611580.737965,,,,
1673611580.742659,,,,9.435118,9.441967,5410631.000000,1673606972.893554
1673611580.742702,,,,9.573664,9.581715,5410632.000000,1673606972.894561
1673611580.742706,,,,9.575130,9.576979,5410633.000000,1673606972.895568
1673611580.747180,,,,9.487262,9.487308,5410634.000000,1673606972.896575
1673611580.747250,,,,9.556162,9.557890,5410635.000000,1673606972.897582
1673611580.747306,,,,9.628596,9.632752,5410636.000000,1673606972.898589
1673611580.747346,,,,9.705814,9.709682,5410637.000000,1673606972.899596
1673611580.749911,,,,9.791976,9.796637,5410638.000000,1673606972.900603
1673611580.750217,,,,9.805920,9.810100,5410639.000000,1673606972.901610
1673611580.750262,,,,9.707738,9.709826,5410640.000000,1673606972.902617
1673611580.750270,,,,9.556451,9.557529,5410641.000000,1673606972.903625
1673611580.754337,,,,9.523972,9.526517,5410642.000000,1673606972.904632
1673611580.754525,,,,9.630014,9.631719,5410643.000000,1673606972.905639
1673611580.754775,,,,9.751251,9.751369,5410644.000000,1673606972.906646
1673611580.757441,,,,9.757574,9.760216,5410645.000000,1673606972.907653
1673611580.757448,,,,9.765843,9.768197,5410646.000000,1673606972.908660
1673611580.757686,,,,9.771975,9.773390,5410647.000000,1673606972.909667
1673611580.757827,,,,9.650858,9.651504,5410648.000000,1673606972.910674
1673611580.761906,,,,9.429517,9.430042,5410649.000000,1673606972.911681
1673611580.762573,,,,9.257026,9.259859,5410650.000000,1673606972.912688
1673611580.762812,,,,9.450841,9.454083,5410651.000000,1673606972.913695
1673611580.763219,,,,9.757694,9.759975,5410652.000000,1673606972.914702
1673611580.765379,,,,10.030025,10.032547,5410653.000000,1673606972.915709
1673611580.766095,,,,9.877872,9.882846,5410654.000000,1673606972.916717
1673611580.766298,,,,9.621696,9.626069,5410655.000000,1673606972.917724
1673611580.766664,,,,9.482478,9.488076,5410656.000000,1673606972.918731
1673611580.766892,,,,9.456971,9.462545,5410657.000000,1673606972.919738
1673611580.767435,,,,9.373214,9.378716,5410658.000000,1673606972.920745
1673611580.769618,,,,9.256305,9.259908,5410659.000000,1673606972.921752
1673611580.769630,,,,9.086025,9.087801,5410660.000000,1673606972.922759
1673611580.770159,,,,8.984767,8.987720,5410661.000000,1673606972.923766
1673611580.770407,,,,9.032247,9.035176,5410662.000000,1673606972.924773
1673611580.770438,,,,9.094584,9.095855,5410663.000000,1673606972.925780
1673611580.770550,,,,9.153460,9.155956,5410664.000000,1673606972.926787
1673611580.770562,,,,9.132736,9.136676,5410665.000000,1673606972.927794
1673611580.770571,,,,9.064149,9.067752,5410666.000000,1673606972.928802
1673611580.772457,,,,9.080352,9.084147,5410667.000000,1673606972.929809
1673611580.772719,,,,9.138313,9.143070,5410668.000000,1673606972.930816
1673611580.773064,,,,9.553397,9.558780,5410669.000000,1673606972.931823
1673611580.775297,,,,9.927829,9.930423,5410670.000000,1673606972.932830
1673611580.775320,,,,10.031516,10.034735,5410671.000000,1673606972.933837
1673611580.775343,,,,10.059042,10.063198,5410672.000000,1673606972.934844
1673611580.775354,,,,9.845731,9.848949,5410673.000000,1673606972.935851
1673611580.780437,,,,9.553470,9.557722,5410674.000000,1673606972.936858
1673611580.780814,,,,9.448076,9.450525,5410675.000000,1673606972.937865
1673611580.781021,,,,9.253732,9.256229,5410676.000000,1673606972.938872
1673611580.781313,,,,9.031477,9.032917,5410677.000000,1673606972.939879
1673611580.781584,,,,8.897283,8.900405,5410678.000000,1673606972.940886
1673611580.782128,,,,8.914881,8.916176,5410679.000000,1673606972.941894
1673611580.782151,,,,8.998686,9.000967,5410680.000000,1673606972.942901
1673611580.782549,,,,9.158195,9.162327,5410681.000000,1673606972.943908
1673611580.782570,,,,9.263926,9.267673,5410682.000000,1673606972.944915
1673611580.782926,,,,9.405091,9.409824,5410683.000000,1673606972.945922
1673611580.783127,,,,9.485026,9.492043,5410684.000000,1673606972.946929
1673611580.796412,,,,9.446777,9.451920,5410685.000000,1673606972.947936
1673611580.796429,,,,9.420213,9.423888,5410686.000000,1673606972.948943
1673611580.796450,,,,9.399466,9.401554,5410687.000000,1673606972.949950
1673611580.802839,,,,9.293976,9.296906,5410688.000000,1673606972.950957
1673611580.803092,,,,9.160311,9.161990,5410689.000000,1673606972.951964
1673611580.803221,,,,8.970991,8.973680,5410690.000000,1673606972.952971
1673611580.803395,,,,8.829946,8.836025,5410691.000000,1673606972.953979
1673611580.803511,,,,8.998061,9.003539,5410692.000000,1673606972.954986
1673611580.803605,,,,9.144348,9.147614,5410693.000000,1673606972.955993
1673611580.803613,,,,9.340734,9.345347,5410694.000000,1673606972.957000
1673611580.803727,102.169006,4338870.000000,1673611580.743169,,,,
1673611580.804722,107.559853,4338921.000000,1673611580.794169,,,,
1673611580.804731,107.614120,4338922.000000,1673611580.795169,,,,
1673611580.804745,107.758850,4338923.000000,1673611580.796169,,,,
1673611580.804755,107.849297,4338924.000000,1673611580.797169,,,,
1673611580.804778,107.939743,4338925.000000,1673611580.798169,,,,
1673611580.804796,107.994011,4338926.000000,1673611580.799169,,,,
1673611580.804817,108.048294,4338927.000000,1673611580.800169,,,,
1673611580.804823,108.156830,4338928.000000,1673611580.801169,,,,
1673611580.804830,108.229187,4338929.000000,1673611580.802169,,,,
1673611580.804834,108.301537,4338930.000000,1673611580.803169,,,,
1673611580.804838,,,,9.833735,9.838948,5410695.000000,1673606972.958007
1673611580.805082,,,,10.384143,10.388274,5410696.000000,1673606972.959014
1673611580.805223,,,,10.888393,10.891948,5410697.000000,1673606972.960021
1673611580.805536,,,,10.939648,10.942481,5410698.000000,1673606972.961028
1673611580.810269,,,,10.631015,10.635364,5410699.000000,1673606972.962035
1673611580.810735,,,,10.274013,10.278169,5410700.000000,1673606972.963042
1673611580.810754,,,,9.883835,9.889722,5410701.000000,1673606972.964049
1673611580.810760,,,,9.569673,9.575488,5410702.000000,1673606972.965056
1673611580.810776,,,,9.284600,9.287362,5410703.000000,1673606972.966063
1673611580.810880,,,,8.956399,8.957574,5410704.000000,1673606972.967071
1673611580.812304,,,,8.854683,8.857181,5410705.000000,1673606972.968078
1673611580.812444,,,,9.086169,9.089845,5410706.000000,1673606972.969085
1673611580.812658,,,,9.274695,9.275317,5410707.000000,1673606972.970092
1673611580.812693,,,,9.466900,9.468363,5410708.000000,1673606972.971099
1673611580.817617,,,,9.687087,9.690017,5410709.000000,1673606972.972106
1673611580.817912,,,,9.773801,9.777164,5410710.000000,1673606972.973113
1673611580.817920,,,,9.888763,9.896333,5410711.000000,1673606972.974120
1673611580.818134,,,,9.928959,9.934173,5410712.000000,1673606972.975127
1673611580.820064,,,,9.805030,9.810051,5410713.000000,1673606972.976134
1673611580.820331,,,,9.850081,9.852435,5410714.000000,1673606972.977141
1673611580.820687,,,,9.981103,9.982494,5410715.000000,1673606972.978148
1673611580.825397,,,,10.108253,10.113058,5410716.000000,1673606972.979156
1673611580.825423,,,,10.124216,10.130993,5410717.000000,1673606972.980163
1673611580.825704,,,,9.876863,9.880923,5410718.000000,1673606972.981170
1673611580.825731,,,,9.559984,9.559910,5410719.000000,1673606972.982177
1673611580.827574,,,,9.128048,9.127180,5410720.000000,1673606972.983184
1673611580.827857,,,,8.517370,8.519603,5410721.000000,1673606972.984191
1673611580.828013,,,,8.315406,8.319706,5410722.000000,1673606972.985198
1673611580.828107,,,,8.470635,8.473854,5410723.000000,1673606972.986205
1673611580.833118,,,,8.492464,8.495442,5410724.000000,1673606972.987212
1673611580.833134,,,,8.531747,8.533210,5410725.000000,1673606972.988219
1673611580.833329,,,,8.691568,8.690964,5410726.000000,1673606972.989226
1673611580.833583,,,,8.863338,8.866436,5410727.000000,1673606972.990233
1673611580.834138,,,,8.936036,8.938750,5410728.000000,1673606972.991241
1673611580.834159,,,,8.978805,8.980460,5410729.000000,1673606972.992248
1673611580.835295,,,,9.020034,9.024239,5410730.000000,1673606972.993255
1673611580.836065,,,,9.102036,9.104966,5410731.000000,1673606972.994262
1673611580.836083,,,,9.246327,9.248873,5410732.000000,1673606972.995269
1673611580.836158,,,,9.335590,9.340034,5410733.000000,1673606972.996276
1673611580.836167,,,,9.392374,9.396266,5410734.000000,1673606972.997283
1673611580.836174,,,,9.416126,9.416917,5410735.000000,1673606972.998290
1673611580.836272,,,,9.517024,9.519305,5410736.000000,1673606972.999297
1673611580.841015,,,,9.684395,9.688671,5410737.000000,1673606973.000304
1673611580.841110,,,,10.047262,10.049856,5410738.000000,1673606973.001311
1673611580.841287,,,,10.641930,10.646421,5410739.000000,1673606973.002318
1673611580.841453,,,,11.107138,11.114563,5410740.000000,1673606973.003325
1673611580.857810,,,,11.176591,11.179400,5410741.000000,1673606973.004333
1673611580.857823,,,,11.020039,11.024051,5410742.000000,1673606973.005340
1673611580.858518,,,,10.791774,10.796314,5410743.000000,1673606973.006347
1673611580.858557,,,,10.469222,10.472561,5410744.000000,1673606973.007354
1673611580.862910,,,,10.084621,10.091206,5410745.000000,1673606973.008361
1673611580.863211,,,,9.698362,9.699585,5410746.000000,1673606973.009368
1673611580.863589,,,,9.184977,9.185309,5410747.000000,1673606973.010375
1673611580.863842,,,,8.794630,8.797704,5410748.000000,1673606973.011382
1673611580.864181,,,,8.550426,8.554486,5410749.000000,1673606973.012389
1673611580.864482,,,,8.264343,8.266648,5410750.000000,1673606973.013396
1673611580.864706,,,,8.054325,8.058073,5410751.000000,1673606973.014403
1673611580.864944,,,,7.974415,7.978354,5410752.000000,1673606973.015410
1673611580.865259,,,,8.142025,8.144523,5410753.000000,1673606973.016418
1673611580.865650,,,,8.384763,8.387501,5410754.000000,1673606973.017425
1673611580.868489,108.391998,4338931.000000,1673611580.807189,,,,
1673611580.868504,108.464355,4338932.000000,1673611580.808188,,,,
1673611580.870592,108.518623,4338933.000000,1673611580.809188,,,,
1673611580.870648,,,,8.629736,8.633796,5410755.000000,1673606973.018432
1673611580.870868,108.645264,4338934.000000,1673611580.810189,,,,
1673611580.870879,108.663353,4338935.000000,1673611580.811188,,,,
1673611580.870883,108.753799,4338936.000000,1673611580.812188,,,,
1673611580.870894,113.348701,4338982.000000,1673611580.858188,,,,
1673611580.870941,113.457237,4338983.000000,1673611580.859189,,,,
1673611580.871000,113.565765,4338984.000000,1673611580.860188,,,,
1673611580.871006,113.601944,4338985.000000,1673611580.861188,,,,
1673611580.871013,113.710495,4338986.000000,1673611580.862188,,,,
1673611580.871020,113.800941,4338987.000000,1673611580.863189,,,,
1673611580.871027,113.909492,4338988.000000,1673611580.864188,,,,
1673611580.871045,113.909492,4338989.000000,1673611580.865188,,,,
1673611580.871070,113.981850,4338990.000000,1673611580.866189,,,,
1673611580.871077,114.108475,4338991.000000,1673611580.867188,,,,
1673611580.871173,,,,8.819704,8.824389,5410756.000000,1673606973.019439
1673611580.871313,,,,8.895408,8.899467,5410757.000000,1673606973.020446
1673611580.871467,,,,8.979838,8.985389,5410758.000000,1673606973.021453
1673611580.871495,,,,9.073765,9.078354,5410759.000000,1673606973.022460
1673611580.871545,,,,9.106316,9.110712,5410760.000000,1673606973.023467
1673611580.871554,,,,9.121004,9.125089,5410761.000000,1673606973.024474
1673611580.872903,,,,9.176779,9.178001,5410762.000000,1673606973.025481
1673611580.872912,,,,9.230605,9.233318,5410763.000000,1673606973.026488
1673611580.873006,,,,9.247578,9.251229,5410764.000000,1673606973.027495
1673611580.873055,,,,9.296404,9.299335,5410765.000000,1673606973.028502
1673611580.873075,,,,9.403961,9.409224,5410766.000000,1673606973.029510
1673611580.873118,,,,9.471636,9.475095,5410767.000000,1673606973.030517
1673611580.873169,,,,9.465096,9.467449,5410768.000000,1673606973.031524
1673611580.873180,,,,9.423795,9.428095,5410769.000000,1673606973.032531
1673611580.877370,,,,9.404106,9.409344,5410770.000000,1673606973.033538
1673611580.877641,,,,9.336937,9.341645,5410771.000000,1673606973.034545
1673611580.877655,,,,9.193703,9.197065,5410772.000000,1673606973.035552
1673611580.879831,,,,9.113336,9.115832,5410773.000000,1673606973.036559
1673611580.880411,,,,9.123721,9.125737,5410774.000000,1673606973.037566
1673611580.880434,,,,9.193054,9.194710,5410775.000000,1673606973.038573
1673611580.880515,,,,9.222360,9.225530,5410776.000000,1673606973.039580
1673611580.885733,,,,9.256906,9.259811,5410777.000000,1673606973.040587
1673611580.885860,,,,9.288326,9.292002,5410778.000000,1673606973.041595
1673611580.886343,,,,9.335013,9.339001,5410779.000000,1673606973.042602
1673611580.886418,,,,9.393696,9.395400,5410780.000000,1673606973.043609
1673611580.886842,,,,9.448244,9.451439,5410781.000000,1673606973.044616
1673611580.886986,,,,9.444590,9.448578,5410782.000000,1673606973.045623
1673611580.887190,,,,9.416823,9.420787,5410783.000000,1673606973.046630
1673611580.887618,,,,9.453750,9.457136,5410784.000000,1673606973.047637
1673611580.887901,,,,9.536353,9.540629,5410785.000000,1673606973.048644
1673611580.887943,,,,9.788827,9.791733,5410786.000000,1673606973.049651
1673611580.892612,,,,10.087579,10.093033,5410787.000000,1673606973.050658
1673611580.892673,,,,10.376546,10.382384,5410788.000000,1673606973.051665
1673611580.892730,,,,10.575289,10.577666,5410789.000000,1673606973.052672
1673611580.892777,,,,10.604955,10.606755,5410790.000000,1673606973.053679
1673611580.895058,,,,10.480281,10.484918,5410791.000000,1673606973.054687
1673611580.895082,,,,10.154339,10.159576,5410792.000000,1673606973.055694
1673611580.895090,,,,9.642948,9.643378,5410793.000000,1673606973.056701
1673611580.900491,,,,9.194352,9.196705,5410794.000000,1673606973.057708
1673611580.900565,,,,9.041791,9.044961,5410795.000000,1673606973.058715
1673611580.900792,,,,9.042825,9.045802,5410796.000000,1673606973.059722
1673611580.900856,,,,8.961616,8.964498,5410797.000000,1673606973.060729
1673611580.900922,,,,8.896297,8.897616,5410798.000000,1673606973.061736
1673611580.900934,,,,9.040348,9.044024,5410799.000000,1673606973.062743
1673611580.900938,,,,9.321166,9.326187,5410800.000000,1673606973.063750
1673611580.900944,,,,9.652396,9.657058,5410801.000000,1673606973.064757
1673611580.902749,,,,9.834071,9.838996,5410802.000000,1673606973.065764
1673611580.902879,,,,9.662301,9.666457,5410803.000000,1673606973.066772
1673611580.903119,,,,9.297654,9.302484,5410804.000000,1673606973.067779
1673611580.903126,,,,9.115620,9.114751,5410805.000000,1673606973.068786
1673611580.903140,,,,9.011980,9.012097,5410806.000000,1673606973.069793
1673611580.903143,,,,8.997292,9.000053,5410807.000000,1673606973.070800
1673611580.903156,,,,9.059364,9.063353,5410808.000000,1673606973.071807
1673611580.917042,,,,9.139780,9.141796,5410809.000000,1673606973.072814
1673611580.917072,,,,9.168676,9.170284,5410810.000000,1673606973.073821
1673611580.917236,,,,9.195530,9.199349,5410811.000000,1673606973.074828
1673611580.923778,,,,9.163820,9.166871,5410812.000000,1673606973.075835
1673611580.923985,114.162743,4338992.000000,1673611580.863110,,,,
1673611580.924076,,,,9.099440,9.104318,5410813.000000,1673606973.076842
1673611580.924214,,,,9.061384,9.065732,5410814.000000,1673606973.077849
1673611580.924506,114.235115,4338993.000000,1673611580.864110,,,,
1673611580.924533,,,,9.132880,9.136436,5410815.000000,1673606973.078856
1673611580.925554,114.289383,4338994.000000,1673611580.865109,,,,
1673611580.925565,114.416000,4338995.000000,1673611580.866110,,,,
1673611580.925579,111.105522,4339043.000000,1673611580.914109,,,,
1673611580.925596,110.960793,4339044.000000,1673611580.915110,,,,
1673611580.925632,110.779892,4339045.000000,1673611580.916110,,,,
1673611580.925647,110.580910,4339046.000000,1673611580.917109,,,,
1673611580.925654,110.418091,4339047.000000,1673611580.918109,,,,
1673611580.925668,110.255272,4339048.000000,1673611580.919110,,,,
1673611580.925684,110.092468,4339049.000000,1673611580.920110,,,,
1673611580.925692,109.911568,4339050.000000,1673611580.921109,,,,
1673611580.925697,109.803032,4339051.000000,1673611580.922110,,,,
1673611580.925713,109.658302,4339052.000000,1673611580.923110,,,,
1673611580.930336,,,,9.134130,9.140787,5410816.000000,1673606973.079864
1673611580.930505,,,,9.104537,9.108644,5410817.000000,1673606973.080871
1673611580.930731,,,,9.140718,9.146004,5410818.000000,1673606973.081878
1673611580.930958,,,,9.140429,9.143647,5410819.000000,1673606973.082885
1673611580.931081,,,,9.091482,9.095254,5410820.000000,1673606973.083892
1673611580.931454,,,,9.104609,9.109702,5410821.000000,1673606973.084899
1673611580.931468,,,,9.135741,9.143215,5410822.000000,1673606973.085906
1673611580.933675,,,,9.114681,9.119223,5410823.000000,1673606973.086913
1673611580.933841,,,,9.164181,9.166486,5410824.000000,1673606973.087920
1673611580.933855,,,,9.231182,9.234809,5410825.000000,1673606973.088927
1673611580.933864,,,,9.254381,9.258297,5410826.000000,1673606973.089934
1673611580.934310,,,,9.273662,9.277097,5410827.000000,1673606973.090941
1673611580.934589,,,,9.354678,9.357512,5410828.000000,1673606973.091949
1673611580.934950,,,,9.338643,9.340660,5410829.000000,1673606973.092956
1673611580.935647,,,,9.335278,9.340300,5410830.000000,1673606973.093963
1673611580.935775,,,,9.438941,9.441774,5410831.000000,1673606973.094970
1673611580.936332,,,,9.559576,9.562073,5410832.000000,1673606973.095977
1673611580.936561,,,,9.671533,9.673357,5410833.000000,1673606973.096984
1673611580.936575,,,,9.677062,9.680545,5410834.000000,1673606973.097991
1673611580.936687,,,,9.634294,9.636767,5410835.000000,1673606973.098998
1673611580.936744,,,,9.554407,9.556760,5410836.000000,1673606973.100005
1673611580.936852,,,,9.391244,9.393236,5410837.000000,1673606973.101012
1673611580.936875,,,,9.237144,9.237333,5410838.000000,1673606973.102019
1673611580.936879,,,,9.079751,9.082393,5410839.000000,1673606973.103026
1673611580.936884,,,,8.949787,8.950049,5410840.000000,1673606973.104033
1673611580.937483,,,,8.942743,8.944111,5410841.000000,1673606973.105041
1673611580.937494,,,,9.002148,9.003732,5410842.000000,1673606973.106048
1673611580.937498,,,,9.067394,9.071405,5410843.000000,1673606973.107055
1673611580.945597,,,,9.126943,9.131676,5410844.000000,1673606973.108062
1673611580.945614,,,,9.226278,9.230122,5410845.000000,1673606973.109069
1673611580.945804,,,,9.271017,9.273154,5410846.000000,1673606973.110076
1673611580.946013,,,,9.214522,9.218029,5410847.000000,1673606973.111083
1673611580.946126,,,,9.266594,9.271495,5410848.000000,1673606973.112090
1673611580.946315,,,,9.479810,9.486177,5410849.000000,1673606973.113097
1673611580.946454,,,,9.667301,9.669294,5410850.000000,1673606973.114104
1673611580.946716,,,,9.685620,9.687901,5410851.000000,1673606973.115111
1673611580.953020,,,,9.656051,9.661962,5410852.000000,1673606973.116118
1673611580.953031,,,,9.662350,9.666313,5410853.000000,1673606973.117126
1673611580.953034,,,,9.637347,9.642200,5410854.000000,1673606973.118133
1673611580.953170,,,,9.556884,9.560078,5410855.000000,1673606973.119140
1673611580.953277,,,,9.561090,9.563900,5410856.000000,1673606973.120147
1673611580.953403,,,,9.527530,9.530412,5410857.000000,1673606973.121154
1673611580.953571,,,,9.393456,9.396938,5410858.000000,1673606973.122161
1673611580.961010,,,,9.259141,9.263682,5410859.000000,1673606973.123168
1673611580.961023,,,,9.180000,9.182810,5410860.000000,1673606973.124175
1673611580.961045,,,,9.225172,9.225386,5410861.000000,1673606973.125182
1673611580.961395,,,,9.217047,9.222020,5410862.000000,1673606973.126189
1673611580.961765,,,,9.108768,9.110352,5410863.000000,1673606973.127196
1673611580.961790,,,,8.990464,8.990197,5410864.000000,1673606973.128203
1673611580.961799,,,,8.854466,8.858695,5410865.000000,1673606973.129210
1673611580.962009,,,,8.797178,8.801431,5410866.000000,1673606973.130218
1673611580.962350,,,,8.814897,8.818043,5410867.000000,1673606973.131225
1673611580.962773,,,,8.838408,8.838814,5410868.000000,1673606973.132232
1673611580.962785,,,,8.911683,8.912401,5410869.000000,1673606973.133239
1673611580.963017,,,,8.993373,8.997192,5410870.000000,1673606973.134246
1673611580.963208,,,,9.050734,9.052918,5410871.000000,1673606973.135253
1673611580.963539,,,,9.136775,9.137277,5410872.000000,1673606973.136260
1673611580.963707,,,,9.233634,9.236156,5410873.000000,1673606973.137267
1673611580.963727,,,,9.296332,9.301907,5410874.000000,1673606973.138274
1673611580.963750,,,,9.380354,9.386312,5410875.000000,1673606973.139281
1673611580.976367,,,,9.495436,9.501732,5410876.000000,1673606973.140288
1673611580.976384,,,,9.598497,9.601259,5410877.000000,1673606973.141295
1673611580.976457,,,,9.652757,9.656072,5410878.000000,1673606973.142303
1673611580.976628,,,,9.698603,9.704104,5410879.000000,1673606973.143310
1673611580.984421,,,,9.671245,9.675858,5410880.000000,1673606973.144317
1673611580.984633,,,,9.553879,9.557337,5410881.000000,1673606973.145324
1673611580.984690,,,,9.328955,9.332197,5410882.000000,1673606973.146331
1673611580.989052,109.477409,4339053.000000,1673611580.928340,,,,
1673611580.989067,109.296501,4339054.000000,1673611580.929340,,,,
1673611580.989256,109.061333,4339055.000000,1673611580.930340,,,,
1673611580.989269,108.988976,4339056.000000,1673611580.931340,,,,
1673611580.989523,108.771889,4339057.000000,1673611580.932340,,,,
1673611580.989980,108.572891,4339058.000000,1673611580.933340,,,,
1673611580.990214,108.500534,4339059.000000,1673611580.934340,,,,
1673611580.990231,103.326767,4339088.000000,1673611580.963340,,,,
1673611580.990258,,,,9.121654,9.122949,5410883.000000,1673606973.147338
1673611580.990266,,,,9.041382,9.043230,5410884.000000,1673606973.148345
1673611580.990469,,,,9.085112,9.087777,5410885.000000,1673606973.149352
1673611580.990628,103.091599,4339089.000000,1673611580.964340,,,,
1673611580.990758,,,,9.148699,9.152831,5410886.000000,1673606973.150359
1673611580.990820,,,,9.142472,9.144801,5410887.000000,1673606973.151366
1673611580.990831,102.892601,4339090.000000,1673611580.965340,,,,
1673611580.991097,102.729797,4339091.000000,1673611580.966340,,,,
1673611580.991109,102.512711,4339092.000000,1673611580.967340,,,,
1673611580.991135,102.241356,4339093.000000,1673611580.968340,,,,
1673611580.991142,102.006187,4339094.000000,1673611580.969340,,,,
1673611580.991148,101.825279,4339095.000000,1673611580.970340,,,,
1673611580.991156,101.608208,4339096.000000,1673611580.971340,,,,
1673611580.991166,101.409210,4339097.000000,1673611580.972340,,,,
1673611580.991182,99.799187,4339104.000000,1673611580.979340,,,,
1673611580.991221,99.600189,4339105.000000,1673611580.980340,,,,
1673611580.991230,99.310753,4339106.000000,1673611580.981340,,,,
1673611580.991235,99.075577,4339107.000000,1673611580.982340,,,,
1673611580.991240,98.894684,4339108.000000,1673611580.983340,,,,
1673611580.991264,98.605247,4339109.000000,1673611580.984340,,,,
1673611580.991269,98.370071,4339110.000000,1673611580.985340,,,,
1673611580.991309,98.171074,4339111.000000,1673611580.986340,,,,
1673611580.991313,97.917809,4339112.000000,1673611580.987340,,,,
1673611580.991323,97.736923,4339113.000000,1673611580.988340,,,,
1673611580.992521,,,,9.199088,9.200552,5410888.000000,1673606973.152373
1673611580.992637,,,,9.332032,9.335852,5410889.000000,1673606973.153380
1673611580.992830,,,,9.541883,9.547096,5410890.000000,1673606973.154387
1673611580.992908,,,,9.963962,9.967950,5410891.000000,1673606973.155395
1673611580.993099,,,,10.239323,10.240809,5410892.000000,1673606973.156402
1673611580.993117,,,,10.261343,10.260619,5410893.000000,1673606973.157409
1673611580.997737,,,,10.127365,10.129430,5410894.000000,1673606973.158416
1673611580.997832,,,,9.945403,9.948309,5410895.000000,1673606973.159423
1673611580.997958,,,,9.801616,9.805171,5410896.000000,1673606973.160430
1673611580.998234,,,,9.604748,9.608399,5410897.000000,1673606973.161437
1673611580.998238,,,,9.317415,9.320850,5410898.000000,1673606973.162444
1673611580.998240,,,,9.097228,9.098740,5410899.000000,1673606973.163451
1673611580.998265,,,,8.887836,8.890693,5410900.000000,1673606973.164458
1673611580.999846,,,,8.690799,8.692935,5410901.000000,1673606973.165465
1673611581.000010,,,,8.568745,8.570809,5410902.000000,1673606973.166472
1673611581.000025,,,,8.514678,8.517295,5410903.000000,1673606973.167480
1673611581.000034,,,,8.595406,8.599250,5410904.000000,1673606973.168487
1673611581.004869,,,,8.695198,8.699138,5410905.000000,1673606973.169494
1673611581.005231,,,,8.778451,8.780347,5410906.000000,1673606973.170501
1673611581.005244,,,,8.939402,8.944231,5410907.000000,1673606973.171508
1673611581.005256,,,,9.041430,9.043831,5410908.000000,1673606973.172515
1673611581.007398,,,,9.182620,9.183050,5410909.000000,1673606973.173522
1673611581.007690,,,,9.487839,9.492404,5410910.000000,1673606973.174529
1673611581.007704,,,,9.847005,9.854142,5410911.000000,1673606973.175536
1673611581.007714,,,,10.142031,10.146788,5410912.000000,1673606973.176543
1673611581.012353,,,,10.275190,10.277808,5410913.000000,1673606973.177550
1673611581.012574,,,,10.211075,10.213981,5410914.000000,1673606973.178557
1673611581.015694,,,,10.038054,10.043293,5410915.000000,1673606973.179564
1673611581.016185,,,,9.760386,9.764062,5410916.000000,1673606973.180572
1673611581.016570,,,,9.157377,9.160139,5410917.000000,1673606973.181579
1673611581.017344,,,,8.709045,8.711663,5410918.000000,1673606973.182586
1673611581.017905,,,,8.490950,8.492798,5410919.000000,1673606973.183593
1673611581.018360,,,,8.424381,8.427504,5410920.000000,1673606973.184600
1673611581.018418,,,,8.440152,8.444116,5410921.000000,1673606973.185607
1673611581.019259,,,,8.557446,8.561265,5410922.000000,1673606973.186614
1673611581.019527,,,,8.745924,8.748661,5410923.000000,1673606973.187621
1673611581.020056,,,,8.816291,8.819268,5410924.000000,1673606973.188628
1673611581.020087,,,,8.761478,8.763975,5410925.000000,1673606973.189635
1673611581.020633,,,,8.720561,8.720942,5410926.000000,1673606973.190642
1673611581.020874,,,,8.765925,8.768831,5410927.000000,1673606973.191649
1673611581.020985,,,,8.861679,8.865210,5410928.000000,1673606973.192657
1673611581.021000,,,,8.923343,8.926225,5410929.000000,1673606973.193664
1673611581.022403,,,,8.974693,8.978658,5410930.000000,1673606973.194671
1673611581.022681,,,,9.012100,9.018324,5410931.000000,1673606973.195678
1673611581.022693,,,,9.036862,9.044528,5410932.000000,1673606973.196685
1673611581.022956,,,,9.060567,9.066525,5410933.000000,1673606973.197692
1673611581.028729,,,,9.092901,9.096312,5410934.000000,1673606973.198699
1673611581.028744,,,,9.145814,9.149297,5410935.000000,1673606973.199706
1673611581.028748,,,,9.197645,9.201417,5410936.000000,1673606973.200713
1673611581.044337,,,,9.229692,9.234304,5410937.000000,1673606973.201720
1673611581.044357,,,,9.260655,9.264956,5410938.000000,1673606973.202727
1673611581.044380,,,,9.283519,9.287290,5410939.000000,1673606973.203734
1673611581.044530,,,,9.284071,9.284477,5410940.000000,1673606973.204741
1673611581.044688,,,,9.235414,9.238319,5410941.000000,1673606973.205749
1673611581.044824,,,,9.143146,9.150066,5410942.000000,1673606973.206756
1673611581.045051,,,,9.083910,9.089171,5410943.000000,1673606973.207763
1673611581.045061,,,,9.136342,9.139320,5410944.000000,1673606973.208770
1673611581.052846,,,,9.185962,9.190287,5410945.000000,1673606973.209777
1673611581.052946,,,,9.208272,9.212163,5410946.000000,1673606973.210784
1673611581.052950,,,,9.200002,9.204855,5410947.000000,1673606973.211791
1673611581.053058,,,,9.191611,9.194661,5410948.000000,1673606973.212798
1673611581.053177,,,,9.204906,9.209278,5410949.000000,1673606973.213805
1673611581.053358,,,,9.201660,9.204975,5410950.000000,1673606973.214812
1673611581.053555,,,,9.203464,9.205720,5410951.000000,1673606973.215819
1673611581.058976,,,,9.199593,9.203388,5410952.000000,1673606973.216826
1673611581.058988,,,,9.226133,9.232838,5410953.000000,1673606973.217834
1673611581.059189,,,,9.303231,9.307196,5410954.000000,1673606973.218841
1673611581.065172,,,,9.385715,9.389847,5410955.000000,1673606973.219848
1673611581.065348,92.255608,4339135.000000,1673611581.024408,,,,
1673611581.065517,,,,9.435984,9.442135,5410956.000000,1673606973.220855
1673611581.065537,,,,9.354943,9.360902,5410957.000000,1673606973.221862
1673611581.065860,92.074699,4339136.000000,1673611581.025408,,,,
1673611581.066680,91.875717,4339137.000000,1673611581.026408,,,,
1673611581.066703,91.586281,4339138.000000,1673611581.027408,,,,
1673611581.066734,91.423462,4339139.000000,1673611581.028408,,,,
1673611581.066746,91.152107,4339140.000000,1673611581.029408,,,,
1673611581.066755,90.953110,4339141.000000,1673611581.030408,,,,
1673611581.066809,90.754135,4339142.000000,1673611581.031408,,,,
1673611581.066837,90.537048,4339143.000000,1673611581.032408,,,,
1673611581.066851,90.374229,4339144.000000,1673611581.033408,,,,
1673611581.066861,86.647667,4339165.000000,1673611581.054408,,,,
1673611581.066869,86.593399,4339166.000000,1673611581.055408,,,,
1673611581.066885,86.448669,4339167.000000,1673611581.056408,,,,
1673611581.066921,86.340141,4339168.000000,1673611581.057408,,,,
1673611581.066938,86.231606,4339169.000000,1673611581.058408,,,,
1673611581.066951,86.104965,4339170.000000,1673611581.059408,,,,
1673611581.066968,86.014519,4339171.000000,1673611581.060408,,,,
1673611581.066978,85.887878,4339172.000000,1673611581.061408,,,,
1673611581.066988,85.761253,4339173.000000,1673611581.062408,,,,
1673611581.067046,85.670807,4339174.000000,1673611581.063408,,,,
1673611581.067473,,,,9.260632,9.265581,5410958.000000,1673606973.222869
1673611581.067984,,,,9.234788,9.239570,5410959.000000,1673606973.223876
1673611581.068244,,,,9.303304,9.307171,5410960.000000,1673606973.224883
1673611581.068507,,,,9.427786,9.431966,5410961.000000,1673606973.225890
1673611581.073139,,,,9.530487,9.535628,5410962.000000,1673606973.226897
1673611581.073159,,,,9.586381,9.589119,5410963.000000,1673606973.227904
1673611581.073170,,,,9.630784,9.633522,5410964.000000,1673606973.228911
1673611581.073346,,,,9.630904,9.632536,5410965.000000,1673606973.229918
1673611581.073586,,,,9.591502,9.595730,5410966.000000,1673606973.230926
1673611581.073608,,,,9.514139,9.518921,5410967.000000,1673606973.231933
1673611581.073615,,,,9.396701,9.400305,5410968.000000,1673606973.232940
1673611581.074808,,,,9.140718,9.142613,5410969.000000,1673606973.233947
1673611581.075004,,,,8.914087,8.914157,5410970.000000,1673606973.234954
1673611581.075087,,,,8.814680,8.819148,5410971.000000,1673606973.235961
1673611581.080262,,,,8.882858,8.887664,5410972.000000,1673606973.236968
1673611581.080507,,,,9.046190,9.048567,5410973.000000,1673606973.237975
1673611581.080869,,,,9.338162,9.341789,5410974.000000,1673606973.238982
1673611581.080887,,,,9.729856,9.735261,5410975.000000,1673606973.239989
1673611581.083022,,,,9.963289,9.965473,5410976.000000,1673606973.240996
1673611581.083041,,,,10.044353,10.048221,5410977.000000,1673606973.242003
1673611581.083087,,,,10.023438,10.028532,5410978.000000,1673606973.243011
1673611581.096541,,,,9.852269,9.855031,5410979.000000,1673606973.244018
1673611581.096742,,,,9.535391,9.541543,5410980.000000,1673606973.245025
1673611581.096785,,,,9.213873,9.215721,5410981.000000,1673606973.246032
1673611581.096790,,,,8.902308,8.904059,5410982.000000,1673606973.247039
1673611581.102889,,,,8.693516,8.696926,5410983.000000,1673606973.248046
1673611581.103122,,,,8.577039,8.582132,5410984.000000,1673606973.249053
1673611581.103420,,,,8.528405,8.533162,5410985.000000,1673606973.250060
1673611581.103516,,,,8.656637,8.660746,5410986.000000,1673606973.251067
1673611581.103524,,,,8.886753,8.889852,5410987.000000,1673606973.252074
1673611581.103561,,,,8.972818,8.978393,5410988.000000,1673606973.253081
1673611581.103711,,,,8.978324,8.981590,5410989.000000,1673606973.254088
1673611581.105359,,,,9.028088,9.029407,5410990.000000,1673606973.255095
1673611581.105383,,,,9.093502,9.096697,5410991.000000,1673606973.256103
1673611581.105851,,,,9.066889,9.069699,5410992.000000,1673606973.257110
1673611581.105867,,,,8.984767,8.988778,5410993.000000,1673606973.258117
1673611581.105878,,,,9.046238,9.050851,5410994.000000,1673606973.259124
1673611581.106002,,,,9.124562,9.129872,5410995.000000,1673606973.260131
1673611581.106191,,,,9.168845,9.171824,5410996.000000,1673606973.261138
1673611581.106521,,,,9.236879,9.239473,5410997.000000,1673606973.262145
1673611581.111342,,,,9.288326,9.290030,5410998.000000,1673606973.263152
1673611581.111394,,,,9.411727,9.415113,5410999.000000,1673606973.264159
1673611581.111737,,,,9.560778,9.563684,5411000.000000,1673606973.265166
1673611581.118258,,,,9.577053,9.579743,5411001.000000,1673606973.266173
1673611581.118279,,,,9.496446,9.500890,5411002.000000,1673606973.267180
1673611581.118306,,,,9.395572,9.401650,5411003.000000,1673606973.268188
1673611581.121944,,,,9.227023,9.228824,5411004.000000,1673606973.269195
1673611581.122070,,,,9.024313,9.023085,5411005.000000,1673606973.270202
1673611581.122274,,,,8.871535,8.873984,5411006.000000,1673606973.271209
1673611581.122412,80.750290,4339220.000000,1673611581.104969,,,,
1673611581.122529,,,,8.858674,8.861484,5411007.000000,1673606973.272216
1673611581.122864,80.659843,4339221.000000,1673611581.105969,,,,
1673611581.122880,80.659843,4339222.000000,1673611581.106969,,,,
1673611581.122903,80.478935,4339223.000000,1673611581.107969,,,,
1673611581.122911,80.370407,4339224.000000,1673611581.108969,,,,
1673611581.122924,80.261856,4339225.000000,1673611581.109969,,,,
1673611581.122931,80.207588,4339226.000000,1673611581.110969,,,,
1673611581.122941,80.008591,4339227.000000,1673611581.111969,,,,
1673611581.122949,79.972412,4339228.000000,1673611581.112969,,,,
1673611581.122965,79.900055,4339229.000000,1673611581.113969,,,,
1673611581.122976,79.827698,4339230.000000,1673611581.114969,,,,
1673611581.123003,79.701057,4339231.000000,1673611581.115969,,,,
1673611581.123013,79.664879,4339232.000000,1673611581.116969,,,,
1673611581.123058,79.610611,4339233.000000,1673611581.117969,,,,
1673611581.123064,79.502060,4339234.000000,1673611581.118969,,,,
1673611581.123070,79.465881,4339235.000000,1673611581.119969,,,,
1673611581.125313,,,,8.878195,8.882014,5411008.000000,1673606973.273223
1673611581.125510,,,,8.846822,8.850425,5411009.000000,1673606973.274230
1673611581.125729,,,,8.854058,8.857325,5411010.000000,1673606973.275237
1673611581.126292,,,,8.958490,8.960290,5411011.000000,1673606973.276244
1673611581.126454,,,,9.047224,9.049240,5411012.000000,1673606973.277251
1673611581.126464,,,,9.116653,9.123935,5411013.000000,1673606973.278258
1673611581.126477,,,,9.127687,9.132854,5411014.000000,1673606973.279265
1673611581.129620,,,,9.202983,9.204662,5411015.000000,1673606973.280272
1673611581.129695,,,,9.309050,9.311138,5411016.000000,1673606973.281280
1673611581.129844,,,,9.374969,9.375495,5411017.000000,1673606973.282287
1673611581.129857,,,,9.423434,9.426460,5411018.000000,1673606973.283294
1673611581.133324,,,,9.351866,9.353474,5411019.000000,1673606973.284301
1673611581.133346,,,,9.198895,9.200984,5411020.000000,1673606973.285308
1673611581.133584,,,,9.060278,9.062343,5411021.000000,1673606973.286315
1673611581.133593,,,,8.887883,8.890068,5411022.000000,1673606973.287322
1673611581.133621,,,,8.814391,8.815133,5411023.000000,1673606973.288329
1673611581.133647,,,,8.872041,8.874874,5411024.000000,1673606973.289336
1673611581.137031,,,,8.927742,8.929519,5411025.000000,1673606973.290343
1673611581.137040,,,,9.038521,9.041403,5411026.000000,1673606973.291350
1673611581.137053,,,,9.134298,9.134897,5411027.000000,1673606973.292357
1673611581.137065,,,,9.150695,9.152134,5411028.000000,1673606973.293365
1673611581.140002,,,,9.124394,9.126795,5411029.000000,1673606973.294372
1673611581.140167,,,,9.080856,9.086022,5411030.000000,1673606973.295379
1673611581.140293,,,,9.038305,9.041018,5411031.000000,1673606973.296386
1673611581.140582,,,,8.993469,8.996544,5411032.000000,1673606973.297393
1673611581.144559,,,,8.979574,8.980220,5411033.000000,1673606973.298400
1673611581.144568,,,,8.968780,8.972215,5411034.000000,1673606973.299407
1673611581.144577,,,,8.975583,8.977431,5411035.000000,1673606973.300414
1673611581.144709,,,,8.946230,8.947765,5411036.000000,1673606973.301421
1673611581.158486,,,,8.989383,8.991543,5411037.000000,1673606973.302428
1673611581.158626,,,,9.078381,9.083979,5411038.000000,1673606973.303435
1673611581.158802,,,,9.124154,9.127805,5411039.000000,1673606973.304442
1673611581.159023,,,,9.118552,9.119823,5411040.000000,1673606973.305449
1673611581.159104,,,,9.089896,9.092032,5411041.000000,1673606973.306457
1673611581.159113,,,,9.050133,9.052606,5411042.000000,1673606973.307464
1673611581.159538,,,,9.008230,9.009814,5411043.000000,1673606973.308471
1673611581.159591,,,,9.008518,9.010319,5411044.000000,1673606973.309478
1673611581.159597,,,,9.024218,9.026161,5411045.000000,1673606973.310485
1673611581.159733,,,,9.112710,9.116818,5411046.000000,1673606973.311492
1673611581.159745,,,,9.228033,9.230218,5411047.000000,1673606973.312499
1673611581.162909,,,,9.329484,9.329698,5411048.000000,1673606973.313506
1673611581.162951,,,,9.438941,9.441341,5411049.000000,1673606973.314513
1673611581.163475,,,,9.630784,9.632752,5411050.000000,1673606973.315520
1673611581.163493,,,,9.794236,9.798848,5411051.000000,1673606973.316527
1673611581.163536,,,,9.857126,9.859550,5411052.000000,1673606973.317534
1673611581.163543,,,,9.893139,9.896910,5411053.000000,1673606973.318542
1673611581.165215,,,,9.952615,9.957805,5411054.000000,1673606973.319549
1673611581.165667,,,,10.062432,10.067309,5411055.000000,1673606973.320556
1673611581.166198,,,,10.036300,10.040889,5411056.000000,1673606973.321563
1673611581.166214,,,,9.821329,9.823754,5411057.000000,1673606973.322570
1673611581.166220,,,,9.480964,9.480095,5411058.000000,1673606973.323577
1673611581.166431,77.729233,4339264.000000,1673611581.132462,,,,
1673611581.166727,77.783501,4339265.000000,1673611581.133462,,,,
1673611581.166737,,,,9.113792,9.115761,5411059.000000,1673606973.324584
1673611581.166958,,,,8.911251,8.916056,5411060.000000,1673606973.325591
1673611581.166968,,,,8.834658,8.838453,5411061.000000,1673606973.326598
1673611581.167545,77.693054,4339266.000000,1673611581.134462,,,,
1673611581.167562,77.711143,4339267.000000,1673611581.135462,,,,
1673611581.167579,77.620705,4339268.000000,1673611581.136462,,,,
1673611581.167585,77.656883,4339269.000000,1673611581.137462,,,,
1673611581.167589,77.584526,4339270.000000,1673611581.138462,,,,
1673611581.167633,77.530243,4339271.000000,1673611581.139462,,,,
1673611581.167727,77.457886,4339272.000000,1673611581.140462,,,,
1673611581.167747,77.439796,4339273.000000,1673611581.141462,,,,
1673611581.167756,76.933266,4339287.000000,1673611581.155462,,,,
1673611581.167765,76.842819,4339288.000000,1673611581.156462,,,,
1673611581.167777,76.824730,4339289.000000,1673611581.157462,,,,
1673611581.167782,76.734291,4339290.000000,1673611581.158462,,,,
1673611581.167796,76.734291,4339291.000000,1673611581.159462,,,,
1673611581.167809,76.643829,4339292.000000,1673611581.160462,,,,
1673611581.167824,76.607651,4339293.000000,1673611581.161462,,,,
1673611581.167849,76.553383,4339294.000000,1673611581.162462,,,,
1673611581.167859,76.517204,4339295.000000,1673611581.163462,,,,
1673611581.167865,76.517204,4339296.000000,1673611581.164462,,,,
1673611581.169945,,,,8.759098,8.764576,5411062.000000,1673606973.327605
1673611581.170514,,,,8.841196,8.843910,5411063.000000,1673606973.328612
1673611581.170529,,,,8.793620,8.799026,5411064.000000,1673606973.329619
1673611581.172485,,,,8.680100,8.685796,5411065.000000,1673606973.330626
1673611581.172704,,,,8.534343,8.538499,5411066.000000,1673606973.331634
1673611581.172827,,,,8.489916,8.496260,5411067.000000,1673606973.332641
1673611581.172995,,,,8.644353,8.648533,5411068.000000,1673606973.333648
1673611581.177892,,,,8.784629,8.787006,5411069.000000,1673606973.334655
1673611581.178051,,,,8.862208,8.866940,5411070.000000,1673606973.335662
1673611581.178379,,,,8.900986,8.905262,5411071.000000,1673606973.336669
1673611581.178673,,,,8.869540,8.872903,5411072.000000,1673606973.337676
1673611581.179131,,,,8.849154,8.851315,5411073.000000,1673606973.338683
1673611581.179185,,,,8.955389,8.957261,5411074.000000,1673606973.339690
1673611581.180243,,,,9.131318,9.133791,5411075.000000,1673606973.340697
1673611581.180254,,,,9.245439,9.246084,5411076.000000,1673606973.341704
1673611581.180259,,,,9.332826,9.336212,5411077.000000,1673606973.342711
1673611581.180280,,,,9.450624,9.455333,5411078.000000,1673606973.343719
1673611581.185122,,,,9.574481,9.579118,5411079.000000,1673606973.344726
1673611581.185500,,,,9.713675,9.717591,5411080.000000,1673606973.345733
1673611581.185508,,,,9.830009,9.833563,5411081.000000,1673606973.346740
1673611581.185511,,,,9.873377,9.878182,5411082.000000,1673606973.347747
1673611581.187449,,,,9.867150,9.872749,5411083.000000,1673606973.348754
1673611581.187459,,,,9.765051,9.768485,5411084.000000,1673606973.349761
1673611581.187463,,,,9.446946,9.448265,5411085.000000,1673606973.350768
1673611581.193039,,,,9.108431,9.110303,5411086.000000,1673606973.351775
1673611581.193110,,,,8.943850,8.946443,5411087.000000,1673606973.352782
1673611581.193115,,,,8.774940,8.778159,5411088.000000,1673606973.353789
1673611581.193164,,,,8.584805,8.586388,5411089.000000,1673606973.354796
1673611581.193173,,,,8.474843,8.479311,5411090.000000,1673606973.355803
1673611581.193177,,,,8.509196,8.514386,5411091.000000,1673606973.356811
1673611581.193287,,,,8.577448,8.577973,5411092.000000,1673606973.357818
1673611581.193305,,,,8.585958,8.587349,5411093.000000,1673606973.358825
1673611581.195058,,,,8.669090,8.674280,5411094.000000,1673606973.359832
1673611581.195245,,,,8.872738,8.875091,5411095.000000,1673606973.360839
1673611581.195292,,,,9.004408,9.006424,5411096.000000,1673606973.361846
1673611581.195442,,,,9.068356,9.070637,5411097.000000,1673606973.362853
1673611581.195643,,,,9.148988,9.152471,5411098.000000,1673606973.363860
1673611581.195648,,,,9.255631,9.257407,5411099.000000,1673606973.364867
1673611581.200441,,,,9.334340,9.334938,5411100.000000,1673606973.365874
1673611581.200568,,,,9.479834,9.481513,5411101.000000,1673606973.366881
1673611581.200631,,,,9.615470,9.615731,5411102.000000,1673606973.367888
1673611581.200880,,,,9.559720,9.562073,5411103.000000,1673606973.368896
1673611581.200935,,,,9.506567,9.510795,5411104.000000,1673606973.369903
1673611581.200944,,,,9.447354,9.450429,5411105.000000,1673606973.370910
1673611581.200953,,,,9.361530,9.364412,5411106.000000,1673606973.371917
1673611581.202334,,,,9.245198,9.247911,5411107.000000,1673606973.372924
1673611581.202481,,,,9.096243,9.097634,5411108.000000,1673606973.373931
1673611581.202487,,,,8.981473,8.985100,5411109.000000,1673606973.374938
1673611581.202504,,,,8.873940,8.877086,5411110.000000,1673606973.375945
1673611581.217345,,,,8.696472,8.699739,5411111.000000,1673606973.376952
1673611581.217983,,,,8.510591,8.514867,5411112.000000,1673606973.377959
1673611581.218372,,,,8.408419,8.409137,5411113.000000,1673606973.378966
1673611581.218534,,,,8.503451,8.506501,5411114.000000,1673606973.379973
1673611581.225085,,,,8.675053,8.680266,5411115.000000,1673606973.380980
1673611581.225257,,,,8.747198,8.750897,5411116.000000,1673606973.381988
1673611581.225493,,,,8.784485,8.788377,5411117.000000,1673606973.382995
1673611581.230141,76.481026,4339297.000000,1673611581.169461,,,,
1673611581.230287,76.354385,4339298.000000,1673611581.170461,,,,
1673611581.230536,76.354385,4339299.000000,1673611581.171461,,,,
1673611581.230553,76.318207,4339300.000000,1673611581.172461,,,,
1673611581.230584,76.318207,4339301.000000,1673611581.173461,,,,
1673611581.231199,,,,8.883195,8.888698,5411118.000000,1673606973.384002
1673611581.231460,,,,9.061023,9.067776,5411119.000000,1673606973.385009
1673611581.231917,,,,9.162186,9.165957,5411120.000000,1673606973.386016
1673611581.231930,,,,9.133986,9.135715,5411121.000000,1673606973.387023
1673611581.232069,75.323257,4339332.000000,1673611581.204461,,,,
1673611581.232310,75.268974,4339333.000000,1673611581.205461,,,,
1673611581.232327,75.323257,4339334.000000,1673611581.206461,,,,
1673611581.232533,75.287064,4339335.000000,1673611581.207461,,,,
1673611581.232550,75.232796,4339336.000000,1673611581.208461,,,,
1673611581.233024,75.268974,4339337.000000,1673611581.209461,,,,
1673611581.233044,75.214706,4339338.000000,1673611581.210461,,,,
1673611581.233053,75.268974,4339339.000000,1673611581.211461,,,,
1673611581.233060,75.250885,4339340.000000,1673611581.212461,,,,
1673611581.233071,75.214706,4339341.000000,1673611581.213461,,,,
1673611581.233078,75.323257,4339348.000000,1673611581.220461,,,,
1673611581.233091,75.341347,4339349.000000,1673611581.221461,,,,
1673611581.233098,75.359436,4339350.000000,1673611581.222461,,,,
1673611581.233103,75.341347,4339351.000000,1673611581.223461,,,,
1673611581.233176,75.341347,4339352.000000,1673611581.224461,,,,
1673611581.233195,75.431793,4339353.000000,1673611581.225461,,,,
1673611581.233233,75.449883,4339354.000000,1673611581.226461,,,,
1673611581.233241,75.413704,4339355.000000,1673611581.227461,,,,
1673611581.233246,75.522240,4339356.000000,1673611581.228461,,,,
1673611581.233261,75.504150,4339357.000000,1673611581.229461,,,,
1673611581.237830,,,,9.083646,9.088403,5411122.000000,1673606973.388030
1673611581.237991,,,,9.113889,9.117131,5411123.000000,1673606973.389037
1673611581.238203,,,,9.216108,9.220097,5411124.000000,1673606973.390044
1673611581.238264,,,,9.266401,9.271735,5411125.000000,1673606973.391051
1673611581.238461,,,,9.327176,9.332246,5411126.000000,1673606973.392058
1673611581.238647,,,,9.406101,9.412252,5411127.000000,1673606973.393065
1673611581.238797,,,,9.475169,9.481826,5411128.000000,1673606973.394073
1673611581.239886,,,,9.441537,9.443673,5411129.000000,1673606973.395080
1673611581.239897,,,,9.328691,9.332726,5411130.000000,1673606973.396087
1673611581.239902,,,,9.175360,9.180117,5411131.000000,1673606973.397094
1673611581.245276,,,,9.078837,9.080782,5411132.000000,1673606973.398101
1673611581.245415,,,,9.012630,9.016953,5411133.000000,1673606973.399108
1673611581.245520,,,,8.932238,8.935385,5411134.000000,1673606973.400115
1673611581.245607,,,,8.827229,8.830880,5411135.000000,1673606973.401122
1673611581.245836,,,,8.724744,8.729069,5411136.000000,1673606973.402129
1673611581.245846,,,,8.767223,8.769577,5411137.000000,1673606973.403136
1673611581.245863,,,,8.940797,8.943390,5411138.000000,1673606973.404143
1673611581.245867,,,,9.048474,9.053375,5411139.000000,1673606973.405150
1673611581.247365,,,,9.100113,9.102298,5411140.000000,1673606973.406157
1673611581.247443,,,,9.075135,9.076430,5411141.000000,1673606973.407165
1673611581.247500,,,,9.011572,9.015007,5411142.000000,1673606973.408172
1673611581.252542,,,,8.897908,8.900525,5411143.000000,1673606973.409179
1673611581.252550,,,,8.755107,8.757244,5411144.000000,1673606973.410186
1673611581.252562,,,,8.744626,8.752700,5411145.000000,1673606973.411193
1673611581.252605,,,,8.819320,8.826697,5411146.000000,1673606973.412200
1673611581.255172,,,,8.923439,8.927619,5411147.000000,1673606973.413207
1673611581.255310,,,,9.056648,9.061502,5411148.000000,1673606973.414214
1673611581.255441,,,,9.144276,9.148865,5411149.000000,1673606973.415221
1673611581.255553,,,,9.216445,9.221659,5411150.000000,1673606973.416228
1673611581.255752,,,,9.334629,9.339241,5411151.000000,1673606973.417235
1673611581.255759,,,,9.500051,9.506756,5411152.000000,1673606973.418242
1673611581.255763,,,,9.569312,9.572026,5411153.000000,1673606973.419250
1673611581.259864,,,,9.583039,9.584190,5411154.000000,1673606973.420257
1673611581.260322,,,,9.571380,9.571329,5411155.000000,1673606973.421264
1673611581.260761,,,,9.538973,9.539259,5411156.000000,1673606973.422271
1673611581.263082,,,,9.452403,9.456102,5411157.000000,1673606973.423278
1673611581.263738,,,,9.317680,9.321571,5411158.000000,1673606973.424285
1673611581.263833,,,,9.213993,9.219687,5411159.000000,1673606973.425292
1673611581.263888,,,,9.154060,9.158264,5411160.000000,1673606973.426299
1673611581.267878,,,,9.100162,9.103812,5411161.000000,1673606973.427306
1673611581.268065,,,,8.953033,8.957934,5411162.000000,1673606973.428313
1673611581.268077,,,,8.794726,8.798546,5411163.000000,1673606973.429320
1673611581.270367,,,,8.896514,8.896968,5411164.000000,1673606973.430327
1673611581.270376,,,,9.030107,9.031570,5411165.000000,1673606973.431334
1673611581.270941,,,,9.107493,9.110712,5411166.000000,1673606973.432342
1673611581.270951,,,,9.134731,9.137060,5411167.000000,1673606973.433349
1673611581.271007,,,,9.170312,9.176030,5411168.000000,1673606973.434356
1673611581.271015,,,,9.232048,9.238632,5411169.000000,1673606973.435363
1673611581.271110,,,,9.261521,9.263803,5411170.000000,1673606973.436370
1673611581.271125,,,,9.143723,9.143023,5411171.000000,1673606973.437377
1673611581.275253,,,,8.931156,8.932571,5411172.000000,1673606973.438384
1673611581.275268,,,,8.849610,8.851050,5411173.000000,1673606973.439391
1673611581.275294,,,,8.966448,8.970027,5411174.000000,1673606973.440398
1673611581.275304,,,,9.093695,9.095927,5411175.000000,1673606973.441405
1673611581.278226,,,,9.088069,9.091696,5411176.000000,1673606973.442412
1673611581.278258,,,,9.094560,9.098259,5411177.000000,1673606973.443419
1673611581.278273,,,,9.154613,9.162279,5411178.000000,1673606973.444427
1673611581.278332,,,,9.226062,9.232430,5411179.000000,1673606973.445434
1673611581.278339,,,,9.274383,9.277048,5411180.000000,1673606973.446441
1673611581.278379,,,,9.315324,9.317725,5411181.000000,1673606973.447448
1673611581.291450,,,,9.423001,9.425667,5411182.000000,1673606973.448455
1673611581.291630,,,,9.486733,9.490480,5411183.000000,1673606973.449462
1673611581.291749,,,,9.432858,9.437639,5411184.000000,1673606973.450469
1673611581.291764,,,,9.317055,9.320898,5411185.000000,1673606973.451476
1673611581.297555,,,,9.184616,9.187882,5411186.000000,1673606973.452483
1673611581.297657,,,,9.137592,9.142253,5411187.000000,1673606973.453490
1673611581.297744,,,,9.097108,9.101313,5411188.000000,1673606973.454497
1673611581.299756,,,,8.997701,9.000654,5411189.000000,1673606973.455504
1673611581.299875,,,,8.829513,8.833982,5411190.000000,1673606973.456511
1673611581.299977,,,,8.702218,8.705196,5411191.000000,1673606973.457519
1673611581.300099,,,,8.691880,8.694618,5411192.000000,1673606973.458526
1673611581.307007,,,,8.768209,8.770779,5411193.000000,1673606973.459533
1673611581.307022,,,,8.827734,8.833116,5411194.000000,1673606973.460540
1673611581.307056,,,,8.899735,8.903843,5411195.000000,1673606973.461547
1673611581.312995,,,,8.955485,8.960170,5411196.000000,1673606973.462554
1673611581.313383,,,,9.011139,9.013708,5411197.000000,1673606973.463561
1673611581.313668,,,,9.113889,9.119896,5411198.000000,1673606973.464568
1673611581.314017,,,,9.235341,9.236973,5411199.000000,1673606973.465575
1673611581.314174,,,,9.411222,9.411508,5411200.000000,1673606973.466582
1673611581.314489,,,,9.470409,9.473075,5411201.000000,1673606973.467589
1673611581.314667,,,,9.432402,9.436221,5411202.000000,1673606973.468596
1673611581.315340,,,,9.301837,9.306162,5411203.000000,1673606973.469604
1673611581.315949,,,,9.092035,9.097730,5411204.000000,1673606973.470611
1673611581.316221,,,,8.934834,8.938437,5411205.000000,1673606973.471618
1673611581.316514,,,,8.772176,8.774697,5411206.000000,1673606973.472625
1673611581.316528,,,,8.691039,8.693007,5411207.000000,1673606973.473632
1673611581.316667,,,,8.639064,8.642691,5411208.000000,1673606973.474639
1673611581.316684,,,,8.581101,8.583960,5411209.000000,1673606973.475646
1673611581.319402,76.046852,4339377.000000,1673611581.276446,,,,
1673611581.319428,76.083031,4339378.000000,1673611581.277446,,,,
1673611581.319443,76.064941,4339379.000000,1673611581.278445,,,,
1673611581.319455,76.119209,4339380.000000,1673611581.279445,,,,
1673611581.319812,76.101120,4339381.000000,1673611581.280446,,,,
1673611581.320331,,,,8.590670,8.594394,5411210.000000,1673606973.476653
1673611581.320472,,,,8.659762,8.664015,5411211.000000,1673606973.477660
1673611581.320484,,,,8.788283,8.792319,5411212.000000,1673606973.478667
1673611581.320570,,,,8.909640,8.914228,5411213.000000,1673606973.479674
1673611581.320661,76.119209,4339382.000000,1673611581.281446,,,,
1673611581.320878,76.173492,4339383.000000,1673611581.282445,,,,
1673611581.320898,76.155403,4339384.000000,1673611581.283446,,,,
1673611581.320917,76.191582,4339385.000000,1673611581.284446,,,,
1673611581.320923,76.173492,4339386.000000,1673611581.285445,,,,
1673611581.320935,76.010674,4339409.000000,1673611581.308445,,,,
1673611581.320959,76.010674,4339410.000000,1673611581.309446,,,,
1673611581.320967,75.974495,4339411.000000,1673611581.310446,,,,
1673611581.320986,75.974495,4339412.000000,1673611581.311445,,,,
1673611581.321022,75.974495,4339413.000000,1673611581.312445,,,,
1673611581.321038,75.974495,4339414.000000,1673611581.313446,,,,
1673611581.321047,75.992584,4339415.000000,1673611581.314445,,,,
1673611581.321079,75.902145,4339416.000000,1673611581.315445,,,,
1673611581.321087,75.902145,4339417.000000,1673611581.316446,,,,
1673611581.321092,75.829773,4339418.000000,1673611581.317446,,,,
1673611581.322747,,,,9.011211,9.015512,5411214.000000,1673606973.480681
1673611581.322757,,,,9.061144,9.062559,5411215.000000,1673606973.481688
1673611581.322901,,,,9.016621,9.020560,5411216.000000,1673606973.482696
1673611581.323027,,,,8.993782,8.998155,5411217.000000,1673606973.483703
1673611581.323036,,,,8.947672,8.953511,5411218.000000,1673606973.484710
1673611581.323195,,,,8.929257,8.934639,5411219.000000,1673606973.485717
1673611581.323339,,,,8.943345,8.946515,5411220.000000,1673606973.486724
1673611581.327777,,,,9.054124,9.053688,5411221.000000,1673606973.487731
1673611581.327924,,,,9.211061,9.212187,5411222.000000,1673606973.488738
1673611581.328012,,,,9.308665,9.312099,5411223.000000,1673606973.489745
1673611581.328259,,,,9.329604,9.333351,5411224.000000,1673606973.490752
1673611581.328475,,,,9.298544,9.302099,5411225.000000,1673606973.491759
1673611581.328892,,,,9.203608,9.209351,5411226.000000,1673606973.492766
1673611581.328953,,,,9.066288,9.070107,5411227.000000,1673606973.493773
1673611581.329012,,,,8.954788,8.955699,5411228.000000,1673606973.494781
1673611581.330240,,,,8.893773,8.898097,5411229.000000,1673606973.495788
1673611581.330319,,,,8.880166,8.886270,5411230.000000,1673606973.496795
1673611581.330398,,,,8.857593,8.862301,5411231.000000,1673606973.497802
1673611581.330410,,,,8.788668,8.791333,5411232.000000,1673606973.498809
1673611581.330458,,,,8.714864,8.717697,5411233.000000,1673606973.499816
1673611581.330464,,,,8.763834,8.767004,5411234.000000,1673606973.500823
1673611581.336529,,,,8.911587,8.914469,5411235.000000,1673606973.501830
1673611581.336784,,,,9.121028,9.126771,5411236.000000,1673606973.502837
1673611581.336982,,,,9.358212,9.367393,5411237.000000,1673606973.503844
1673611581.337090,,,,9.625639,9.632343,5411238.000000,1673606973.504851
1673611581.337316,,,,9.810199,9.814643,5411239.000000,1673606973.505858
1673611581.337564,,,,9.845105,9.847146,5411240.000000,1673606973.506866
1673611581.337908,,,,9.747140,9.751825,5411241.000000,1673606973.507873
1673611581.337919,,,,9.531257,9.533730,5411242.000000,1673606973.508880
1673611581.358446,,,,9.245029,9.246878,5411243.000000,1673606973.509887
1673611581.358607,,,,8.955918,8.957934,5411244.000000,1673606973.510894
1673611581.358617,,,,8.797178,8.800421,5411245.000000,1673606973.511901
1673611581.358621,,,,8.661854,8.665289,5411246.000000,1673606973.512908
1673611581.358928,,,,8.746885,8.750753,5411247.000000,1673606973.513915
1673611581.358942,,,,8.975270,8.979379,5411248.000000,1673606973.514922
1673611581.358959,,,,9.115547,9.121434,5411249.000000,1673606973.515929
1673611581.364819,75.486061,4339434.000000,1673611581.317693,,,,
1673611581.365461,75.540329,4339435.000000,1673611581.318693,,,,
1673611581.365665,,,,9.179879,9.183627,5411250.000000,1673606973.516936
1673611581.365855,,,,9.262435,9.266447,5411251.000000,1673606973.517943
1673611581.366269,,,,9.281763,9.285342,5411252.000000,1673606973.518950
1673611581.366459,75.504150,4339436.000000,1673611581.319693,,,,
1673611581.366476,75.413704,4339437.000000,1673611581.320693,,,,
1673611581.366482,75.431793,4339438.000000,1673611581.321693,,,,
1673611581.366490,75.431793,4339439.000000,1673611581.322693,,,,
1673611581.366495,75.413704,4339440.000000,1673611581.323693,,,,
1673611581.366575,75.359436,4339441.000000,1673611581.324693,,,,
1673611581.366581,75.413704,4339442.000000,1673611581.325693,,,,
1673611581.366632,75.377525,4339443.000000,1673611581.326693,,,,
1673611581.366642,75.486061,4339470.000000,1673611581.353693,,,,
1673611581.366649,75.467972,4339471.000000,1673611581.354693,,,,
1673611581.366654,75.449883,4339472.000000,1673611581.355693,,,,
1673611581.366681,75.431793,4339473.000000,1673611581.356693,,,,
1673611581.366734,75.504150,4339474.000000,1673611581.357693,,,,
1673611581.366740,75.449883,4339475.000000,1673611581.358693,,,,
1673611581.366757,75.431793,4339476.000000,1673611581.359693,,,,
1673611581.366762,75.504150,4339477.000000,1673611581.360693,,,,
1673611581.366767,75.449883,4339478.000000,1673611581.361693,,,,
1673611581.366790,75.413704,4339479.000000,1673611581.362693,,,,
