__time,/gdx/grip_force_stream/grip_force,/gdx/grip_force_stream/header/seq,/gdx/grip_force_stream/header/stamp,/shimmer0/emg_stream/emg_ch1,/shimmer0/emg_stream/emg_ch2,/shimmer0/emg_stream/header/seq,/shimmer0/emg_stream/header/stamp
1673611762.140475,,,,-0.804542,-0.805411,5590275.000000,1673607154.306945
1673611762.140598,,,,-0.824833,-0.824523,5590276.000000,1673607154.307952
1673611762.147967,-0.130658,4520237.000000,1673611762.100842,,,,
1673611762.147992,-0.112561,4520238.000000,1673611762.101842,,,,
1673611762.148027,-0.130658,4520239.000000,1673611762.102842,,,,
1673611762.148041,-0.148747,4520240.000000,1673611762.103842,,,,
1673611762.148049,-0.130658,4520241.000000,1673611762.104842,,,,
1673611762.148063,-0.148747,4520242.000000,1673611762.105842,,,,
1673611762.148176,-0.148747,4520243.000000,1673611762.106842,,,,
1673611762.148184,-0.203014,4520244.000000,1673611762.107842,,,,
1673611762.148188,-0.184925,4520245.000000,1673611762.108842,,,,
1673611762.148319,-0.148747,4520246.000000,1673611762.109842,,,,
1673611762.148375,,,,-0.833872,-0.834740,5590277.000000,1673607154.308959
1673611762.148381,,,,-0.825915,-0.827937,5590278.000000,1673607154.309966
1673611762.148735,,,,-0.819977,-0.822600,5590279.000000,1673607154.310973
1673611762.148756,,,,-0.813678,-0.815195,5590280.000000,1673607154.311980
1673611762.148892,-0.184925,4520247.000000,1673611762.110842,,,,
1673611762.149673,-0.203014,4520248.000000,1673611762.111842,,,,
1673611762.149682,-0.148747,4520249.000000,1673611762.112842,,,,
1673611762.149765,-0.130658,4520250.000000,1673611762.113842,,,,
1673611762.149779,-0.166836,4520251.000000,1673611762.114842,,,,
1673611762.149788,-0.166836,4520252.000000,1673611762.115842,,,,
1673611762.149800,-0.148747,4520253.000000,1673611762.116842,,,,
1673611762.149807,-0.166836,4520254.000000,1673611762.117842,,,,
1673611762.149835,-0.094472,4520255.000000,1673611762.118842,,,,
1673611762.149842,-0.184925,4520256.000000,1673611762.119842,,,,
1673611762.149885,-0.076383,4520274.000000,1673611762.137842,,,,
1673611762.149894,-0.076383,4520275.000000,1673611762.138842,,,,
1673611762.149905,-0.040205,4520276.000000,1673611762.139842,,,,
1673611762.149923,-0.040205,4520277.000000,1673611762.140842,,,,
1673611762.149935,-0.094472,4520278.000000,1673611762.141842,,,,
1673611762.149942,-0.112561,4520279.000000,1673611762.142842,,,,
1673611762.149961,-0.058294,4520280.000000,1673611762.143842,,,,
1673611762.149966,-0.058294,4520281.000000,1673611762.144842,,,,
1673611762.149992,-0.058294,4520282.000000,1673611762.145842,,,,
1673611762.150002,-0.094472,4520283.000000,1673611762.146842,,,,
1673611762.154676,,,,-0.810553,-0.810363,5590281.000000,1673607154.312987
1673611762.154728,,,,-0.796465,-0.796035,5590282.000000,1673607154.313994
1673611762.154945,,,,-0.782017,-0.781010,5590283.000000,1673607154.315001
1673611762.155093,,,,-0.780021,-0.778534,5590284.000000,1673607154.316009
1673611762.155350,,,,-0.792041,-0.791636,5590285.000000,1673607154.317016
1673611762.155616,,,,-0.819808,-0.822071,5590286.000000,1673607154.318023
1673611762.155878,,,,-0.822573,-0.821879,5590287.000000,1673607154.319030
1673611762.158752,,,,-0.806754,-0.805940,5590288.000000,1673607154.320037
1673611762.158900,,,,-0.797571,-0.797478,5590289.000000,1673607154.321044
1673611762.159165,,,,-0.808702,-0.807983,5590290.000000,1673607154.322051
1673611762.159173,,,,-0.813173,-0.813416,5590291.000000,1673607154.323058
1673611762.161636,,,,-0.809278,-0.805483,5590292.000000,1673607154.324065
1673611762.161906,,,,-0.807716,-0.806925,5590293.000000,1673607154.325072
1673611762.162326,,,,-0.819207,-0.817840,5590294.000000,1673607154.326079
1673611762.162423,,,,-0.821924,-0.819090,5590295.000000,1673607154.327086
1673611762.166519,,,,-0.824352,-0.820677,5590296.000000,1673607154.328094
1673611762.166627,,,,-0.826540,-0.826254,5590297.000000,1673607154.329101
1673611762.166837,,,,-0.828270,-0.830389,5590298.000000,1673607154.330108
1673611762.166972,,,,-0.827766,-0.828899,5590299.000000,1673607154.331115
1673611762.167106,,,,-0.824184,-0.823153,5590300.000000,1673607154.332122
1673611762.167255,,,,-0.817332,-0.814474,5590301.000000,1673607154.333129
1673611762.167435,,,,-0.814303,-0.811878,5590302.000000,1673607154.334136
1673611762.167446,,,,-0.810889,-0.808969,5590303.000000,1673607154.335143
1673611762.167537,,,,-0.804975,-0.804329,5590304.000000,1673607154.336150
1673611762.167634,,,,-0.803773,-0.804690,5590305.000000,1673607154.337157
1673611762.169102,,,,-0.800985,-0.800963,5590306.000000,1673607154.338164
1673611762.169326,,,,-0.794518,-0.793343,5590307.000000,1673607154.339171
1673611762.169531,,,,-0.786560,-0.783871,5590308.000000,1673607154.340178
1673611762.173733,,,,-0.781031,-0.780697,5590309.000000,1673607154.341186
1673611762.174421,,,,-0.780742,-0.782404,5590310.000000,1673607154.342193
1673611762.174437,,,,-0.781944,-0.783005,5590311.000000,1673607154.343200
1673611762.174451,,,,-0.785286,-0.788126,5590312.000000,1673607154.344207
1673611762.176708,,,,-0.796489,-0.798199,5590313.000000,1673607154.345214
1673611762.176934,,,,-0.802571,-0.804594,5590314.000000,1673607154.346221
1673611762.177185,,,,-0.815769,-0.815075,5590315.000000,1673607154.347228
1673611762.177465,,,,-0.821371,-0.819186,5590316.000000,1673607154.348235
1673611762.181144,,,,-0.818582,-0.820292,5590317.000000,1673607154.349242
1673611762.181456,,,,-0.821635,-0.823273,5590318.000000,1673607154.350249
1673611762.181502,,,,-0.831901,-0.833202,5590319.000000,1673607154.351256
1673611762.181714,,,,-0.838632,-0.840438,5590320.000000,1673607154.352263
1673611762.183946,,,,-0.834088,-0.835510,5590321.000000,1673607154.353271
1673611762.184044,,,,-0.824184,-0.825316,5590322.000000,1673607154.354278
1673611762.188818,,,,-0.818726,-0.816854,5590323.000000,1673607154.355285
1673611762.189190,,,,-0.805432,-0.804497,5590324.000000,1673607154.356292
1673611762.189197,,,,-0.794421,-0.793944,5590325.000000,1673607154.357299
1673611762.189214,,,,-0.782473,-0.782019,5590326.000000,1673607154.358306
1673611762.189318,,,,-0.771006,-0.771562,5590327.000000,1673607154.359313
1673611762.189327,,,,-0.777809,-0.777596,5590328.000000,1673607154.360320
1673611762.189346,,,,-0.803413,-0.803295,5590329.000000,1673607154.361327
1673611762.200594,,,,-0.824448,-0.823489,5590330.000000,1673607154.362334
1673611762.200955,,,,-0.824664,-0.823850,5590331.000000,1673607154.363341
1673611762.201560,,,,-0.813029,-0.814306,5590332.000000,1673607154.364348
1673611762.201788,,,,-0.812428,-0.810916,5590333.000000,1673607154.365355
1673611762.202404,,,,-0.812211,-0.811493,5590334.000000,1673607154.366363
1673611762.202634,,,,-0.814255,-0.814282,5590335.000000,1673607154.367370
1673611762.202655,,,,-0.820097,-0.820148,5590336.000000,1673607154.368377
1673611762.202663,,,,-0.823270,-0.822648,5590337.000000,1673607154.369384
1673611762.207978,,,,-0.823150,-0.822167,5590338.000000,1673607154.370391
1673611762.208433,,,,-0.822669,-0.822792,5590339.000000,1673607154.371398
1673611762.208642,,,,-0.816803,-0.817792,5590340.000000,1673607154.372405
1673611762.208748,,,,-0.809879,-0.810844,5590341.000000,1673607154.373412
1673611762.214077,-0.004027,4520299.000000,1673611762.167499,,,,
1673611762.214092,-0.058294,4520300.000000,1673611762.168499,,,,
1673611762.214096,-0.040205,4520301.000000,1673611762.169499,,,,
1673611762.214140,-0.058294,4520302.000000,1673611762.170499,,,,
1673611762.214153,-0.058294,4520303.000000,1673611762.171499,,,,
1673611762.214194,-0.058294,4520304.000000,1673611762.172499,,,,
1673611762.214422,-0.094472,4520305.000000,1673611762.173499,,,,
1673611762.214444,-0.094472,4520306.000000,1673611762.174499,,,,
1673611762.214453,-0.076383,4520307.000000,1673611762.175499,,,,
1673611762.214479,-0.058294,4520308.000000,1673611762.176499,,,,
1673611762.214634,,,,-0.803653,-0.803127,5590342.000000,1673607154.374419
1673611762.214659,,,,-0.800047,-0.799112,5590343.000000,1673607154.375426
1673611762.214765,,,,-0.799422,-0.797958,5590344.000000,1673607154.376433
1673611762.214888,-0.058294,4520310.000000,1673611762.178499,,,,
1673611762.215414,-0.148747,4520311.000000,1673611762.179499,,,,
1673611762.215778,-0.130658,4520312.000000,1673611762.180499,,,,
1673611762.215796,-0.166836,4520313.000000,1673611762.181499,,,,
1673611762.215806,-0.130658,4520314.000000,1673611762.182499,,,,
1673611762.215847,-0.112561,4520315.000000,1673611762.183499,,,,
1673611762.215856,-0.112561,4520316.000000,1673611762.184499,,,,
1673611762.215864,-0.112561,4520317.000000,1673611762.185499,,,,
1673611762.215880,-0.040205,4520318.000000,1673611762.186499,,,,
1673611762.215915,-0.076383,4520319.000000,1673611762.187499,,,,
1673611762.215928,-0.094472,4520335.000000,1673611762.203499,,,,
1673611762.215936,-0.112561,4520336.000000,1673611762.204499,,,,
1673611762.215945,-0.076383,4520337.000000,1673611762.205499,,,,
1673611762.215953,-0.112561,4520338.000000,1673611762.206499,,,,
1673611762.216004,-0.022116,4520339.000000,1673611762.207499,,,,
1673611762.216013,-0.076383,4520340.000000,1673611762.208499,,,,
1673611762.216017,-0.058294,4520341.000000,1673611762.209499,,,,
1673611762.216033,-0.130658,4520342.000000,1673611762.210499,,,,
1673611762.216037,-0.112561,4520343.000000,1673611762.211499,,,,
1673611762.216059,-0.076383,4520344.000000,1673611762.212499,,,,
1673611762.216475,,,,-0.787690,-0.785025,5590345.000000,1673607154.377440
1673611762.216752,,,,-0.763457,-0.761729,5590346.000000,1673607154.378448
1673611762.216765,,,,-0.740763,-0.740093,5590347.000000,1673607154.379455
1673611762.222262,,,,-0.747182,-0.745261,5590348.000000,1673607154.380462
1673611762.222537,,,,-0.777377,-0.779207,5590349.000000,1673607154.381469
1673611762.222798,,,,-0.786272,-0.789256,5590350.000000,1673607154.382476
1673611762.223226,,,,-0.783315,-0.783606,5590351.000000,1673607154.383483
1673611762.223242,,,,-0.784300,-0.784183,5590352.000000,1673607154.384490
1673611762.223250,,,,-0.803701,-0.805171,5590353.000000,1673607154.385497
1673611762.223636,,,,-0.817837,-0.821446,5590354.000000,1673607154.386504
1673611762.223783,,,,-0.811659,-0.812695,5590355.000000,1673607154.387511
1673611762.224005,,,,-0.796273,-0.794641,5590356.000000,1673607154.388518
1673611762.224049,,,,-0.785863,-0.786780,5590357.000000,1673607154.389525
1673611762.224571,,,,-0.780454,-0.781803,5590358.000000,1673607154.390532
1673611762.224686,,,,-0.785599,-0.784303,5590359.000000,1673607154.391540
1673611762.224771,,,,-0.794782,-0.793126,5590360.000000,1673607154.392547
1673611762.224783,,,,-0.804591,-0.804113,5590361.000000,1673607154.393554
1673611762.224797,,,,-0.817765,-0.818297,5590362.000000,1673607154.394561
1673611762.229132,,,,-0.817476,-0.818465,5590363.000000,1673607154.395568
1673611762.229248,,,,-0.806177,-0.808103,5590364.000000,1673607154.396575
1673611762.229450,,,,-0.811442,-0.812912,5590365.000000,1673607154.397582
1673611762.229492,,,,-0.824352,-0.824235,5590366.000000,1673607154.398589
1673611762.231392,,,,-0.825963,-0.825365,5590367.000000,1673607154.399596
1673611762.231509,,,,-0.820578,-0.823634,5590368.000000,1673607154.400603
1673611762.231690,,,,-0.826419,-0.827793,5590369.000000,1673607154.401610
1673611762.236552,,,,-0.834040,-0.831639,5590370.000000,1673607154.402617
1673611762.236699,,,,-0.821323,-0.821278,5590371.000000,1673607154.403625
1673611762.236814,,,,-0.817020,-0.815869,5590372.000000,1673607154.404632
1673611762.236960,,,,-0.826996,-0.827240,5590373.000000,1673607154.405639
1673611762.239397,,,,-0.831636,-0.831038,5590374.000000,1673607154.406646
1673611762.239404,,,,-0.831540,-0.830870,5590375.000000,1673607154.407653
1673611762.239463,,,,-0.820626,-0.821590,5590376.000000,1673607154.408660
1673611762.239470,,,,-0.807427,-0.808055,5590377.000000,1673607154.409667
1673611762.239484,,,,-0.800263,-0.801661,5590378.000000,1673607154.410674
1673611762.239487,,,,-0.801177,-0.801564,5590379.000000,1673607154.411681
1673611762.244630,,,,-0.807043,-0.806541,5590380.000000,1673607154.412688
1673611762.244760,,,,-0.803076,-0.801997,5590381.000000,1673607154.413695
1673611762.244868,,,,-0.799302,-0.801084,5590382.000000,1673607154.414702
1673611762.245069,,,,-0.802619,-0.803896,5590383.000000,1673607154.415709
1673611762.245330,,,,-0.806706,-0.807046,5590384.000000,1673607154.416717
1673611762.245505,,,,-0.805095,-0.805964,5590385.000000,1673607154.417724
1673611762.245676,,,,-0.806778,-0.807382,5590386.000000,1673607154.418731
1673611762.245833,,,,-0.802235,-0.804521,5590387.000000,1673607154.419738
1673611762.246764,,,,-0.796248,-0.796107,5590388.000000,1673607154.420745
1673611762.246779,,,,-0.787354,-0.788631,5590389.000000,1673607154.421752
1673611762.246792,,,,-0.786584,-0.784856,5590390.000000,1673607154.422759
1673611762.254338,,,,-0.787690,-0.787429,5590391.000000,1673607154.423766
1673611762.254648,,,,-0.793772,-0.795434,5590392.000000,1673607154.424773
1673611762.254665,,,,-0.809471,-0.810291,5590393.000000,1673607154.425780
1673611762.254776,,,,-0.811394,-0.811060,5590394.000000,1673607154.426787
1673611762.267415,,,,-0.810384,-0.811902,5590395.000000,1673607154.427794
1673611762.267592,,,,-0.827429,-0.831182,5590396.000000,1673607154.428802
1673611762.267628,,,,-0.840627,-0.843082,5590397.000000,1673607154.429809
1673611762.267635,,,,-0.838969,-0.838346,5590398.000000,1673607154.430816
1673611762.269002,,,,-0.835242,-0.834476,5590399.000000,1673607154.431823
1673611762.269013,,,,-0.828847,-0.827745,5590400.000000,1673607154.432830
1673611762.269074,-0.094472,4520373.000000,1673611762.235362,,,,
1673611762.269083,-0.022116,4520374.000000,1673611762.236362,,,,
1673611762.269092,-0.058294,4520375.000000,1673611762.237362,,,,
1673611762.269211,0.032160,4520376.000000,1673611762.238362,,,,
1673611762.269221,,,,-0.816731,-0.815748,5590401.000000,1673607154.433837
1673611762.269352,0.014062,4520377.000000,1673611762.239362,,,,
1673611762.269423,0.032160,4520378.000000,1673611762.240362,,,,
1673611762.269431,-0.022116,4520379.000000,1673611762.241362,,,,
1673611762.269443,0.014062,4520380.000000,1673611762.242362,,,,
1673611762.269451,-0.040205,4520381.000000,1673611762.243362,,,,
1673611762.270215,0.014062,4520382.000000,1673611762.244362,,,,
1673611762.270304,0.140694,4520396.000000,1673611762.258362,,,,
1673611762.270318,0.104516,4520397.000000,1673611762.259362,,,,
1673611762.270322,0.122605,4520398.000000,1673611762.260362,,,,
1673611762.270327,0.140694,4520399.000000,1673611762.261362,,,,
1673611762.270336,0.140694,4520400.000000,1673611762.262362,,,,
1673611762.270344,0.176880,4520401.000000,1673611762.263362,,,,
1673611762.270352,0.158783,4520402.000000,1673611762.264362,,,,
1673611762.270358,0.140694,4520403.000000,1673611762.265362,,,,
1673611762.270370,0.158783,4520404.000000,1673611762.266362,,,,
1673611762.270377,0.158783,4520405.000000,1673611762.267362,,,,
1673611762.274499,,,,-0.807403,-0.807695,5590402.000000,1673607154.434844
1673611762.275024,,,,-0.803773,-0.805002,5590403.000000,1673607154.435851
1673611762.275375,,,,-0.806658,-0.806204,5590404.000000,1673607154.436858
1673611762.275388,,,,-0.796585,-0.798006,5590405.000000,1673607154.437865
1673611762.275501,,,,-0.782906,-0.784207,5590406.000000,1673607154.438872
1673611762.275613,,,,-0.770357,-0.773052,5590407.000000,1673607154.439879
1673611762.275629,,,,-0.769275,-0.770961,5590408.000000,1673607154.440886
1673611762.276757,,,,-0.766342,-0.767259,5590409.000000,1673607154.441894
1673611762.276900,,,,-0.763722,-0.762499,5590410.000000,1673607154.442901
1673611762.277083,,,,-0.768770,-0.767836,5590411.000000,1673607154.443908
1673611762.277099,,,,-0.781536,-0.781010,5590412.000000,1673607154.444915
1673611762.277577,,,,-0.789349,-0.792429,5590413.000000,1673607154.445922
1673611762.277586,,,,-0.795744,-0.797718,5590414.000000,1673607154.446929
1673611762.277589,,,,-0.796537,-0.798800,5590415.000000,1673607154.447936
1673611762.281728,,,,-0.802667,-0.802959,5590416.000000,1673607154.448943
1673611762.281826,,,,-0.808004,-0.806805,5590417.000000,1673607154.449950
1673611762.281967,,,,-0.805119,-0.804017,5590418.000000,1673607154.450957
1673611762.282121,,,,-0.802138,-0.801012,5590419.000000,1673607154.451964
1673611762.284216,,,,-0.784805,-0.783221,5590420.000000,1673607154.452971
1673611762.284379,,,,-0.758505,-0.760696,5590421.000000,1673607154.453979
1673611762.284387,,,,-0.731700,-0.734275,5590422.000000,1673607154.454986
1673611762.284468,,,,-0.719391,-0.718649,5590423.000000,1673607154.455993
1673611762.284599,,,,-0.718525,-0.715956,5590424.000000,1673607154.457000
1673611762.284716,,,,-0.743455,-0.744516,5590425.000000,1673607154.458007
1673611762.284797,,,,-0.786079,-0.786010,5590426.000000,1673607154.459014
1673611762.289138,,,,-0.782858,-0.782957,5590427.000000,1673607154.460021
1673611762.289225,,,,-0.755091,-0.756681,5590428.000000,1673607154.461028
1673611762.289354,,,,-0.747446,-0.748387,5590429.000000,1673607154.462035
1673611762.289433,,,,-0.755692,-0.758364,5590430.000000,1673607154.463042
1673611762.291365,,,,-0.775622,-0.779135,5590431.000000,1673607154.464049
1673611762.291485,,,,-0.789084,-0.789063,5590432.000000,1673607154.465056
1673611762.291589,,,,-0.785118,-0.785289,5590433.000000,1673607154.466063
1673611762.296739,,,,-0.780069,-0.778173,5590434.000000,1673607154.467071
1673611762.296862,,,,-0.793724,-0.792501,5590435.000000,1673607154.468078
1673611762.297279,,,,-0.804446,-0.804209,5590436.000000,1673607154.469085
1673611762.299284,,,,-0.784132,-0.782500,5590437.000000,1673607154.470092
1673611762.299965,,,,-0.780983,-0.781923,5590438.000000,1673607154.471099
1673611762.300074,,,,-0.798100,-0.798848,5590439.000000,1673607154.472106
1673611762.300087,,,,-0.810961,-0.811493,5590440.000000,1673607154.473113
1673611762.305022,,,,-0.811899,-0.811782,5590441.000000,1673607154.474120
1673611762.305341,,,,-0.803893,-0.800603,5590442.000000,1673607154.475127
1673611762.305681,,,,-0.778314,-0.777548,5590443.000000,1673607154.476134
1673611762.305903,,,,-0.748768,-0.749132,5590444.000000,1673607154.477141
1673611762.305925,,,,-0.750283,-0.752522,5590445.000000,1673607154.478148
1673611762.305934,,,,-0.775165,-0.775793,5590446.000000,1673607154.479156
1673611762.306372,,,,-0.801994,-0.799930,5590447.000000,1673607154.480163
1673611762.306856,,,,-0.812548,-0.812960,5590448.000000,1673607154.481170
1673611762.306950,,,,-0.820818,-0.819907,5590449.000000,1673607154.482177
1673611762.306968,,,,-0.822260,-0.822600,5590450.000000,1673607154.483184
1673611762.306978,,,,-0.797451,-0.798992,5590451.000000,1673607154.484191
1673611762.307008,,,,-0.764827,-0.766682,5590452.000000,1673607154.485198
1673611762.307062,,,,-0.747230,-0.747041,5590453.000000,1673607154.486205
1673611762.307070,,,,-0.738046,-0.738218,5590454.000000,1673607154.487212
1673611762.307116,,,,-0.732661,-0.731294,5590455.000000,1673607154.488219
1673611762.320589,,,,-0.746052,-0.747281,5590456.000000,1673607154.489226
1673611762.320802,,,,-0.776583,-0.775504,5590457.000000,1673607154.490233
1673611762.320906,,,,-0.800960,-0.802454,5590458.000000,1673607154.491241
1673611762.321231,,,,-0.823366,-0.823129,5590459.000000,1673607154.492248
1673611762.321248,,,,-0.845099,-0.843323,5590460.000000,1673607154.493255
1673611762.321414,,,,-0.829977,-0.829019,5590461.000000,1673607154.494262
1673611762.328146,,,,-0.807499,-0.809137,5590462.000000,1673607154.495269
1673611762.328343,,,,-0.785262,-0.785866,5590463.000000,1673607154.496276
1673611762.328354,,,,-0.780790,-0.781010,5590464.000000,1673607154.497283
1673611762.328361,,,,-0.778074,-0.775721,5590465.000000,1673607154.498290
1673611762.332645,0.213059,4520406.000000,1673611762.272045,,,,
1673611762.333374,0.213059,4520407.000000,1673611762.273045,,,,
1673611762.333727,0.303504,4520408.000000,1673611762.274045,,,,
1673611762.333740,0.755763,4520457.000000,1673611762.323045,,,,
1673611762.333754,0.755763,4520458.000000,1673611762.324045,,,,
1673611762.333758,0.773852,4520459.000000,1673611762.325045,,,,
1673611762.333762,0.755763,4520460.000000,1673611762.326045,,,,
1673611762.333765,0.773852,4520461.000000,1673611762.327044,,,,
1673611762.333810,0.755763,4520462.000000,1673611762.328045,,,,
1673611762.333819,0.791941,4520463.000000,1673611762.329045,,,,
1673611762.333842,0.828119,4520464.000000,1673611762.330045,,,,
1673611762.333846,0.882395,4520465.000000,1673611762.331045,,,,
1673611762.333848,0.828119,4520466.000000,1673611762.332045,,,,
1673611762.334204,,,,-0.751822,-0.750526,5590466.000000,1673607154.499297
1673611762.334306,,,,-0.723117,-0.722639,5590467.000000,1673607154.500304
1673611762.334480,,,,-0.696793,-0.699080,5590468.000000,1673607154.501311
1673611762.334528,,,,-0.678065,-0.680232,5590469.000000,1673607154.502318
1673611762.336348,,,,-0.673642,-0.673981,5590470.000000,1673607154.503325
1673611762.336469,,,,-0.656092,-0.656672,5590471.000000,1673607154.504333
1673611762.336604,,,,-0.667247,-0.668981,5590472.000000,1673607154.505340
1673611762.341436,,,,-0.725064,-0.726870,5590473.000000,1673607154.506347
1673611762.341596,,,,-0.767208,-0.769566,5590474.000000,1673607154.507354
1673611762.341777,,,,-0.794974,-0.795434,5590475.000000,1673607154.508361
1673611762.341782,,,,-0.795744,-0.795963,5590476.000000,1673607154.509368
1673611762.344411,,,,-0.766222,-0.765335,5590477.000000,1673607154.510375
1673611762.344866,,,,-0.752254,-0.751560,5590478.000000,1673607154.511382
1673611762.345131,,,,-0.742638,-0.746824,5590479.000000,1673607154.512389
1673611762.345546,,,,-0.768602,-0.770504,5590480.000000,1673607154.513396
1673611762.345938,,,,-0.803725,-0.802238,5590481.000000,1673607154.514403
1673611762.346220,,,,-0.854403,-0.854141,5590482.000000,1673607154.515410
1673611762.349641,,,,-0.886761,-0.887870,5590483.000000,1673607154.516418
1673611762.350322,,,,-0.881833,-0.882341,5590484.000000,1673607154.517425
1673611762.351241,,,,-0.864115,-0.864406,5590485.000000,1673607154.518432
1673611762.351342,,,,-0.838800,-0.838058,5590486.000000,1673607154.519439
1673611762.351360,,,,-0.821683,-0.823513,5590487.000000,1673607154.520446
1673611762.351519,,,,-0.818077,-0.819619,5590488.000000,1673607154.521453
1673611762.351663,,,,-0.829064,-0.831110,5590489.000000,1673607154.522460
1673611762.351856,,,,-0.831396,-0.832577,5590490.000000,1673607154.523467
1673611762.351873,,,,-0.833175,-0.833322,5590491.000000,1673607154.524474
1673611762.351893,,,,-0.827814,-0.826374,5590492.000000,1673607154.525481
1673611762.352066,,,,-0.821948,-0.820508,5590493.000000,1673607154.526488
1673611762.356527,,,,-0.825073,-0.825076,5590494.000000,1673607154.527495
1673611762.356708,,,,-0.795720,-0.794905,5590495.000000,1673607154.528502
1673611762.356832,,,,-0.725449,-0.726269,5590496.000000,1673607154.529510
1673611762.356988,,,,-0.669867,-0.669918,5590497.000000,1673607154.530517
1673611762.358929,,,,-0.649361,-0.650205,5590498.000000,1673607154.531524
1673611762.359051,,,,-0.642894,-0.644075,5590499.000000,1673607154.532531
1673611762.359106,,,,-0.667343,-0.667538,5590500.000000,1673607154.533538
1673611762.364843,,,,-0.733599,-0.734203,5590501.000000,1673607154.534545
1673611762.365047,,,,-0.794998,-0.796516,5590502.000000,1673607154.535552
1673611762.365598,,,,-0.819568,-0.819042,5590503.000000,1673607154.536559
1673611762.366537,,,,-0.884045,-0.881595,5590504.000000,1673607154.537566
1673611762.366658,,,,-0.920490,-0.916911,5590505.000000,1673607154.538573
1673611762.366668,,,,-0.905657,-0.903737,5590506.000000,1673607154.539580
1673611762.366775,,,,-0.873347,-0.872316,5590507.000000,1673607154.540587
1673611762.367181,,,,-0.854018,-0.853925,5590508.000000,1673607154.541595
1673611762.367472,,,,-0.835170,-0.837529,5590509.000000,1673607154.542602
1673611762.368037,,,,-0.834281,-0.837096,5590510.000000,1673607154.543609
1673611762.368409,,,,-0.828992,-0.829740,5590511.000000,1673607154.544616
1673611762.368434,,,,-0.798412,-0.799305,5590512.000000,1673607154.545623
1673611762.368478,,,,-0.779877,-0.780649,5590513.000000,1673607154.546630
1673611762.368487,,,,-0.773266,-0.770456,5590514.000000,1673607154.547637
1673611762.368792,,,,-0.767448,-0.768004,5590515.000000,1673607154.548644
1673611762.380388,,,,-0.760957,-0.761032,5590516.000000,1673607154.549651
1673611762.380533,,,,-0.721795,-0.724154,5590517.000000,1673607154.550658
1673611762.380562,,,,-0.671166,-0.673116,5590518.000000,1673607154.551665
1673611762.387899,,,,-0.635105,-0.635372,5590519.000000,1673607154.552672
1673611762.388017,,,,-0.670444,-0.670375,5590520.000000,1673607154.553679
1673611762.388263,,,,-0.733623,-0.733770,5590521.000000,1673607154.554687
1673611762.388396,,,,-0.766679,-0.764229,5590522.000000,1673607154.555694
1673611762.394853,,,,-0.756798,-0.753291,5590523.000000,1673607154.556701
1673611762.394878,,,,-0.741244,-0.739828,5590524.000000,1673607154.557708
1673611762.394895,,,,-0.726723,-0.725188,5590525.000000,1673607154.558715
1673611762.395159,,,,-0.720425,-0.718576,5590526.000000,1673607154.559722
1673611762.395505,,,,-0.663280,-0.666000,5590527.000000,1673607154.560729
1673611762.395520,,,,-0.634985,-0.637079,5590528.000000,1673607154.561736
1673611762.395598,,,,-0.665107,-0.665471,5590529.000000,1673607154.562743
1673611762.396761,,,,-0.726964,-0.725404,5590530.000000,1673607154.563750
1673611762.397000,,,,-0.728646,-0.727063,5590531.000000,1673607154.564757
1673611762.397060,,,,-0.717972,-0.717903,5590532.000000,1673607154.565764
1673611762.397787,0.882395,4520467.000000,1673611762.336314,,,,
1673611762.400407,2.438144,4520518.000000,1673611762.387314,,,,
1673611762.400432,2.492412,4520519.000000,1673611762.388314,,,,
1673611762.400443,2.528590,4520520.000000,1673611762.389314,,,,
1673611762.400455,2.619043,4520521.000000,1673611762.390314,,,,
1673611762.400507,2.745675,4520522.000000,1673611762.391314,,,,
1673611762.400523,2.818031,4520523.000000,1673611762.392314,,,,
1673611762.400538,2.890396,4520524.000000,1673611762.393314,,,,
1673611762.400545,2.926574,4520525.000000,1673611762.394314,,,,
1673611762.400558,3.017027,4520526.000000,1673611762.395314,,,,
1673611762.400591,3.125570,4520527.000000,1673611762.396314,,,,
1673611762.401860,,,,-0.730642,-0.731558,5590533.000000,1673607154.566772
1673611762.402205,,,,-0.751172,-0.755407,5590534.000000,1673607154.567779
1673611762.402347,,,,-0.796970,-0.798583,5590535.000000,1673607154.568786
1673611762.402493,,,,-0.856302,-0.857098,5590536.000000,1673607154.569793
1673611762.402621,,,,-0.916956,-0.916695,5590537.000000,1673607154.570800
1673611762.402791,,,,-0.930948,-0.928787,5590538.000000,1673607154.571807
1673611762.402929,,,,-0.941093,-0.940110,5590539.000000,1673607154.572814
1673611762.403934,,,,-0.942030,-0.942081,5590540.000000,1673607154.573821
1673611762.404195,,,,-0.870462,-0.870272,5590541.000000,1673607154.574828
1673611762.404339,,,,-0.776271,-0.776586,5590542.000000,1673607154.575835
1673611762.404347,,,,-0.723117,-0.722736,5590543.000000,1673607154.576842
1673611762.408968,,,,-0.709630,-0.711364,5590544.000000,1673607154.577849
1673611762.409154,,,,-0.668641,-0.669750,5590545.000000,1673607154.578856
1673611762.409329,,,,-0.613612,-0.614120,5590546.000000,1673607154.579864
1673611762.411534,,,,-0.631330,-0.629747,5590547.000000,1673607154.580871
1673611762.411848,,,,-0.640273,-0.639579,5590548.000000,1673607154.581878
1673611762.412136,,,,-0.664554,-0.664654,5590549.000000,1673607154.582885
1673611762.412444,,,,-0.711914,-0.709922,5590550.000000,1673607154.583892
1673611762.416773,,,,-0.730546,-0.731414,5590551.000000,1673607154.584899
1673611762.417036,,,,-0.770429,-0.770192,5590552.000000,1673607154.585906
1673611762.417612,,,,-0.842166,-0.840702,5590553.000000,1673607154.586913
1673611762.417630,,,,-0.880655,-0.880369,5590554.000000,1673607154.587920
1673611762.419605,,,,-0.847046,-0.845727,5590555.000000,1673607154.588927
1673611762.419627,,,,-0.833247,-0.832192,5590556.000000,1673607154.589934
1673611762.420023,,,,-0.856590,-0.855103,5590557.000000,1673607154.590941
1673611762.420040,,,,-0.861158,-0.861786,5590558.000000,1673607154.591949
1673611762.420508,,,,-0.896498,-0.898977,5590559.000000,1673607154.592956
1673611762.420709,,,,-0.947175,-0.949726,5590560.000000,1673607154.593963
1673611762.420971,,,,-0.903013,-0.902823,5590561.000000,1673607154.594970
1673611762.424480,,,,-0.820145,-0.819763,5590562.000000,1673607154.595977
1673611762.424857,,,,-0.755957,-0.757474,5590563.000000,1673607154.596984
1673611762.425036,,,,-0.714366,-0.712927,5590564.000000,1673607154.597991
1673611762.425358,,,,-0.740426,-0.740021,5590565.000000,1673607154.598998
1673611762.425728,,,,-0.785719,-0.789857,5590566.000000,1673607154.600005
1673611762.425743,,,,-0.827189,-0.830293,5590567.000000,1673607154.601012
1673611762.425902,,,,-0.831780,-0.833947,5590568.000000,1673607154.602019
1673611762.427223,,,,-0.816611,-0.816614,5590569.000000,1673607154.603026
1673611762.427328,,,,-0.824785,-0.824090,5590570.000000,1673607154.604033
1673611762.427391,,,,-0.819135,-0.820508,5590571.000000,1673607154.605041
1673611762.427538,,,,-0.811634,-0.814258,5590572.000000,1673607154.606048
1673611762.427551,,,,-0.820049,-0.818874,5590573.000000,1673607154.607055
1673611762.427565,,,,-0.810913,-0.809690,5590574.000000,1673607154.608062
1673611762.427622,,,,-0.759250,-0.757138,5590575.000000,1673607154.609069
1673611762.449359,,,,-0.759899,-0.759397,5590576.000000,1673607154.610076
1673611762.449377,,,,-0.798244,-0.801637,5590577.000000,1673607154.611083
1673611762.449405,,,,-0.814712,-0.815941,5590578.000000,1673607154.612090
1673611762.449409,,,,-0.766510,-0.766129,5590579.000000,1673607154.613097
1673611762.455528,,,,-0.690831,-0.691988,5590580.000000,1673607154.614104
1673611762.455846,,,,-0.636884,-0.638521,5590581.000000,1673607154.615111
1673611762.455858,,,,-0.617098,-0.620539,5590582.000000,1673607154.616118
1673611762.455872,,,,-0.675781,-0.675640,5590583.000000,1673607154.617126
1673611762.462190,,,,-0.742446,-0.741271,5590584.000000,1673607154.618133
1673611762.462210,,,,-0.812500,-0.809378,5590585.000000,1673607154.619140
1673611762.462231,,,,-0.868707,-0.867267,5590586.000000,1673607154.620147
1673611762.462243,,,,-0.853249,-0.850968,5590587.000000,1673607154.621154
1673611762.462765,,,,-0.853778,-0.850799,5590588.000000,1673607154.622161
1673611762.462800,,,,-0.865269,-0.861233,5590589.000000,1673607154.623168
1673611762.464947,,,,-0.809158,-0.805074,5590590.000000,1673607154.624175
1673611762.464991,4.934583,4520546.000000,1673611762.420396,,,,
1673611762.465003,5.043117,4520547.000000,1673611762.421396,,,,
1673611762.465014,5.151659,4520548.000000,1673611762.422396,,,,
1673611762.465292,5.242113,4520549.000000,1673611762.423396,,,,
1673611762.465322,,,,-0.806586,-0.804161,5590591.000000,1673607154.625182
1673611762.465685,5.386834,4520550.000000,1673611762.424396,,,,
1673611762.465809,5.549644,4520551.000000,1673611762.425396,,,,
1673611762.465930,5.603911,4520552.000000,1673611762.426396,,,,
1673611762.465947,5.784818,4520553.000000,1673611762.427396,,,,
1673611762.465961,5.929539,4520554.000000,1673611762.428396,,,,
1673611762.465970,6.074259,4520555.000000,1673611762.429396,,,,
1673611762.466089,6.743596,4520559.000000,1673611762.433396,,,,
1673611762.466105,6.942584,4520560.000000,1673611762.434396,,,,
1673611762.466116,7.105393,4520561.000000,1673611762.435396,,,,
1673611762.466157,7.232025,4520562.000000,1673611762.436396,,,,
1673611762.466194,7.449110,4520563.000000,1673611762.437396,,,,
1673611762.466206,7.557644,4520564.000000,1673611762.438396,,,,
1673611762.466212,7.792819,4520565.000000,1673611762.439396,,,,
1673611762.466317,,,,-0.813678,-0.812815,5590592.000000,1673607154.626189
1673611762.466383,8.009904,4520566.000000,1673611762.440396,,,,
1673611762.466643,,,,-0.685662,-0.685064,5590593.000000,1673607154.627196
1673611762.466702,,,,-0.528677,-0.531277,5590594.000000,1673607154.628203
1673611762.467195,,,,-0.405445,-0.408453,5590595.000000,1673607154.629210
1673611762.467216,,,,-0.391406,-0.390832,5590596.000000,1673607154.630218
1673611762.467237,,,,-0.465763,-0.464949,5590597.000000,1673607154.631225
1673611762.467247,,,,-0.572215,-0.573612,5590598.000000,1673607154.632232
1673611762.467257,,,,-0.686287,-0.689848,5590599.000000,1673607154.633239
1673611762.467285,8.226981,4520567.000000,1673611762.441396,,,,
1673611762.467293,8.407880,4520568.000000,1673611762.442396,,,,
1673611762.467300,11.121403,4520579.000000,1673611762.453396,,,,
1673611762.467446,11.410845,4520580.000000,1673611762.454396,,,,
1673611762.467454,11.700286,4520581.000000,1673611762.455396,,,,
1673611762.467461,11.989727,4520582.000000,1673611762.456396,,,,
1673611762.467474,12.279169,4520583.000000,1673611762.457396,,,,
1673611762.467506,12.586699,4520584.000000,1673611762.458396,,,,
1673611762.467517,12.894238,4520585.000000,1673611762.459396,,,,
1673611762.467523,13.129404,4520586.000000,1673611762.460396,,,,
1673611762.467533,13.491210,4520587.000000,1673611762.461396,,,,
1673611762.467570,13.798740,4520588.000000,1673611762.462396,,,,
1673611762.467590,,,,-0.909095,-0.908954,5590600.000000,1673607154.634246
1673611762.469851,,,,-1.036221,-1.036032,5590601.000000,1673607154.635253
1673611762.469866,,,,-1.062185,-1.064183,5590602.000000,1673607154.636260
1673611762.470091,,,,-1.126782,-1.128179,5590603.000000,1673607154.637267
1673611762.470308,,,,-1.090745,-1.091373,5590604.000000,1673607154.638274
1673611762.470458,,,,-1.012373,-1.014804,5590605.000000,1673607154.639281
1673611762.470638,,,,-0.952127,-0.952154,5590606.000000,1673607154.640288
1673611762.470969,,,,-0.892363,-0.892606,5590607.000000,1673607154.641295
1673611762.470985,,,,-0.848777,-0.846809,5590608.000000,1673607154.642303
1673611762.470992,,,,-0.804206,-0.802598,5590609.000000,1673607154.643310
1673611762.471107,,,,-0.735113,-0.737328,5590610.000000,1673607154.644317
1673611762.485460,,,,-0.724199,-0.724418,5590611.000000,1673607154.645324
1673611762.485622,,,,-0.781944,-0.781587,5590612.000000,1673607154.646331
1673611762.486192,,,,-0.776103,-0.775937,5590613.000000,1673607154.647338
1673611762.486458,,,,-0.748047,-0.750430,5590614.000000,1673607154.648345
1673611762.486589,,,,-0.767232,-0.767667,5590615.000000,1673607154.649352
1673611762.486670,,,,-0.791561,-0.791996,5590616.000000,1673607154.650359
1673611762.486864,,,,-0.790815,-0.790121,5590617.000000,1673607154.651366
1673611762.486881,,,,-0.764082,-0.764157,5590618.000000,1673607154.652373
1673611762.487104,,,,-0.739272,-0.739636,5590619.000000,1673607154.653380
1673611762.487305,,,,-0.724439,-0.725548,5590620.000000,1673607154.654387
1673611762.487808,,,,-0.710352,-0.712855,5590621.000000,1673607154.655395
1673611762.487868,,,,-0.776728,-0.777356,5590622.000000,1673607154.656402
1673611762.488025,,,,-0.909672,-0.907126,5590623.000000,1673607154.657409
1673611762.488034,,,,-0.895127,-0.894241,5590624.000000,1673607154.658416
1673611762.488533,,,,-0.764924,-0.764542,5590625.000000,1673607154.659423
1673611762.488687,,,,-0.647654,-0.646359,5590626.000000,1673607154.660430
1673611762.488704,,,,-0.626594,-0.624794,5590627.000000,1673607154.661437
1673611762.488838,,,,-0.644721,-0.641382,5590628.000000,1673607154.662444
1673611762.488856,,,,-0.692273,-0.689247,5590629.000000,1673607154.663451
1673611762.491900,,,,-0.804350,-0.802310,5590630.000000,1673607154.664458
1673611762.492318,,,,-0.885487,-0.885514,5590631.000000,1673607154.665465
1673611762.492436,,,,-0.861903,-0.859238,5590632.000000,1673607154.666472
1673611762.492868,,,,-0.869404,-0.871138,5590633.000000,1673607154.667480
1673611762.492886,,,,-0.859908,-0.860872,5590634.000000,1673607154.668487
1673611762.492961,,,,-0.799422,-0.800435,5590635.000000,1673607154.669494
1673611762.494299,,,,-0.712780,-0.714514,5590636.000000,1673607154.670501
1673611762.494556,,,,-0.707058,-0.706917,5590637.000000,1673607154.671508
1673611762.494832,,,,-0.748768,-0.749396,5590638.000000,1673607154.672515
1673611762.494971,,,,-0.727444,-0.727712,5590639.000000,1673607154.673522
1673611762.494986,,,,-0.690951,-0.688454,5590640.000000,1673607154.674529
1673611762.494993,,,,-0.741508,-0.740694,5590641.000000,1673607154.675536
1673611762.495131,,,,-0.841276,-0.841568,5590642.000000,1673607154.676543
1673611762.495315,,,,-0.860485,-0.860416,5590643.000000,1673607154.677550
1673611762.507789,,,,-0.813846,-0.815027,5590644.000000,1673607154.678557
1673611762.507931,,,,-0.852575,-0.855584,5590645.000000,1673607154.679564
1673611762.508120,,,,-0.815241,-0.817984,5590646.000000,1673607154.680572
1673611762.515804,,,,-0.690085,-0.691843,5590647.000000,1673607154.681579
1673611762.516879,,,,-0.657006,-0.662370,5590648.000000,1673607154.682586
1673611762.517169,,,,-0.681383,-0.682900,5590649.000000,1673607154.683593
1673611762.517315,,,,-0.675036,-0.674294,5590650.000000,1673607154.684600
1673611762.517461,,,,-0.682200,-0.682371,5590651.000000,1673607154.685607
1673611762.517708,,,,-0.795575,-0.797814,5590652.000000,1673607154.686614
1673611762.517726,,,,-0.806514,-0.807502,5590653.000000,1673607154.687621
1673611762.517735,,,,-0.802259,-0.803103,5590654.000000,1673607154.688628
1673611762.521527,20.980516,4520612.000000,1673611762.482743,,,,
1673611762.521677,,,,-0.881160,-0.877797,5590655.000000,1673607154.689635
1673611762.522192,,,,-0.915922,-0.913738,5590656.000000,1673607154.690642
1673611762.522215,,,,-0.870269,-0.870441,5590657.000000,1673607154.691649
1673611762.522836,21.324234,4520613.000000,1673611762.483743,,,,
1673611762.522857,21.559408,4520614.000000,1673611762.484743,,,,
1673611762.522895,21.885027,4520615.000000,1673611762.485743,,,,
1673611762.522907,22.138290,4520616.000000,1673611762.486743,,,,
1673611762.522925,22.481998,4520617.000000,1673611762.487743,,,,
1673611762.522937,22.807619,4520618.000000,1673611762.488743,,,,
1673611762.522978,23.078970,4520619.000000,1673611762.489743,,,,
1673611762.522990,23.458866,4520620.000000,1673611762.490743,,,,
1673611762.522999,23.748306,4520621.000000,1673611762.491743,,,,
1673611762.523081,30.188391,4520640.000000,1673611762.510743,,,,
1673611762.523092,30.604464,4520641.000000,1673611762.511743,,,,
1673611762.523119,30.930092,4520642.000000,1673611762.512743,,,,
1673611762.523141,31.309978,4520643.000000,1673611762.513743,,,,
1673611762.523147,31.671783,4520644.000000,1673611762.514743,,,,
1673611762.523151,32.033581,4520645.000000,1673611762.515743,,,,
1673611762.523155,32.431564,4520646.000000,1673611762.516743,,,,
1673611762.523185,32.829548,4520647.000000,1673611762.517743,,,,
1673611762.523198,33.173267,4520648.000000,1673611762.518743,,,,
1673611762.523209,33.571243,4520649.000000,1673611762.519743,,,,
1673611762.524081,,,,-0.826996,-0.829692,5590658.000000,1673607154.692657
1673611762.524496,,,,-0.912845,-0.911358,5590659.000000,1673607154.693664
1673611762.524638,,,,-0.970831,-0.969127,5590660.000000,1673607154.694671
1673611762.524858,,,,-0.897171,-0.895996,5590661.000000,1673607154.695678
1673611762.529115,,,,-0.864163,-0.865873,5590662.000000,1673607154.696685
1673611762.529327,,,,-0.824256,-0.827432,5590663.000000,1673607154.697692
1673611762.529674,,,,-0.736628,-0.738362,5590664.000000,1673607154.698699
1673611762.529686,,,,-0.664795,-0.665327,5590665.000000,1673607154.699706
1673611762.531425,,,,-0.577552,-0.577459,5590666.000000,1673607154.700713
1673611762.531629,,,,-0.551924,-0.551543,5590667.000000,1673607154.701720
1673611762.537160,,,,-0.555603,-0.554091,5590668.000000,1673607154.702727
1673611762.537325,,,,-0.660227,-0.657994,5590669.000000,1673607154.703734
1673611762.537889,,,,-0.806201,-0.805844,5590670.000000,1673607154.704741
1673611762.537912,,,,-0.892459,-0.895876,5590671.000000,1673607154.705749
1673611762.538604,,,,-0.906691,-0.910612,5590672.000000,1673607154.706756
1673611762.538655,,,,-0.937679,-0.938716,5590673.000000,1673607154.707763
1673611762.538769,,,,-0.974798,-0.974728,5590674.000000,1673607154.708770
1673611762.538781,,,,-0.952296,-0.954270,5590675.000000,1673607154.709777
1673611762.539433,,,,-0.886833,-0.889986,5590676.000000,1673607154.710784
1673611762.540387,,,,-0.785647,-0.785674,5590677.000000,1673607154.711791
1673611762.540451,,,,-0.690783,-0.690954,5590678.000000,1673607154.712798
1673611762.540713,,,,-0.702803,-0.704441,5590679.000000,1673607154.713805
1673611762.540735,,,,-0.710953,-0.709898,5590680.000000,1673607154.714812
1673611762.540754,,,,-0.675998,-0.675424,5590681.000000,1673607154.715819
1673611762.540765,,,,-0.669026,-0.671457,5590682.000000,1673607154.716826
1673611762.544798,,,,-0.764707,-0.766634,5590683.000000,1673607154.717834
1673611762.544811,,,,-0.902700,-0.901789,5590684.000000,1673607154.718841
1673611762.545066,,,,-0.957128,-0.955712,5590685.000000,1673607154.719848
1673611762.545403,,,,-0.989895,-0.989057,5590686.000000,1673607154.720855
1673611762.545411,,,,-0.906042,-0.904746,5590687.000000,1673607154.721862
1673611762.545416,,,,-0.780622,-0.781370,5590688.000000,1673607154.722869
1673611762.545423,,,,-0.704702,-0.705474,5590689.000000,1673607154.723876
1673611762.546453,,,,-0.689533,-0.689535,5590690.000000,1673607154.724883
1673611762.546464,,,,-0.699557,-0.698431,5590691.000000,1673607154.725890
1673611762.546554,,,,-0.767159,-0.765383,5590692.000000,1673607154.726897
1673611762.551899,,,,-0.838271,-0.835293,5590693.000000,1673607154.727904
1673611762.551924,,,,-0.889454,-0.890370,5590694.000000,1673607154.728911
1673611762.551933,,,,-0.882987,-0.885778,5590695.000000,1673607154.729918
1673611762.551940,,,,-0.823222,-0.825004,5590696.000000,1673607154.730926
1673611762.554027,,,,-0.794469,-0.794232,5590697.000000,1673607154.731933
1673611762.554037,,,,-0.783795,-0.781491,5590698.000000,1673607154.732940
1673611762.554078,,,,-0.784829,-0.785577,5590699.000000,1673607154.733947
1673611762.567827,,,,-0.761366,-0.761248,5590700.000000,1673607154.734954
1673611762.568080,,,,-0.759587,-0.759109,5590701.000000,1673607154.735961
1673611762.568336,,,,-0.770549,-0.770192,5590702.000000,1673607154.736968
1673611762.568485,,,,-0.778891,-0.779255,5590703.000000,1673607154.737975
1673611762.575351,,,,-0.801537,-0.802382,5590704.000000,1673607154.738982
1673611762.575672,,,,-0.828295,-0.829500,5590705.000000,1673607154.739989
1673611762.575924,,,,-0.888083,-0.888038,5590706.000000,1673607154.740996
1673611762.576203,,,,-0.912725,-0.912824,5590707.000000,1673607154.742003
1673611762.576220,33.951138,4520650.000000,1673611762.515078,,,,
1673611762.577897,34.294853,4520651.000000,1673611762.516078,,,,
1673611762.577921,34.692829,4520652.000000,1673611762.517078,,,,
1673611762.577952,35.108902,4520653.000000,1673611762.518078,,,,
1673611762.577962,35.434532,4520654.000000,1673611762.519078,,,,
1673611762.577970,52.710594,4520701.000000,1673611762.566078,,,,
1673611762.578007,53.054310,4520702.000000,1673611762.567078,,,,
1673611762.578045,53.361843,4520703.000000,1673611762.568078,,,,
1673611762.578054,53.705551,4520704.000000,1673611762.569078,,,,
1673611762.578092,54.049267,4520705.000000,1673611762.570078,,,,
1673611762.578122,54.411072,4520706.000000,1673611762.571078,,,,
1673611762.578131,54.718605,4520707.000000,1673611762.572078,,,,
1673611762.578166,55.062313,4520708.000000,1673611762.573078,,,,
1673611762.578175,55.406029,4520709.000000,1673611762.574078,,,,
1673611762.578182,55.695469,4520710.000000,1673611762.575078,,,,
1673611762.582247,,,,-0.886473,-0.886932,5590708.000000,1673607154.743011
1673611762.582317,,,,-0.834160,-0.834260,5590709.000000,1673607154.744018
1673611762.582529,,,,-0.760765,-0.761008,5590710.000000,1673607154.745025
1673611762.582759,,,,-0.721482,-0.721990,5590711.000000,1673607154.746032
1673611762.582774,,,,-0.753985,-0.753844,5590712.000000,1673607154.747039
1673611762.582788,,,,-0.841709,-0.843203,5590713.000000,1673607154.748046
1673611762.584381,,,,-0.866471,-0.867964,5590714.000000,1673607154.749053
1673611762.584391,,,,-0.826924,-0.829139,5590715.000000,1673607154.750060
1673611762.584395,,,,-0.772136,-0.773605,5590716.000000,1673607154.751067
1673611762.584651,,,,-0.783795,-0.781539,5590717.000000,1673607154.752074
1673611762.584915,,,,-0.774660,-0.771802,5590718.000000,1673607154.753081
1673611762.585176,,,,-0.723886,-0.724779,5590719.000000,1673607154.754088
1673611762.585374,,,,-0.593875,-0.595176,5590720.000000,1673607154.755095
1673611762.585490,,,,-0.340921,-0.340443,5590721.000000,1673607154.756103
1673611762.589200,,,,-0.119099,-0.119943,5590722.000000,1673607154.757110
1673611762.589351,,,,0.018413,0.017256,5590723.000000,1673607154.758117
1673611762.589366,,,,-0.166218,-0.168697,5590724.000000,1673607154.759124
1673611762.591777,,,,-0.663304,-0.668308,5590725.000000,1673607154.760131
1673611762.592433,,,,-1.055502,-1.057909,5590726.000000,1673607154.761138
1673611762.592449,,,,-1.221814,-1.222058,5590727.000000,1673607154.762145
1673611762.592456,,,,-1.288166,-1.287544,5590728.000000,1673607154.763152
1673611762.592464,,,,-1.234387,-1.231842,5590729.000000,1673607154.764159
1673611762.592502,,,,-1.035524,-1.035551,5590730.000000,1673607154.765166
1673611762.592571,,,,-0.906835,-0.906862,5590731.000000,1673607154.766173
1673611762.592599,,,,-0.882121,-0.878350,5590732.000000,1673607154.767180
1673611762.596560,,,,-0.890608,-0.889024,5590733.000000,1673607154.768188
1673611762.596884,,,,-0.917773,-0.917632,5590734.000000,1673607154.769195
1673611762.596936,,,,-1.021244,-1.023963,5590735.000000,1673607154.770202
1673611762.599117,,,,-1.077547,-1.078608,5590736.000000,1673607154.771209
1673611762.599303,,,,-1.098558,-1.098754,5590737.000000,1673607154.772216
1673611762.599323,,,,-1.061344,-1.062356,5590738.000000,1673607154.773223
1673611762.599326,,,,-0.919889,-0.919652,5590739.000000,1673607154.774230
1673611762.604501,,,,-0.785599,-0.783173,5590740.000000,1673607154.775237
1673611762.604579,,,,-0.803124,-0.800915,5590741.000000,1673607154.776244
1673611762.604589,,,,-0.793772,-0.794545,5590742.000000,1673607154.777251
1673611762.604717,,,,-0.690374,-0.689584,5590743.000000,1673607154.778258
1673611762.606490,,,,-0.635321,-0.632968,5590744.000000,1673607154.779265
1673611762.606495,,,,-0.632003,-0.631045,5590745.000000,1673607154.780272
1673611762.611827,,,,-0.725858,-0.724587,5590746.000000,1673607154.781280
1673611762.612259,,,,-0.782906,-0.784928,5590747.000000,1673607154.782287
1673611762.612278,,,,-0.768914,-0.769639,5590748.000000,1673607154.783294
1673611762.612866,,,,-0.717347,-0.720307,5590749.000000,1673607154.784301
1673611762.612886,,,,-0.660900,-0.661480,5590750.000000,1673607154.785308
1673611762.612915,,,,-0.781752,-0.781539,5590751.000000,1673607154.786315
1673611762.612923,,,,-0.956503,-0.955784,5590752.000000,1673607154.787322
1673611762.613028,,,,-0.987082,-0.984705,5590753.000000,1673607154.788329
1673611762.614655,,,,-0.931597,-0.932609,5590754.000000,1673607154.789336
1673611762.614666,,,,-0.878419,-0.880153,5590755.000000,1673607154.790343
1673611762.614805,,,,-0.840748,-0.841159,5590756.000000,1673607154.791350
1673611762.615148,,,,-0.838680,-0.838250,5590757.000000,1673607154.792357
1673611762.615413,,,,-0.858081,-0.858324,5590758.000000,1673607154.793365
1673611762.615684,,,,-0.856783,-0.857771,5590759.000000,1673607154.794372
1673611762.615907,,,,-0.826780,-0.827865,5590760.000000,1673607154.795379
1673611762.627934,,,,-0.842454,-0.841207,5590761.000000,1673607154.796386
1673611762.628433,,,,-0.848753,-0.849285,5590762.000000,1673607154.797393
1673611762.628486,,,,-0.807067,-0.809474,5590763.000000,1673607154.798400
1673611762.628719,,,,-0.762736,-0.765215,5590764.000000,1673607154.799407
1673611762.635767,,,,-0.742446,-0.743194,5590765.000000,1673607154.800414
1673611762.635793,,,,-0.758817,-0.760070,5590766.000000,1673607154.801421
1673611762.635822,,,,-0.793171,-0.795146,5590767.000000,1673607154.802428
1673611762.636181,,,,-0.798076,-0.798055,5590768.000000,1673607154.803435
1673611762.641611,,,,-0.821347,-0.821398,5590769.000000,1673607154.804442
1673611762.641648,,,,-0.836060,-0.835702,5590770.000000,1673607154.805449
1673611762.641749,56.690426,4520713.000000,1673611762.582486,,,,
1673611762.641782,56.943687,4520714.000000,1673611762.583486,,,,
1673611762.642044,57.287399,4520715.000000,1673611762.584486,,,,
1673611762.642052,57.594929,4520716.000000,1673611762.585486,,,,
1673611762.642066,57.848190,4520717.000000,1673611762.586486,,,,
1673611762.642071,58.155724,4520718.000000,1673611762.587486,,,,
1673611762.642079,58.390896,4520719.000000,1673611762.588486,,,,
1673611762.642609,58.680336,4520720.000000,1673611762.589486,,,,
1673611762.642621,58.969780,4520721.000000,1673611762.590486,,,,
1673611762.642631,59.241131,4520722.000000,1673611762.591486,,,,
1673611762.642638,67.653038,4520762.000000,1673611762.631486,,,,
1673611762.642699,67.888214,4520763.000000,1673611762.632486,,,,
1673611762.642711,68.051033,4520764.000000,1673611762.633486,,,,
1673611762.642716,68.268097,4520765.000000,1673611762.634486,,,,
1673611762.642720,68.485184,4520766.000000,1673611762.635486,,,,
1673611762.642725,68.593719,4520767.000000,1673611762.636486,,,,
1673611762.642730,68.846985,4520768.000000,1673611762.637486,,,,
1673611762.642742,69.082153,4520769.000000,1673611762.638486,,,,
1673611762.642746,69.263062,4520770.000000,1673611762.639486,,,,
1673611762.642751,69.480148,4520771.000000,1673611762.640486,,,,
1673611762.646537,,,,-0.820241,-0.822191,5590771.000000,1673607154.806457
1673611762.646547,,,,-0.743768,-0.747041,5590772.000000,1673607154.807464
1673611762.646558,,,,-0.672608,-0.676073,5590773.000000,1673607154.808471
1673611762.646631,,,,-0.655731,-0.657562,5590774.000000,1673607154.809478
1673611762.649456,,,,-0.649120,-0.649340,5590775.000000,1673607154.810485
1673611762.649632,,,,-0.702082,-0.704393,5590776.000000,1673607154.811492
1673611762.649791,,,,-0.754995,-0.756128,5590777.000000,1673607154.812499
1673611762.650042,,,,-0.749009,-0.750647,5590778.000000,1673607154.813506
1673611762.650275,,,,-0.697274,-0.699224,5590779.000000,1673607154.814513
1673611762.650562,,,,-0.620272,-0.622198,5590780.000000,1673607154.815520
1673611762.650818,,,,-0.612627,-0.611332,5590781.000000,1673607154.816527
1673611762.653574,,,,-0.697298,-0.695858,5590782.000000,1673607154.817534
1673611762.653740,,,,-0.777954,-0.777332,5590783.000000,1673607154.818542
1673611762.653749,,,,-0.799662,-0.797814,5590784.000000,1673607154.819549
1673611762.653759,,,,-0.890656,-0.888735,5590785.000000,1673607154.820556
1673611762.656897,,,,-0.954844,-0.954294,5590786.000000,1673607154.821563
1673611762.657220,,,,-0.920658,-0.922200,5590787.000000,1673607154.822570
1673611762.657228,,,,-0.902916,-0.904482,5590788.000000,1673607154.823577
1673611762.657232,,,,-0.929241,-0.927705,5590789.000000,1673607154.824584
1673611762.657249,,,,-0.871207,-0.868662,5590790.000000,1673607154.825591
1673611762.657456,,,,-0.787041,-0.785457,5590791.000000,1673607154.826598
1673611762.657468,,,,-0.656284,-0.657441,5590792.000000,1673607154.827605
1673611762.660909,,,,-0.499973,-0.502332,5590793.000000,1673607154.828612
1673611762.661031,,,,-0.467061,-0.467569,5590794.000000,1673607154.829619
1673611762.661219,,,,-0.600030,-0.599984,5590795.000000,1673607154.830626
1673611762.664354,,,,-0.765116,-0.766417,5590796.000000,1673607154.831634
1673611762.664853,,,,-0.777016,-0.776442,5590797.000000,1673607154.832641
1673611762.665099,,,,-0.800383,-0.801252,5590798.000000,1673607154.833648
1673611762.665469,,,,-0.830074,-0.829764,5590799.000000,1673607154.834655
1673611762.671975,,,,-0.782377,-0.782813,5590800.000000,1673607154.835662
1673611762.672178,,,,-0.795095,-0.795915,5590801.000000,1673607154.836669
1673611762.672423,,,,-0.831828,-0.832072,5590802.000000,1673607154.837676
1673611762.674298,,,,-0.930275,-0.927369,5590803.000000,1673607154.838683
1673611762.674602,,,,-1.023840,-1.026271,5590804.000000,1673607154.839690
1673611762.674937,,,,-1.094616,-1.098417,5590805.000000,1673607154.840697
1673611762.675037,,,,-1.080336,-1.077886,5590806.000000,1673607154.841704
1673611762.675424,,,,-0.954604,-0.954030,5590807.000000,1673607154.842711
1673611762.675614,,,,-0.891665,-0.892798,5590808.000000,1673607154.843719
1673611762.675636,,,,-0.879525,-0.879744,5590809.000000,1673607154.844726
1673611762.676064,,,,-0.859283,-0.860368,5590810.000000,1673607154.845733
1673611762.687850,,,,-0.803124,-0.804762,5590811.000000,1673607154.846740
1673611762.687975,,,,-0.774900,-0.775601,5590812.000000,1673607154.847747
1673611762.688211,,,,-0.747374,-0.750046,5590813.000000,1673607154.848754
1673611762.688253,,,,-0.702106,-0.702229,5590814.000000,1673607154.849761
1673611762.695090,69.624863,4520772.000000,1673611762.634569,,,,
1673611762.695099,69.805771,4520773.000000,1673611762.635569,,,,
1673611762.695102,69.932388,4520774.000000,1673611762.636569,,,,
1673611762.695113,70.149475,4520775.000000,1673611762.637569,,,,
1673611762.695348,70.276100,4520776.000000,1673611762.638569,,,,
1673611762.695357,70.457008,4520777.000000,1673611762.639569,,,,
1673611762.695361,70.637917,4520778.000000,1673611762.640569,,,,
1673611762.695372,70.818802,4520779.000000,1673611762.641569,,,,
1673611762.695374,70.909264,4520780.000000,1673611762.642569,,,,
1673611762.695394,70.999710,4520781.000000,1673611762.643569,,,,
1673611762.695488,71.162529,4520782.000000,1673611762.644569,,,,
1673611762.695902,71.289154,4520783.000000,1673611762.645569,,,,
1673611762.696020,,,,-0.699293,-0.699152,5590815.000000,1673607154.850768
1673611762.696033,,,,-0.739561,-0.742305,5590816.000000,1673607154.851775
1673611762.696039,,,,-0.786584,-0.786948,5590817.000000,1673607154.852782
1673611762.696146,,,,-0.855412,-0.856209,5590818.000000,1673607154.853789
1673611762.696155,,,,-0.903037,-0.904915,5590819.000000,1673607154.854796
1673611762.696181,,,,-0.895752,-0.896452,5590820.000000,1673607154.855803
1673611762.696276,,,,-0.869764,-0.868085,5590821.000000,1673607154.856811
1673611762.696683,73.749413,4520823.000000,1673611762.685569,,,,
1673611762.696692,73.767502,4520824.000000,1673611762.686569,,,,
1673611762.696695,73.857948,4520825.000000,1673611762.687569,,,,
1673611762.696706,73.966499,4520826.000000,1673611762.688569,,,,
1673611762.696710,74.093124,4520827.000000,1673611762.689569,,,,
1673611762.696713,74.147385,4520828.000000,1673611762.690569,,,,
1673611762.696732,74.183563,4520829.000000,1673611762.691569,,,,
1673611762.696736,74.292114,4520830.000000,1673611762.692569,,,,
1673611762.696741,74.328293,4520831.000000,1673611762.693569,,,,
1673611762.696745,74.382561,4520832.000000,1673611762.694569,,,,
1673611762.701812,,,,-0.861062,-0.860151,5590822.000000,1673607154.857818
1673611762.702242,,,,-0.848873,-0.847891,5590823.000000,1673607154.858825
1673611762.702248,,,,-0.774684,-0.775697,5590824.000000,1673607154.859832
1673611762.702529,,,,-0.714943,-0.715860,5590825.000000,1673607154.860839
1673611762.702541,,,,-0.759058,-0.760816,5590826.000000,1673607154.861846
1673611762.702546,,,,-0.907460,-0.906117,5590827.000000,1673607154.862853
1673611762.703999,,,,-0.988308,-0.987831,5590828.000000,1673607154.863860
1673611762.704227,,,,-0.923327,-0.922897,5590829.000000,1673607154.864867
1673611762.704439,,,,-0.926332,-0.932032,5590830.000000,1673607154.865874
1673611762.704612,,,,-0.912557,-0.915637,5590831.000000,1673607154.866881
1673611762.709096,,,,-0.844426,-0.844188,5590832.000000,1673607154.867888
1673611762.709353,,,,-0.808173,-0.808897,5590833.000000,1673607154.868896
1673611762.709569,,,,-0.845459,-0.847818,5590834.000000,1673607154.869903
1673611762.709864,,,,-0.866952,-0.867243,5590835.000000,1673607154.870910
1673611762.711699,,,,-0.882434,-0.885875,5590836.000000,1673607154.871917
1673611762.711713,,,,-0.884093,-0.886283,5590837.000000,1673607154.872924
1673611762.711722,,,,-0.931044,-0.930734,5590838.000000,1673607154.873931
1673611762.716535,,,,-0.985087,-0.984994,5590839.000000,1673607154.874938
1673611762.716774,,,,-0.981000,-0.982686,5590840.000000,1673607154.875945
1673611762.717036,,,,-0.805793,-0.805002,5590841.000000,1673607154.876952
1673611762.719543,,,,-0.660251,-0.656792,5590842.000000,1673607154.877959
1673611762.720027,,,,-0.671358,-0.669221,5590843.000000,1673607154.878966
1673611762.720590,,,,-0.689172,-0.692132,5590844.000000,1673607154.879973
1673611762.720693,,,,-0.720040,-0.723865,5590845.000000,1673607154.880980
1673611762.721055,,,,-0.830578,-0.833538,5590846.000000,1673607154.881988
1673611762.721654,,,,-0.885968,-0.887245,5590847.000000,1673607154.882995
1673611762.721664,,,,-0.867216,-0.865296,5590848.000000,1673607154.884002
1673611762.724217,,,,-0.882434,-0.879528,5590849.000000,1673607154.885009
1673611762.724665,,,,-0.891377,-0.891067,5590850.000000,1673607154.886016
1673611762.724760,,,,-0.868154,-0.868950,5590851.000000,1673607154.887023
1673611762.724773,,,,-0.790166,-0.789496,5590852.000000,1673607154.888030
1673611762.726516,,,,-0.696072,-0.695017,5590853.000000,1673607154.889037
1673611762.726795,,,,-0.631739,-0.630468,5590854.000000,1673607154.890044
1673611762.726806,,,,-0.605174,-0.605249,5590855.000000,1673607154.891051
1673611762.726941,,,,-0.678330,-0.681362,5590856.000000,1673607154.892058
1673611762.731992,,,,-0.764419,-0.765600,5590857.000000,1673607154.893065
1673611762.732802,,,,-0.779709,-0.779087,5590858.000000,1673607154.894073
1673611762.732816,,,,-0.751846,-0.751608,5590859.000000,1673607154.895080
1673611762.732824,,,,-0.649842,-0.650109,5590860.000000,1673607154.896087
1673611762.732850,,,,-0.586639,-0.589310,5590861.000000,1673607154.897094
1673611762.732882,,,,-0.756702,-0.759373,5590862.000000,1673607154.898101
1673611762.732890,,,,-0.955157,-0.956361,5590863.000000,1673607154.899108
1673611762.734132,,,,-0.969725,-0.969968,5590864.000000,1673607154.900115
1673611762.734459,,,,-0.963090,-0.960953,5590865.000000,1673607154.901122
1673611762.734827,,,,-0.925418,-0.926046,5590866.000000,1673607154.902129
1673611762.735043,,,,-0.754851,-0.755575,5590867.000000,1673607154.903136
1673611762.748205,,,,-0.643254,-0.640397,5590868.000000,1673607154.904143
1673611762.748881,,,,-0.629984,-0.631117,5590869.000000,1673607154.905150
1673611762.748895,,,,-0.630297,-0.630949,5590870.000000,1673607154.906157
1673611762.749496,,,,-0.654169,-0.655807,5590871.000000,1673607154.907165
1673611762.749503,,,,-0.734512,-0.735164,5590872.000000,1673607154.908172
1673611762.749506,,,,-0.825386,-0.826446,5590873.000000,1673607154.909179
1673611762.755431,,,,-0.895368,-0.895972,5590874.000000,1673607154.910186
1673611762.755748,,,,-0.934458,-0.935663,5590875.000000,1673607154.911193
1673611762.755798,,,,-0.952680,-0.954078,5590876.000000,1673607154.912200
1673611762.755823,,,,-0.890463,-0.892005,5590877.000000,1673607154.913207
1673611762.759867,78.344299,4520884.000000,1673611762.749474,,,,
1673611762.759919,78.398582,4520885.000000,1673611762.750474,,,,
1673611762.759927,78.489029,4520886.000000,1673611762.751474,,,,
1673611762.759942,78.543297,4520887.000000,1673611762.752474,,,,
1673611762.759950,78.561378,4520888.000000,1673611762.753474,,,,
1673611762.759955,78.615646,4520889.000000,1673611762.754474,,,,
1673611762.759962,78.669930,4520890.000000,1673611762.755474,,,,
1673611762.759975,78.706108,4520891.000000,1673611762.756474,,,,
1673611762.759982,78.796555,4520892.000000,1673611762.757474,,,,
1673611762.759990,78.796555,4520893.000000,1673611762.758474,,,,
1673611762.761711,,,,-0.884886,-0.889072,5590878.000000,1673607154.914214
1673611762.761842,,,,-0.888805,-0.889168,5590879.000000,1673607154.915221
1673611762.761928,,,,-0.861014,-0.861714,5590880.000000,1673607154.916228
1673611762.761966,,,,-0.901907,-0.901525,5590881.000000,1673607154.917235
1673611762.764330,,,,-0.957849,-0.954198,5590882.000000,1673607154.918242
1673611762.764339,,,,-0.961864,-0.961121,5590883.000000,1673607154.919250
1673611762.764342,,,,-0.890247,-0.891765,5590884.000000,1673607154.920257
1673611762.764447,,,,-0.792114,-0.791948,5590885.000000,1673607154.921264
1673611762.764658,,,,-0.766727,-0.763821,5590886.000000,1673607154.922271
1673611762.764845,,,,-0.793147,-0.793006,5590887.000000,1673607154.923278
1673611762.764855,,,,-0.836925,-0.839380,5590888.000000,1673607154.924285
1673611762.769574,,,,-0.859788,-0.857988,5590889.000000,1673607154.925292
1673611762.769688,,,,-0.841926,-0.841015,5590890.000000,1673607154.926299
1673611762.769994,,,,-0.819640,-0.821518,5590891.000000,1673607154.927306
1673611762.770015,,,,-0.842983,-0.843924,5590892.000000,1673607154.928313
1673611762.771569,,,,-0.899959,-0.897943,5590893.000000,1673607154.929320
1673611762.771829,,,,-0.907244,-0.904626,5590894.000000,1673607154.930327
1673611762.772248,,,,-0.861999,-0.858613,5590895.000000,1673607154.931334
1673611762.777084,,,,-0.845003,-0.845126,5590896.000000,1673607154.932342
1673611762.777361,,,,-0.831997,-0.831254,5590897.000000,1673607154.933349
1673611762.777787,,,,-0.778266,-0.778221,5590898.000000,1673607154.934356
1673611762.777806,,,,-0.750860,-0.750358,5590899.000000,1673607154.935363
1673611762.778092,,,,-0.757976,-0.757739,5590900.000000,1673607154.936370
1673611762.778479,,,,-0.811947,-0.813993,5590901.000000,1673607154.937377
1673611762.778687,,,,-0.856494,-0.853997,5590902.000000,1673607154.938384
1673611762.778785,,,,-0.875871,-0.874071,5590903.000000,1673607154.939391
1673611762.779940,,,,-0.895464,-0.895924,5590904.000000,1673607154.940398
1673611762.780202,,,,-0.917533,-0.919075,5590905.000000,1673607154.941405
1673611762.780230,,,,-0.899190,-0.898135,5590906.000000,1673607154.942412
1673611762.780948,,,,-0.839473,-0.839524,5590907.000000,1673607154.943419
1673611762.781169,,,,-0.877433,-0.876258,5590908.000000,1673607154.944427
1673611762.781486,,,,-0.884093,-0.884576,5590909.000000,1673607154.945434
1673611762.781897,,,,-0.807692,-0.807502,5590910.000000,1673607154.946441
1673611762.781910,,,,-0.812404,-0.811036,5590911.000000,1673607154.947448
1673611762.781916,,,,-0.831179,-0.830605,5590912.000000,1673607154.948455
1673611762.781956,,,,-0.828703,-0.827889,5590913.000000,1673607154.949462
1673611762.784158,,,,-0.805456,-0.805411,5590914.000000,1673607154.950469
1673611762.784568,,,,-0.799710,-0.798295,5590915.000000,1673607154.951476
1673611762.784587,,,,-0.815914,-0.815917,5590916.000000,1673607154.952483
1673611762.784604,,,,-0.787594,-0.787549,5590917.000000,1673607154.953490
1673611762.786757,,,,-0.696144,-0.696603,5590918.000000,1673607154.954497
1673611762.786998,,,,-0.565147,-0.564044,5590919.000000,1673607154.955504
1673611762.787452,,,,-0.459585,-0.461391,5590920.000000,1673607154.956511
1673611762.787489,,,,-0.423620,-0.425282,5590921.000000,1673607154.957519
1673611762.787551,,,,-0.563416,-0.564525,5590922.000000,1673607154.958526
1673611762.787564,,,,-0.738215,-0.741343,5590923.000000,1673607154.959533
1673611762.791974,,,,-0.898421,-0.901020,5590924.000000,1673607154.960540
1673611762.792067,,,,-1.005810,-1.006149,5590925.000000,1673607154.961547
1673611762.792251,,,,-1.038168,-1.040071,5590926.000000,1673607154.962554
1673611762.792462,,,,-0.997396,-0.998577,5590927.000000,1673607154.963561
1673611762.792654,,,,-0.964821,-0.965136,5590928.000000,1673607154.964568
1673611762.792794,,,,-0.871303,-0.871883,5590929.000000,1673607154.965575
1673611762.792859,,,,-0.814399,-0.815845,5590930.000000,1673607154.966582
1673611762.792868,,,,-0.755572,-0.755334,5590931.000000,1673607154.967589
1673611762.807958,,,,-0.736748,-0.737208,5590932.000000,1673607154.968596
1673611762.808289,,,,-0.756702,-0.756609,5590933.000000,1673607154.969604
1673611762.808313,,,,-0.829737,-0.830966,5590934.000000,1673607154.970611
1673611762.816184,,,,-0.900681,-0.899361,5590935.000000,1673607154.971618
1673611762.816503,,,,-0.995376,-0.993312,5590936.000000,1673607154.972625
1673611762.816665,,,,-1.056728,-1.056034,5590937.000000,1673607154.973632
1673611762.816768,,,,-1.041510,-1.042475,5590938.000000,1673607154.974639
1673611762.816921,,,,-0.963811,-0.964463,5590939.000000,1673607154.975646
1673611762.817110,,,,-0.903734,-0.904097,5590940.000000,1673607154.976653
1673611762.817202,,,,-0.897099,-0.898881,5590941.000000,1673607154.977660
1673611762.817473,,,,-0.911307,-0.911093,5590942.000000,1673607154.978667
1673611762.817509,,,,-0.871736,-0.872676,5590943.000000,1673607154.979674
1673611762.817515,,,,-0.812380,-0.813513,5590944.000000,1673607154.980681
1673611762.817581,,,,-0.779060,-0.780433,5590945.000000,1673607154.981688
1673611762.817593,,,,-0.753649,-0.755743,5590946.000000,1673607154.982696
1673611762.822856,,,,-0.753096,-0.752402,5590947.000000,1673607154.983703
1673611762.823055,,,,-0.805745,-0.803872,5590948.000000,1673607154.984710
1673611762.823123,,,,-0.830915,-0.829572,5590949.000000,1673607154.985717
1673611762.823269,78.561378,4520931.000000,1673611762.798613,,,,
1673611762.823322,,,,-0.865101,-0.863998,5590950.000000,1673607154.986724
1673611762.823715,,,,-0.847864,-0.846953,5590951.000000,1673607154.987731
1673611762.823815,,,,-0.766607,-0.767451,5590952.000000,1673607154.988738
1673611762.823853,78.579468,4520932.000000,1673611762.799613,,,,
1673611762.823861,78.543297,4520933.000000,1673611762.800613,,,,
1673611762.823879,78.525208,4520934.000000,1673611762.801613,,,,
1673611762.823887,78.507118,4520935.000000,1673611762.802613,,,,
1673611762.823904,78.470940,4520936.000000,1673611762.803613,,,,
1673611762.823913,78.434761,4520937.000000,1673611762.804613,,,,
1673611762.823919,78.452850,4520938.000000,1673611762.805613,,,,
1673611762.823935,78.470940,4520939.000000,1673611762.806613,,,,
1673611762.823965,78.416672,4520940.000000,1673611762.807613,,,,
1673611762.823971,78.308121,4520945.000000,1673611762.812613,,,,
1673611762.823986,78.290031,4520946.000000,1673611762.813613,,,,
1673611762.823992,78.271942,4520947.000000,1673611762.814613,,,,
1673611762.824066,78.290031,4520948.000000,1673611762.815613,,,,
1673611762.824069,78.217674,4520949.000000,1673611762.816613,,,,
1673611762.824084,78.235764,4520950.000000,1673611762.817613,,,,
1673611762.824090,78.253853,4520951.000000,1673611762.818613,,,,
1673611762.824095,78.235764,4520952.000000,1673611762.819613,,,,
1673611762.824099,78.199585,4520953.000000,1673611762.820613,,,,
1673611762.824115,78.145317,4520954.000000,1673611762.821613,,,,
1673611762.824320,,,,-0.721002,-0.722207,5590953.000000,1673607154.989745
1673611762.824745,,,,-0.892699,-0.892005,5590957.000000,1673607154.993773
1673611762.824755,,,,-0.994679,-0.996702,5590958.000000,1673607154.994781
1673611762.824826,,,,-1.067258,-1.066659,5590959.000000,1673607154.995788
1673611762.824835,,,,-1.055574,-1.052980,5590960.000000,1673607154.996795
1673611762.824844,,,,-0.957128,-0.956818,5590961.000000,1673607154.997802
1673611762.824903,,,,-0.855797,-0.856136,5590962.000000,1673607154.998809
1673611762.825070,,,,-0.780045,-0.778870,5590963.000000,1673607154.999816
1673611762.825078,,,,-0.733527,-0.733602,5590964.000000,1673607155.000823
1673611762.825094,,,,-0.696504,-0.695834,5590965.000000,1673607155.001830
1673611762.825099,,,,-0.685758,-0.683093,5590966.000000,1673607155.002837
1673611762.829709,,,,-0.743047,-0.743074,5590967.000000,1673607155.003844
1673611762.830058,,,,-0.772809,-0.773389,5590968.000000,1673607155.004851
1673611762.830075,,,,-0.738287,-0.734780,5590969.000000,1673607155.005858
1673611762.830136,,,,-0.736364,-0.738771,5590970.000000,1673607155.006866
1673611762.830148,,,,-0.753889,-0.752834,5590971.000000,1673607155.007873
1673611762.830789,,,,-0.707779,-0.704921,5590972.000000,1673607155.008880
1673611762.830821,,,,-0.659650,-0.658619,5590973.000000,1673607155.009887
1673611762.830828,,,,-0.690686,-0.689487,5590974.000000,1673607155.010894
1673611762.831667,,,,-0.716602,-0.714538,5590975.000000,1673607155.011901
1673611762.831860,,,,-0.760861,-0.759301,5590976.000000,1673607155.012908
1673611762.832377,,,,-0.807596,-0.806853,5590977.000000,1673607155.013915
1673611762.832472,,,,-0.841204,-0.840654,5590978.000000,1673607155.014922
1673611762.832486,,,,-0.826828,-0.824667,5590979.000000,1673607155.015929
1673611762.832501,,,,-0.864115,-0.863757,5590980.000000,1673607155.016936
1673611762.837829,,,,-0.898445,-0.896741,5590981.000000,1673607155.017943
1673611762.838079,,,,-0.874068,-0.873013,5590982.000000,1673607155.018950
1673611762.838308,,,,-0.890800,-0.889312,5590983.000000,1673607155.019958
1673611762.838488,,,,-0.913134,-0.913401,5590984.000000,1673607155.020965
1673611762.844282,,,,-0.760236,-0.758820,5590985.000000,1673607155.021972
1673611762.844997,,,,-0.615079,-0.614914,5590986.000000,1673607155.022979
1673611762.845021,,,,-0.577672,-0.577915,5590987.000000,1673607155.023986
1673611762.851938,,,,-0.595702,-0.597629,5590988.000000,1673607155.024993
1673611762.852280,,,,-0.650034,-0.649316,5590989.000000,1673607155.026000
1673611762.852642,,,,-0.700255,-0.698479,5590990.000000,1673607155.027007
1673611762.853397,,,,-0.818077,-0.818200,5590991.000000,1673607155.028014
1673611762.853498,,,,-0.940852,-0.941961,5590992.000000,1673607155.029021
1673611762.868563,,,,-0.973379,-0.975233,5590993.000000,1673607155.030028
1673611762.869050,,,,-0.976793,-0.976267,5590994.000000,1673607155.031035
1673611762.869389,,,,-1.026605,-1.024012,5590995.000000,1673607155.032043
1673611762.869397,,,,-1.034779,-1.032955,5590996.000000,1673607155.033050
1673611762.869637,,,,-1.020955,-1.020526,5590997.000000,1673607155.034057
1673611762.869703,,,,-1.019200,-1.021848,5590998.000000,1673607155.035064
1673611762.869765,,,,-1.038529,-1.039854,5590999.000000,1673607155.036071
1673611762.875169,,,,-0.966407,-0.967733,5591000.000000,1673607155.037078
1673611762.875374,,,,-0.746340,-0.744853,5591001.000000,1673607155.038085
1673611762.882285,,,,-0.510671,-0.508919,5591002.000000,1673607155.039092
1673611762.882303,,,,-0.428500,-0.429056,5591003.000000,1673607155.040099
1673611762.882546,,,,-0.468672,-0.469492,5591004.000000,1673607155.041106
1673611762.882557,,,,-0.638470,-0.639339,5591005.000000,1673607155.042113
1673611762.882658,,,,-0.895632,-0.895731,5591006.000000,1673607155.043120
1673611762.882775,,,,-1.115218,-1.117289,5591007.000000,1673607155.044127
1673611762.882898,,,,-1.162554,-1.161764,5591008.000000,1673607155.045135
1673611762.883038,,,,-1.013286,-1.012977,5591009.000000,1673607155.046142
1673611762.884184,,,,-0.837911,-0.837986,5591010.000000,1673607155.047149
1673611762.884366,,,,-0.840291,-0.843227,5591011.000000,1673607155.048156
1673611762.884453,,,,-0.857432,-0.859502,5591012.000000,1673607155.049163
1673611762.884538,,,,-0.828102,-0.826519,5591013.000000,1673607155.050170
1673611762.884700,,,,-0.736099,-0.736703,5591014.000000,1673607155.051177
1673611762.884709,,,,-0.642918,-0.645133,5591015.000000,1673607155.052184
1673611762.884793,,,,-0.676022,-0.677371,5591016.000000,1673607155.053191
1673611762.886960,78.091034,4520955.000000,1673611762.826488,,,,
1673611762.886979,78.072945,4520956.000000,1673611762.827488,,,,
1673611762.888742,78.091034,4520957.000000,1673611762.828488,,,,
1673611762.888762,77.204620,4521006.000000,1673611762.877488,,,,
1673611762.888770,77.186531,4521007.000000,1673611762.878488,,,,
1673611762.888797,77.240799,4521008.000000,1673611762.879488,,,,
1673611762.888804,77.258888,4521009.000000,1673611762.880488,,,,
1673611762.888809,77.276993,4521010.000000,1673611762.881488,,,,
1673611762.888814,77.295082,4521011.000000,1673611762.882488,,,,
1673611762.888823,77.331261,4521012.000000,1673611762.883488,,,,
1673611762.888886,77.385529,4521013.000000,1673611762.884488,,,,
1673611762.888895,77.421707,4521014.000000,1673611762.885488,,,,
1673611762.888901,77.439796,4521015.000000,1673611762.886488,,,,
1673611762.889328,,,,-0.650034,-0.652489,5591017.000000,1673607155.054198
1673611762.889598,,,,-0.515647,-0.518006,5591018.000000,1673607155.055205
1673611762.889832,,,,-0.476990,-0.476104,5591019.000000,1673607155.056212
1673611762.889846,,,,-0.545385,-0.545004,5591020.000000,1673607155.057220
1673611762.891477,,,,-0.741244,-0.740141,5591021.000000,1673607155.058227
1673611762.891673,,,,-0.977851,-0.980017,5591022.000000,1673607155.059234
1673611762.891681,,,,-1.025475,-1.027882,5591023.000000,1673607155.060241
1673611762.896986,,,,-0.982442,-0.983359,5591024.000000,1673607155.061248
1673611762.897167,,,,-0.928111,-0.928859,5591025.000000,1673607155.062255
1673611762.897388,,,,-0.953426,-0.952467,5591026.000000,1673607155.063262
1673611762.897666,,,,-0.953281,-0.954462,5591027.000000,1673607155.064269
1673611762.897806,,,,-0.970182,-0.971050,5591028.000000,1673607155.065276
1673611762.898225,,,,-0.890439,-0.889264,5591029.000000,1673607155.066283
1673611762.898247,,,,-0.797402,-0.796396,5591030.000000,1673607155.067290
1673611762.899199,,,,-0.897844,-0.899914,5591031.000000,1673607155.068297
1673611762.899213,,,,-1.016340,-1.019636,5591032.000000,1673607155.069304
1673611762.899551,,,,-1.073845,-1.077406,5591033.000000,1673607155.070312
1673611762.904333,,,,-1.134018,-1.135367,5591034.000000,1673607155.071319
1673611762.904892,,,,-1.191114,-1.192223,5591035.000000,1673607155.072326
1673611762.904994,,,,-1.070840,-1.071588,5591036.000000,1673607155.073333
1673611762.905004,,,,-0.840363,-0.841616,5591037.000000,1673607155.074340
1673611762.906449,,,,-0.723526,-0.726558,5591038.000000,1673607155.075347
1673611762.906747,,,,-0.647678,-0.651792,5591039.000000,1673607155.076354
1673611762.906753,,,,-0.666165,-0.669269,5591040.000000,1673607155.077361
1673611762.906772,,,,-0.702106,-0.703936,5591041.000000,1673607155.078368
1673611762.911527,,,,-0.758433,-0.759325,5591042.000000,1673607155.079375
1673611762.911634,,,,-0.791320,-0.791395,5591043.000000,1673607155.080382
1673611762.911815,,,,-0.738984,-0.738314,5591044.000000,1673607155.081389
1673611762.914566,,,,-0.676454,-0.675808,5591045.000000,1673607155.082397
1673611762.915004,,,,-0.736796,-0.737785,5591046.000000,1673607155.083404
1673611762.915239,,,,-0.866807,-0.866498,5591047.000000,1673607155.084411
1673611762.915581,,,,-0.884982,-0.881908,5591048.000000,1673607155.085418
1673611762.916107,,,,-0.879188,-0.877485,5591049.000000,1673607155.086425
1673611762.916142,,,,-0.916235,-0.917464,5591050.000000,1673607155.087432
1673611762.916575,,,,-0.927029,-0.929628,5591051.000000,1673607155.088439
1673611762.916865,,,,-0.952031,-0.952924,5591052.000000,1673607155.089446
1673611762.920209,,,,-0.991770,-0.992879,5591053.000000,1673607155.090453
1673611762.920243,,,,-0.950156,-0.952130,5591054.000000,1673607155.091460
1673611762.920286,,,,-0.832381,-0.836135,5591055.000000,1673607155.092467
1673611762.920526,,,,-0.768121,-0.770432,5591056.000000,1673607155.093474
1673611762.920867,,,,-0.745523,-0.746031,5591057.000000,1673607155.094481
1673611762.921254,,,,-0.775045,-0.777259,5591058.000000,1673607155.095489
1673611762.921510,,,,-0.829232,-0.830966,5591059.000000,1673607155.096496
1673611762.922022,,,,-0.863754,-0.864791,5591060.000000,1673607155.097503
1673611762.922038,,,,-0.834257,-0.833250,5591061.000000,1673607155.098510
1673611762.922064,,,,-0.801465,-0.801036,5591062.000000,1673607155.099517
1673611762.935694,,,,-0.764563,-0.764662,5591063.000000,1673607155.100524
1673611762.935911,,,,-0.707707,-0.706196,5591064.000000,1673607155.101531
1673611762.935923,,,,-0.692538,-0.689776,5591065.000000,1673607155.102538
1673611762.935930,,,,-0.701240,-0.702638,5591066.000000,1673607155.103545
1673611762.942843,,,,-0.702082,-0.702469,5591067.000000,1673607155.104552
1673611762.943130,,,,-0.836997,-0.836015,5591068.000000,1673607155.105559
1673611762.943302,,,,-0.961888,-0.962997,5591069.000000,1673607155.106566
1673611762.949444,,,,-0.922221,-0.924628,5591070.000000,1673607155.107574
1673611762.949974,,,,-0.882434,-0.882605,5591071.000000,1673607155.108581
1673611762.950422,,,,-0.792955,-0.793415,5591072.000000,1673607155.109588
1673611762.950747,,,,-0.771968,-0.773966,5591073.000000,1673607155.110595
1673611762.950861,,,,-0.802836,-0.803199,5591074.000000,1673607155.111602
1673611762.951002,,,,-0.808437,-0.809305,5591075.000000,1673607155.112609
1673611762.951149,,,,-0.813053,-0.811253,5591076.000000,1673607155.113616
1673611762.951688,,,,-0.848585,-0.849670,5591077.000000,1673607155.114623
1673611762.952006,,,,-0.823631,-0.825268,5591078.000000,1673607155.115630
1673611762.952380,,,,-0.732613,-0.731919,5591079.000000,1673607155.116637
1673611762.952531,,,,-0.677801,-0.679030,5591080.000000,1673607155.117644
1673611762.954375,82.197495,4521067.000000,1673611762.942526,,,,
1673611762.954392,82.324135,4521068.000000,1673611762.943526,,,,
1673611762.954407,82.432671,4521069.000000,1673611762.944526,,,,
1673611762.954425,82.577385,4521070.000000,1673611762.945526,,,,
1673611762.954443,82.722115,4521071.000000,1673611762.946526,,,,
1673611762.954452,82.848740,4521072.000000,1673611762.947526,,,,
1673611762.954504,82.903023,4521073.000000,1673611762.948526,,,,
1673611762.954515,83.047729,4521074.000000,1673611762.949526,,,,
1673611762.954522,83.120087,4521075.000000,1673611762.950526,,,,
1673611762.954551,83.246727,4521076.000000,1673611762.951526,,,,
1673611762.956587,,,,-0.735762,-0.737809,5591081.000000,1673607155.118651
1673611762.956845,,,,-0.801682,-0.803007,5591082.000000,1673607155.119658
1673611762.957038,,,,-0.859163,-0.858084,5591083.000000,1673607155.120666
1673611762.958963,,,,-0.911571,-0.908160,5591084.000000,1673607155.121673
1673611762.959044,,,,-0.888155,-0.888952,5591085.000000,1673607155.122680
1673611762.959342,,,,-0.841685,-0.843227,5591086.000000,1673607155.123687
1673611762.959349,,,,-0.893420,-0.893375,5591087.000000,1673607155.124694
1673611762.964076,,,,-0.943930,-0.941360,5591088.000000,1673607155.125701
1673611762.964261,,,,-0.892194,-0.892293,5591089.000000,1673607155.126708
1673611762.964478,,,,-0.821130,-0.822071,5591090.000000,1673607155.127715
1673611762.966829,,,,-0.835002,-0.835005,5591091.000000,1673607155.128722
1673611762.966841,,,,-0.834713,-0.836904,5591092.000000,1673607155.129729
1673611762.967317,,,,-0.784445,-0.782933,5591093.000000,1673607155.130736
1673611762.967695,,,,-0.775405,-0.774927,5591094.000000,1673607155.131743
1673611762.967714,,,,-0.806177,-0.805363,5591095.000000,1673607155.132751
1673611762.968067,,,,-0.801658,-0.800843,5591096.000000,1673607155.133758
1673611762.968472,,,,-0.759250,-0.758003,5591097.000000,1673607155.134765
1673611762.968680,,,,-0.765885,-0.766658,5591098.000000,1673607155.135772
1673611762.972124,,,,-0.830025,-0.831807,5591099.000000,1673607155.136779
1673611762.972658,,,,-0.915442,-0.915901,5591100.000000,1673607155.137786
1673611762.972797,,,,-0.949218,-0.949197,5591101.000000,1673607155.138793
1673611762.972957,,,,-0.935900,-0.934196,5591102.000000,1673607155.139800
1673611762.973274,,,,-0.895247,-0.894722,5591103.000000,1673607155.140807
1673611762.973549,,,,-0.844209,-0.846689,5591104.000000,1673607155.141814
1673611762.973703,,,,-0.820962,-0.823513,5591105.000000,1673607155.142821
1673611762.974252,,,,-0.785839,-0.786828,5591106.000000,1673607155.143828
1673611762.974582,,,,-0.762327,-0.761946,5591107.000000,1673607155.144835
1673611762.974842,,,,-0.786536,-0.786587,5591108.000000,1673607155.145843
1673611762.979199,,,,-0.793532,-0.794472,5591109.000000,1673607155.146850
1673611762.979265,,,,-0.772496,-0.770504,5591110.000000,1673607155.147857
1673611762.979418,,,,-0.780045,-0.777163,5591111.000000,1673607155.148864
1673611762.979605,,,,-0.789060,-0.788775,5591112.000000,1673607155.149871
1673611762.979636,,,,-0.773290,-0.774783,5591113.000000,1673607155.150878
1673611762.981414,,,,-0.780887,-0.780793,5591114.000000,1673607155.151885
1673611762.981437,,,,-0.843440,-0.842313,5591115.000000,1673607155.152892
1673611762.996217,,,,-0.855749,-0.856088,5591116.000000,1673607155.153899
1673611762.996423,,,,-0.821347,-0.822600,5591117.000000,1673607155.154906
1673611762.996439,,,,-0.885944,-0.885418,5591118.000000,1673607155.155913
1673611762.996595,,,,-0.935059,-0.934388,5591119.000000,1673607155.156920
1673611762.996886,,,,-0.936405,-0.935759,5591120.000000,1673607155.157928
1673611762.997171,,,,-0.978428,-0.977181,5591121.000000,1673607155.158935
1673611762.997498,,,,-1.029442,-1.029276,5591122.000000,1673607155.159942
1673611762.997539,,,,-0.999199,-0.997230,5591123.000000,1673607155.160949
1673611763.003426,,,,-0.853441,-0.852458,5591124.000000,1673607155.161956
1673611763.003683,,,,-0.599116,-0.599984,5591125.000000,1673607155.162963
1673611763.003830,,,,-0.518869,-0.519160,5591126.000000,1673607155.163970
1673611763.004102,,,,-0.516561,-0.517910,5591127.000000,1673607155.164977
1673611763.004353,,,,-0.477735,-0.478892,5591128.000000,1673607155.165984
1673611763.004569,,,,-0.569354,-0.569982,5591129.000000,1673607155.166991
1673611763.004757,,,,-0.753985,-0.752810,5591130.000000,1673607155.167998
1673611763.007037,83.391441,4521077.000000,1673611762.946310,,,,
1673611763.008303,83.463814,4521078.000000,1673611762.947310,,,,
1673611763.008327,83.518082,4521079.000000,1673611762.948310,,,,
1673611763.008335,85.381371,4521128.000000,1673611762.997310,,,,
1673611763.008355,85.417549,4521129.000000,1673611762.998310,,,,
1673611763.008363,85.399460,4521130.000000,1673611762.999310,,,,
1673611763.008392,85.399460,4521131.000000,1673611763.000310,,,,
1673611763.008399,85.399460,4521132.000000,1673611763.001310,,,,
1673611763.008405,85.399460,4521133.000000,1673611763.002310,,,,
1673611763.008409,85.417549,4521134.000000,1673611763.003310,,,,
1673611763.008449,85.381371,4521135.000000,1673611763.004310,,,,
1673611763.008460,85.381371,4521136.000000,1673611763.005310,,,,
1673611763.008466,85.399460,4521137.000000,1673611763.006310,,,,
1673611763.009105,,,,-0.835699,-0.835173,5591131.000000,1673607155.169005
1673611763.009346,,,,-0.807187,-0.808128,5591132.000000,1673607155.170012
1673611763.009541,,,,-0.814159,-0.815748,5591133.000000,1673607155.171020
1673611763.009830,,,,-0.806610,-0.804738,5591134.000000,1673607155.172027
1673611763.011379,,,,-0.790599,-0.789015,5591135.000000,1673607155.173034
1673611763.011604,,,,-0.727613,-0.726870,5591136.000000,1673607155.174041
1673611763.011741,,,,-0.755812,-0.755887,5591137.000000,1673607155.175048
1673611763.016846,,,,-0.818534,-0.818922,5591138.000000,1673607155.176055
1673611763.016877,,,,-0.826900,-0.826254,5591139.000000,1673607155.177062
1673611763.016891,,,,-0.930683,-0.931407,5591140.000000,1673607155.178069
1673611763.019572,,,,-1.035981,-1.039133,5591141.000000,1673607155.179076
1673611763.019997,,,,-0.980495,-0.982157,5591142.000000,1673607155.180083
1673611763.020312,,,,-0.853826,-0.853973,5591143.000000,1673607155.181090
1673611763.020734,,,,-0.721002,-0.721149,5591144.000000,1673607155.182097
1673611763.020935,,,,-0.685662,-0.685497,5591145.000000,1673607155.183105
1673611763.021418,,,,-0.733935,-0.733049,5591146.000000,1673607155.184112
1673611763.021457,,,,-0.785358,-0.784592,5591147.000000,1673607155.185119
1673611763.021464,,,,-0.882073,-0.881836,5591148.000000,1673607155.186126
1673611763.024075,,,,-1.005954,-1.005164,5591149.000000,1673607155.187133
1673611763.024307,,,,-1.018888,-1.020333,5591150.000000,1673607155.188140
1673611763.024323,,,,-0.880679,-0.880586,5591151.000000,1673607155.189147
1673611763.026815,,,,-0.761414,-0.761345,5591152.000000,1673607155.190154
1673611763.027095,,,,-0.734993,-0.735982,5591153.000000,1673607155.191161
1673611763.027490,,,,-0.832021,-0.832625,5591154.000000,1673607155.192168
1673611763.027523,,,,-0.919961,-0.920854,5591155.000000,1673607155.193175
1673611763.027609,,,,-0.960758,-0.960521,5591156.000000,1673607155.194182
1673611763.027622,,,,-0.939771,-0.938716,5591157.000000,1673607155.195189
1673611763.027666,,,,-0.918062,-0.917680,5591158.000000,1673607155.196197
1673611763.027673,,,,-0.945252,-0.946120,5591159.000000,1673607155.197204
1673611763.031914,,,,-0.948641,-0.949943,5591160.000000,1673607155.198211
1673611763.032084,,,,-0.920803,-0.920661,5591161.000000,1673607155.199218
1673611763.032262,,,,-0.952344,-0.953741,5591162.000000,1673607155.200225
1673611763.032529,,,,-0.946574,-0.950063,5591163.000000,1673607155.201232
1673611763.032602,,,,-0.893420,-0.894217,5591164.000000,1673607155.202239
1673611763.032755,,,,-0.799686,-0.798055,5591165.000000,1673607155.203246
1673611763.032837,,,,-0.702490,-0.701724,5591166.000000,1673607155.204253
1673611763.034153,,,,-0.628373,-0.627703,5591167.000000,1673607155.205260
1673611763.034159,,,,-0.576951,-0.577434,5591168.000000,1673607155.206267
1673611763.034171,,,,-0.525239,-0.525819,5591169.000000,1673607155.207274
1673611763.039246,,,,-0.507834,-0.508005,5591170.000000,1673607155.208282
1673611763.039564,,,,-0.491535,-0.492764,5591171.000000,1673607155.209289
1673611763.039579,,,,-0.407561,-0.409920,5591172.000000,1673607155.210296
1673611763.041611,,,,-0.387631,-0.389678,5591173.000000,1673607155.211303
1673611763.041623,,,,-0.546107,-0.544932,5591174.000000,1673607155.212310
1673611763.041915,,,,-0.920610,-0.920156,5591175.000000,1673607155.213317
1673611763.041924,,,,-1.320308,-1.323268,5591176.000000,1673607155.214324
1673611763.055474,,,,-1.390915,-1.392000,5591177.000000,1673607155.215331
1673611763.055484,,,,-1.238883,-1.239439,5591178.000000,1673607155.216338
1673611763.055493,,,,-1.066825,-1.067982,5591179.000000,1673607155.217345
1673611763.055663,,,,-0.998069,-0.996076,5591180.000000,1673607155.218352
1673611763.063316,,,,-0.990424,-0.989706,5591181.000000,1673607155.219359
1673611763.063332,,,,-0.978163,-0.978839,5591182.000000,1673607155.220366
1673611763.063365,,,,-0.945540,-0.944558,5591183.000000,1673607155.221374
1673611763.069680,,,,-0.934121,-0.932369,5591184.000000,1673607155.222381
1673611763.070936,,,,-0.929962,-0.929845,5591185.000000,1673607155.223388
1673611763.071698,,,,-0.895127,-0.894962,5591186.000000,1673607155.224395
1673611763.071724,,,,-0.842575,-0.841015,5591187.000000,1673607155.225402
1673611763.071751,,,,-0.771318,-0.769975,5591188.000000,1673607155.226409
1673611763.071768,,,,-0.740763,-0.740910,5591189.000000,1673607155.227416
1673611763.071800,,,,-0.765356,-0.765672,5591190.000000,1673607155.228423
1673611763.072926,,,,-0.799806,-0.798872,5591191.000000,1673607155.229430
1673611763.073364,,,,-0.875053,-0.877412,5591192.000000,1673607155.230437
1673611763.073388,,,,-0.956431,-0.959318,5591193.000000,1673607155.231444
1673611763.073406,85.345177,4521145.000000,1673611763.018559,,,,
1673611763.073411,85.399460,4521146.000000,1673611763.019559,,,,
1673611763.073434,,,,-0.983933,-0.983575,5591194.000000,1673607155.232451
1673611763.073563,,,,-0.870125,-0.869864,5591195.000000,1673607155.233459
1673611763.073570,,,,-0.746749,-0.750502,5591196.000000,1673607155.234466
1673611763.073579,,,,-0.724295,-0.727496,5591197.000000,1673607155.235473
1673611763.073602,85.327087,4521147.000000,1673611763.020559,,,,
1673611763.074272,85.345177,4521148.000000,1673611763.021559,,,,
1673611763.074279,85.399460,4521149.000000,1673611763.022559,,,,
1673611763.074287,85.399460,4521150.000000,1673611763.023559,,,,
1673611763.074291,85.381371,4521151.000000,1673611763.024559,,,,
1673611763.074297,85.399460,4521152.000000,1673611763.025559,,,,
1673611763.074314,85.381371,4521153.000000,1673611763.026559,,,,
1673611763.074317,85.435638,4521154.000000,1673611763.027560,,,,
1673611763.074339,87.099930,4521189.000000,1673611763.062559,,,,
1673611763.074347,87.172287,4521190.000000,1673611763.063560,,,,
1673611763.074354,87.244644,4521191.000000,1673611763.064559,,,,
1673611763.074365,87.335106,4521192.000000,1673611763.065559,,,,
1673611763.074368,87.353195,4521193.000000,1673611763.066559,,,,
1673611763.074385,87.443634,4521194.000000,1673611763.067559,,,,
1673611763.074392,87.515991,4521195.000000,1673611763.068559,,,,
1673611763.074400,87.588348,4521196.000000,1673611763.069559,,,,
1673611763.074407,87.660721,4521197.000000,1673611763.070560,,,,
1673611763.074414,87.751167,4521198.000000,1673611763.071559,,,,
1673611763.076523,,,,-0.747518,-0.748844,5591198.000000,1673607155.236480
1673611763.076672,,,,-0.756966,-0.758147,5591199.000000,1673607155.237487
1673611763.076786,,,,-0.821154,-0.820436,5591200.000000,1673607155.238494
1673611763.076882,,,,-0.840243,-0.838130,5591201.000000,1673607155.239501
1673611763.080982,,,,-0.819760,-0.818032,5591202.000000,1673607155.240508
1673611763.081116,,,,-0.899983,-0.899265,5591203.000000,1673607155.241515
1673611763.081253,,,,-0.917533,-0.916887,5591204.000000,1673607155.242522
1673611763.081273,,,,-0.912533,-0.913738,5591205.000000,1673607155.243529
1673611763.084662,,,,-0.909960,-0.909987,5591206.000000,1673607155.244536
1673611763.084679,,,,-0.921067,-0.920613,5591207.000000,1673607155.245543
1673611763.084832,,,,-0.914143,-0.918762,5591208.000000,1673607155.246551
1673611763.084970,,,,-0.910225,-0.914218,5591209.000000,1673607155.247558
1673611763.085087,,,,-0.923784,-0.925950,5591210.000000,1673607155.248565
1673611763.085275,,,,-0.967417,-0.967997,5591211.000000,1673607155.249572
1673611763.085281,,,,-1.023840,-1.024060,5591212.000000,1673607155.250579
1673611763.088439,,,,-0.994006,-0.995235,5591213.000000,1673607155.251586
1673611763.088565,,,,-0.837238,-0.838346,5591214.000000,1673607155.252593
1673611763.088573,,,,-0.762303,-0.761705,5591215.000000,1673607155.253600
1673611763.088707,,,,-0.807427,-0.807767,5591216.000000,1673607155.254607
1673611763.091520,,,,-0.790479,-0.791395,5591217.000000,1673607155.255614
1673611763.091530,,,,-0.733743,-0.733890,5591218.000000,1673607155.256621
1673611763.096202,,,,-0.618469,-0.619554,5591219.000000,1673607155.257628
1673611763.096702,,,,-0.463600,-0.464204,5591220.000000,1673607155.258636
1673611763.096718,,,,-0.409220,-0.409680,5591221.000000,1673607155.259643
1673611763.097102,,,,-0.508075,-0.508727,5591222.000000,1673607155.260650
1673611763.097117,,,,-0.658857,-0.658547,5591223.000000,1673607155.261657
1673611763.097132,,,,-0.876255,-0.877220,5591224.000000,1673607155.262664
1673611763.097242,,,,-0.991818,-0.992254,5591225.000000,1673607155.263671
1673611763.097252,,,,-1.040933,-1.039926,5591226.000000,1673607155.264678
1673611763.099221,,,,-1.031509,-1.031921,5591227.000000,1673607155.265685
1673611763.099677,,,,-1.028720,-1.030190,5591228.000000,1673607155.266692
1673611763.099881,,,,-0.999824,-1.001534,5591229.000000,1673607155.267699
1673611763.100400,,,,-0.929097,-0.927777,5591230.000000,1673607155.268706
1673611763.103825,,,,-0.794854,-0.792549,5591231.000000,1673607155.269713
1673611763.103960,,,,-0.685566,-0.685376,5591232.000000,1673607155.270720
1673611763.104193,,,,-0.620584,-0.619578,5591233.000000,1673607155.271728
1673611763.115885,,,,-0.602890,-0.603326,5591234.000000,1673607155.272735
1673611763.116338,,,,-0.587024,-0.591378,5591235.000000,1673607155.273742
1673611763.116871,,,,-0.759827,-0.762450,5591236.000000,1673607155.274749
1673611763.117417,,,,-0.962369,-0.961121,5591237.000000,1673607155.275756
1673611763.117625,,,,-1.035716,-1.035287,5591238.000000,1673607155.276763
1673611763.117949,,,,-1.047929,-1.047259,5591239.000000,1673607155.277770
1673611763.118075,,,,-1.051463,-1.053437,5591240.000000,1673607155.278777
1673611763.122769,,,,-1.032663,-1.032907,5591241.000000,1673607155.279784
1673611763.122880,,,,-0.966888,-0.967973,5591242.000000,1673607155.280791
1673611763.122953,,,,-0.884141,-0.881427,5591243.000000,1673607155.281798
1673611763.128897,88.746132,4521250.000000,1673611763.117986,,,,
1673611763.128912,88.764221,4521251.000000,1673611763.118986,,,,
1673611763.128918,88.637581,4521252.000000,1673611763.119986,,,,
1673611763.128922,88.655670,4521253.000000,1673611763.120986,,,,
1673611763.128928,88.565224,4521254.000000,1673611763.121986,,,,
1673611763.128931,88.529045,4521255.000000,1673611763.122986,,,,
1673611763.129007,88.547134,4521256.000000,1673611763.123986,,,,
1673611763.129016,88.492867,4521257.000000,1673611763.124986,,,,
1673611763.129023,88.438583,4521258.000000,1673611763.125986,,,,
1673611763.129033,88.402405,4521259.000000,1673611763.126986,,,,
1673611763.129187,,,,-0.860196,-0.858252,5591244.000000,1673607155.282805
1673611763.129341,,,,-0.867336,-0.865993,5591245.000000,1673607155.283813
1673611763.129476,,,,-0.794325,-0.792309,5591246.000000,1673607155.284820
1673611763.129618,,,,-0.800047,-0.799497,5591247.000000,1673607155.285827
1673611763.131727,,,,-0.854691,-0.854141,5591248.000000,1673607155.286834
1673611763.131865,,,,-0.859595,-0.860536,5591249.000000,1673607155.287841
1673611763.132289,,,,-0.834954,-0.834813,5591250.000000,1673607155.288848
1673611763.132305,,,,-0.804807,-0.804401,5591251.000000,1673607155.289855
1673611763.132310,,,,-0.700856,-0.699224,5591252.000000,1673607155.290862
1673611763.132313,,,,-0.619959,-0.617967,5591253.000000,1673607155.291869
1673611763.132329,,,,-0.620921,-0.617943,5591254.000000,1673607155.292876
1673611763.139350,,,,-0.726291,-0.726798,5591255.000000,1673607155.293883
1673611763.139426,,,,-0.913470,-0.912007,5591256.000000,1673607155.294890
1673611763.139617,,,,-1.000882,-1.000043,5591257.000000,1673607155.295897
1673611763.139906,,,,-0.915562,-0.914843,5591258.000000,1673607155.296905
1673611763.140070,,,,-0.788868,-0.788294,5591259.000000,1673607155.297912
1673611763.140536,,,,-0.720569,-0.720957,5591260.000000,1673607155.298919
1673611763.140716,,,,-0.737493,-0.740814,5591261.000000,1673607155.299926
1673611763.141092,,,,-0.822933,-0.826086,5591262.000000,1673607155.300933
1673611763.141117,,,,-0.848032,-0.848804,5591263.000000,1673607155.301940
1673611763.141140,,,,-0.903782,-0.903905,5591264.000000,1673607155.302947
1673611763.141851,,,,-0.910681,-0.912103,5591265.000000,1673607155.303954
1673611763.141887,,,,-0.883155,-0.883014,5591266.000000,1673607155.304961
1673611763.142205,,,,-0.895584,-0.894024,5591267.000000,1673607155.305968
1673611763.142381,,,,-0.897772,-0.894914,5591268.000000,1673607155.306975
1673611763.142612,,,,-0.846662,-0.848708,5591269.000000,1673607155.307982
1673611763.143599,,,,-0.781343,-0.783486,5591270.000000,1673607155.308990
1673611763.143866,,,,-0.741508,-0.740910,5591271.000000,1673607155.309997
1673611763.144068,,,,-0.739032,-0.738987,5591272.000000,1673607155.311004
1673611763.144084,,,,-0.747206,-0.746223,5591273.000000,1673607155.312011
1673611763.144291,,,,-0.789108,-0.788222,5591274.000000,1673607155.313018
1673611763.144321,,,,-0.860028,-0.859118,5591275.000000,1673607155.314025
1673611763.144340,,,,-0.884718,-0.882437,5591276.000000,1673607155.315032
1673611763.144771,,,,-0.863249,-0.865176,5591277.000000,1673607155.316039
1673611763.144785,,,,-0.783579,-0.785722,5591278.000000,1673607155.317046
1673611763.144998,,,,-0.731339,-0.731414,5591279.000000,1673607155.318053
1673611763.145398,,,,-0.712347,-0.714393,5591280.000000,1673607155.319060
1673611763.145657,,,,-0.762712,-0.764903,5591281.000000,1673607155.320067
1673611763.145820,,,,-0.827068,-0.826374,5591282.000000,1673607155.321074
1673611763.146799,,,,-0.894815,-0.897318,5591283.000000,1673607155.322082
1673611763.146925,,,,-0.929024,-0.932658,5591284.000000,1673607155.323089
1673611763.147087,,,,-0.904960,-0.906021,5591285.000000,1673607155.324096
1673611763.147247,,,,-0.863923,-0.862387,5591286.000000,1673607155.325103
1673611763.147388,,,,-0.881015,-0.875922,5591287.000000,1673607155.326110
1673611763.147705,,,,-0.900176,-0.897967,5591288.000000,1673607155.327117
1673611763.147772,,,,-0.933207,-0.933355,5591289.000000,1673607155.328124
1673611763.153009,,,,-0.957104,-0.956698,5591290.000000,1673607155.329131
1673611763.153196,,,,-0.959965,-0.957660,5591291.000000,1673607155.330138
1673611763.153504,,,,-0.940299,-0.939293,5591292.000000,1673607155.331145
1673611763.153660,,,,-0.926596,-0.926431,5591293.000000,1673607155.332152
1673611763.153821,,,,-0.905272,-0.906381,5591294.000000,1673607155.333159
1673611763.154023,,,,-0.893781,-0.893832,5591295.000000,1673607155.334167
1673611763.154225,,,,-0.869813,-0.867508,5591296.000000,1673607155.335174
1673611763.154329,,,,-0.868611,-0.869455,5591297.000000,1673607155.336181
1673611763.160701,,,,-0.899695,-0.901741,5591298.000000,1673607155.337188
1673611763.161483,,,,-0.865605,-0.868710,5591299.000000,1673607155.338195
1673611763.161798,,,,-0.750884,-0.751897,5591300.000000,1673607155.339202
1673611763.161819,,,,-0.666910,-0.667466,5591301.000000,1673607155.340209
1673611763.162261,,,,-0.618637,-0.620467,5591302.000000,1673607155.341216
1673611763.162462,,,,-0.645586,-0.644940,5591303.000000,1673607155.342223
1673611763.162760,,,,-0.745355,-0.743963,5591304.000000,1673607155.343230
1673611763.175643,,,,-0.818654,-0.821855,5591305.000000,1673607155.344237
1673611763.175943,,,,-0.872794,-0.872724,5591306.000000,1673607155.345244
1673611763.175953,,,,-0.877986,-0.876859,5591307.000000,1673607155.346251
1673611763.176236,,,,-0.853176,-0.854093,5591308.000000,1673607155.347259
1673611763.176245,,,,-0.869764,-0.870705,5591309.000000,1673607155.348266
1673611763.176420,,,,-0.864836,-0.865825,5591310.000000,1673607155.349273
1673611763.176686,,,,-0.877193,-0.877436,5591311.000000,1673607155.350280
1673611763.176702,,,,-0.915442,-0.917512,5591312.000000,1673607155.351287
1673611763.183041,,,,-0.849114,-0.849670,5591313.000000,1673607155.352294
1673611763.183221,,,,-0.714943,-0.714105,5591314.000000,1673607155.353301
1673611763.183232,,,,-0.586639,-0.586137,5591315.000000,1673607155.354308
1673611763.189688,,,,-0.569618,-0.572650,5591316.000000,1673607155.355315
1673611763.189700,,,,-0.622099,-0.620924,5591317.000000,1673607155.356322
1673611763.189807,,,,-0.686191,-0.682516,5591318.000000,1673607155.357329
1673611763.189836,,,,-0.707587,-0.707374,5591319.000000,1673607155.358336
1673611763.189982,,,,-0.787402,-0.791347,5591320.000000,1673607155.359344
1673611763.190102,,,,-1.009152,-1.011222,5591321.000000,1673607155.360351
1673611763.191771,87.751167,4521275.000000,1673611763.145967,,,,
1673611763.191780,,,,-1.057858,-1.057668,5591322.000000,1673607155.361358
1673611763.191797,,,,-0.957729,-0.957756,5591323.000000,1673607155.362365
1673611763.191902,,,,-0.919144,-0.918522,5591324.000000,1673607155.363372
1673611763.191909,87.696899,4521276.000000,1673611763.146967,,,,
1673611763.192085,,,,-0.934482,-0.934100,5591325.000000,1673607155.364379
1673611763.192176,87.678810,4521277.000000,1673611763.147967,,,,
1673611763.192238,,,,-0.893108,-0.893952,5591326.000000,1673607155.365386
1673611763.192413,,,,-0.838872,-0.840270,5591327.000000,1673607155.366393
1673611763.192574,,,,-0.829953,-0.830774,5591328.000000,1673607155.367400
1673611763.192613,,,,-0.853657,-0.853444,5591329.000000,1673607155.368407
1673611763.192793,87.606438,4521278.000000,1673611763.148967,,,,
1673611763.192801,87.570259,4521279.000000,1673611763.149967,,,,
1673611763.192804,87.552170,4521280.000000,1673611763.150967,,,,
1673611763.192843,87.461723,4521281.000000,1673611763.151967,,,,
1673611763.192848,87.443634,4521282.000000,1673611763.152966,,,,
1673611763.192854,87.389366,4521283.000000,1673611763.153967,,,,
1673611763.192870,87.353195,4521284.000000,1673611763.154967,,,,
1673611763.192883,86.014519,4521311.000000,1673611763.181967,,,,
1673611763.192903,85.924057,4521312.000000,1673611763.182967,,,,
1673611763.192906,85.851700,4521313.000000,1673611763.183967,,,,
1673611763.192909,85.797432,4521314.000000,1673611763.184967,,,,
1673611763.192960,85.779343,4521315.000000,1673611763.185966,,,,
1673611763.192990,85.706985,4521316.000000,1673611763.186967,,,,
1673611763.192999,85.652702,4521317.000000,1673611763.187967,,,,
1673611763.193016,85.562256,4521318.000000,1673611763.188967,,,,
1673611763.193018,85.507996,4521319.000000,1673611763.189967,,,,
1673611763.193033,85.471817,4521320.000000,1673611763.190967,,,,
1673611763.196738,,,,-0.919168,-0.917079,5591330.000000,1673607155.369414
1673611763.197189,,,,-1.023552,-1.021295,5591331.000000,1673607155.370421
1673611763.197315,,,,-1.072018,-1.070819,5591332.000000,1673607155.371428
1673611763.199114,,,,-0.903229,-0.900131,5591333.000000,1673607155.372436
1673611763.199417,,,,-0.550434,-0.547889,5591334.000000,1673607155.373443
1673611763.199694,,,,-0.346017,-0.344073,5591335.000000,1673607155.374450
1673611763.199901,,,,-0.434967,-0.434537,5591336.000000,1673607155.375457
1673611763.204276,,,,-0.618541,-0.618472,5591337.000000,1673607155.376464
1673611763.204287,,,,-0.771150,-0.768749,5591338.000000,1673607155.377471
1673611763.204774,,,,-0.889814,-0.888375,5591339.000000,1673607155.378478
1673611763.204791,,,,-1.004608,-1.005524,5591340.000000,1673607155.379485
1673611763.206748,,,,-0.944747,-0.943115,5591341.000000,1673607155.380492
1673611763.206880,,,,-0.891810,-0.890611,5591342.000000,1673607155.381499
1673611763.206897,,,,-0.883876,-0.883447,5591343.000000,1673607155.382506
1673611763.206907,,,,-0.926428,-0.924580,5591344.000000,1673607155.383513
1673611763.211626,,,,-0.922774,-0.920854,5591345.000000,1673607155.384521
1673611763.211843,,,,-0.880511,-0.880874,5591346.000000,1673607155.385528
1673611763.214922,,,,-0.879357,-0.880682,5591347.000000,1673607155.386535
1673611763.215394,,,,-0.905296,-0.907151,5591348.000000,1673607155.387542
1673611763.215719,,,,-0.897940,-0.896885,5591349.000000,1673607155.388549
1673611763.215916,,,,-0.865389,-0.864791,5591350.000000,1673607155.389556
1673611763.216065,,,,-0.830098,-0.829644,5591351.000000,1673607155.390563
1673611763.216077,,,,-0.763866,-0.762787,5591352.000000,1673607155.391570
1673611763.216103,,,,-0.723285,-0.720235,5591353.000000,1673607155.392577
1673611763.216117,,,,-0.694845,-0.696026,5591354.000000,1673607155.393584
1673611763.219501,,,,-0.651957,-0.653282,5591355.000000,1673607155.394591
1673611763.219890,,,,-0.578129,-0.579189,5591356.000000,1673607155.395598
1673611763.219897,,,,-0.477158,-0.479301,5591357.000000,1673607155.396605
1673611763.219944,,,,-0.540938,-0.541782,5591358.000000,1673607155.397613
1673611763.219955,,,,-0.834112,-0.834139,5591359.000000,1673607155.398620
1673611763.219993,,,,-1.017253,-1.017665,5591360.000000,1673607155.399627
1673611763.220000,,,,-0.987179,-0.985691,5591361.000000,1673607155.400634
1673611763.221381,,,,-1.007493,-1.006582,5591362.000000,1673607155.401641
1673611763.221524,,,,-1.001410,-1.003289,5591363.000000,1673607155.402648
1673611763.221560,,,,-0.978933,-0.980089,5591364.000000,1673607155.403655
1673611763.236243,,,,-0.964773,-0.964728,5591365.000000,1673607155.404662
1673611763.236401,,,,-0.921860,-0.920974,5591366.000000,1673607155.405669
1673611763.236412,,,,-0.785142,-0.783318,5591367.000000,1673607155.406676
1673611763.236443,,,,-0.590750,-0.589695,5591368.000000,1673607155.407683
1673611763.243367,,,,-0.436434,-0.437014,5591369.000000,1673607155.408690
1673611763.243897,,,,-0.384626,-0.386168,5591370.000000,1673607155.409698
1673611763.243994,,,,-0.466076,-0.465598,5591371.000000,1673607155.410705
1673611763.246814,83.138176,4521348.000000,1673611763.212134,,,,
1673611763.247551,83.011551,4521349.000000,1673611763.213134,,,,
1673611763.247565,82.939201,4521350.000000,1673611763.214134,,,,
1673611763.247576,82.848740,4521351.000000,1673611763.215134,,,,
1673611763.247632,82.776382,4521352.000000,1673611763.216134,,,,
1673611763.247642,82.776382,4521353.000000,1673611763.217134,,,,
1673611763.247649,82.649757,4521354.000000,1673611763.218134,,,,
1673611763.247667,82.595490,4521355.000000,1673611763.219134,,,,
1673611763.247678,82.559296,4521356.000000,1673611763.220134,,,,
1673611763.247718,82.450760,4521357.000000,1673611763.221134,,,,
1673611763.247726,81.709061,4521372.000000,1673611763.236134,,,,
1673611763.247732,81.709061,4521373.000000,1673611763.237134,,,,
1673611763.247740,81.672882,4521374.000000,1673611763.238134,,,,
1673611763.247761,81.654793,4521375.000000,1673611763.239134,,,,
1673611763.247774,81.654793,4521376.000000,1673611763.240134,,,,
1673611763.247835,81.564346,4521377.000000,1673611763.241134,,,,
1673611763.247846,81.546257,4521378.000000,1673611763.242134,,,,
1673611763.247852,81.528168,4521379.000000,1673611763.243134,,,,
1673611763.247864,81.510078,4521380.000000,1673611763.244134,,,,
1673611763.247874,81.455795,4521381.000000,1673611763.245134,,,,
1673611763.249487,,,,-0.675541,-0.674654,5591372.000000,1673607155.411712
1673611763.249907,,,,-1.020427,-1.021223,5591373.000000,1673607155.412719
1673611763.250031,,,,-1.115675,-1.117553,5591374.000000,1673607155.413726
1673611763.250244,,,,-0.958811,-0.959463,5591375.000000,1673607155.414733
1673611763.250468,,,,-0.808533,-0.804762,5591376.000000,1673607155.415740
1673611763.250547,,,,-0.801345,-0.801084,5591377.000000,1673607155.416747
1673611763.250618,,,,-0.805216,-0.805291,5591378.000000,1673607155.417754
1673611763.251785,,,,-0.865125,-0.866618,5591379.000000,1673607155.418761
1673611763.252342,,,,-1.002877,-1.005260,5591380.000000,1673607155.419768
1673611763.252377,,,,-1.102501,-1.102384,5591381.000000,1673607155.420775
1673611763.252512,,,,-1.059541,-1.062549,5591382.000000,1673607155.421782
1673611763.252524,,,,-1.017782,-1.016944,5591383.000000,1673607155.422790
1673611763.252551,,,,-0.979317,-0.979753,5591384.000000,1673607155.423797
1673611763.252561,,,,-1.023648,-1.022449,5591385.000000,1673607155.424804
1673611763.252791,,,,-1.002589,-1.001173,5591386.000000,1673607155.425811
1673611763.256683,,,,-0.850628,-0.849718,5591387.000000,1673607155.426818
1673611763.257203,,,,-0.742614,-0.743002,5591388.000000,1673607155.427825
1673611763.257215,,,,-0.725882,-0.726678,5591389.000000,1673607155.428832
1673611763.257229,,,,-0.788171,-0.788102,5591390.000000,1673607155.429839
1673611763.259199,,,,-0.890415,-0.889865,5591391.000000,1673607155.430846
1673611763.259220,,,,-0.976120,-0.974704,5591392.000000,1673607155.431853
1673611763.259227,,,,-0.970615,-0.968622,5591393.000000,1673607155.432860
1673611763.264131,,,,-0.903565,-0.902174,5591394.000000,1673607155.433867
1673611763.264354,,,,-0.858513,-0.860945,5591395.000000,1673607155.434875
1673611763.264588,,,,-0.794782,-0.795963,5591396.000000,1673607155.435882
1673611763.264601,,,,-0.690590,-0.689704,5591397.000000,1673607155.436889
1673611763.266613,,,,-0.581855,-0.580680,5591398.000000,1673607155.437896
1673611763.266724,,,,-0.497400,-0.494206,5591399.000000,1673607155.438903
1673611763.266734,,,,-0.520696,-0.519881,5591400.000000,1673607155.439910
1673611763.266903,,,,-0.735210,-0.734563,5591401.000000,1673607155.440917
1673611763.271514,,,,-1.072162,-1.071107,5591402.000000,1673607155.441924
1673611763.271779,,,,-1.249148,-1.250089,5591403.000000,1673607155.442931
1673611763.274291,,,,-1.254629,-1.256412,5591404.000000,1673607155.443938
1673611763.274425,,,,-1.163179,-1.163759,5591405.000000,1673607155.444945
1673611763.274569,,,,-1.076393,-1.076997,5591406.000000,1673607155.445952
1673611763.274697,,,,-0.960614,-0.962828,5591407.000000,1673607155.446959
1673611763.274791,,,,-0.708356,-0.709393,5591408.000000,1673607155.447967
1673611763.274992,,,,-0.529158,-0.530267,5591409.000000,1673607155.448974
1673611763.274999,,,,-0.576374,-0.576858,5591410.000000,1673607155.449981
1673611763.275004,,,,-0.688980,-0.687949,5591411.000000,1673607155.450988
1673611763.279052,,,,-0.776728,-0.778726,5591412.000000,1673607155.451995
1673611763.279363,,,,-0.854835,-0.857314,5591413.000000,1673607155.453002
1673611763.279661,,,,-0.886208,-0.890779,5591414.000000,1673607155.454009
1673611763.281600,,,,-0.875294,-0.875922,5591415.000000,1673607155.455016
1673611763.281996,,,,-0.853152,-0.851905,5591416.000000,1673607155.456023
1673611763.282016,,,,-0.809230,-0.807070,5591417.000000,1673607155.457030
1673611763.282032,,,,-0.758000,-0.759205,5591418.000000,1673607155.458037
1673611763.294735,,,,-0.700639,-0.700955,5591419.000000,1673607155.459044
1673611763.295521,,,,-0.594957,-0.591907,5591420.000000,1673607155.460052
1673611763.295546,,,,-0.517450,-0.515939,5591421.000000,1673607155.461059
1673611763.295802,,,,-0.554401,-0.552192,5591422.000000,1673607155.462066
1673611763.296149,,,,-0.601833,-0.600730,5591423.000000,1673607155.463073
1673611763.296482,,,,-0.744321,-0.744156,5591424.000000,1673607155.464080
1673611763.296843,,,,-0.842527,-0.840222,5591425.000000,1673607155.465087
1673611763.297267,,,,-0.892098,-0.891668,5591426.000000,1673607155.466094
1673611763.297632,,,,-1.008767,-1.010116,5591427.000000,1673607155.467101
1673611763.297884,,,,-1.060815,-1.060241,5591428.000000,1673607155.468108
1673611763.303203,,,,-1.013286,-1.015694,5591429.000000,1673607155.469115
1673611763.303265,,,,-0.958378,-0.959679,5591430.000000,1673607155.470122
1673611763.303414,,,,-0.920923,-0.920878,5591431.000000,1673607155.471129
1673611763.303698,,,,-0.941357,-0.938644,5591432.000000,1673607155.472136
1673611763.303845,,,,-0.975591,-0.976988,5591433.000000,1673607155.473144
1673611763.304058,,,,-0.971192,-0.972709,5591434.000000,1673607155.474151
1673611763.304236,,,,-0.925178,-0.924171,5591435.000000,1673607155.475158
1673611763.304380,,,,-0.876352,-0.876691,5591436.000000,1673607155.476165
1673611763.308997,,,,-0.808798,-0.807430,5591437.000000,1673607155.477172
1673611763.309206,,,,-0.737950,-0.736078,5591438.000000,1673607155.478179
1673611763.309217,,,,-0.745956,-0.745286,5591439.000000,1673607155.479186
1673611763.311022,81.491989,4521382.000000,1673611763.250187,,,,
1673611763.311910,,,,-0.786945,-0.785698,5591440.000000,1673607155.480193
1673611763.312050,81.491989,4521383.000000,1673611763.251187,,,,
1673611763.312304,,,,-0.789878,-0.788102,5591441.000000,1673607155.481200
1673611763.312483,,,,-0.808942,-0.807214,5591442.000000,1673607155.482207
1673611763.312496,,,,-0.845411,-0.845655,5591443.000000,1673607155.483214
1673611763.312502,,,,-0.850772,-0.850727,5591444.000000,1673607155.484221
1673611763.312539,81.491989,4521384.000000,1673611763.252187,,,,
1673611763.312544,83.065819,4521433.000000,1673611763.301187,,,,
1673611763.312589,83.120087,4521434.000000,1673611763.302187,,,,
1673611763.312595,83.192459,4521435.000000,1673611763.303187,,,,
1673611763.312598,83.192459,4521436.000000,1673611763.304187,,,,
1673611763.312602,83.282906,4521437.000000,1673611763.305187,,,,
1673611763.312606,83.300995,4521438.000000,1673611763.306187,,,,
1673611763.312614,83.300995,4521439.000000,1673611763.307187,,,,
1673611763.312647,83.373352,4521440.000000,1673611763.308187,,,,
1673611763.312673,83.427635,4521441.000000,1673611763.309187,,,,
1673611763.312678,83.445724,4521442.000000,1673611763.310187,,,,
1673611763.312717,,,,-0.865774,-0.866113,5591445.000000,1673607155.485229
1673611763.312721,,,,-0.876448,-0.878206,5591446.000000,1673607155.486236
1673611763.312734,,,,-0.872649,-0.874143,5591447.000000,1673607155.487243
1673611763.316675,,,,-0.847046,-0.848564,5591448.000000,1673607155.488250
1673611763.316690,,,,-0.867216,-0.869166,5591449.000000,1673607155.489257
1673611763.316715,,,,-0.842118,-0.844645,5591450.000000,1673607155.490264
1673611763.319569,,,,-0.749105,-0.750070,5591451.000000,1673607155.491271
1673611763.319578,,,,-0.712275,-0.710956,5591452.000000,1673607155.492278
1673611763.319965,,,,-0.720425,-0.719875,5591453.000000,1673607155.493285
1673611763.319971,,,,-0.754105,-0.753772,5591454.000000,1673607155.494292
1673611763.320151,,,,-0.806514,-0.808055,5591455.000000,1673607155.495299
1673611763.320224,,,,-0.874645,-0.875537,5591456.000000,1673607155.496306
1673611763.320276,,,,-0.877001,-0.878061,5591457.000000,1673607155.497313
1673611763.324097,,,,-0.809495,-0.810051,5591458.000000,1673607155.498321
1673611763.324332,,,,-0.753072,-0.751680,5591459.000000,1673607155.499328
1673611763.324640,,,,-0.780935,-0.780553,5591460.000000,1673607155.500335
1673611763.324702,,,,-0.814832,-0.813993,5591461.000000,1673607155.501342
1673611763.326520,,,,-0.839954,-0.842505,5591462.000000,1673607155.502349
1673611763.326717,,,,-0.904070,-0.902030,5591463.000000,1673607155.503356
1673611763.326976,,,,-0.943809,-0.940447,5591464.000000,1673607155.504363
1673611763.334771,,,,-0.924673,-0.920301,5591465.000000,1673607155.505370
1673611763.335420,,,,-0.876520,-0.873446,5591466.000000,1673607155.506377
1673611763.335436,,,,-0.887074,-0.885658,5591467.000000,1673607155.507384
1673611763.335948,,,,-0.906667,-0.908112,5591468.000000,1673607155.508391
1673611763.336267,,,,-0.909287,-0.908569,5591469.000000,1673607155.509398
1673611763.336530,,,,-0.945276,-0.948404,5591470.000000,1673607155.510406
1673611763.336751,,,,-1.003670,-1.004875,5591471.000000,1673607155.511413
1673611763.339592,,,,-1.004969,-1.008145,5591472.000000,1673607155.512420
1673611763.339611,,,,-0.877794,-0.877316,5591473.000000,1673607155.513427
1673611763.339624,,,,-0.623782,-0.625588,5591474.000000,1673607155.514434
1673611763.341744,,,,-0.360321,-0.359964,5591475.000000,1673607155.515441
1673611763.342026,,,,-0.169920,-0.167038,5591476.000000,1673607155.516448
1673611763.342124,,,,-0.147851,-0.144849,5591477.000000,1673607155.517455
1673611763.342604,,,,-0.370635,-0.372248,5591478.000000,1673607155.518462
1673611763.342829,,,,-0.766486,-0.770793,5591479.000000,1673607155.519469
1673611763.342882,,,,-1.155967,-1.155922,5591480.000000,1673607155.520476
1673611763.342912,,,,-1.325381,-1.327764,5591481.000000,1673607155.521483
1673611763.355525,,,,-1.308240,-1.309565,5591482.000000,1673607155.522491
1673611763.355543,,,,-1.069662,-1.067140,5591483.000000,1673607155.523498
1673611763.355843,,,,-0.870894,-0.868445,5591484.000000,1673607155.524505
1673611763.355945,,,,-0.848248,-0.849237,5591485.000000,1673607155.525512
1673611763.364531,83.445724,4521443.000000,1673611763.303967,,,,
1673611763.364650,83.536171,4521444.000000,1673611763.304967,,,,
1673611763.364808,83.590439,4521445.000000,1673611763.305967,,,,
1673611763.364817,83.572350,4521446.000000,1673611763.306967,,,,
1673611763.365403,83.626617,4521447.000000,1673611763.307967,,,,
1673611763.365413,84.277870,4521494.000000,1673611763.354967,,,,
1673611763.365418,84.295959,4521495.000000,1673611763.355967,,,,
1673611763.365432,84.350227,4521496.000000,1673611763.356967,,,,
1673611763.365442,84.259781,4521497.000000,1673611763.357967,,,,
1673611763.365479,84.295959,4521498.000000,1673611763.358967,,,,
1673611763.365489,84.350227,4521499.000000,1673611763.359967,,,,
1673611763.365500,84.368317,4521500.000000,1673611763.360967,,,,
1673611763.365507,84.368317,4521501.000000,1673611763.361967,,,,
1673611763.365513,84.368317,4521502.000000,1673611763.362967,,,,
1673611763.365586,84.368317,4521503.000000,1673611763.363967,,,,
1673611763.366252,,,,-0.924072,-0.928210,5591486.000000,1673607155.526519
1673611763.366350,,,,-0.989414,-0.995283,5591487.000000,1673607155.527526
1673611763.366363,,,,-0.956671,-0.958766,5591488.000000,1673607155.528533
1673611763.366372,,,,-0.908325,-0.906622,5591489.000000,1673607155.529540
1673611763.369050,,,,-0.881713,-0.880393,5591490.000000,1673607155.530547
1673611763.369328,,,,-0.846373,-0.845703,5591491.000000,1673607155.531554
1673611763.369764,,,,-0.833247,-0.834067,5591492.000000,1673607155.532561
1673611763.369777,,,,-0.843416,-0.844308,5591493.000000,1673607155.533568
1673611763.373626,,,,-0.826347,-0.827721,5591494.000000,1673607155.534575
1673611763.373762,,,,-0.807307,-0.809089,5591495.000000,1673607155.535583
1673611763.373934,,,,-0.831155,-0.831279,5591496.000000,1673607155.536590
1673611763.374097,,,,-0.897676,-0.897534,5591497.000000,1673607155.537597
1673611763.374313,,,,-0.927029,-0.928931,5591498.000000,1673607155.538604
1673611763.374634,,,,-0.891593,-0.890635,5591499.000000,1673607155.539611
1673611763.374892,,,,-0.845604,-0.846929,5591500.000000,1673607155.540618
1673611763.376659,,,,-0.791344,-0.791828,5591501.000000,1673607155.541625
1673611763.376972,,,,-0.759539,-0.759493,5591502.000000,1673607155.542632
1673611763.377438,,,,-0.781584,-0.781418,5591503.000000,1673607155.543639
1673611763.377463,,,,-0.819928,-0.817239,5591504.000000,1673607155.544646
1673611763.381429,,,,-0.883347,-0.884192,5591505.000000,1673607155.545653
1673611763.381849,,,,-0.923327,-0.925734,5591506.000000,1673607155.546660
1673611763.382022,,,,-0.885030,-0.886428,5591507.000000,1673607155.547668
1673611763.382329,,,,-0.825698,-0.826134,5591508.000000,1673607155.548675
1673611763.382344,,,,-0.675180,-0.676337,5591509.000000,1673607155.549682
1673611763.382366,,,,-0.445593,-0.447784,5591510.000000,1673607155.550689
1673611763.384348,,,,-0.395372,-0.398741,5591511.000000,1673607155.551696
1673611763.384369,,,,-0.476317,-0.476729,5591512.000000,1673607155.552703
1673611763.384463,,,,-0.626090,-0.626309,5591513.000000,1673607155.553710
1673611763.384473,,,,-0.878395,-0.879552,5591514.000000,1673607155.554717
1673611763.388743,,,,-1.208496,-1.208643,5591515.000000,1673607155.555724
1673611763.388751,,,,-1.199384,-1.198522,5591516.000000,1673607155.556731
1673611763.388764,,,,-0.955709,-0.955304,5591517.000000,1673607155.557738
1673611763.391858,,,,-0.840387,-0.841856,5591518.000000,1673607155.558745
1673611763.391872,,,,-0.875775,-0.878927,5591519.000000,1673607155.559752
1673611763.391884,,,,-0.902436,-0.904891,5591520.000000,1673607155.560760
1673611763.391999,,,,-0.915730,-0.917752,5591521.000000,1673607155.561767
1673611763.394424,,,,-0.860942,-0.863661,5591522.000000,1673607155.562774
1673611763.394440,,,,-0.866543,-0.865584,5591523.000000,1673607155.563781
1673611763.394562,,,,-0.930275,-0.932537,5591524.000000,1673607155.564788
1673611763.394578,,,,-0.931909,-0.934749,5591525.000000,1673607155.565795
1673611763.399816,,,,-0.935828,-0.938836,5591526.000000,1673607155.566802
1673611763.399928,,,,-0.949555,-0.950279,5591527.000000,1673607155.567809
1673611763.400095,,,,-0.963499,-0.962660,5591528.000000,1673607155.568816
1673611763.400379,,,,-0.967129,-0.967396,5591529.000000,1673607155.569823
1673611763.400626,,,,-0.925226,-0.925542,5591530.000000,1673607155.570830
1673611763.400860,,,,-0.822525,-0.820316,5591531.000000,1673607155.571837
1673611763.401784,,,,-0.738984,-0.736270,5591532.000000,1673607155.572845
1673611763.402087,,,,-0.748119,-0.746055,5591533.000000,1673607155.573852
1673611763.402105,,,,-0.822741,-0.822912,5591534.000000,1673607155.574859
1673611763.402344,,,,-0.900128,-0.903208,5591535.000000,1673607155.575866
1673611763.402590,,,,-0.923351,-0.924027,5591536.000000,1673607155.576873
1673611763.402761,,,,-0.877818,-0.877797,5591537.000000,1673607155.577880
1673611763.402987,,,,-0.833824,-0.833947,5591538.000000,1673607155.578887
1673611763.406647,,,,-0.764924,-0.764422,5591539.000000,1673607155.579894
1673611763.406977,,,,-0.706265,-0.706148,5591540.000000,1673607155.580901
1673611763.407289,,,,-0.662679,-0.663211,5591541.000000,1673607155.581908
1673611763.407396,,,,-0.671959,-0.674678,5591542.000000,1673607155.582915
1673611763.409368,,,,-0.732301,-0.731558,5591543.000000,1673607155.583922
1673611763.410119,,,,-0.816827,-0.814907,5591544.000000,1673607155.584929
1673611763.410297,,,,-0.888732,-0.889120,5591545.000000,1673607155.585937
1673611763.410607,,,,-0.919096,-0.919051,5591546.000000,1673607155.586944
1673611763.410822,,,,-1.008935,-1.006198,5591547.000000,1673607155.587951
1673611763.410986,,,,-1.000689,-0.998625,5591548.000000,1673607155.588958
1673611763.410998,,,,-0.922533,-0.918714,5591549.000000,1673607155.589965
1673611763.411236,,,,-0.891257,-0.890514,5591550.000000,1673607155.590972
1673611763.423209,,,,-0.879188,-0.877460,5591551.000000,1673607155.591979
1673611763.423247,,,,-0.884622,-0.882269,5591552.000000,1673607155.592986
1673611763.423257,,,,-0.859355,-0.859911,5591553.000000,1673607155.593993
1673611763.430563,,,,-0.762808,-0.760551,5591554.000000,1673607155.595000
1673611763.430627,,,,-0.668497,-0.667514,5591555.000000,1673607155.596007
1673611763.430743,,,,-0.702202,-0.701748,5591556.000000,1673607155.597014
1673611763.436888,,,,-0.733887,-0.735116,5591557.000000,1673607155.598022
1673611763.437341,,,,-0.811202,-0.810459,5591558.000000,1673607155.599029
1673611763.438051,,,,-0.898277,-0.898280,5591559.000000,1673607155.600036
1673611763.438071,,,,-0.907244,-0.908881,5591560.000000,1673607155.601043
1673611763.439521,,,,-0.873347,-0.872652,5591561.000000,1673607155.602050
1673611763.440414,,,,-0.850893,-0.850006,5591562.000000,1673607155.603057
1673611763.440513,84.386406,4521504.000000,1673611763.378939,,,,
1673611763.440638,84.350227,4521505.000000,1673611763.379939,,,,
1673611763.440740,84.386406,4521506.000000,1673611763.380939,,,,
1673611763.441036,,,,-0.852840,-0.852771,5591563.000000,1673607155.604064
1673611763.441063,,,,-0.855460,-0.856545,5591564.000000,1673607155.605071
