__time,/gdx/grip_force_stream/grip_force,/gdx/grip_force_stream/header/seq,/gdx/grip_force_stream/header/stamp,/shimmer0/emg_stream/emg_ch1,/shimmer0/emg_stream/emg_ch2,/shimmer0/emg_stream/header/seq,/shimmer0/emg_stream/header/stamp
1673605738.850793,,,,5.591796,5.594578,2592927.000000,1673603690.864135
1673605738.850919,,,,5.593791,5.597415,2592928.000000,1673603690.865142
1673605738.851129,,,,5.597806,5.600180,2592929.000000,1673603690.866149
1673605738.851278,,,,5.597902,5.601742,2592930.000000,1673603690.867156
1673605738.851434,,,,5.595210,5.599651,2592931.000000,1673603690.868163
1673605738.851551,,,,5.592181,5.597126,2592932.000000,1673603690.869170
1673605738.851703,,,,5.589392,5.592054,2592933.000000,1673603690.870177
1673605738.857285,,,,5.589633,5.588424,2592934.000000,1673603690.871184
1673605738.857327,,,,5.588791,5.589409,2592935.000000,1673603690.872191
1673605738.857877,,,,5.591219,5.593040,2592936.000000,1673603690.873198
1673605738.858471,,,,5.588791,5.591837,2592937.000000,1673603690.874205
1673605738.859117,,,,5.583694,5.586669,2592938.000000,1673603690.875212
1673605738.859384,,,,5.565592,5.568783,2592939.000000,1673603690.876220
1673605738.859403,,,,5.544244,5.545319,2592940.000000,1673603690.877227
1673605738.859972,,,,5.536743,5.537338,2592941.000000,1673603690.878234
1673605738.859981,,,,5.525396,5.528852,2592942.000000,1673603690.879241
1673605738.860279,,,,5.522535,5.526976,2592943.000000,1673603690.880248
1673605738.860406,,,,5.505803,5.508369,2592944.000000,1673603690.881255
1673605738.860562,-0.347735,593190.000000,1673605738.822140,,,,
1673605738.860810,-0.347735,593191.000000,1673605738.823140,,,,
1673605738.860822,,,,5.488037,5.488439,2592945.000000,1673603690.882262
1673605738.860931,,,,5.476233,5.478102,2592946.000000,1673603690.883269
1673605738.861386,,,,5.470752,5.468966,2592947.000000,1673603690.884276
1673605738.861495,-0.347735,593192.000000,1673605738.824140,,,,
1673605738.861512,-0.383913,593193.000000,1673605738.825140,,,,
1673605738.861520,-0.365824,593194.000000,1673605738.826140,,,,
1673605738.861527,-0.365824,593195.000000,1673605738.827140,,,,
1673605738.861533,-0.329646,593196.000000,1673605738.828140,,,,
1673605738.861563,-0.329646,593197.000000,1673605738.829140,,,,
1673605738.861575,-0.311557,593198.000000,1673605738.830140,,,,
1673605738.861590,-0.293468,593216.000000,1673605738.848140,,,,
1673605738.861597,-0.275379,593217.000000,1673605738.849140,,,,
1673605738.861602,-0.275379,593218.000000,1673605738.850140,,,,
1673605738.861606,-0.239193,593219.000000,1673605738.851140,,,,
1673605738.861633,-0.239193,593220.000000,1673605738.852140,,,,
1673605738.861643,-0.275379,593221.000000,1673605738.853140,,,,
1673605738.861650,-0.257290,593222.000000,1673605738.854140,,,,
1673605738.861660,-0.203014,593223.000000,1673605738.855140,,,,
1673605738.861669,-0.221104,593224.000000,1673605738.856140,,,,
1673605738.861686,-0.184925,593225.000000,1673605738.857140,,,,
1673605738.864123,,,,5.438417,5.438747,2592948.000000,1673603690.885283
1673605738.864250,,,,5.451664,5.452859,2592949.000000,1673603690.886290
1673605738.864520,,,,5.498951,5.498656,2592950.000000,1673603690.887297
1673605738.864607,,,,5.531310,5.530198,2592951.000000,1673603690.888304
1673605738.866429,,,,5.543499,5.545680,2592952.000000,1673603690.889312
1673605738.866652,,,,5.558741,5.562676,2592953.000000,1673603690.890319
1673605738.866855,,,,5.594681,5.598064,2592954.000000,1673603690.891326
1673605738.871559,,,,5.601292,5.604795,2592955.000000,1673603690.892333
1673605738.871886,,,,5.593719,5.597319,2592956.000000,1673603690.893340
1673605738.871902,,,,5.591027,5.592174,2592957.000000,1673603690.894347
1673605738.871909,,,,5.580089,5.581957,2592958.000000,1673603690.895354
1673605738.874360,,,,5.570159,5.571499,2592959.000000,1673603690.896361
1673605738.874375,,,,5.568116,5.569768,2592960.000000,1673603690.897368
1673605738.874992,,,,5.570376,5.575058,2592961.000000,1673603690.898375
1673605738.875015,,,,5.566746,5.568374,2592962.000000,1673603690.899382
1673605738.875082,,,,5.561793,5.561907,2592963.000000,1673603690.900389
1673605738.875097,,,,5.549773,5.553397,2592964.000000,1673603690.901397
1673605738.875108,,,,5.536527,5.541352,2592965.000000,1673603690.902404
1673605738.879553,,,,5.532777,5.536496,2592966.000000,1673603690.903411
1673605738.879830,,,,5.527896,5.533587,2592967.000000,1673603690.904418
1673605738.880326,,,,5.523593,5.527048,2592968.000000,1673603690.905425
1673605738.880644,,,,5.520516,5.521760,2592969.000000,1673603690.906432
1673605738.880862,,,,5.514746,5.519043,2592970.000000,1673603690.907439
1673605738.881130,,,,5.509914,5.515388,2592971.000000,1673603690.908446
1673605738.881547,,,,5.510563,5.512600,2592972.000000,1673603690.909453
1673605738.881772,,,,5.509241,5.509018,2592973.000000,1673603690.910460
1673605738.882253,,,,5.507077,5.509162,2592974.000000,1673603690.911467
1673605738.882414,,,,5.509121,5.510557,2592975.000000,1673603690.912474
1673605738.887151,,,,5.505010,5.507744,2592976.000000,1673603690.913481
1673605738.887169,,,,5.500226,5.501589,2592977.000000,1673603690.914489
1673605738.887545,,,,5.496331,5.495723,2592978.000000,1673603690.915496
1673605738.887763,,,,5.492436,5.492094,2592979.000000,1673603690.916503
1673605738.888216,,,,5.486258,5.486276,2592980.000000,1673603690.917510
1673605738.888481,,,,5.471233,5.472789,2592981.000000,1673603690.918517
1673605738.888621,,,,5.461280,5.465985,2592982.000000,1673603690.919524
1673605738.889738,,,,5.457554,5.461538,2592983.000000,1673603690.920531
1673605738.890055,,,,5.459934,5.463942,2592984.000000,1673603690.921538
1673605738.890141,,,,5.466377,5.470289,2592985.000000,1673603690.922545
1673605738.890323,,,,5.474526,5.474928,2592986.000000,1673603690.923552
1673605738.890692,,,,5.485921,5.488584,2592987.000000,1673603690.924559
1673605738.890960,,,,5.486426,5.488584,2592988.000000,1673603690.925566
1673605738.891241,,,,5.497269,5.498368,2592989.000000,1673603690.926574
1673605738.891651,,,,5.500971,5.500748,2592990.000000,1673603690.927581
1673605738.891968,,,,5.488734,5.489713,2592991.000000,1673603690.928588
1673605738.892159,,,,5.488494,5.488824,2592992.000000,1673603690.929595
1673605738.892491,,,,5.500105,5.500724,2592993.000000,1673603690.930602
1673605738.892507,,,,5.507919,5.509667,2592994.000000,1673603690.931609
1673605738.896482,,,,5.500514,5.502888,2592995.000000,1673603690.932616
1673605738.896911,,,,5.496932,5.499498,2592996.000000,1673603690.933623
1673605738.910806,,,,5.498158,5.498681,2592997.000000,1673603690.934630
1673605738.910864,,,,5.500394,5.501686,2592998.000000,1673603690.935637
1673605738.910992,,,,5.503351,5.505965,2592999.000000,1673603690.936644
1673605738.911178,,,,5.502510,5.503897,2593000.000000,1673603690.937651
1673605738.911365,,,,5.497797,5.498609,2593001.000000,1673603690.938658
1673605738.911417,,,,5.494456,5.496276,2593002.000000,1673603690.939666
1673605738.911615,,,,5.476546,5.478703,2593003.000000,1673603690.940673
1673605738.911787,,,,5.462218,5.467043,2593004.000000,1673603690.941680
1673605738.920376,,,,5.461977,5.468582,2593005.000000,1673603690.942687
1673605738.920627,,,,5.466906,5.470793,2593006.000000,1673603690.943694
1673605738.920915,,,,5.476714,5.479064,2593007.000000,1673603690.944701
1673605738.921151,,,,5.491499,5.493007,2593008.000000,1673603690.945708
1673605738.921677,,,,5.515371,5.517096,2593009.000000,1673603690.946715
1673605738.922403,,,,5.515876,5.517817,2593010.000000,1673603690.947722
1673605738.922493,,,,5.506548,5.507672,2593011.000000,1673603690.948729
1673605738.922651,,,,5.501235,5.502768,2593012.000000,1673603690.949736
1673605738.924228,,,,5.498471,5.504186,2593013.000000,1673603690.950743
1673605738.924320,,,,5.497629,5.500219,2593014.000000,1673603690.951751
1673605738.924345,,,,5.484239,5.486251,2593015.000000,1673603690.952758
1673605738.924373,,,,5.473589,5.474255,2593016.000000,1673603690.953765
1673605738.924647,,,,5.474238,5.473654,2593017.000000,1673603690.954772
1673605738.924672,,,,5.489336,5.493079,2593023.000000,1673603690.960814
1673605738.924685,,,,5.480440,5.481732,2593024.000000,1673603690.961821
1673605738.924692,,,,5.457602,5.458316,2593025.000000,1673603690.962828
1673605738.924698,,,,5.468709,5.470385,2593026.000000,1673603690.963835
1673605738.925402,,,,5.487172,5.486876,2593027.000000,1673603690.964843
1673605738.925424,,,,5.501259,5.501301,2593028.000000,1673603690.965850
1673605738.925460,,,,5.527488,5.530510,2593029.000000,1673603690.966857
1673605738.925466,,,,5.554822,5.556907,2593030.000000,1673603690.967864
1673605738.925471,,,,5.543980,5.544430,2593031.000000,1673603690.968871
1673605738.925491,,,,5.532536,5.536039,2593032.000000,1673603690.969878
1673605738.926594,0.032160,593277.000000,1673605738.914658,,,,
1673605738.926605,-0.004027,593278.000000,1673605738.915658,,,,
1673605738.926617,0.068338,593279.000000,1673605738.916658,,,,
1673605738.926623,0.050249,593280.000000,1673605738.917658,,,,
1673605738.926628,0.068338,593281.000000,1673605738.918658,,,,
1673605738.926637,0.050249,593282.000000,1673605738.919658,,,,
1673605738.926645,0.050249,593283.000000,1673605738.920658,,,,
1673605738.926685,0.086427,593284.000000,1673605738.921658,,,,
1673605738.926698,0.104516,593285.000000,1673605738.922658,,,,
1673605738.926709,0.104516,593286.000000,1673605738.923658,,,,
1673605738.939856,,,,5.522511,5.527481,2593033.000000,1673603690.970885
1673605738.939883,,,,5.511861,5.515918,2593034.000000,1673603690.971892
1673605738.940044,,,,5.502149,5.504258,2593035.000000,1673603690.972899
1673605738.940055,,,,5.494697,5.496517,2593036.000000,1673603690.973906
1673605738.946584,,,,5.477940,5.479039,2593037.000000,1673603690.974913
1673605738.946738,,,,5.458611,5.460312,2593038.000000,1673603690.975920
1673605738.946933,,,,5.456688,5.456898,2593039.000000,1673603690.976928
1673605738.949731,,,,5.465367,5.464783,2593040.000000,1673603690.977935
1673605738.950278,,,,5.490970,5.492694,2593042.000000,1673603690.979949
1673605738.950290,,,,5.507846,5.508729,2593043.000000,1673603690.980956
1673605738.950317,,,,5.514169,5.515965,2593044.000000,1673603690.981963
1673605738.950355,,,,5.530132,5.532482,2593045.000000,1673603690.982970
1673605738.950402,,,,5.542224,5.542434,2593046.000000,1673603690.983977
1673605738.950410,,,,5.535181,5.534213,2593047.000000,1673603690.984984
1673605738.950413,,,,5.522391,5.522408,2593048.000000,1673603690.985991
1673605738.950540,,,,5.505515,5.506542,2593049.000000,1673603690.986998
1673605738.950552,,,,5.479671,5.481684,2593050.000000,1673603690.988005
1673605738.950559,,,,5.465415,5.470913,2593051.000000,1673603690.989012
1673605738.971299,,,,5.471137,5.476058,2593052.000000,1673603690.990020
1673605738.971331,,,,5.480128,5.483848,2593053.000000,1673603690.991027
1673605738.972291,,,,5.491331,5.494497,2593054.000000,1673603690.992034
1673605738.972533,,,,5.501284,5.503008,2593055.000000,1673603690.993041
1673605738.972647,,,,5.521790,5.524284,2593056.000000,1673603690.994048
1673605738.972678,,,,5.526165,5.527000,2593057.000000,1673603690.995055
1673605738.981812,0.412046,593338.000000,1673605738.970188,,,,
1673605738.981835,0.430135,593339.000000,1673605738.971188,,,,
1673605738.981854,0.412046,593340.000000,1673605738.972188,,,,
1673605738.981865,0.375868,593341.000000,1673605738.973188,,,,
1673605738.981878,0.448233,593342.000000,1673605738.974188,,,,
1673605738.981885,0.502500,593343.000000,1673605738.975188,,,,
1673605738.981890,0.466322,593344.000000,1673605738.976188,,,,
1673605738.981897,0.520589,593345.000000,1673605738.977188,,,,
1673605738.981915,0.412046,593346.000000,1673605738.978188,,,,
1673605738.981931,0.448233,593347.000000,1673605738.979188,,,,
1673605738.984154,,,,5.531455,5.532121,2593058.000000,1673603690.996062
1673605738.984349,,,,5.536239,5.536376,2593059.000000,1673603690.997069
1673605738.984598,,,,5.532512,5.533419,2593060.000000,1673603690.998076
1673605738.984605,,,,5.530301,5.531832,2593061.000000,1673603690.999083
1673605738.986591,,,,5.526430,5.529981,2593062.000000,1673603691.000090
1673605738.986607,,,,5.522944,5.527289,2593063.000000,1673603691.001097
1673605738.986767,,,,5.520396,5.523250,2593064.000000,1673603691.002105
1673605738.991495,,,,5.517030,5.519596,2593065.000000,1673603691.003112
1673605738.991580,,,,5.516694,5.518105,2593066.000000,1673603691.004119
1673605738.991719,,,,5.516669,5.515797,2593067.000000,1673603691.005126
1673605738.991847,,,,5.516742,5.516447,2593068.000000,1673603691.006133
1673605738.993857,,,,5.516669,5.519475,2593069.000000,1673603691.007140
1673605738.994021,,,,5.514458,5.515990,2593070.000000,1673603691.008147
1673605738.994195,,,,5.510828,5.512744,2593071.000000,1673603691.009154
1673605738.994204,,,,5.510347,5.511398,2593072.000000,1673603691.010161
1673605739.001497,,,,5.508664,5.509860,2593073.000000,1673603691.011168
1673605739.001606,,,,5.491595,5.493199,2593074.000000,1673603691.012175
1673605739.001865,,,,5.472844,5.475722,2593075.000000,1673603691.013182
1673605739.006658,,,,5.477940,5.479544,2593076.000000,1673603691.014189
1673605739.006693,,,,5.483469,5.485651,2593077.000000,1673603691.015197
1673605739.006822,,,,5.493422,5.493103,2593078.000000,1673603691.016204
1673605739.038336,,,,5.500682,5.502863,2593079.000000,1673603691.017211
1673605739.038813,,,,5.515468,5.517168,2593080.000000,1673603691.018218
1673605739.039674,,,,5.494095,5.497142,2593081.000000,1673603691.019225
1673605739.039693,,,,5.456688,5.458557,2593082.000000,1673603691.020232
1673605739.044315,,,,5.446712,5.447090,2593083.000000,1673603691.021239
1673605739.044660,,,,5.458804,5.459615,2593084.000000,1673603691.022246
1673605739.044902,,,,5.472651,5.475169,2593085.000000,1673603691.023253
1673605739.047210,0.918573,593399.000000,1673605739.035226,,,,
1673605739.047239,0.900484,593400.000000,1673605739.036227,,,,
1673605739.047255,0.936662,593401.000000,1673605739.037226,,,,
1673605739.047263,0.900484,593402.000000,1673605739.038226,,,,
1673605739.047302,0.918573,593403.000000,1673605739.039226,,,,
1673605739.047313,0.972840,593404.000000,1673605739.040226,,,,
1673605739.047321,0.972840,593405.000000,1673605739.041226,,,,
1673605739.047339,0.972840,593406.000000,1673605739.042226,,,,
1673605739.047347,0.990929,593407.000000,1673605739.043226,,,,
1673605739.047382,0.990929,593408.000000,1673605739.044226,,,,
1673605739.051685,,,,5.487605,5.489978,2593086.000000,1673603691.024260
1673605739.052026,,,,5.523449,5.525942,2593087.000000,1673603691.025267
1673605739.052042,,,,5.558861,5.561354,2593088.000000,1673603691.026274
1673605739.052257,,,,5.569005,5.572173,2593089.000000,1673603691.027282
1673605739.061627,,,,5.564703,5.568326,2593090.000000,1673603691.028289
1673605739.061636,,,,5.552971,5.554358,2593091.000000,1673603691.029296
1673605739.061846,,,,5.538330,5.538035,2593092.000000,1673603691.030303
1673605739.062003,,,,5.527199,5.530246,2593093.000000,1673603691.031310
1673605739.067135,,,,5.525156,5.528250,2593094.000000,1673603691.032317
1673605739.067153,,,,5.521598,5.525365,2593095.000000,1673603691.033324
1673605739.067506,,,,5.522632,5.525245,2593096.000000,1673603691.034331
1673605739.068195,,,,5.519987,5.522889,2593097.000000,1673603691.035338
1673605739.068213,,,,5.518304,5.522216,2593098.000000,1673603691.036345
1673605739.068238,,,,5.517776,5.519957,2593099.000000,1673603691.037352
1673605739.068254,,,,5.517583,5.519283,2593100.000000,1673603691.038359
1673605739.069312,,,,5.517655,5.521688,2593101.000000,1673603691.039366
1673605739.069438,,,,5.515107,5.519115,2593102.000000,1673603691.040374
1673605739.069452,,,,5.503856,5.507816,2593103.000000,1673603691.041381
1673605739.074426,,,,5.495009,5.497094,2593104.000000,1673603691.042388
1673605739.074713,,,,5.492725,5.494040,2593105.000000,1673603691.043395
1673605739.074728,,,,5.495658,5.496204,2593106.000000,1673603691.044402
1673605739.074747,,,,5.481041,5.483343,2593107.000000,1673603691.045409
1673605739.076780,,,,5.447553,5.450431,2593108.000000,1673603691.046416
1673605739.076798,,,,5.423584,5.426126,2593109.000000,1673603691.047423
1673605739.076931,,,,5.427551,5.429564,2593110.000000,1673603691.048430
1673605739.090810,,,,5.444572,5.445503,2593111.000000,1673603691.049437
1673605739.092408,,,,5.460078,5.461634,2593112.000000,1673603691.050444
1673605739.092532,,,,5.492845,5.496469,2593113.000000,1673603691.051451
1673605739.092570,,,,5.525589,5.531640,2593114.000000,1673603691.052459
1673605739.092742,,,,5.523281,5.525101,2593115.000000,1673603691.053466
1673605739.092761,,,,5.513857,5.515148,2593116.000000,1673603691.054473
1673605739.092806,,,,5.497293,5.497791,2593117.000000,1673603691.055480
1673605739.092821,,,,5.485849,5.488559,2593118.000000,1673603691.056487
1673605739.097917,,,,5.482364,5.487117,2593119.000000,1673603691.057494
1673605739.098376,,,,5.481835,5.485987,2593120.000000,1673603691.058501
1673605739.098429,,,,5.486451,5.485097,2593121.000000,1673603691.059508
1673605739.100033,1.135650,593411.000000,1673605739.041183,,,,
1673605739.101065,0.972840,593412.000000,1673605739.042183,,,,
1673605739.101075,0.990929,593413.000000,1673605739.043183,,,,
1673605739.101080,0.990929,593414.000000,1673605739.044183,,,,
1673605739.101127,1.081383,593415.000000,1673605739.045183,,,,
1673605739.101224,1.009027,593416.000000,1673605739.046183,,,,
1673605739.101235,1.063294,593417.000000,1673605739.047183,,,,
1673605739.101241,1.081383,593418.000000,1673605739.048183,,,,
1673605739.101248,1.045205,593419.000000,1673605739.049183,,,,
1673605739.101258,1.063294,593420.000000,1673605739.050183,,,,
1673605739.101264,1.425100,593460.000000,1673605739.090183,,,,
1673605739.101276,1.461278,593461.000000,1673605739.091183,,,,
1673605739.101282,1.425100,593462.000000,1673605739.092183,,,,
1673605739.101289,1.388913,593463.000000,1673605739.093183,,,,
1673605739.101360,1.370824,593464.000000,1673605739.094183,,,,
1673605739.101371,1.479367,593465.000000,1673605739.095183,,,,
1673605739.101378,1.388913,593466.000000,1673605739.096183,,,,
1673605739.101383,1.425100,593467.000000,1673605739.097183,,,,
1673605739.101388,1.407002,593468.000000,1673605739.098183,,,,
1673605739.101400,1.352735,593469.000000,1673605739.099183,,,,
1673605739.121501,,,,5.498879,5.500676,2593122.000000,1673603691.060515
1673605739.121717,,,,5.509289,5.513922,2593123.000000,1673603691.061522
1673605739.121826,,,,5.512053,5.516038,2593124.000000,1673603691.062529
1673605739.122370,,,,5.503760,5.506614,2593125.000000,1673603691.063536
1673605739.122657,,,,5.480392,5.481227,2593126.000000,1673603691.064543
1673605739.123033,,,,5.469406,5.470769,2593127.000000,1673603691.065551
1673605739.123066,,,,5.463179,5.467524,2593128.000000,1673603691.066558
1673605739.123328,,,,5.466208,5.467091,2593129.000000,1673603691.067565
1673605739.123593,,,,5.465367,5.465649,2593130.000000,1673603691.068572
1673605739.123867,,,,5.475536,5.477164,2593131.000000,1673603691.069579
1673605739.124122,,,,5.487364,5.487718,2593132.000000,1673603691.070586
1673605739.124533,,,,5.485633,5.488199,2593133.000000,1673603691.071593
1673605739.125164,,,,5.476377,5.478487,2593134.000000,1673603691.072600
1673605739.125314,,,,5.459237,5.461418,2593135.000000,1673603691.073607
1673605739.125335,,,,5.457314,5.458388,2593136.000000,1673603691.074614
1673605739.125918,,,,5.442312,5.443147,2593137.000000,1673603691.075621
1673605739.125932,,,,5.430340,5.430598,2593138.000000,1673603691.076628
1673605739.126301,,,,5.432840,5.434060,2593139.000000,1673603691.077636
1673605739.126312,,,,5.451111,5.453172,2593140.000000,1673603691.078643
1673605739.126400,,,,5.464453,5.467644,2593141.000000,1673603691.079650
1673605739.126497,,,,5.461496,5.464495,2593142.000000,1673603691.080657
1673605739.126744,,,,5.456809,5.461057,2593143.000000,1673603691.081664
1673605739.127056,,,,5.447457,5.451008,2593144.000000,1673603691.082671
1673605739.127305,,,,5.434235,5.437281,2593145.000000,1673603691.083678
1673605739.127579,,,,5.425387,5.425958,2593146.000000,1673603691.084685
1673605739.127761,,,,5.424787,5.426054,2593147.000000,1673603691.085692
1673605739.127993,,,,5.424282,5.424972,2593148.000000,1673603691.086699
1673605739.128212,,,,5.426469,5.429131,2593149.000000,1673603691.087706
1673605739.128456,,,,5.431999,5.435334,2593150.000000,1673603691.088713
1673605739.128689,,,,5.430316,5.435237,2593151.000000,1673603691.089720
1673605739.129007,,,,5.429354,5.433218,2593152.000000,1673603691.090728
1673605739.129140,,,,5.429402,5.430622,2593153.000000,1673603691.091735
1673605739.134415,,,,5.431879,5.429996,2593154.000000,1673603691.092742
1673605739.134429,,,,5.431133,5.431944,2593155.000000,1673603691.093749
1673605739.134747,,,,5.428705,5.430573,2593156.000000,1673603691.094756
1673605739.135262,,,,5.428561,5.429636,2593157.000000,1673603691.095763
1673605739.135279,,,,5.432672,5.432401,2593158.000000,1673603691.096770
1673605739.135289,,,,5.432768,5.435670,2593159.000000,1673603691.097777
1673605739.135301,,,,5.430436,5.434925,2593160.000000,1673603691.098784
1673605739.136864,,,,5.430316,5.431415,2593161.000000,1673603691.099791
1673605739.137487,,,,5.429595,5.431487,2593162.000000,1673603691.100798
1673605739.137518,,,,5.427046,5.428963,2593163.000000,1673603691.101805
1673605739.137583,,,,5.427503,5.431102,2593164.000000,1673603691.102813
1673605739.137592,,,,5.439403,5.441993,2593165.000000,1673603691.103820
1673605739.137611,,,,5.450149,5.452426,2593166.000000,1673603691.104827
1673605739.137648,,,,5.449789,5.452811,2593167.000000,1673603691.105834
1673605739.137656,,,,5.445726,5.449109,2593168.000000,1673603691.106841
1673605739.151527,,,,5.447914,5.449518,2593169.000000,1673603691.107848
1673605739.151561,,,,5.445630,5.447210,2593170.000000,1673603691.108855
1673605739.152327,,,,5.426734,5.430405,2593171.000000,1673603691.109862
1673605739.152663,,,,5.416012,5.419202,2593172.000000,1673603691.110869
1673605739.152872,,,,5.417382,5.419227,2593173.000000,1673603691.111876
1673605739.152900,,,,5.421156,5.423626,2593174.000000,1673603691.112883
1673605739.152933,,,,5.415892,5.417039,2593175.000000,1673603691.113890
1673605739.153232,,,,5.413127,5.412591,2593176.000000,1673603691.114897
1673605739.153580,,,,5.420267,5.421438,2593177.000000,1673603691.115905
1673605739.153588,,,,5.420026,5.422184,2593178.000000,1673603691.116912
1673605739.153690,,,,5.423825,5.425405,2593179.000000,1673603691.117919
1673605739.163621,1.425100,593470.000000,1673605739.102988,,,,
1673605739.163630,1.407002,593471.000000,1673605739.103987,,,,
1673605739.163770,1.425100,593472.000000,1673605739.104987,,,,
1673605739.163912,1.407002,593473.000000,1673605739.105988,,,,
1673605739.163921,1.425100,593474.000000,1673605739.106987,,,,
1673605739.163956,1.425100,593475.000000,1673605739.107987,,,,
1673605739.164797,1.443189,593476.000000,1673605739.108988,,,,
1673605739.164808,1.443189,593477.000000,1673605739.109987,,,,
1673605739.164814,1.425100,593478.000000,1673605739.110987,,,,
1673605739.164824,1.407002,593479.000000,1673605739.111987,,,,
1673605739.164841,1.425100,593521.000000,1673605739.153987,,,,
1673605739.164847,1.461278,593522.000000,1673605739.154988,,,,
1673605739.164851,1.425100,593523.000000,1673605739.155988,,,,
1673605739.164874,1.407002,593524.000000,1673605739.156987,,,,
1673605739.164879,1.425100,593525.000000,1673605739.157987,,,,
1673605739.164884,1.443189,593526.000000,1673605739.158988,,,,
1673605739.164889,1.461278,593527.000000,1673605739.159987,,,,
1673605739.164893,1.443189,593528.000000,1673605739.160987,,,,
1673605739.164915,1.461278,593529.000000,1673605739.161988,,,,
1673605739.164919,1.497456,593530.000000,1673605739.162987,,,,
1673605739.166848,,,,5.431325,5.434132,2593180.000000,1673603691.118926
1673605739.167086,,,,5.426950,5.430093,2593181.000000,1673603691.119933
1673605739.167094,,,,5.413824,5.415500,2593182.000000,1673603691.120940
1673605739.167098,,,,5.421710,5.422424,2593183.000000,1673603691.121947
1673605739.167231,,,,5.438922,5.442113,2593184.000000,1673603691.122954
1673605739.167239,,,,5.454212,5.456345,2593185.000000,1673603691.123961
1673605739.172229,,,,5.475200,5.477717,2593186.000000,1673603691.124968
1673605739.172448,,,,5.499505,5.501637,2593187.000000,1673603691.125975
1673605739.172584,,,,5.488205,5.492189,2593188.000000,1673603691.126982
1673605739.172641,,,,5.458780,5.464519,2593189.000000,1673603691.127990
1673605739.172844,,,,5.441182,5.445166,2593190.000000,1673603691.128997
1673605739.173471,,,,5.432456,5.434300,2593191.000000,1673603691.130004
1673605739.173498,,,,5.420628,5.423770,2593192.000000,1673603691.131011
1673605739.173620,,,,5.411853,5.412375,2593193.000000,1673603691.132018
1673605739.173769,,,,5.396539,5.399201,2593194.000000,1673603691.133025
1673605739.174124,,,,5.392404,5.394946,2593195.000000,1673603691.134032
1673605739.174558,,,,5.340356,5.345758,2593196.000000,1673603691.135039
1673605739.175308,,,,5.340044,5.342465,2593197.000000,1673603691.136046
1673605739.175622,,,,5.355165,5.360568,2593198.000000,1673603691.137053
1673605739.176039,,,,5.392500,5.396700,2593199.000000,1673603691.138060
1673605739.176049,,,,5.433273,5.435983,2593200.000000,1673603691.139067
1673605739.181356,,,,5.458323,5.461442,2593201.000000,1673603691.140074
1673605739.181388,,,,5.482147,5.484448,2593202.000000,1673603691.141082
1673605739.181402,,,,5.497389,5.498849,2593203.000000,1673603691.142089
1673605739.181412,,,,5.496307,5.500243,2593204.000000,1673603691.143096
1673605739.181419,,,,5.488422,5.493848,2593205.000000,1673603691.144103
1673605739.181443,,,,5.480585,5.484689,2593206.000000,1673603691.145110
1673605739.181450,,,,5.479479,5.481107,2593207.000000,1673603691.146117
1673605739.181462,,,,5.468949,5.470913,2593208.000000,1673603691.147124
1673605739.181475,,,,5.462530,5.464447,2593209.000000,1673603691.148131
1673605739.181480,,,,5.460054,5.462427,2593210.000000,1673603691.149138
1673605739.181494,,,,5.454765,5.457980,2593211.000000,1673603691.150145
1673605739.181500,,,,5.446423,5.448436,2593212.000000,1673603691.151152
1673605739.181526,,,,5.441615,5.444397,2593213.000000,1673603691.152159
1673605739.182463,,,,5.439571,5.441031,2593214.000000,1673603691.153167
1673605739.182512,,,,5.438994,5.438916,2593215.000000,1673603691.154174
1673605739.182519,,,,5.436615,5.438026,2593216.000000,1673603691.155181
1673605739.182533,,,,5.437552,5.439060,2593217.000000,1673603691.156188
1673605739.182640,,,,5.434980,5.435935,2593218.000000,1673603691.157195
1673605739.182656,,,,5.431205,5.432881,2593219.000000,1673603691.158202
1673605739.182767,,,,5.427383,5.432184,2593220.000000,1673603691.159209
1673605739.182785,,,,5.427792,5.431727,2593221.000000,1673603691.160216
1673605739.217850,1.479367,593531.000000,1673605739.157080,,,,
1673605739.218919,1.479367,593532.000000,1673605739.158080,,,,
1673605739.219028,1.461278,593561.000000,1673605739.187080,,,,
1673605739.219744,1.497456,593562.000000,1673605739.188080,,,,
1673605739.219768,1.497456,593563.000000,1673605739.189080,,,,
1673605739.219797,1.479367,593564.000000,1673605739.190080,,,,
1673605739.219807,1.515545,593565.000000,1673605739.191080,,,,
1673605739.219822,1.497456,593566.000000,1673605739.192080,,,,
1673605739.219832,1.515545,593567.000000,1673605739.193080,,,,
1673605739.219899,1.533634,593568.000000,1673605739.194080,,,,
1673605739.219913,1.551723,593569.000000,1673605739.195080,,,,
1673605739.219944,1.569820,593570.000000,1673605739.196080,,,,
1673605739.219953,1.605998,593582.000000,1673605739.208080,,,,
1673605739.219970,1.660266,593583.000000,1673605739.209080,,,,
1673605739.220038,1.660266,593584.000000,1673605739.210080,,,,
1673605739.220047,1.714541,593585.000000,1673605739.211080,,,,
1673605739.220053,1.660266,593586.000000,1673605739.212080,,,,
1673605739.220077,1.660266,593587.000000,1673605739.213080,,,,
1673605739.220084,1.696444,593588.000000,1673605739.214080,,,,
1673605739.220106,1.732630,593589.000000,1673605739.215080,,,,
1673605739.220111,1.714541,593590.000000,1673605739.216080,,,,
1673605739.220118,1.786897,593591.000000,1673605739.217080,,,,
1673605739.220940,,,,5.429763,5.430117,2593222.000000,1673603691.161223
1673605739.221155,,,,5.428633,5.430213,2593223.000000,1673603691.162230
1673605739.221499,,,,5.427431,5.429251,2593224.000000,1673603691.163237
1673605739.221704,,,,5.427431,5.428338,2593225.000000,1673603691.164244
1673605739.221753,,,,5.429571,5.430069,2593226.000000,1673603691.165251
1673605739.221960,,,,5.428513,5.432304,2593227.000000,1673603691.166259
1673605739.222135,,,,5.430436,5.433074,2593228.000000,1673603691.167266
1673605739.222541,,,,5.431951,5.436463,2593229.000000,1673603691.168273
1673605739.222727,,,,5.432239,5.434300,2593230.000000,1673603691.169280
1673605739.222916,,,,5.431830,5.430429,2593231.000000,1673603691.170287
1673605739.223168,,,,5.429402,5.430814,2593232.000000,1673603691.171294
1673605739.223572,,,,5.429546,5.430045,2593233.000000,1673603691.172301
1673605739.223589,,,,5.428369,5.427905,2593234.000000,1673603691.173308
1673605739.223597,,,,5.426998,5.429420,2593235.000000,1673603691.174315
1673605739.223763,,,,5.428801,5.430381,2593236.000000,1673603691.175322
1673605739.223779,,,,5.427575,5.432064,2593237.000000,1673603691.176329
1673605739.223899,,,,5.430412,5.431150,2593238.000000,1673603691.177336
1673605739.224681,,,,5.435436,5.434564,2593239.000000,1673603691.178344
1673605739.224695,,,,5.439499,5.441272,2593240.000000,1673603691.179351
1673605739.224699,,,,5.437937,5.441344,2593241.000000,1673603691.180358
1673605739.224735,,,,5.440677,5.441704,2593242.000000,1673603691.181365
1673605739.224803,,,,5.445053,5.446392,2593243.000000,1673603691.182372
1673605739.224978,,,,5.443202,5.446296,2593244.000000,1673603691.183379
1673605739.225194,,,,5.438442,5.439781,2593245.000000,1673603691.184386
1673605739.225203,,,,5.432648,5.435309,2593246.000000,1673603691.185393
1673605739.225239,,,,5.432239,5.432160,2593247.000000,1673603691.186400
1673605739.225248,,,,5.432696,5.434252,2593248.000000,1673603691.187407
1673605739.225561,,,,5.433321,5.436127,2593249.000000,1673603691.188414
1673605739.225578,,,,5.427503,5.430045,2593250.000000,1673603691.189421
1673605739.226333,,,,5.421133,5.420020,2593251.000000,1673603691.190428
1673605739.226348,,,,5.416973,5.417904,2593252.000000,1673603691.191436
1673605739.226437,,,,5.420507,5.422015,2593253.000000,1673603691.192443
1673605739.226452,,,,5.425243,5.428530,2593254.000000,1673603691.193450
1673605739.226460,,,,5.425700,5.427184,2593255.000000,1673603691.194457
1673605739.226470,,,,5.429859,5.431199,2593256.000000,1673603691.195464
1673605739.226477,,,,5.435605,5.435911,2593257.000000,1673603691.196471
1673605739.226488,,,,5.442096,5.444036,2593258.000000,1673603691.197478
1673605739.226492,,,,5.445509,5.448411,2593259.000000,1673603691.198485
1673605739.226639,,,,5.440557,5.443315,2593260.000000,1673603691.199492
1673605739.227113,,,,5.436013,5.437954,2593261.000000,1673603691.200499
1673605739.227145,,,,5.429715,5.430501,2593262.000000,1673603691.201506
1673605739.227150,,,,5.425556,5.428170,2593263.000000,1673603691.202513
1673605739.227239,,,,5.429210,5.428578,2593264.000000,1673603691.203521
1673605739.227248,,,,5.426806,5.428097,2593265.000000,1673603691.204528
1673605739.227265,,,,5.424907,5.428722,2593266.000000,1673603691.205535
1673605739.227273,,,,5.400121,5.403769,2593267.000000,1673603691.206542
1673605739.231635,,,,5.382523,5.385906,2593268.000000,1673603691.207549
1673605739.231643,,,,5.388557,5.392613,2593269.000000,1673603691.208556
1673605739.231684,,,,5.402621,5.406317,2593270.000000,1673603691.209563
1673605739.234015,,,,5.413487,5.415740,2593271.000000,1673603691.210570
1673605739.234459,,,,5.418175,5.419419,2593272.000000,1673603691.211577
1673605739.234680,,,,5.377667,5.379632,2593273.000000,1673603691.212584
1673605739.234689,,,,5.337183,5.336912,2593274.000000,1673603691.213591
1673605739.239204,,,,5.329875,5.331479,2593275.000000,1673603691.214598
1673605739.239720,,,,5.337255,5.337729,2593276.000000,1673603691.215605
1673605739.239733,,,,5.347015,5.347345,2593277.000000,1673603691.216613
1673605739.242625,,,,5.381009,5.382372,2593278.000000,1673603691.217620
1673605739.243322,,,,5.423873,5.427617,2593279.000000,1673603691.218627
1673605739.243784,,,,5.455270,5.457307,2593280.000000,1673603691.219634
1673605739.243810,,,,5.471113,5.471611,2593281.000000,1673603691.220641
1673605739.244129,,,,5.482388,5.483655,2593282.000000,1673603691.221648
1673605739.244368,,,,5.485177,5.484617,2593283.000000,1673603691.222655
1673605739.244664,,,,5.468733,5.469062,2593284.000000,1673603691.223662
1673605739.244877,,,,5.457674,5.457739,2593285.000000,1673603691.224669
1673605739.245035,,,,5.453467,5.454782,2593286.000000,1673603691.225676
1673605739.245906,,,,5.452337,5.451801,2593287.000000,1673603691.226683
1673605739.245935,,,,5.459597,5.462307,2593288.000000,1673603691.227690
1673605739.245952,,,,5.466064,5.469207,2593289.000000,1673603691.228698
1673605739.245967,,,,5.476281,5.479064,2593290.000000,1673603691.229705
1673605739.246039,,,,5.479839,5.479736,2593291.000000,1673603691.230712
1673605739.246048,,,,5.476954,5.476779,2593292.000000,1673603691.231719
1673605739.250000,,,,5.470464,5.470481,2593293.000000,1673603691.232726
1673605739.250022,,,,5.461328,5.465745,2593294.000000,1673603691.233733
1673605739.250558,,,,5.458876,5.464543,2593295.000000,1673603691.234740
1673605739.251156,,,,5.458660,5.464303,2593296.000000,1673603691.235747
1673605739.251172,,,,5.459165,5.462427,2593297.000000,1673603691.236754
1673605739.251425,,,,5.455150,5.457234,2593298.000000,1673603691.237761
1673605739.251575,,,,5.452601,5.456345,2593299.000000,1673603691.238768
1673605739.252020,,,,5.451447,5.452980,2593300.000000,1673603691.239775
1673605739.252132,,,,5.449789,5.450455,2593301.000000,1673603691.240782
1673605739.252333,,,,5.448106,5.451801,2593302.000000,1673603691.241790
1673605739.252345,,,,5.449260,5.449806,2593303.000000,1673603691.242797
1673605739.255144,,,,5.447553,5.448436,2593304.000000,1673603691.243804
1673605739.255157,,,,5.447577,5.448436,2593305.000000,1673603691.244811
1673605739.255419,,,,5.443658,5.447282,2593306.000000,1673603691.245818
1673605739.255512,,,,5.441615,5.444349,2593307.000000,1673603691.246825
1673605739.255833,,,,5.436855,5.437570,2593308.000000,1673603691.247832
1673605739.256105,,,,5.428152,5.430862,2593309.000000,1673603691.248839
1673605739.256399,,,,5.427238,5.432329,2593310.000000,1673603691.249846
1673605739.256603,,,,5.427623,5.428819,2593311.000000,1673603691.250853
1673605739.256824,,,,5.425580,5.428242,2593312.000000,1673603691.251860
1673605739.257015,,,,5.424474,5.430189,2593313.000000,1673603691.252867
1673605739.257961,,,,5.424907,5.428194,2593315.000000,1673603691.254882
1673605739.257975,,,,5.425051,5.427160,2593316.000000,1673603691.255889
1673605739.257982,,,,5.428489,5.431343,2593317.000000,1673603691.256896
1673605739.258017,,,,5.435821,5.440045,2593318.000000,1673603691.257903
1673605739.258036,,,,5.447217,5.450624,2593319.000000,1673603691.258910
1673605739.258075,,,,5.458828,5.458364,2593320.000000,1673603691.259917
1673605739.258081,,,,5.462722,5.463581,2593321.000000,1673603691.260924
1673605739.258147,,,,5.460607,5.460937,2593322.000000,1673603691.261931
1673605739.258155,,,,5.455053,5.456634,2593323.000000,1673603691.262938
1673605739.258160,,,,5.446375,5.447907,2593324.000000,1673603691.263945
1673605739.271282,,,,5.440076,5.440839,2593325.000000,1673603691.264952
1673605739.271561,,,,5.440365,5.441752,2593326.000000,1673603691.265960
1673605739.272141,,,,5.440557,5.440911,2593327.000000,1673603691.266967
1673605739.272323,,,,5.439403,5.442089,2593328.000000,1673603691.267974
1673605739.273374,,,,5.441904,5.444974,2593329.000000,1673603691.268981
1673605739.273389,,,,5.445004,5.448291,2593330.000000,1673603691.269988
1673605739.273724,,,,5.445702,5.448219,2593331.000000,1673603691.270995
1673605739.273731,,,,5.449212,5.446320,2593332.000000,1673603691.272002
1673605739.273750,,,,5.446519,5.447883,2593333.000000,1673603691.273009
1673605739.273754,,,,5.445533,5.450479,2593334.000000,1673603691.274016
1673605739.282450,1.732630,593592.000000,1673605739.221840,,,,
1673605739.283782,1.750719,593593.000000,1673605739.222840,,,,
1673605739.283800,1.804986,593594.000000,1673605739.223840,,,,
1673605739.283809,1.714541,593595.000000,1673605739.224840,,,,
1673605739.283834,1.750719,593596.000000,1673605739.225840,,,,
1673605739.283875,1.804986,593597.000000,1673605739.226840,,,,
1673605739.283927,1.750719,593598.000000,1673605739.227840,,,,
1673605739.283936,1.768808,593599.000000,1673605739.228840,,,,
1673605739.283997,1.768808,593600.000000,1673605739.229840,,,,
1673605739.284012,2.347691,593643.000000,1673605739.272840,,,,
1673605739.284028,2.420055,593644.000000,1673605739.273840,,,,
1673605739.284038,2.528590,593645.000000,1673605739.274840,,,,
1673605739.284053,2.474323,593646.000000,1673605739.275840,,,,
1673605739.284084,2.528590,593647.000000,1673605739.276840,,,,
1673605739.284091,2.528590,593648.000000,1673605739.277840,,,,
1673605739.284097,2.474323,593649.000000,1673605739.278840,,,,
1673605739.284157,2.619043,593650.000000,1673605739.279840,,,,
1673605739.284182,2.619043,593651.000000,1673605739.280840,,,,
1673605739.284195,2.673311,593652.000000,1673605739.281840,,,,
1673605739.284658,,,,5.447745,5.451417,2593335.000000,1673603691.275023
1673605739.285200,,,,5.446231,5.448628,2593336.000000,1673603691.276030
1673605739.285212,,,,5.445533,5.447474,2593337.000000,1673603691.277037
1673605739.285237,,,,5.442937,5.445695,2593338.000000,1673603691.278044
1673605739.285271,,,,5.440533,5.443796,2593339.000000,1673603691.279052
1673605739.285391,,,,5.446279,5.448364,2593340.000000,1673603691.280059
1673605739.285398,,,,5.450317,5.452450,2593341.000000,1673603691.281066
1673605739.287254,,,,5.450390,5.453773,2593342.000000,1673603691.282073
1673605739.287776,,,,5.447409,5.449301,2593343.000000,1673603691.283080
1673605739.287797,,,,5.443178,5.446945,2593344.000000,1673603691.284087
1673605739.287802,,,,5.443298,5.446416,2593345.000000,1673603691.285094
1673605739.288102,,,,5.449236,5.450816,2593346.000000,1673603691.286101
1673605739.288481,,,,5.452457,5.453580,2593347.000000,1673603691.287108
1673605739.288592,,,,5.452818,5.455456,2593348.000000,1673603691.288115
1673605739.288745,,,,5.455583,5.455936,2593349.000000,1673603691.289122
1673605739.289183,,,,5.460367,5.460528,2593350.000000,1673603691.290129
1673605739.289199,,,,5.459020,5.459013,2593351.000000,1673603691.291137
1673605739.289223,,,,5.459549,5.460336,2593352.000000,1673603691.292144
1673605739.292574,,,,5.461112,5.460769,2593353.000000,1673603691.293151
1673605739.292773,,,,5.447096,5.448123,2593354.000000,1673603691.294158
1673605739.292793,,,,5.444981,5.445911,2593355.000000,1673603691.295165
1673605739.292808,,,,5.416204,5.420645,2593356.000000,1673603691.296172
1673605739.292813,,,,5.382596,5.389392,2593357.000000,1673603691.297179
1673605739.293078,,,,5.388750,5.393816,2593358.000000,1673603691.298186
1673605739.293270,,,,5.406949,5.409538,2593359.000000,1673603691.299193
1673605739.294269,,,,5.410170,5.410764,2593360.000000,1673603691.300200
1673605739.294286,,,,5.427455,5.428794,2593361.000000,1673603691.301207
1673605739.294378,,,,5.465848,5.469736,2593362.000000,1673603691.302214
1673605739.294387,,,,5.483037,5.485867,2593363.000000,1673603691.303221
1673605739.301433,,,,5.468180,5.469952,2593364.000000,1673603691.304229
1673605739.301528,,,,5.444860,5.447714,2593365.000000,1673603691.305236
1673605739.301772,,,,5.420507,5.424011,2593366.000000,1673603691.306243
1673605739.301963,,,,5.394279,5.396725,2593367.000000,1673603691.307250
1673605739.302133,,,,5.400217,5.399297,2593368.000000,1673603691.308257
1673605739.302399,,,,5.421517,5.421871,2593369.000000,1673603691.309264
1673605739.302516,,,,5.434715,5.438219,2593370.000000,1673603691.310271
1673605739.302699,,,,5.450125,5.455023,2593371.000000,1673603691.311278
1673605739.304036,,,,5.535421,5.538372,2593382.000000,1673603691.322356
1673605739.304047,,,,5.533161,5.535727,2593383.000000,1673603691.323363
1673605739.304051,,,,5.521742,5.524548,2593384.000000,1673603691.324370
1673605739.304074,,,,5.505803,5.507095,2593385.000000,1673603691.325377
1673605739.304101,,,,5.494552,5.497455,2593386.000000,1673603691.326384
1673605739.304107,,,,5.485681,5.488319,2593387.000000,1673603691.327391
1673605739.304112,,,,5.470055,5.472548,2593388.000000,1673603691.328398
1673605739.304264,,,,5.461328,5.466562,2593389.000000,1673603691.329406
1673605739.304371,,,,5.458924,5.464567,2593390.000000,1673603691.330413
1673605739.304385,,,,5.465727,5.470000,2593391.000000,1673603691.331420
1673605739.309077,,,,5.470560,5.475169,2593392.000000,1673603691.332427
1673605739.309319,,,,5.477796,5.480049,2593393.000000,1673603691.333434
1673605739.309520,,,,5.476426,5.477910,2593394.000000,1673603691.334441
1673605739.309823,,,,5.471762,5.471106,2593395.000000,1673603691.335448
1673605739.314149,,,,5.463299,5.468005,2593396.000000,1673603691.336455
1673605739.314509,,,,5.460439,5.464543,2593397.000000,1673603691.337462
1673605739.314547,,,,5.455678,5.458773,2593398.000000,1673603691.338469
1673605739.314738,,,,5.449837,5.454254,2593399.000000,1673603691.339476
1673605739.316989,,,,5.442120,5.444829,2593400.000000,1673603691.340483
1673605739.317011,,,,5.441422,5.441344,2593401.000000,1673603691.341491
1673605739.317483,,,,5.447937,5.448772,2593402.000000,1673603691.342498
1673605739.317497,,,,5.451471,5.454566,2593403.000000,1673603691.343505
1673605739.317832,,,,5.462073,5.465985,2593404.000000,1673603691.344512
1673605739.318016,,,,5.474598,5.477958,2593405.000000,1673603691.345519
1673605739.318288,,,,5.475921,5.479328,2593406.000000,1673603691.346526
1673605739.322270,,,,5.475512,5.477645,2593407.000000,1673603691.347533
1673605739.322284,,,,5.473661,5.474808,2593408.000000,1673603691.348540
1673605739.322362,,,,5.473589,5.475145,2593409.000000,1673603691.349547
1673605739.322500,,,,5.468877,5.471563,2593410.000000,1673603691.350554
1673605739.322609,,,,5.465103,5.468966,2593411.000000,1673603691.351561
1673605739.322615,,,,5.467723,5.468606,2593412.000000,1673603691.352568
1673605739.322870,,,,5.470511,5.471707,2593413.000000,1673603691.353575
1673605739.322873,,,,5.472819,5.473077,2593414.000000,1673603691.354583
1673605739.322958,,,,5.472074,5.472308,2593415.000000,1673603691.355590
1673605739.322975,,,,5.468108,5.469159,2593416.000000,1673603691.356597
1673605739.337996,,,,5.462410,5.464831,2593417.000000,1673603691.357604
1673605739.338413,,,,5.460775,5.463629,2593418.000000,1673603691.358611
1673605739.338555,,,,5.465607,5.468029,2593419.000000,1673603691.359618
1673605739.338660,,,,5.467314,5.468293,2593420.000000,1673603691.360625
1673605739.347301,2.655221,593653.000000,1673605739.286269,,,,
1673605739.347352,2.709497,593654.000000,1673605739.287269,,,,
1673605739.348508,2.799942,593655.000000,1673605739.288269,,,,
1673605739.348781,2.763764,593656.000000,1673605739.289269,,,,
1673605739.348799,2.818031,593657.000000,1673605739.290269,,,,
1673605739.348820,4.120526,593704.000000,1673605739.337269,,,,
1673605739.348830,4.192882,593705.000000,1673605739.338269,,,,
1673605739.348836,4.174793,593706.000000,1673605739.339269,,,,
1673605739.348841,4.192882,593707.000000,1673605739.340269,,,,
1673605739.348933,4.192882,593708.000000,1673605739.341269,,,,
1673605739.348943,4.174793,593709.000000,1673605739.342269,,,,
1673605739.348976,4.192882,593710.000000,1673605739.343269,,,,
1673605739.348986,4.192882,593711.000000,1673605739.344269,,,,
1673605739.348993,4.283336,593712.000000,1673605739.345269,,,,
1673605739.349060,4.337603,593713.000000,1673605739.346269,,,,
1673605739.349121,,,,5.467386,5.471755,2593421.000000,1673603691.361632
1673605739.349592,,,,5.460198,5.462379,2593422.000000,1673603691.362639
1673605739.349610,,,,5.441206,5.443483,2593423.000000,1673603691.363646
1673605739.349683,,,,5.427191,5.429804,2593424.000000,1673603691.364653
1673605739.349695,,,,5.419449,5.418890,2593425.000000,1673603691.365660
1673605739.349722,,,,5.415940,5.417399,2593426.000000,1673603691.366668
1673605739.349753,,,,5.408247,5.410019,2593427.000000,1673603691.367675
1673605739.351655,,,,5.429499,5.431559,2593428.000000,1673603691.368682
1673605739.351847,,,,5.450582,5.453075,2593429.000000,1673603691.369689
1673605739.352005,,,,5.477387,5.478823,2593430.000000,1673603691.370696
1673605739.352187,,,,5.481210,5.482886,2593431.000000,1673603691.371703
1673605739.356114,,,,5.482027,5.486732,2593432.000000,1673603691.372710
1673605739.356272,,,,5.505635,5.511590,2593433.000000,1673603691.373717
1673605739.356738,,,,5.504601,5.508296,2593434.000000,1673603691.374724
1673605739.357160,,,,5.495923,5.496517,2593435.000000,1673603691.375731
1673605739.357178,,,,5.489696,5.488704,2593436.000000,1673603691.376738
1673605739.357338,,,,5.483397,5.483535,2593437.000000,1673603691.377745
1673605739.359374,,,,5.482604,5.484425,2593438.000000,1673603691.378752
1673605739.359633,,,,5.483397,5.485410,2593439.000000,1673603691.379760
1673605739.359802,,,,5.484816,5.486276,2593440.000000,1673603691.380767
1673605739.360034,,,,5.484239,5.485843,2593441.000000,1673603691.381774
1673605739.360059,,,,5.485369,5.486444,2593442.000000,1673603691.382781
1673605739.360517,,,,5.479719,5.482092,2593443.000000,1673603691.383788
1673605739.360539,,,,5.472435,5.473366,2593444.000000,1673603691.384795
1673605739.363585,,,,5.470079,5.470962,2593445.000000,1673603691.385802
1673605739.364268,,,,5.464983,5.468774,2593446.000000,1673603691.386809
1673605739.364288,,,,5.466641,5.467788,2593447.000000,1673603691.387816
1673605739.364313,,,,5.468468,5.468678,2593448.000000,1673603691.388823
1673605739.366497,,,,5.462650,5.465240,2593449.000000,1673603691.389830
1673605739.366621,,,,5.453178,5.458028,2593450.000000,1673603691.390837
1673605739.366839,,,,5.455390,5.460023,2593451.000000,1673603691.391845
1673605739.366851,,,,5.461400,5.462980,2593452.000000,1673603691.392852
1673605739.369177,,,,5.464406,5.467356,2593453.000000,1673603691.393859
1673605739.369360,,,,5.468132,5.470024,2593454.000000,1673603691.394866
1673605739.369490,,,,5.477363,5.480169,2593455.000000,1673603691.395873
1673605739.369665,,,,5.489071,5.489833,2593456.000000,1673603691.396880
1673605739.369828,,,,5.488037,5.488800,2593457.000000,1673603691.397887
1673605739.369986,,,,5.485177,5.484593,2593458.000000,1673603691.398894
1673605739.370133,,,,5.480561,5.480410,2593459.000000,1673603691.399901
1673605739.374130,,,,5.476426,5.478943,2593460.000000,1673603691.400908
1673605739.374221,,,,5.471233,5.474448,2593461.000000,1673603691.401915
1673605739.374426,,,,5.468011,5.468125,2593462.000000,1673603691.402922
1673605739.374435,,,,5.467290,5.470457,2593463.000000,1673603691.403929
1673605739.376556,,,,5.465247,5.471010,2593464.000000,1673603691.404937
1673605739.376567,,,,5.466713,5.471851,2593465.000000,1673603691.405944
1673605739.376608,,,,5.469670,5.473221,2593466.000000,1673603691.406951
1673605739.376617,,,,5.473060,5.474496,2593467.000000,1673603691.407958
1673605739.383964,,,,5.480248,5.481059,2593468.000000,1673603691.408965
1673605739.384425,,,,5.485657,5.484785,2593469.000000,1673603691.409972
1673605739.384451,,,,5.488013,5.487862,2593470.000000,1673603691.410979
1673605739.384640,,,,5.486571,5.485626,2593471.000000,1673603691.411986
1673605739.384963,,,,5.480873,5.484472,2593472.000000,1673603691.412993
1673605739.385229,,,,5.474430,5.478703,2593473.000000,1673603691.414000
1673605739.386322,,,,5.469334,5.474977,2593474.000000,1673603691.415007
1673605739.386574,,,,5.463275,5.466875,2593475.000000,1673603691.416014
1673605739.386842,,,,5.456087,5.456898,2593476.000000,1673603691.417022
1673605739.387325,,,,5.478782,5.478703,2593477.000000,1673603691.418029
1673605739.387348,,,,5.491619,5.490723,2593478.000000,1673603691.419036
1673605739.387376,,,,5.492509,5.493392,2593479.000000,1673603691.420043
1673605739.387518,,,,5.493495,5.492743,2593480.000000,1673603691.421050
1673605739.387534,,,,5.489648,5.488391,2593481.000000,1673603691.422057
1673605739.387545,,,,5.477555,5.476563,2593482.000000,1673603691.423064
1673605739.387571,,,,5.460583,5.462331,2593483.000000,1673603691.424071
1673605739.387678,,,,5.446591,5.449686,2593484.000000,1673603691.425078
1673605739.388010,,,,5.432648,5.435502,2593485.000000,1673603691.426085
1673605739.388311,,,,5.428224,5.430285,2593486.000000,1673603691.427092
1673605739.388905,,,,5.437335,5.438531,2593487.000000,1673603691.428099
1673605739.389122,,,,5.440942,5.445070,2593488.000000,1673603691.429106
1673605739.390324,,,,5.439523,5.443267,2593489.000000,1673603691.430114
1673605739.390357,,,,5.443490,5.447498,2593490.000000,1673603691.431121
1673605739.390368,,,,5.449717,5.454013,2593491.000000,1673603691.432128
1673605739.390410,,,,5.452505,5.455840,2593492.000000,1673603691.433135
1673605739.390664,,,,5.452673,5.453677,2593493.000000,1673603691.434142
1673605739.390686,,,,5.449981,5.453340,2593494.000000,1673603691.435149
1673605739.390701,,,,5.448995,5.449518,2593495.000000,1673603691.436156
1673605739.390722,,,,5.459213,5.459783,2593496.000000,1673603691.437163
1673605739.390735,,,,5.474503,5.475626,2593497.000000,1673603691.438170
1673605739.390744,,,,5.481185,5.483895,2593498.000000,1673603691.439177
1673605739.398335,,,,5.485489,5.487862,2593499.000000,1673603691.440184
1673605739.398617,,,,5.488542,5.489184,2593500.000000,1673603691.441191
1673605739.398834,,,,5.489504,5.490603,2593501.000000,1673603691.442199
1673605739.398846,,,,5.483734,5.486804,2593502.000000,1673603691.443206
1673605739.399005,,,,5.469983,5.475337,2593503.000000,1673603691.444213
1673605739.399297,,,,5.458011,5.459062,2593504.000000,1673603691.445220
1673605739.399310,,,,5.453948,5.454181,2593505.000000,1673603691.446227
1673605739.405403,,,,5.452024,5.456297,2593506.000000,1673603691.447234
1673605739.405920,,,,5.456328,5.456946,2593507.000000,1673603691.448241
1673605739.406138,,,,5.464790,5.466274,2593508.000000,1673603691.449248
1673605739.406327,,,,5.469550,5.471082,2593509.000000,1673603691.450255
1673605739.411723,4.355692,593714.000000,1673605739.350930,,,,
1673605739.411909,4.391878,593715.000000,1673605739.351930,,,,
1673605739.412492,,,,5.467266,5.466490,2593510.000000,1673603691.451262
1673605739.412601,6.182802,593763.000000,1673605739.399930,,,,
1673605739.412628,,,,5.462482,5.464182,2593511.000000,1673603691.452269
1673605739.412733,,,,5.461448,5.463172,2593512.000000,1673603691.453276
1673605739.412824,6.218980,593764.000000,1673605739.400930,,,,
1673605739.412840,6.291336,593765.000000,1673605739.401930,,,,
1673605739.412845,6.309425,593766.000000,1673605739.402930,,,,
1673605739.412850,6.345612,593767.000000,1673605739.403930,,,,
1673605739.412853,6.381790,593768.000000,1673605739.404930,,,,
1673605739.412868,6.454146,593769.000000,1673605739.405930,,,,
1673605739.412874,,,,5.456255,5.459230,2593513.000000,1673603691.454283
1673605739.412893,6.580778,593770.000000,1673605739.406930,,,,
1673605739.412896,6.616964,593771.000000,1673605739.407930,,,,
1673605739.412937,6.635053,593772.000000,1673605739.408930,,,,
1673605739.412942,6.671231,593773.000000,1673605739.409930,,,,
1673605739.412946,6.725498,593774.000000,1673605739.410930,,,,
1673605739.413035,,,,5.452625,5.453412,2593514.000000,1673603691.455291
1673605739.413039,,,,5.444091,5.446368,2593515.000000,1673603691.456298
1673605739.413275,,,,5.439139,5.440070,2593516.000000,1673603691.457305
1673605739.413424,,,,5.439523,5.438747,2593517.000000,1673603691.458312
1673605739.413522,,,,5.448539,5.450672,2593518.000000,1673603691.459319
1673605739.413619,,,,5.457770,5.462018,2593519.000000,1673603691.460326
1673605739.413757,,,,5.464093,5.466562,2593520.000000,1673603691.461333
1673605739.413997,,,,5.467843,5.470866,2593521.000000,1673603691.462340
1673605739.414119,,,,5.468300,5.470361,2593522.000000,1673603691.463347
1673605739.414242,,,,5.467891,5.471058,2593523.000000,1673603691.464354
1673605739.414249,,,,5.477628,5.480938,2593524.000000,1673603691.465361
1673605739.414397,,,,5.496764,5.500123,2593525.000000,1673603691.466368
1673605739.414459,,,,5.509145,5.509283,2593526.000000,1673603691.467376
1673605739.414622,,,,5.501235,5.502263,2593527.000000,1673603691.468383
1673605739.414698,,,,5.491859,5.492887,2593528.000000,1673603691.469390
1673605739.414798,,,,5.490585,5.491084,2593529.000000,1673603691.470397
1673605739.414966,,,,5.486955,5.485530,2593530.000000,1673603691.471404
1673605739.429785,,,,5.481907,5.483222,2593531.000000,1673603691.472411
1673605739.430091,,,,5.480729,5.483174,2593532.000000,1673603691.473418
1673605739.430544,,,,5.481330,5.482501,2593533.000000,1673603691.474425
1673605739.431030,,,,5.482772,5.482741,2593534.000000,1673603691.475432
1673605739.431053,,,,5.485561,5.486925,2593535.000000,1673603691.476439
1673605739.431418,,,,5.483181,5.483463,2593536.000000,1673603691.477446
1673605739.431444,,,,5.475945,5.477236,2593537.000000,1673603691.478453
1673605739.431472,,,,5.471714,5.474400,2593538.000000,1673603691.479460
1673605739.431576,,,,5.470223,5.473919,2593539.000000,1673603691.480468
1673605739.431679,,,,5.461496,5.462860,2593540.000000,1673603691.481475
1673605739.431694,,,,5.451015,5.452162,2593541.000000,1673603691.482482
1673605739.434146,,,,5.448178,5.449013,2593542.000000,1673603691.483489
1673605739.434511,,,,5.452001,5.454662,2593543.000000,1673603691.484496
1673605739.434730,,,,5.483181,5.484833,2593544.000000,1673603691.485503
1673605739.435028,,,,5.504000,5.505773,2593545.000000,1673603691.486510
1673605739.436826,,,,5.507774,5.511158,2593546.000000,1673603691.487517
1673605739.437022,,,,5.509602,5.509883,2593547.000000,1673603691.488524
1673605739.437342,,,,5.515251,5.518081,2593548.000000,1673603691.489531
1673605739.437699,,,,5.505274,5.509619,2593549.000000,1673603691.490538
1673605739.438030,,,,5.504072,5.507624,2593550.000000,1673603691.491545
1673605739.438167,,,,5.516068,5.518129,2593551.000000,1673603691.492553
1673605739.438424,,,,5.513304,5.513634,2593552.000000,1673603691.493560
1673605739.441542,,,,5.516309,5.518610,2593553.000000,1673603691.494567
1673605739.441838,,,,5.522295,5.525053,2593554.000000,1673603691.495574
1673605739.441927,,,,5.522391,5.525414,2593555.000000,1673603691.496581
1673605739.444438,,,,5.506260,5.509932,2593556.000000,1673603691.497588
1673605739.444635,,,,5.488734,5.491444,2593557.000000,1673603691.498595
1673605739.445036,,,,5.479118,5.478366,2593558.000000,1673603691.499602
1673605739.445051,,,,5.471858,5.473654,2593559.000000,1673603691.500609
1673605739.445077,,,,5.468324,5.470649,2593560.000000,1673603691.501616
1673605739.445228,,,,5.470199,5.472933,2593561.000000,1673603691.502623
1673605739.445240,,,,5.467891,5.472404,2593562.000000,1673603691.503630
1673605739.465864,,,,5.469262,5.473726,2593563.000000,1673603691.504637
1673605739.465884,,,,5.485249,5.486516,2593564.000000,1673603691.505645
1673605739.466279,,,,5.518713,5.518057,2593565.000000,1673603691.506652
1673605739.466542,,,,5.535373,5.535631,2593566.000000,1673603691.507659
1673605739.469660,9.185759,593826.000000,1673605739.456391,,,,
1673605739.469675,9.294301,593827.000000,1673605739.457391,,,,
1673605739.469686,9.366657,593828.000000,1673605739.458391,,,,
1673605739.469694,9.384747,593829.000000,1673605739.459391,,,,
1673605739.469736,9.529467,593830.000000,1673605739.460391,,,,
1673605739.469741,9.547565,593831.000000,1673605739.461391,,,,
1673605739.469747,9.601831,593832.000000,1673605739.462391,,,,
1673605739.469751,9.638010,593833.000000,1673605739.463391,,,,
1673605739.469756,9.728463,593834.000000,1673605739.464391,,,,
1673605739.469775,9.728463,593835.000000,1673605739.465391,,,,
1673605739.471801,,,,5.536551,5.537626,2593567.000000,1673603691.508666
1673605739.472003,,,,5.528161,5.531448,2593568.000000,1673603691.509673
1673605739.472147,,,,5.515323,5.514643,2593569.000000,1673603691.510680
1673605739.472267,,,,5.501788,5.503368,2593570.000000,1673603691.511687
1673605739.472419,,,,5.492413,5.494642,2593571.000000,1673603691.512694
1673605739.472577,,,,5.471714,5.472284,2593572.000000,1673603691.513701
1673605739.474380,,,,5.457698,5.459062,2593573.000000,1673603691.514708
1673605739.474392,,,,5.462362,5.463509,2593574.000000,1673603691.515715
1673605739.474405,,,,5.467771,5.470336,2593575.000000,1673603691.516722
1673605739.474499,,,,5.476786,5.479929,2593576.000000,1673603691.517730
1673605739.474637,,,,5.485970,5.490026,2593577.000000,1673603691.518737
1673605739.474811,,,,5.492749,5.495074,2593578.000000,1673603691.519744
1673605739.474901,,,,5.499553,5.498199,2593579.000000,1673603691.520751
1673605739.475050,,,,5.499913,5.501397,2593580.000000,1673603691.521758
1673605739.479371,,,,5.492220,5.494762,2593581.000000,1673603691.522765
1673605739.479384,,,,5.484167,5.487405,2593582.000000,1673603691.523772
1673605739.479388,,,,5.477796,5.481852,2593583.000000,1673603691.524779
1673605739.479416,,,,5.477603,5.480938,2593584.000000,1673603691.525786
1673605739.481274,,,,5.477459,5.481131,2593585.000000,1673603691.526793
1673605739.481394,,,,5.478469,5.478847,2593586.000000,1673603691.527800
1673605739.481471,,,,5.477988,5.480266,2593587.000000,1673603691.528807
1673605739.486542,,,,5.479286,5.481347,2593588.000000,1673603691.529814
1673605739.487267,,,,5.481522,5.482621,2593589.000000,1673603691.530822
1673605739.487333,,,,5.483277,5.486276,2593590.000000,1673603691.531829
1673605739.489783,,,,5.490273,5.492214,2593591.000000,1673603691.532836
1673605739.490069,,,,5.494095,5.495844,2593592.000000,1673603691.533843
1673605739.490348,,,,5.495418,5.497094,2593593.000000,1673603691.534850
1673605739.490696,,,,5.496403,5.497358,2593594.000000,1673603691.535857
1673605739.490726,,,,5.496668,5.499642,2593595.000000,1673603691.536864
1673605739.494311,,,,5.498711,5.500532,2593596.000000,1673603691.537871
1673605739.494321,,,,5.497990,5.498969,2593597.000000,1673603691.538878
1673605739.494430,,,,5.489408,5.494017,2593598.000000,1673603691.539885
1673605739.496457,,,,5.487172,5.489305,2593599.000000,1673603691.540892
1673605739.496716,,,,5.483926,5.486203,2593600.000000,1673603691.541899
1673605739.496890,,,,5.483734,5.485554,2593601.000000,1673603691.542907
1673605739.501934,,,,5.489263,5.485915,2593602.000000,1673603691.543914
1673605739.502071,,,,5.487580,5.486420,2593603.000000,1673603691.544921
1673605739.502311,,,,5.481883,5.484977,2593604.000000,1673603691.545928
1673605739.502584,,,,5.481402,5.482285,2593605.000000,1673603691.546935
1673605739.502825,,,,5.483013,5.487862,2593606.000000,1673603691.547942
1673605739.503134,,,,5.483518,5.486588,2593607.000000,1673603691.548949
1673605739.503514,,,,5.468420,5.469712,2593608.000000,1673603691.549956
1673605739.504435,,,,5.453827,5.455792,2593609.000000,1673603691.550963
1673605739.504480,,,,5.452433,5.454831,2593610.000000,1673603691.551970
1673605739.504622,,,,5.475873,5.477381,2593611.000000,1673603691.552977
1673605739.505046,,,,5.526622,5.527914,2593612.000000,1673603691.553984
1673605739.518220,,,,5.570833,5.572822,2593613.000000,1673603691.554991
1673605739.518631,,,,5.586291,5.588400,2593614.000000,1673603691.555999
1673605739.519134,,,,5.579944,5.581116,2593615.000000,1673603691.557006
1673605739.519222,,,,5.562635,5.563037,2593616.000000,1673603691.558013
1673605739.525344,,,,5.551072,5.552651,2593617.000000,1673603691.559020
1673605739.525760,,,,5.537416,5.539357,2593618.000000,1673603691.560027
1673605739.525772,,,,5.512342,5.515509,2593619.000000,1673603691.561034
1673605739.532459,11.049039,593859.000000,1673605739.494619,,,,
1673605739.532866,11.067127,593860.000000,1673605739.495619,,,,
1673605739.532874,11.103314,593861.000000,1673605739.496619,,,,
1673605739.532889,11.229946,593862.000000,1673605739.497619,,,,
1673605739.532896,11.266124,593863.000000,1673605739.498619,,,,
1673605739.532900,11.284213,593864.000000,1673605739.499619,,,,
1673605739.532948,11.374666,593865.000000,1673605739.500619,,,,
1673605739.532964,11.356577,593866.000000,1673605739.501619,,,,
1673605739.532968,11.428933,593867.000000,1673605739.502619,,,,
1673605739.532971,11.501298,593868.000000,1673605739.503618,,,,
1673605739.532986,12.242990,593887.000000,1673605739.522619,,,,
1673605739.532991,12.279169,593888.000000,1673605739.523619,,,,
1673605739.532999,12.297257,593889.000000,1673605739.524619,,,,
1673605739.533006,12.333445,593890.000000,1673605739.525619,,,,
1673605739.533010,12.369622,593891.000000,1673605739.526618,,,,
1673605739.533024,12.441978,593892.000000,1673605739.527619,,,,
1673605739.533053,12.532432,593893.000000,1673605739.528619,,,,
1673605739.533057,12.568610,593894.000000,1673605739.529619,,,,
1673605739.533059,12.640975,593895.000000,1673605739.530619,,,,
1673605739.533087,12.731420,593896.000000,1673605739.531619,,,,
1673605739.539141,,,,5.494576,5.498776,2593620.000000,1673603691.562041
1673605739.539280,,,,5.495514,5.498921,2593621.000000,1673603691.563048
1673605739.539587,,,,5.497413,5.499258,2593622.000000,1673603691.564055
1673605739.541898,,,,5.495634,5.497622,2593623.000000,1673603691.565062
1673605739.541916,,,,5.489720,5.491973,2593624.000000,1673603691.566069
1673605739.542312,,,,5.479359,5.481900,2593625.000000,1673603691.567076
1673605739.542327,,,,5.466785,5.472092,2593626.000000,1673603691.568084
1673605739.542341,,,,5.467651,5.469279,2593627.000000,1673603691.569091
1673605739.546548,,,,5.460487,5.459350,2593628.000000,1673603691.570098
1673605739.546773,,,,5.449717,5.452403,2593629.000000,1673603691.571105
1673605739.549063,,,,5.447817,5.450984,2593630.000000,1673603691.572112
1673605739.549628,,,,5.455630,5.458749,2593631.000000,1673603691.573119
1673605739.549648,,,,5.455174,5.458172,2593632.000000,1673603691.574126
1673605739.549679,,,,5.458972,5.461970,2593633.000000,1673603691.575133
1673605739.554117,,,,5.469911,5.471443,2593634.000000,1673603691.576140
1673605739.554526,,,,5.473421,5.474520,2593635.000000,1673603691.577147
1673605739.554812,,,,5.479286,5.479304,2593636.000000,1673603691.578154
1673605739.555036,,,,5.481883,5.483391,2593637.000000,1673603691.579161
1673605739.556785,,,,5.487965,5.491228,2593638.000000,1673603691.580168
1673605739.556803,,,,5.501211,5.501758,2593639.000000,1673603691.581176
1673605739.556878,,,,5.510082,5.509186,2593640.000000,1673603691.582183
1673605739.562092,,,,5.520372,5.517649,2593641.000000,1673603691.583190
1673605739.562109,,,,5.521526,5.521062,2593642.000000,1673603691.584197
1673605739.562293,,,,5.516766,5.518730,2593643.000000,1673603691.585204
1673605739.562679,,,,5.513857,5.516326,2593644.000000,1673603691.586211
1673605739.567600,,,,5.516092,5.518610,2593645.000000,1673603691.587218
1673605739.568180,,,,5.515299,5.517119,2593646.000000,1673603691.588225
1673605739.568204,,,,5.508640,5.510148,2593647.000000,1673603691.589232
1673605739.568386,,,,5.506933,5.511206,2593648.000000,1673603691.590239
1673605739.568421,,,,5.527632,5.529524,2593649.000000,1673603691.591246
1673605739.568863,,,,5.534508,5.535102,2593650.000000,1673603691.592253
1673605739.568905,,,,5.539652,5.541641,2593651.000000,1673603691.593261
1673605739.569198,,,,5.543355,5.547002,2593652.000000,1673603691.594268
1673605739.569477,,,,5.539099,5.540895,2593653.000000,1673603691.595275
1673605739.569879,,,,5.528522,5.531255,2593654.000000,1673603691.596282
1673605739.570233,,,,5.518280,5.521255,2593655.000000,1673603691.597289
1673605739.571100,,,,5.501332,5.503056,2593656.000000,1673603691.598296
1673605739.571169,,,,5.508279,5.511134,2593657.000000,1673603691.599303
1673605739.571282,,,,5.546720,5.549815,2593658.000000,1673603691.600310
1673605739.571583,,,,5.544148,5.548709,2593659.000000,1673603691.601317
1673605739.571842,,,,5.521646,5.524620,2593660.000000,1673603691.602324
1673605739.572498,,,,5.501788,5.503152,2593661.000000,1673603691.603331
1673605739.572664,,,,5.490537,5.492622,2593662.000000,1673603691.604338
1673605739.572855,,,,5.480849,5.480506,2593663.000000,1673603691.605345
1673605739.572867,,,,5.462626,5.463269,2593664.000000,1673603691.606353
1673605739.572891,,,,5.448154,5.450647,2593665.000000,1673603691.607360
1673605739.572903,,,,5.446351,5.448580,2593666.000000,1673603691.608367
1673605739.573118,,,,5.463324,5.465817,2593667.000000,1673603691.609374
1673605739.573332,,,,5.480296,5.482069,2593668.000000,1673603691.610381
1673605739.573684,,,,5.492533,5.492094,2593669.000000,1673603691.611388
1673605739.573936,,,,5.496018,5.495243,2593670.000000,1673603691.612395
1673605739.574204,,,,5.494071,5.496925,2593671.000000,1673603691.613402
1673605739.574449,,,,5.489263,5.491829,2593672.000000,1673603691.614409
1673605739.574673,,,,5.485681,5.487598,2593673.000000,1673603691.615416
1673605739.574845,,,,5.479839,5.483318,2593674.000000,1673603691.616423
1673605739.575088,,,,5.463780,5.466418,2593675.000000,1673603691.617430
1673605739.575271,,,,5.461737,5.462932,2593676.000000,1673603691.618438
1673605739.575537,,,,5.477844,5.477020,2593677.000000,1673603691.619445
1673605739.575548,,,,5.502125,5.501109,2593678.000000,1673603691.620452
1673605739.575624,,,,5.515684,5.516567,2593679.000000,1673603691.621459
1673605739.577814,,,,5.518280,5.519331,2593680.000000,1673603691.622466
1673605739.577821,,,,5.519122,5.520052,2593681.000000,1673603691.623473
1673605739.577985,,,,5.513015,5.515244,2593682.000000,1673603691.624480
1673605739.578090,,,,5.505707,5.509980,2593683.000000,1673603691.625487
1673605739.585109,12.767606,593897.000000,1673605739.524453,,,,
1673605739.585179,12.749517,593898.000000,1673605739.525453,,,,
1673605739.585184,12.767606,593899.000000,1673605739.526453,,,,
1673605739.585280,12.767606,593900.000000,1673605739.527453,,,,
1673605739.586195,12.894238,593901.000000,1673605739.528453,,,,
1673605739.586204,12.894238,593902.000000,1673605739.529453,,,,
1673605739.586217,14.847972,593948.000000,1673605739.575453,,,,
1673605739.586227,14.938416,593949.000000,1673605739.576453,,,,
1673605739.586237,14.956506,593950.000000,1673605739.577453,,,,
1673605739.586254,15.046959,593951.000000,1673605739.578453,,,,
1673605739.586260,15.137413,593952.000000,1673605739.579453,,,,
1673605739.586403,15.119315,593953.000000,1673605739.580453,,,,
1673605739.586411,15.155502,593954.000000,1673605739.581453,,,,
1673605739.586421,15.282134,593955.000000,1673605739.582453,,,,
1673605739.586426,15.227859,593956.000000,1673605739.583453,,,,
1673605739.586428,15.264045,593957.000000,1673605739.584453,,,,
1673605739.594617,,,,5.503351,5.507672,2593684.000000,1673603691.626494
1673605739.594639,,,,5.500514,5.501782,2593685.000000,1673603691.627501
1673605739.594774,,,,5.502125,5.505123,2593686.000000,1673603691.628508
1673605739.594913,,,,5.506115,5.509835,2593687.000000,1673603691.629515
1673605739.595166,,,,5.497317,5.501397,2593688.000000,1673603691.630522
1673605739.595422,,,,5.489336,5.491901,2593689.000000,1673603691.631530
1673605739.595636,,,,5.487196,5.490651,2593690.000000,1673603691.632537
1673605739.599163,,,,5.486258,5.490242,2593691.000000,1673603691.633544
1673605739.599379,,,,5.486859,5.488391,2593692.000000,1673603691.634551
1673605739.599663,,,,5.476089,5.479424,2593693.000000,1673603691.635558
1673605739.599817,,,,5.462842,5.464855,2593694.000000,1673603691.636565
1673605739.601385,,,,5.451351,5.454037,2593695.000000,1673603691.637572
1673605739.601559,,,,5.454933,5.457427,2593696.000000,1673603691.638579
1673605739.601765,,,,5.466954,5.469736,2593697.000000,1673603691.639586
1673605739.607144,,,,5.481162,5.484497,2593698.000000,1673603691.640593
1673605739.607230,,,,5.493062,5.493968,2593699.000000,1673603691.641600
1673605739.607415,,,,5.496595,5.497046,2593700.000000,1673603691.642607
1673605739.609236,,,,5.503567,5.502671,2593701.000000,1673603691.643615
1673605739.609475,,,,5.509722,5.508273,2593702.000000,1673603691.644622
1673605739.609697,,,,5.511381,5.512504,2593703.000000,1673603691.645629
1673605739.610248,,,,5.513496,5.518706,2593704.000000,1673603691.646636
1673605739.610345,,,,5.523906,5.527385,2593705.000000,1673603691.647643
1673605739.614500,,,,5.533137,5.534573,2593706.000000,1673603691.648650
1673605739.614516,,,,5.530613,5.534236,2593707.000000,1673603691.649657
1673605739.614532,,,,5.529675,5.532362,2593708.000000,1673603691.650664
1673605739.616742,,,,5.520756,5.523803,2593709.000000,1673603691.651671
1673605739.616756,,,,5.516934,5.520461,2593710.000000,1673603691.652678
1673605739.616762,,,,5.505010,5.508826,2593711.000000,1673603691.653685
1673605739.621694,,,,5.488782,5.487814,2593712.000000,1673603691.654692
1673605739.622002,,,,5.478445,5.478751,2593713.000000,1673603691.655699
1673605739.622018,,,,5.474382,5.475433,2593714.000000,1673603691.656707
1673605739.622301,,,,5.490994,5.493992,2593715.000000,1673603691.657714
1673605739.624530,,,,5.514410,5.515533,2593716.000000,1673603691.658721
1673605739.624552,,,,5.519939,5.522625,2593717.000000,1673603691.659728
1673605739.625176,,,,5.522055,5.523851,2593718.000000,1673603691.660735
1673605739.625192,,,,5.520107,5.519692,2593719.000000,1673603691.661742
1673605739.625604,,,,5.504409,5.506518,2593720.000000,1673603691.662749
1673605739.625998,,,,5.497341,5.502863,2593721.000000,1673603691.663756
1673605739.626013,,,,5.520155,5.523394,2593722.000000,1673603691.664763
1673605739.637842,,,,5.539508,5.542290,2593723.000000,1673603691.665770
1673605739.638016,,,,5.565472,5.568735,2593724.000000,1673603691.666777
1673605739.638026,,,,5.578766,5.580971,2593725.000000,1673603691.667784
1673605739.649224,15.372579,593958.000000,1673605739.588508,,,,
1673605739.649241,15.390668,593959.000000,1673605739.589508,,,,
1673605739.649248,15.426854,593960.000000,1673605739.590508,,,,
1673605739.649267,15.444943,593961.000000,1673605739.591508,,,,
1673605739.649432,15.444943,593962.000000,1673605739.592508,,,,
1673605739.649444,15.517300,593963.000000,1673605739.593508,,,,
1673605739.649450,15.571575,593964.000000,1673605739.594508,,,,
1673605739.650633,18.013739,594009.000000,1673605739.639508,,,,
1673605739.650645,18.049915,594010.000000,1673605739.640508,,,,
1673605739.650651,18.104191,594011.000000,1673605739.641508,,,,
1673605739.650656,18.176548,594012.000000,1673605739.642508,,,,
1673605739.650682,18.194637,594013.000000,1673605739.643508,,,,
1673605739.650689,18.248913,594014.000000,1673605739.644508,,,,
1673605739.650697,18.375544,594015.000000,1673605739.645508,,,,
1673605739.650703,18.357454,594016.000000,1673605739.646508,,,,
1673605739.650723,18.357454,594017.000000,1673605739.647508,,,,
1673605739.650727,18.465988,594018.000000,1673605739.648508,,,,
1673605739.651955,,,,5.572684,5.575274,2593726.000000,1673603691.668792
1673605739.652121,,,,5.546720,5.549863,2593727.000000,1673603691.669799
1673605739.652132,,,,5.509121,5.510220,2593728.000000,1673603691.670806
1673605739.652256,,,,5.454284,5.457234,2593729.000000,1673603691.671813
1673605739.652419,,,,5.431109,5.433795,2593730.000000,1673603691.672820
1673605739.652473,,,,5.457770,5.460432,2593731.000000,1673603691.673827
1673605739.652616,,,,5.486859,5.488199,2593732.000000,1673603691.674834
1673605739.654040,,,,5.500995,5.499930,2593733.000000,1673603691.675841
1673605739.654052,,,,5.498976,5.499763,2593734.000000,1673603691.676848
1673605739.654080,,,,5.489648,5.488992,2593735.000000,1673603691.677855
1673605739.654164,,,,5.473541,5.476587,2593736.000000,1673603691.678862
1673605739.659210,,,,5.461809,5.464423,2593737.000000,1673603691.679869
1673605739.660000,,,,5.461256,5.462307,2593738.000000,1673603691.680876
1673605739.660015,,,,5.462098,5.464471,2593739.000000,1673603691.681884
1673605739.660019,,,,5.468420,5.469231,2593740.000000,1673603691.682891
1673605739.662206,,,,5.474430,5.474544,2593741.000000,1673603691.683898
1673605739.662243,,,,5.472147,5.476900,2593742.000000,1673603691.684905
1673605739.662532,,,,5.473252,5.475217,2593743.000000,1673603691.685912
1673605739.662817,,,,5.474839,5.478967,2593744.000000,1673603691.686919
1673605739.663065,,,,5.477892,5.480746,2593745.000000,1673603691.687926
1673605739.663267,,,,5.480993,5.483054,2593746.000000,1673603691.688933
1673605739.663530,,,,5.489840,5.488968,2593747.000000,1673603691.689940
1673605739.667624,,,,5.497461,5.497647,2593748.000000,1673603691.690947
1673605739.668190,,,,5.500779,5.502888,2593749.000000,1673603691.691954
1673605739.668208,,,,5.504144,5.505291,2593750.000000,1673603691.692961
1673605739.668245,,,,5.502005,5.505099,2593751.000000,1673603691.693969
1673605739.668266,,,,5.505082,5.508585,2593752.000000,1673603691.694976
1673605739.668286,,,,5.507679,5.512215,2593753.000000,1673603691.695983
1673605739.668554,,,,5.507823,5.510268,2593754.000000,1673603691.696990
1673605739.668849,,,,5.506717,5.509258,2593755.000000,1673603691.697997
1673605739.669178,,,,5.501620,5.505724,2593756.000000,1673603691.699004
1673605739.669504,,,,5.495466,5.497599,2593757.000000,1673603691.700011
1673605739.674307,,,,5.491643,5.491396,2593758.000000,1673603691.701018
1673605739.674628,,,,5.494985,5.494642,2593759.000000,1673603691.702025
1673605739.675039,,,,5.499528,5.500412,2593760.000000,1673603691.703032
1673605739.675192,,,,5.502990,5.504546,2593761.000000,1673603691.704039
1673605739.675484,,,,5.495441,5.498320,2593762.000000,1673603691.705046
1673605739.677060,,,,5.484792,5.488559,2593763.000000,1673603691.706053
1673605739.677077,,,,5.473709,5.476323,2593764.000000,1673603691.707061
1673605739.677529,,,,5.476954,5.480938,2593765.000000,1673603691.708068
1673605739.677611,,,,5.488205,5.491324,2593766.000000,1673603691.709075
1673605739.677632,,,,5.495658,5.498801,2593767.000000,1673603691.710082
1673605739.677640,,,,5.499480,5.503537,2593768.000000,1673603691.711089
1673605739.677676,,,,5.516068,5.520004,2593769.000000,1673603691.712096
1673605739.681779,,,,5.522151,5.526736,2593770.000000,1673603691.713103
1673605739.681959,,,,5.526189,5.530318,2593771.000000,1673603691.714110
1673605739.682181,,,,5.527199,5.529068,2593772.000000,1673603691.715117
1673605739.691032,,,,5.523473,5.526135,2593773.000000,1673603691.716124
1673605739.691254,,,,5.521910,5.524284,2593774.000000,1673603691.717131
1673605739.691313,,,,5.519458,5.519596,2593775.000000,1673603691.718138
1673605739.691502,,,,5.514794,5.517216,2593776.000000,1673603691.719146
1673605739.691718,,,,5.511212,5.513225,2593777.000000,1673603691.720153
1673605739.691908,,,,5.505971,5.505652,2593778.000000,1673603691.721160
1673605739.692302,,,,5.502438,5.506037,2593779.000000,1673603691.722167
1673605739.692437,,,,5.504289,5.508056,2593780.000000,1673603691.723174
1673605739.692596,,,,5.501115,5.502335,2593781.000000,1673603691.724181
1673605739.692606,,,,5.497894,5.496469,2593782.000000,1673603691.725188
1673605739.705781,,,,5.495802,5.495411,2593783.000000,1673603691.726195
1673605739.706024,,,,5.500899,5.499402,2593784.000000,1673603691.727202
1673605739.706149,,,,5.501716,5.500820,2593785.000000,1673603691.728209
1673605739.706410,,,,5.501476,5.500724,2593786.000000,1673603691.729216
1673605739.706802,,,,5.496500,5.496373,2593787.000000,1673603691.730223
1673605739.706820,,,,5.478541,5.480578,2593788.000000,1673603691.731230
1673605739.706828,,,,5.472098,5.476202,2593789.000000,1673603691.732238
1673605739.711643,,,,5.502533,5.505989,2593790.000000,1673603691.733245
1673605739.712380,,,,5.520444,5.521855,2593791.000000,1673603691.734252
1673605739.712566,,,,5.514674,5.515605,2593792.000000,1673603691.735259
1673605739.712576,,,,5.508784,5.509955,2593793.000000,1673603691.736266
1673605739.714124,,,,5.495995,5.500532,2593794.000000,1673603691.737273
1673605739.714769,,,,5.494336,5.496517,2593795.000000,1673603691.738280
1673605739.714788,,,,5.501909,5.502383,2593796.000000,1673603691.739287
1673605739.714804,,,,5.506692,5.509667,2593797.000000,1673603691.740294
1673605739.716154,20.473997,594070.000000,1673605739.704087,,,,
1673605739.716176,20.564444,594071.000000,1673605739.705087,,,,
1673605739.716191,20.600630,594072.000000,1673605739.706087,,,,
1673605739.716200,20.600630,594073.000000,1673605739.707087,,,,
1673605739.716211,20.636808,594074.000000,1673605739.708086,,,,
1673605739.716218,20.691074,594075.000000,1673605739.709087,,,,
1673605739.716239,20.709164,594076.000000,1673605739.710087,,,,
1673605739.716296,20.727261,594077.000000,1673605739.711087,,,,
1673605739.716351,20.781528,594078.000000,1673605739.712087,,,,
1673605739.716359,20.781528,594079.000000,1673605739.713087,,,,
1673605739.721794,,,,5.516285,5.518610,2593798.000000,1673603691.741301
1673605739.721954,,,,5.530252,5.530943,2593799.000000,1673603691.742308
1673605739.722073,,,,5.533498,5.534741,2593800.000000,1673603691.743315
1673605739.726921,,,,5.530132,5.533419,2593801.000000,1673603691.744323
1673605739.726932,,,,5.528113,5.529020,2593802.000000,1673603691.745330
1673605739.726959,,,,5.519699,5.520774,2593803.000000,1673603691.746337
1673605739.727018,,,,5.512006,5.511711,2593804.000000,1673603691.747344
1673605739.729103,,,,5.507197,5.510989,2593805.000000,1673603691.748351
1673605739.729364,,,,5.502558,5.506109,2593806.000000,1673603691.749358
1673605739.729505,,,,5.499312,5.500820,2593807.000000,1673603691.750365
1673605739.729520,,,,5.500250,5.502046,2593808.000000,1673603691.751372
1673605739.734721,,,,5.500226,5.499690,2593809.000000,1673603691.752379
1673605739.734908,,,,5.500130,5.501686,2593810.000000,1673603691.753386
1673605739.734927,,,,5.502365,5.506013,2593811.000000,1673603691.754393
1673605739.737001,,,,5.525324,5.527721,2593812.000000,1673603691.755400
1673605739.737238,,,,5.554413,5.557460,2593813.000000,1673603691.756407
1673605739.737762,,,,5.564799,5.565994,2593814.000000,1673603691.757415
1673605739.737776,,,,5.566866,5.566162,2593815.000000,1673603691.758422
1673605739.738054,,,,5.556841,5.558734,2593816.000000,1673603691.759429
1673605739.738250,,,,5.538955,5.541016,2593817.000000,1673603691.760436
1673605739.738600,,,,5.502726,5.506013,2593818.000000,1673603691.761443
1673605739.745529,,,,5.497317,5.499161,2593830.000000,1673603691.773528
1673605739.745542,,,,5.498423,5.502960,2593831.000000,1673603691.774535
1673605739.745792,,,,5.505178,5.508176,2593832.000000,1673603691.775542
1673605739.745811,,,,5.510419,5.513562,2593833.000000,1673603691.776549
1673605739.745852,,,,5.508760,5.512888,2593834.000000,1673603691.777556
1673605739.745862,,,,5.506861,5.507912,2593835.000000,1673603691.778563
1673605739.746052,,,,5.505538,5.507431,2593836.000000,1673603691.779570
1673605739.746207,,,,5.503495,5.504138,2593837.000000,1673603691.780577
1673605739.746219,,,,5.502438,5.501157,2593838.000000,1673603691.781585
1673605739.746987,,,,5.501981,5.500868,2593839.000000,1673603691.782592
1673605739.747020,,,,5.489816,5.490627,2593840.000000,1673603691.783599
1673605739.747104,,,,5.474767,5.476539,2593841.000000,1673603691.784606
1673605739.747112,,,,5.473661,5.474880,2593842.000000,1673603691.785613
1673605739.747119,,,,5.484767,5.485170,2593843.000000,1673603691.786620
1673605739.747126,,,,5.490994,5.492766,2593844.000000,1673603691.787627
1673605739.761372,,,,5.495418,5.495531,2593845.000000,1673603691.788634
1673605739.761698,,,,5.493903,5.496902,2593846.000000,1673603691.789641
1673605739.761711,,,,5.516982,5.519957,2593847.000000,1673603691.790648
1673605739.761908,,,,5.530781,5.529597,2593848.000000,1673603691.791655
1673605739.762136,,,,5.526165,5.528539,2593849.000000,1673603691.792662
1673605739.762602,,,,5.523713,5.527601,2593850.000000,1673603691.793669
1673605739.762622,,,,5.530156,5.534429,2593851.000000,1673603691.794677
1673605739.769081,20.926249,594082.000000,1673605739.709869,,,,
1673605739.769102,,,,5.541984,5.542603,2593852.000000,1673603691.795684
1673605739.769247,,,,5.541215,5.544959,2593853.000000,1673603691.796691
1673605739.769732,,,,5.530036,5.535006,2593854.000000,1673603691.797698
1673605739.769951,,,,5.521093,5.521808,2593855.000000,1673603691.798705
1673605739.770162,,,,5.512414,5.515220,2593856.000000,1673603691.799712
1673605739.770835,20.871983,594083.000000,1673605739.710870,,,,
1673605739.771615,,,,5.505948,5.509427,2593857.000000,1673603691.800719
1673605739.771631,,,,5.500274,5.504570,2593858.000000,1673603691.801726
1673605739.771734,20.944338,594084.000000,1673605739.711869,,,,
1673605739.771754,20.962427,594085.000000,1673605739.712869,,,,
1673605739.771764,21.034792,594086.000000,1673605739.713870,,,,
1673605739.771780,21.052881,594087.000000,1673605739.714869,,,,
1673605739.771791,21.052881,594088.000000,1673605739.715869,,,,
1673605739.771958,21.125237,594089.000000,1673605739.716869,,,,
1673605739.772091,21.215691,594090.000000,1673605739.717870,,,,
1673605739.772107,21.161423,594091.000000,1673605739.718869,,,,
1673605739.772136,22.210646,594131.000000,1673605739.758869,,,,
1673605739.772154,22.138290,594132.000000,1673605739.759870,,,,
1673605739.772205,22.192558,594133.000000,1673605739.760870,,,,
1673605739.772213,22.192558,594134.000000,1673605739.761869,,,,
1673605739.772225,22.283010,594135.000000,1673605739.762869,,,,
1673605739.772255,22.283010,594136.000000,1673605739.763870,,,,
1673605739.772261,22.283010,594137.000000,1673605739.764869,,,,
1673605739.772272,22.283010,594138.000000,1673605739.765869,,,,
1673605739.772280,22.246824,594139.000000,1673605739.766870,,,,
1673605739.772316,22.319189,594140.000000,1673605739.767869,,,,
1673605739.772459,,,,5.502654,5.506878,2593859.000000,1673603691.802733
1673605739.772476,,,,5.504289,5.507143,2593860.000000,1673603691.803740
1673605739.772490,,,,5.508928,5.513345,2593861.000000,1673603691.804747
1673605739.772691,,,,5.535132,5.539213,2593862.000000,1673603691.805754
1673605739.772809,,,,5.560544,5.559864,2593863.000000,1673603691.806762
1673605739.773032,,,,5.547249,5.549094,2593864.000000,1673603691.807769
1673605739.773247,,,,5.548162,5.550560,2593865.000000,1673603691.808776
1673605739.773591,,,,5.547465,5.548925,2593866.000000,1673603691.809783
1673605739.773728,,,,5.535662,5.535967,2593867.000000,1673603691.810790
1673605739.773790,,,,5.525853,5.527962,2593868.000000,1673603691.811797
1673605739.773826,,,,5.505851,5.506902,2593869.000000,1673603691.812804
1673605739.773915,,,,5.484600,5.486276,2593870.000000,1673603691.813811
1673605739.773922,,,,5.488975,5.491492,2593871.000000,1673603691.814818
1673605739.773928,,,,5.494360,5.496204,2593872.000000,1673603691.815825
1673605739.776021,,,,5.502269,5.504234,2593873.000000,1673603691.816832
1673605739.776126,,,,5.510684,5.515388,2593874.000000,1673603691.817839
1673605739.776245,,,,5.514554,5.517601,2593875.000000,1673603691.818846
1673605739.776425,,,,5.521718,5.522985,2593876.000000,1673603691.819854
1673605739.776521,,,,5.520299,5.521880,2593877.000000,1673603691.820861
1673605739.776663,,,,5.507895,5.508393,2593878.000000,1673603691.821868
1673605739.776778,,,,5.497389,5.497238,2593879.000000,1673603691.822875
1673605739.777093,,,,5.498519,5.500387,2593880.000000,1673603691.823882
1673605739.777104,,,,5.494384,5.496757,2593881.000000,1673603691.824889
1673605739.777138,,,,5.489071,5.492069,2593882.000000,1673603691.825896
1673605739.777158,,,,5.498399,5.501493,2593883.000000,1673603691.826903
1673605739.779471,,,,5.504337,5.505508,2593884.000000,1673603691.827910
1673605739.779511,,,,5.509577,5.511518,2593885.000000,1673603691.828917
1673605739.779633,,,,5.512727,5.515028,2593886.000000,1673603691.829924
1673605739.779643,,,,5.515588,5.518033,2593887.000000,1673603691.830931
1673605739.779706,,,,5.514386,5.518730,2593888.000000,1673603691.831939
1673605739.779807,,,,5.514241,5.517937,2593889.000000,1673603691.832946
1673605739.783507,,,,5.513616,5.513898,2593890.000000,1673603691.833953
1673605739.783830,,,,5.506620,5.507167,2593891.000000,1673603691.834960
1673605739.784010,,,,5.502966,5.505773,2593892.000000,1673603691.835967
1673605739.784246,,,,5.503327,5.504282,2593893.000000,1673603691.836974
1673605739.784387,,,,5.499096,5.504306,2593894.000000,1673603691.837981
1673605739.784587,,,,5.498014,5.500964,2593895.000000,1673603691.838988
1673605739.784882,,,,5.503904,5.503801,2593896.000000,1673603691.839995
1673605739.786895,,,,5.506020,5.508176,2593897.000000,1673603691.841002
1673605739.787081,,,,5.506404,5.507912,2593898.000000,1673603691.842009
1673605739.787409,,,,5.507294,5.508729,2593899.000000,1673603691.843016
1673605739.787581,,,,5.514049,5.518923,2593900.000000,1673603691.844023
1673605739.787745,,,,5.523881,5.526639,2593901.000000,1673603691.845031
1673605739.787824,,,,5.527463,5.529308,2593902.000000,1673603691.846038
1673605739.787897,,,,5.530276,5.532650,2593903.000000,1673603691.847045
1673605739.788926,,,,5.530925,5.531303,2593904.000000,1673603691.848052
1673605739.789129,,,,5.529603,5.530703,2593905.000000,1673603691.849059
1673605739.789474,,,,5.525901,5.527169,2593906.000000,1673603691.850066
1673605739.789484,,,,5.527488,5.527721,2593907.000000,1673603691.851073
1673605739.794249,,,,5.530469,5.531952,2593908.000000,1673603691.852080
1673605739.794261,,,,5.532344,5.534188,2593909.000000,1673603691.853087
1673605739.794345,,,,5.533714,5.537121,2593910.000000,1673603691.854094
1673605739.796433,,,,5.540734,5.546257,2593911.000000,1673603691.855101
1673605739.796527,,,,5.543931,5.548564,2593912.000000,1673603691.856108
1673605739.796628,,,,5.542056,5.543997,2593913.000000,1673603691.857116
1673605739.796752,,,,5.536743,5.538203,2593914.000000,1673603691.858123
1673605739.796857,,,,5.524146,5.526495,2593915.000000,1673603691.859130
1673605739.801781,,,,5.506284,5.510148,2593916.000000,1673603691.860137
1673605739.801820,,,,5.504914,5.508441,2593917.000000,1673603691.861144
1673605739.804492,,,,5.515083,5.518129,2593918.000000,1673603691.862151
1673605739.804506,,,,5.512462,5.514860,2593919.000000,1673603691.863158
1673605739.804609,,,,5.504313,5.505796,2593920.000000,1673603691.864165
1673605739.804710,,,,5.508712,5.510725,2593921.000000,1673603691.865172
1673605739.809163,,,,5.520492,5.522505,2593922.000000,1673603691.866179
1673605739.809659,,,,5.522151,5.522385,2593923.000000,1673603691.867186
1673605739.810278,,,,5.513448,5.514307,2593924.000000,1673603691.868193
1673605739.810328,,,,5.509000,5.511181,2593925.000000,1673603691.869200
1673605739.831863,,,,5.512799,5.513465,2593926.000000,1673603691.870208
1673605739.832401,,,,5.517439,5.518538,2593927.000000,1673603691.871215
1673605739.832421,,,,5.514073,5.517769,2593928.000000,1673603691.872222
1673605739.835003,22.319189,594141.000000,1673605739.773833,,,,
1673605739.836640,22.319189,594142.000000,1673605739.774832,,,,
1673605739.836668,22.373457,594143.000000,1673605739.775832,,,,
1673605739.836681,22.463909,594144.000000,1673605739.776833,,,,
1673605739.836689,22.391544,594145.000000,1673605739.777833,,,,
1673605739.836696,22.481998,594146.000000,1673605739.778832,,,,
1673605739.836749,22.843805,594192.000000,1673605739.824832,,,,
1673605739.836760,22.771441,594193.000000,1673605739.825833,,,,
1673605739.836778,22.843805,594194.000000,1673605739.826833,,,,
1673605739.836809,22.843805,594195.000000,1673605739.827832,,,,
1673605739.836824,22.843805,594196.000000,1673605739.828832,,,,
1673605739.836837,22.843805,594197.000000,1673605739.829833,,,,
1673605739.836859,22.861895,594198.000000,1673605739.830832,,,,
1673605739.836878,22.825716,594199.000000,1673605739.831832,,,,
1673605739.836886,22.843805,594200.000000,1673605739.832833,,,,
1673605739.836916,22.825716,594201.000000,1673605739.833833,,,,
1673605739.839779,,,,5.506885,5.509042,2593929.000000,1673603691.873229
1673605739.840099,,,,5.497028,5.496998,2593930.000000,1673603691.874236
1673605739.840213,,,,5.490682,5.490843,2593931.000000,1673603691.875243
1673605739.840508,,,,5.510347,5.511590,2593932.000000,1673603691.876250
1673605739.840831,,,,5.552971,5.557387,2593933.000000,1673603691.877257
1673605739.840859,,,,5.569222,5.573278,2593934.000000,1673603691.878264
1673605739.840942,,,,5.569342,5.571211,2593935.000000,1673603691.879271
1673605739.841475,,,,5.553668,5.556354,2593936.000000,1673603691.880278
1673605739.841670,,,,5.539604,5.541689,2593937.000000,1673603691.881285
1673605739.841677,,,,5.528954,5.531400,2593938.000000,1673603691.882293
1673605739.841812,,,,5.493903,5.496276,2593939.000000,1673603691.883300
1673605739.846898,,,,5.459044,5.458893,2593940.000000,1673603691.884307
1673605739.847039,,,,5.470680,5.471611,2593941.000000,1673603691.885314
1673605739.847080,,,,5.497269,5.498969,2593942.000000,1673603691.886321
1673605739.847289,,,,5.512943,5.512792,2593943.000000,1673603691.887328
1673605739.847297,,,,5.522944,5.521976,2593944.000000,1673603691.888335
1673605739.847302,,,,5.526382,5.527216,2593945.000000,1673603691.889342
1673605739.847492,,,,5.525973,5.527866,2593946.000000,1673603691.890349
1673605739.848897,,,,5.520612,5.523659,2593947.000000,1673603691.891356
1673605739.848982,,,,5.510323,5.514619,2593948.000000,1673603691.892363
1673605739.849198,,,,5.506861,5.508465,2593949.000000,1673603691.893370
1673605739.849206,,,,5.507726,5.509018,2593950.000000,1673603691.894377
1673605739.854173,,,,5.509698,5.511254,2593951.000000,1673603691.895385
1673605739.854184,,,,5.504601,5.508152,2593952.000000,1673603691.896392
1673605739.854321,,,,5.499553,5.503320,2593953.000000,1673603691.897399
1673605739.856421,,,,5.495057,5.500484,2593954.000000,1673603691.898406
1673605739.856529,,,,5.499505,5.502575,2593955.000000,1673603691.899413
1673605739.856699,,,,5.502149,5.503969,2593956.000000,1673603691.900420
1673605739.856707,,,,5.498038,5.497887,2593957.000000,1673603691.901427
1673605739.862482,,,,5.499793,5.500964,2593958.000000,1673603691.902434
1673605739.862500,,,,5.503640,5.505821,2593959.000000,1673603691.903441
1673605739.862690,,,,5.513328,5.514403,2593960.000000,1673603691.904448
1673605739.862800,,,,5.521478,5.523827,2593961.000000,1673603691.905455
1673605739.864341,,,,5.518136,5.519860,2593962.000000,1673603691.906462
1673605739.864431,,,,5.516622,5.519908,2593963.000000,1673603691.907470
1673605739.864606,,,,5.514938,5.516062,2593964.000000,1673603691.908477
1673605739.864798,,,,5.512150,5.515413,2593965.000000,1673603691.909484
1673605739.864947,,,,5.512847,5.514691,2593966.000000,1673603691.910491
1673605739.865132,,,,5.509337,5.509306,2593967.000000,1673603691.911498
1673605739.869198,,,,5.503183,5.504498,2593968.000000,1673603691.912505
1673605739.869263,,,,5.505130,5.507119,2593969.000000,1673603691.913512
1673605739.869470,,,,5.516838,5.517144,2593970.000000,1673603691.914519
1673605739.869486,,,,5.526406,5.529428,2593971.000000,1673603691.915526
1673605739.872309,,,,5.529435,5.532097,2593972.000000,1673603691.916533
1673605739.872552,,,,5.529916,5.532217,2593973.000000,1673603691.917540
1673605739.872742,,,,5.525252,5.527096,2593974.000000,1673603691.918547
1673605739.873170,,,,5.516261,5.520726,2593975.000000,1673603691.919554
1673605739.873441,,,,5.510371,5.514355,2593976.000000,1673603691.920562
1673605739.873565,,,,5.509625,5.510581,2593977.000000,1673603691.921569
1673605739.873602,,,,5.508808,5.514307,2593978.000000,1673603691.922576
1673605739.885417,,,,5.513881,5.515653,2593979.000000,1673603691.923583
1673605739.885665,,,,5.516549,5.519644,2593980.000000,1673603691.924590
1673605739.885684,,,,5.518977,5.520870,2593981.000000,1673603691.925597
1673605739.885764,,,,5.518088,5.518394,2593982.000000,1673603691.926604
1673605739.893106,,,,5.510948,5.514283,2593983.000000,1673603691.927611
1673605739.893120,,,,5.506476,5.508224,2593984.000000,1673603691.928618
1673605739.893139,,,,5.506404,5.508946,2593985.000000,1673603691.929625
1673605739.899850,22.861895,594202.000000,1673605739.839071,,,,
1673605739.899900,22.843805,594203.000000,1673605739.840071,,,,
1673605739.900120,22.807619,594204.000000,1673605739.841071,,,,
1673605739.900130,22.825716,594205.000000,1673605739.842071,,,,
1673605739.901276,22.843805,594248.000000,1673605739.885071,,,,
1673605739.901328,22.771441,594249.000000,1673605739.886071,,,,
1673605739.901532,,,,5.508736,5.511470,2593986.000000,1673603691.930632
1673605739.901538,22.771441,594250.000000,1673605739.887071,,,,
1673605739.901741,22.771441,594251.000000,1673605739.888071,,,,
1673605739.901759,22.789530,594252.000000,1673605739.889071,,,,
1673605739.901781,22.825716,594253.000000,1673605739.890071,,,,
1673605739.901798,22.825716,594254.000000,1673605739.891071,,,,
1673605739.901841,22.771441,594255.000000,1673605739.892071,,,,
1673605739.901852,22.807619,594256.000000,1673605739.893071,,,,
1673605739.901864,22.753351,594257.000000,1673605739.894071,,,,
1673605739.901869,22.753351,594258.000000,1673605739.895071,,,,
1673605739.901896,22.735262,594259.000000,1673605739.896071,,,,
1673605739.901901,22.771441,594260.000000,1673605739.897071,,,,
1673605739.901921,22.771441,594261.000000,1673605739.898071,,,,
1673605739.901925,22.717173,594262.000000,1673605739.899071,,,,
1673605739.902376,,,,5.508928,5.510677,2593987.000000,1673603691.931639
1673605739.902389,,,,5.508592,5.512552,2593988.000000,1673603691.932647
1673605739.906702,,,,5.510948,5.516110,2593989.000000,1673603691.933654
1673605739.906974,,,,5.510972,5.513754,2593990.000000,1673603691.934661
1673605739.907132,,,,5.511044,5.513754,2593991.000000,1673603691.935668
1673605739.907332,,,,5.513472,5.514932,2593992.000000,1673603691.936675
1673605739.907345,,,,5.516501,5.515509,2593993.000000,1673603691.937682
1673605739.908948,,,,5.518376,5.519235,2593994.000000,1673603691.938689
1673605739.909234,,,,5.515828,5.520245,2593995.000000,1673603691.939696
1673605739.909287,,,,5.513472,5.518033,2593996.000000,1673603691.940703
1673605739.922405,,,,5.512823,5.514956,2593997.000000,1673603691.941710
1673605739.922434,,,,5.511261,5.512768,2593998.000000,1673603691.942717
1673605739.922461,,,,5.511909,5.513465,2593999.000000,1673603691.943724
1673605739.926190,,,,5.513784,5.515942,2594000.000000,1673603691.944731
1673605739.926499,,,,5.509025,5.511302,2594001.000000,1673603691.945739
1673605739.927086,,,,5.505803,5.509980,2594002.000000,1673603691.946746
1673605739.927168,,,,5.505082,5.508850,2594003.000000,1673603691.947753
1673605739.927237,,,,5.510924,5.512768,2594004.000000,1673603691.948760
1673605739.927469,,,,5.522559,5.524163,2594005.000000,1673603691.949767
1673605739.927757,,,,5.528040,5.531760,2594006.000000,1673603691.950774
1673605739.928076,,,,5.529555,5.531135,2594007.000000,1673603691.951781
1673605739.928299,,,,5.526382,5.527505,2594008.000000,1673603691.952788
1673605739.928555,,,,5.539628,5.541064,2594009.000000,1673603691.953795
1673605739.928738,,,,5.555928,5.556787,2594010.000000,1673603691.954802
1673605739.929900,,,,5.511813,5.513442,2594014.000000,1673603691.958831
1673605739.929910,,,,5.495225,5.498536,2594015.000000,1673603691.959838
1673605739.929930,,,,5.475657,5.480313,2594016.000000,1673603691.960845
1673605739.929941,,,,5.477123,5.479712,2594017.000000,1673603691.961852
1673605739.930015,,,,5.495706,5.497767,2594018.000000,1673603691.962859
1673605739.930160,,,,5.511525,5.514066,2594019.000000,1673603691.963866
1673605739.930308,,,,5.513328,5.515365,2594020.000000,1673603691.964873
1673605739.930328,,,,5.513256,5.515797,2594021.000000,1673603691.965880
1673605739.930334,,,,5.514794,5.513201,2594022.000000,1673603691.966887
1673605739.930341,,,,5.514578,5.513297,2594023.000000,1673603691.967894
1673605739.930348,,,,5.514891,5.516687,2594024.000000,1673603691.968901
1673605739.930384,,,,5.513929,5.516086,2594025.000000,1673603691.969908
1673605739.930538,,,,5.512679,5.517793,2594026.000000,1673603691.970916
1673605739.930736,,,,5.522030,5.526519,2594027.000000,1673603691.971923
1673605739.930889,,,,5.523593,5.526880,2594028.000000,1673603691.972930
1673605739.931429,,,,5.519050,5.522480,2594029.000000,1673603691.973937
1673605739.931572,,,,5.513520,5.518009,2594030.000000,1673603691.974944
1673605739.931676,,,,5.509097,5.510220,2594031.000000,1673603691.975951
1673605739.931841,,,,5.503760,5.504017,2594032.000000,1673603691.976958
1673605739.945920,,,,5.502630,5.504811,2594033.000000,1673603691.977965
1673605739.946422,,,,5.507943,5.508753,2594034.000000,1673603691.978972
1673605739.947370,,,,5.513207,5.516639,2594035.000000,1673603691.979979
1673605739.947396,,,,5.514266,5.515893,2594036.000000,1673603691.980986
1673605739.947405,,,,5.511861,5.511158,2594037.000000,1673603691.981993
1673605739.947695,,,,5.511741,5.513562,2594038.000000,1673603691.983001
1673605739.947900,,,,5.511597,5.513442,2594039.000000,1673603691.984008
1673605739.953012,,,,5.510154,5.510484,2594040.000000,1673603691.985015
1673605739.953154,,,,5.504721,5.504787,2594041.000000,1673603691.986022
1673605739.953401,,,,5.499240,5.500964,2594042.000000,1673603691.987029
1673605739.953618,,,,5.502654,5.505821,2594043.000000,1673603691.988036
1673605739.954115,22.789530,594263.000000,1673605739.893416,,,,
1673605739.955317,22.680994,594264.000000,1673605739.894416,,,,
1673605739.955325,22.735262,594265.000000,1673605739.895416,,,,
1673605739.955329,22.717173,594314.000000,1673605739.944416,,,,
1673605739.955351,22.699083,594315.000000,1673605739.945416,,,,
1673605739.955454,22.753351,594316.000000,1673605739.946416,,,,
1673605739.955461,22.789530,594317.000000,1673605739.947416,,,,
1673605739.955467,22.753351,594318.000000,1673605739.948416,,,,
1673605739.955480,22.753351,594319.000000,1673605739.949416,,,,
1673605739.955482,22.753351,594320.000000,1673605739.950416,,,,
1673605739.955499,22.753351,594321.000000,1673605739.951416,,,,
1673605739.955506,22.771441,594322.000000,1673605739.952416,,,,
1673605739.955510,22.771441,594323.000000,1673605739.953416,,,,
1673605739.967124,,,,5.508039,5.509018,2594044.000000,1673603691.989043
1673605739.967462,,,,5.520588,5.521567,2594045.000000,1673603691.990050
1673605739.981851,,,,5.543787,5.541905,2594046.000000,1673603691.991057
1673605739.982058,,,,5.554077,5.553205,2594047.000000,1673603691.992064
1673605739.982073,,,,5.558091,5.561378,2594048.000000,1673603691.993071
1673605739.982203,,,,5.561385,5.564768,2594049.000000,1673603691.994078
1673605739.983998,,,,5.551072,5.554358,2594050.000000,1673603691.995085
1673605739.984288,,,,5.534508,5.537193,2594051.000000,1673603691.996093
1673605739.984296,,,,5.515299,5.519908,2594052.000000,1673603691.997100
1673605739.984477,,,,5.519722,5.524043,2594053.000000,1673603691.998107
1673605739.989287,,,,5.520876,5.523634,2594054.000000,1673603691.999114
1673605739.989314,,,,5.508111,5.508681,2594055.000000,1673603692.000121
1673605739.989331,,,,5.510202,5.510725,2594056.000000,1673603692.001128
1673605739.991472,,,,5.515323,5.518033,2594057.000000,1673603692.002135
1673605739.991687,,,,5.510563,5.512023,2594058.000000,1673603692.003142
1673605739.991694,,,,5.502558,5.504258,2594059.000000,1673603692.004149
1673605739.991777,,,,5.497653,5.501084,2594060.000000,1673603692.005156
1673605740.005752,,,,5.490105,5.494714,2594061.000000,1673603692.006163
1673605740.006486,,,,5.475224,5.478246,2594062.000000,1673603692.007170
1673605740.007005,,,,5.473853,5.475698,2594063.000000,1673603692.008178
1673605740.007390,,,,5.479959,5.481708,2594064.000000,1673603692.009185
1673605740.012797,,,,5.490321,5.491564,2594065.000000,1673603692.010192
1673605740.013139,,,,5.490297,5.491204,2594066.000000,1673603692.011199
1673605740.013459,,,,5.501332,5.504907,2594067.000000,1673603692.012206
1673605740.018346,22.753351,594324.000000,1673605739.957777,,,,
1673605740.019383,,,,5.533498,5.535703,2594068.000000,1673603692.013213
1673605740.019396,,,,5.543667,5.543877,2594069.000000,1673603692.014220
1673605740.019423,22.789530,594362.000000,1673605739.995777,,,,
1673605740.019879,22.825716,594363.000000,1673605739.996777,,,,
1673605740.019885,22.807619,594364.000000,1673605739.997777,,,,
1673605740.019943,22.789530,594365.000000,1673605739.998777,,,,
1673605740.019949,22.825716,594366.000000,1673605739.999777,,,,
1673605740.019953,22.843805,594367.000000,1673605740.000777,,,,
1673605740.019978,22.825716,594368.000000,1673605740.001777,,,,
1673605740.019982,22.843805,594369.000000,1673605740.002777,,,,
1673605740.019986,22.789530,594370.000000,1673605740.003777,,,,
1673605740.020022,22.861895,594371.000000,1673605740.004777,,,,
1673605740.020031,22.916161,594375.000000,1673605740.008777,,,,
1673605740.020038,22.807619,594376.000000,1673605740.009777,,,,
1673605740.020046,22.807619,594377.000000,1673605740.010777,,,,
1673605740.020051,22.861895,594378.000000,1673605740.011777,,,,
1673605740.020077,22.807619,594379.000000,1673605740.012777,,,,
1673605740.020104,22.898071,594380.000000,1673605740.013777,,,,
1673605740.020111,22.916161,594381.000000,1673605740.014777,,,,
1673605740.020121,22.879982,594382.000000,1673605740.015777,,,,
1673605740.020133,22.861895,594383.000000,1673605740.016777,,,,
1673605740.020135,22.861895,594384.000000,1673605740.017777,,,,
1673605740.020316,,,,5.535614,5.535462,2594070.000000,1673603692.015227
1673605740.022181,,,,5.529459,5.531496,2594071.000000,1673603692.016234
1673605740.022200,,,,5.537248,5.537698,2594072.000000,1673603692.017241
1673605740.022207,,,,5.537513,5.536664,2594073.000000,1673603692.018248
1673605740.022326,,,,5.514674,5.515148,2594074.000000,1673603692.019255
1673605740.022336,,,,5.500394,5.502286,2594075.000000,1673603692.020262
1673605740.022341,,,,5.500226,5.504546,2594076.000000,1673603692.021270
1673605740.022363,,,,5.509602,5.514331,2594077.000000,1673603692.022277
1673605740.026887,,,,5.514458,5.519235,2594078.000000,1673603692.023284
1673605740.026913,,,,5.513953,5.516158,2594079.000000,1673603692.024291
1673605740.026928,,,,5.507606,5.510509,2594080.000000,1673603692.025298
1673605740.027411,,,,5.502365,5.507311,2594081.000000,1673603692.026305
1673605740.029341,,,,5.495682,5.498032,2594082.000000,1673603692.027312
1673605740.029626,,,,5.494961,5.493992,2594083.000000,1673603692.028319
1673605740.029698,,,,5.498326,5.502214,2594084.000000,1673603692.029326
1673605740.034487,,,,5.495538,5.500892,2594085.000000,1673603692.030333
1673605740.034806,,,,5.493783,5.495459,2594086.000000,1673603692.031340
1673605740.034849,,,,5.490778,5.493175,2594087.000000,1673603692.032347
1673605740.035450,,,,5.494744,5.497550,2594088.000000,1673603692.033355
1673605740.035671,,,,5.502245,5.505171,2594089.000000,1673603692.034362
1673605740.035751,,,,5.511212,5.513754,2594090.000000,1673603692.035369
1673605740.036006,,,,5.530204,5.531111,2594091.000000,1673603692.036376
1673605740.036233,,,,5.544652,5.545271,2594092.000000,1673603692.037383
1673605740.036449,,,,5.544388,5.545295,2594093.000000,1673603692.038390
1673605740.036810,,,,5.541696,5.542771,2594094.000000,1673603692.039397
1673605740.037072,,,,5.528714,5.531592,2594095.000000,1673603692.040404
1673605740.041637,,,,5.519987,5.520245,2594096.000000,1673603692.041411
1673605740.042028,,,,5.516140,5.515461,2594097.000000,1673603692.042418
1673605740.042036,,,,5.517126,5.516038,2594098.000000,1673603692.043425
1673605740.042055,,,,5.511717,5.512383,2594099.000000,1673603692.044432
1673605740.044363,,,,5.505226,5.507191,2594100.000000,1673603692.045439
1673605740.044373,,,,5.499384,5.501806,2594101.000000,1673603692.046447
1673605740.044380,,,,5.498639,5.501109,2594102.000000,1673603692.047454
1673605740.044470,,,,5.504673,5.505748,2594103.000000,1673603692.048461
1673605740.044534,,,,5.512102,5.510989,2594104.000000,1673603692.049468
1673605740.044541,,,,5.513616,5.514716,2594105.000000,1673603692.050475
1673605740.044640,,,,5.510707,5.511686,2594106.000000,1673603692.051482
1673605740.049450,,,,5.510828,5.514643,2594107.000000,1673603692.052489
1673605740.049654,,,,5.514145,5.516783,2594108.000000,1673603692.053496
1673605740.049769,,,,5.512703,5.515028,2594109.000000,1673603692.054503
1673605740.050071,,,,5.511164,5.514259,2594110.000000,1673603692.055510
1673605740.050091,,,,5.509121,5.514066,2594111.000000,1673603692.056517
1673605740.050099,,,,5.508255,5.509547,2594112.000000,1673603692.057524
1673605740.050107,,,,5.507390,5.509787,2594113.000000,1673603692.058532
1673605740.066813,,,,5.502870,5.507936,2594114.000000,1673603692.059539
1673605740.067368,,,,5.503904,5.508585,2594115.000000,1673603692.060546
1673605740.067711,,,,5.507438,5.509907,2594116.000000,1673603692.061553
1673605740.067987,,,,5.522559,5.523082,2594117.000000,1673603692.062560
1673605740.068044,,,,5.526117,5.526015,2594118.000000,1673603692.063567
1673605740.068049,,,,5.525565,5.526567,2594119.000000,1673603692.064574
1673605740.068248,,,,5.534267,5.537362,2594120.000000,1673603692.065581
1673605740.068827,,,,5.535349,5.537266,2594121.000000,1673603692.066588
1673605740.068954,,,,5.521165,5.522889,2594122.000000,1673603692.067595
1673605740.069163,,,,5.503110,5.503849,2594123.000000,1673603692.068602
1673605740.069412,,,,5.501235,5.503777,2594124.000000,1673603692.069609
1673605740.069433,,,,5.521189,5.525101,2594125.000000,1673603692.070616
1673605740.069608,,,,5.527560,5.530198,2594126.000000,1673603692.071624
1673605740.069622,,,,5.522103,5.524163,2594127.000000,1673603692.072631
1673605740.073745,22.898071,594392.000000,1673605740.019314,,,,
1673605740.073766,22.916161,594393.000000,1673605740.020314,,,,
1673605740.073783,22.898071,594394.000000,1673605740.021314,,,,
1673605740.074121,,,,5.517415,5.518995,2594128.000000,1673603692.073638
1673605740.075404,22.825716,594395.000000,1673605740.022314,,,,
1673605740.075413,22.898071,594396.000000,1673605740.023314,,,,
1673605740.075417,22.898071,594397.000000,1673605740.024314,,,,
1673605740.075420,22.898071,594398.000000,1673605740.025314,,,,
1673605740.075466,22.916161,594399.000000,1673605740.026314,,,,
1673605740.075473,22.934250,594400.000000,1673605740.027314,,,,
1673605740.075490,22.898071,594401.000000,1673605740.028314,,,,
1673605740.075496,23.187513,594436.000000,1673605740.063314,,,,
1673605740.075504,23.169424,594437.000000,1673605740.064314,,,,
1673605740.075526,23.205603,594438.000000,1673605740.065314,,,,
1673605740.075532,23.169424,594439.000000,1673605740.066314,,,,
1673605740.075553,23.169424,594440.000000,1673605740.067314,,,,
1673605740.075580,23.205603,594441.000000,1673605740.068314,,,,
1673605740.075589,23.205603,594442.000000,1673605740.069314,,,,
1673605740.075606,23.223692,594443.000000,1673605740.070314,,,,
1673605740.075612,23.241789,594444.000000,1673605740.071314,,,,
1673605740.075616,23.223692,594445.000000,1673605740.072314,,,,
1673605740.075773,,,,5.525035,5.530174,2594129.000000,1673603692.074645
1673605740.075783,,,,5.519314,5.524740,2594130.000000,1673603692.075652
1673605740.075943,,,,5.502966,5.506734,2594131.000000,1673603692.076659
1673605740.076147,,,,5.496523,5.497406,2594132.000000,1673603692.077666
1673605740.076249,,,,5.513857,5.516182,2594133.000000,1673603692.078673
1673605740.076441,,,,5.526214,5.528707,2594134.000000,1673603692.079680
1673605740.076630,,,,5.518064,5.520485,2594135.000000,1673603692.080687
1673605740.076729,,,,5.503087,5.503873,2594136.000000,1673603692.081694
1673605740.076898,,,,5.480176,5.481323,2594137.000000,1673603692.082701
1673605740.077152,,,,5.467771,5.469567,2594138.000000,1673603692.083709
1673605740.077163,,,,5.469718,5.472164,2594139.000000,1673603692.084716
1673605740.077234,,,,5.472435,5.475842,2594140.000000,1673603692.085723
1673605740.077248,,,,5.478277,5.480073,2594141.000000,1673603692.086730
1673605740.077380,,,,5.473180,5.473366,2594142.000000,1673603692.087737
1673605740.077573,,,,5.470103,5.471154,2594143.000000,1673603692.088744
1673605740.077787,,,,5.465559,5.469615,2594144.000000,1673603692.089751
1673605740.077809,,,,5.458636,5.462451,2594145.000000,1673603692.090758
1673605740.078005,,,,5.450943,5.454903,2594146.000000,1673603692.091765
1673605740.078924,,,,5.450799,5.452763,2594147.000000,1673603692.092772
1673605740.079132,,,,5.452914,5.456778,2594148.000000,1673603692.093779
1673605740.079256,,,,5.455558,5.459518,2594149.000000,1673603692.094786
1673605740.081748,,,,5.463083,5.466562,2594150.000000,1673603692.095793
1673605740.081829,,,,5.475464,5.479929,2594151.000000,1673603692.096801
1673605740.082102,,,,5.486282,5.486828,2594152.000000,1673603692.097808
1673605740.082195,,,,5.491547,5.493248,2594153.000000,1673603692.098815
1673605740.082304,,,,5.499601,5.503440,2594154.000000,1673603692.099822
1673605740.082502,,,,5.506356,5.506830,2594155.000000,1673603692.100829
1673605740.082514,,,,5.497317,5.495243,2594156.000000,1673603692.101836
1673605740.094359,,,,5.485729,5.484953,2594157.000000,1673603692.102843
1673605740.094585,,,,5.476161,5.479640,2594158.000000,1673603692.103850
1673605740.094821,,,,5.465607,5.468678,2594159.000000,1673603692.104857
1673605740.096890,,,,5.461136,5.459662,2594160.000000,1673603692.105864
1673605740.097065,,,,5.462530,5.464880,2594161.000000,1673603692.106871
1673605740.097222,,,,5.465175,5.471154,2594162.000000,1673603692.107878
1673605740.097594,,,,5.466785,5.471587,2594163.000000,1673603692.108886
1673605740.097866,,,,5.466208,5.467596,2594164.000000,1673603692.109893
1673605740.098585,,,,5.463684,5.464903,2594165.000000,1673603692.110900
1673605740.098612,,,,5.460751,5.461393,2594166.000000,1673603692.111907
1673605740.099111,,,,5.458611,5.459422,2594167.000000,1673603692.112914
1673605740.104456,,,,5.456929,5.459013,2594168.000000,1673603692.113921
1673605740.104470,,,,5.465175,5.466202,2594169.000000,1673603692.114928
1673605740.104597,,,,5.471593,5.473174,2594170.000000,1673603692.115935
1673605740.104679,,,,5.483373,5.484833,2594171.000000,1673603692.116942
1673605740.104893,,,,5.494913,5.495603,2594172.000000,1673603692.117949
1673605740.105056,,,,5.495682,5.500484,2594173.000000,1673603692.118956
1673605740.109378,,,,5.498254,5.502022,2594174.000000,1673603692.119963
1673605740.109638,,,,5.500466,5.503152,2594175.000000,1673603692.120970
1673605740.109705,,,,5.502750,5.503008,2594176.000000,1673603692.121978
1673605740.109814,,,,5.507294,5.506854,2594177.000000,1673603692.122985
1673605740.110095,,,,5.512174,5.515028,2594178.000000,1673603692.123992
1673605740.110128,,,,5.509025,5.514403,2594179.000000,1673603692.124999
1673605740.110269,,,,5.506476,5.511061,2594180.000000,1673603692.126006
1673605740.110309,,,,5.505226,5.507624,2594181.000000,1673603692.127013
1673605740.111451,,,,5.501596,5.504498,2594182.000000,1673603692.128020
1673605740.111504,,,,5.495898,5.498969,2594183.000000,1673603692.129027
1673605740.111561,,,,5.490561,5.493007,2594184.000000,1673603692.130034
1673605740.127972,23.241789,594446.000000,1673605740.067355,,,,
1673605740.128025,23.277967,594447.000000,1673605740.068355,,,,
1673605740.128031,23.223692,594448.000000,1673605740.069355,,,,
1673605740.128395,,,,5.488205,5.491324,2594185.000000,1673603692.131041
1673605740.128605,,,,5.487100,5.489786,2594186.000000,1673603692.132048
1673605740.128611,,,,5.489047,5.489689,2594187.000000,1673603692.133055
1673605740.128638,23.277967,594449.000000,1673605740.070355,,,,
1673605740.128690,23.169424,594450.000000,1673605740.071355,,,,
1673605740.128781,,,,5.490705,5.491805,2594188.000000,1673603692.134063
1673605740.128996,,,,5.491379,5.494522,2594189.000000,1673603692.135070
1673605740.129272,,,,5.490585,5.498609,2594190.000000,1673603692.136077
1673605740.129356,23.404598,594497.000000,1673605740.118355,,,,
1673605740.129362,23.350323,594498.000000,1673605740.119355,,,,
1673605740.129366,23.350323,594499.000000,1673605740.120355,,,,
1673605740.129404,23.404598,594500.000000,1673605740.121355,,,,
1673605740.129412,23.368412,594501.000000,1673605740.122355,,,,
1673605740.129416,23.440777,594502.000000,1673605740.123355,,,,
1673605740.129441,23.440777,594503.000000,1673605740.124355,,,,
1673605740.129446,23.404598,594504.000000,1673605740.125355,,,,
1673605740.129454,23.404598,594505.000000,1673605740.126355,,,,
1673605740.129457,23.386509,594506.000000,1673605740.127355,,,,
1673605740.129483,,,,5.493182,5.498007,2594191.000000,1673603692.137084
1673605740.129487,,,,5.496018,5.497430,2594192.000000,1673603692.138091
1673605740.129669,,,,5.495658,5.497527,2594193.000000,1673603692.139098
1673605740.129804,,,,5.494648,5.495820,2594194.000000,1673603692.140105
1673605740.130027,,,,5.485777,5.487958,2594195.000000,1673603692.141112
1673605740.130101,,,,5.482316,5.485049,2594196.000000,1673603692.142119
1673605740.130127,,,,5.502197,5.504258,2594197.000000,1673603692.143126
1673605740.130369,,,,5.538330,5.538876,2594198.000000,1673603692.144133
1673605740.130624,,,,5.543066,5.543540,2594199.000000,1673603692.145140
1673605740.130634,,,,5.554485,5.554671,2594200.000000,1673603692.146147
1673605740.130638,,,,5.562346,5.561739,2594201.000000,1673603692.147155
1673605740.130642,,,,5.546768,5.549094,2594202.000000,1673603692.148162
1673605740.130746,,,,5.538042,5.540246,2594203.000000,1673603692.149169
1673605740.130754,,,,5.520179,5.519452,2594204.000000,1673603692.150176
1673605740.130760,,,,5.482219,5.483655,2594205.000000,1673603692.151183
1673605740.134275,,,,5.460487,5.461033,2594206.000000,1673603692.152190
1673605740.134370,,,,5.452001,5.453869,2594207.000000,1673603692.153197
1673605740.134620,,,,5.438922,5.442401,2594208.000000,1673603692.154204
1673605740.134627,,,,5.441327,5.446560,2594209.000000,1673603692.155211
1673605740.134785,,,,5.455029,5.458629,2594210.000000,1673603692.156218
1673605740.134796,,,,5.463324,5.464567,2594211.000000,1673603692.157225
1673605740.134854,,,,5.475416,5.473798,2594212.000000,1673603692.158232
1673605740.134863,,,,5.482772,5.483054,2594213.000000,1673603692.159240
1673605740.141808,,,,5.485849,5.488511,2594214.000000,1673603692.160247
1673605740.141819,,,,5.498903,5.501253,2594215.000000,1673603692.161254
1673605740.142126,,,,5.509241,5.513489,2594216.000000,1673603692.162261
1673605740.146606,,,,5.516573,5.517072,2594217.000000,1673603692.163268
1673605740.147328,,,,5.517871,5.517024,2594218.000000,1673603692.164275
1673605740.147344,,,,5.513352,5.514788,2594219.000000,1673603692.165282
1673605740.147438,,,,5.513280,5.515845,2594220.000000,1673603692.166289
1673605740.149036,,,,5.511164,5.510677,2594221.000000,1673603692.167296
1673605740.149425,,,,5.501836,5.502815,2594222.000000,1673603692.168303
1673605740.149665,,,,5.489215,5.492550,2594223.000000,1673603692.169310
1673605740.150120,,,,5.480513,5.486612,2594224.000000,1673603692.170317
1673605740.154403,,,,5.480128,5.482429,2594225.000000,1673603692.171324
1673605740.154424,,,,5.483878,5.484497,2594226.000000,1673603692.172332
1673605740.154740,,,,5.481402,5.483535,2594227.000000,1673603692.173339
1673605740.161790,,,,5.466929,5.472092,2594228.000000,1673603692.174346
1673605740.162191,,,,5.467891,5.471923,2594229.000000,1673603692.175353
1673605740.162624,,,,5.483061,5.486228,2594230.000000,1673603692.176360
1673605740.164392,,,,5.505010,5.504498,2594231.000000,1673603692.177367
1673605740.164856,,,,5.523641,5.524091,2594232.000000,1673603692.178374
1673605740.165160,,,,5.538739,5.540511,2594233.000000,1673603692.179381
1673605740.165395,,,,5.548667,5.552988,2594234.000000,1673603692.180388
1673605740.166035,,,,5.533306,5.537338,2594235.000000,1673603692.181395
1673605740.166059,,,,5.510635,5.512865,2594236.000000,1673603692.182402
1673605740.166098,,,,5.518473,5.519500,2594237.000000,1673603692.183409
1673605740.166478,,,,5.511236,5.513177,2594238.000000,1673603692.184417
1673605740.169664,,,,5.506525,5.509547,2594239.000000,1673603692.185424
1673605740.169777,,,,5.515227,5.518178,2594240.000000,1673603692.186431
1673605740.169975,,,,5.518136,5.520052,2594241.000000,1673603692.187438
1673605740.170108,,,,5.517126,5.519644,2594242.000000,1673603692.188445
1673605740.170520,,,,5.513448,5.515965,2594243.000000,1673603692.189452
1673605740.170659,,,,5.508544,5.510821,2594244.000000,1673603692.190459
1673605740.170783,,,,5.502846,5.506277,2594245.000000,1673603692.191466
1673605740.192397,23.386509,594507.000000,1673605740.131866,,,,
1673605740.192410,23.386509,594508.000000,1673605740.132866,,,,
1673605740.192427,23.440777,594509.000000,1673605740.133866,,,,
1673605740.192434,23.495043,594510.000000,1673605740.134866,,,,
1673605740.192621,23.476955,594511.000000,1673605740.135866,,,,
1673605740.192648,23.495043,594512.000000,1673605740.136866,,,,
1673605740.192667,23.513142,594513.000000,1673605740.137866,,,,
1673605740.193824,23.495043,594514.000000,1673605740.138866,,,,
1673605740.194296,23.495043,594515.000000,1673605740.139866,,,,
1673605740.194308,23.838760,594558.000000,1673605740.182866,,,,
1673605740.194316,23.820671,594559.000000,1673605740.183866,,,,
1673605740.194340,23.893028,594560.000000,1673605740.184866,,,,
1673605740.194346,23.838760,594561.000000,1673605740.185866,,,,
1673605740.194353,23.838760,594562.000000,1673605740.186866,,,,
1673605740.194358,23.893028,594563.000000,1673605740.187866,,,,
1673605740.194366,23.820671,594564.000000,1673605740.188866,,,,
1673605740.194372,23.893028,594565.000000,1673605740.189866,,,,
1673605740.194376,23.856850,594566.000000,1673605740.190866,,,,
1673605740.194396,23.893028,594567.000000,1673605740.191866,,,,
1673605740.199148,,,,5.496595,5.501132,2594246.000000,1673603692.192473
1673605740.199289,,,,5.498591,5.502527,2594247.000000,1673603692.193480
1673605740.199428,,,,5.503159,5.506301,2594248.000000,1673603692.194487
1673605740.203532,,,,5.505707,5.508753,2594249.000000,1673603692.195494
1673605740.204103,,,,5.508063,5.509667,2594250.000000,1673603692.196501
1673605740.204123,,,,5.513400,5.514932,2594251.000000,1673603692.197509
1673605740.204152,,,,5.507774,5.513033,2594252.000000,1673603692.198516
1673605740.204338,,,,5.502654,5.505796,2594253.000000,1673603692.199523
1673605740.204768,,,,5.503087,5.506373,2594254.000000,1673603692.200530
1673605740.205044,,,,5.509337,5.511638,2594255.000000,1673603692.201537
1673605740.205329,,,,5.511813,5.516038,2594256.000000,1673603692.202544
1673605740.205762,,,,5.516429,5.520678,2594257.000000,1673603692.203551
1673605740.205786,,,,5.539124,5.544285,2594258.000000,1673603692.204558
1673605740.205804,,,,5.555856,5.558277,2594259.000000,1673603692.205565
1673605740.206669,,,,5.547634,5.550127,2594260.000000,1673603692.206572
1673605740.206887,,,,5.536263,5.539044,2594261.000000,1673603692.207579
1673605740.207091,,,,5.530012,5.530871,2594262.000000,1673603692.208586
1673605740.211328,,,,5.522199,5.526303,2594263.000000,1673603692.209594
1673605740.211346,,,,5.517751,5.521206,2594264.000000,1673603692.210601
1673605740.211612,,,,5.495706,5.496060,2594265.000000,1673603692.211608
1673605740.211968,,,,5.484575,5.487982,2594266.000000,1673603692.212615
1673605740.212122,,,,5.503327,5.505171,2594267.000000,1673603692.213622
1673605740.212440,,,,5.514578,5.518009,2594268.000000,1673603692.214629
1673605740.212566,,,,5.515059,5.518634,2594269.000000,1673603692.215636
1673605740.212655,,,,5.506837,5.510509,2594270.000000,1673603692.216643
1673605740.214159,,,,5.504000,5.504162,2594271.000000,1673603692.217650
1673605740.214516,,,,5.504192,5.508417,2594272.000000,1673603692.218657
1673605740.214527,,,,5.503712,5.510268,2594273.000000,1673603692.219664
1673605740.222066,,,,5.511933,5.516398,2594274.000000,1673603692.220671
1673605740.222080,,,,5.520131,5.522793,2594275.000000,1673603692.221678
1673605740.222178,,,,5.512630,5.515797,2594276.000000,1673603692.222686
1673605740.226338,,,,5.503063,5.506662,2594277.000000,1673603692.223693
1673605740.226356,,,,5.494071,5.499209,2594278.000000,1673603692.224700
1673605740.226808,,,,5.490057,5.493007,2594279.000000,1673603692.225707
1673605740.227161,,,,5.492485,5.495940,2594280.000000,1673603692.226714
1673605740.227389,,,,5.501284,5.505868,2594281.000000,1673603692.227721
1673605740.227587,,,,5.505803,5.509932,2594282.000000,1673603692.228728
1673605740.227870,,,,5.509337,5.509499,2594283.000000,1673603692.229735
1673605740.228009,,,,5.507967,5.510509,2594284.000000,1673603692.230742
1673605740.231976,,,,5.504361,5.504498,2594285.000000,1673603692.231749
1673605740.232308,,,,5.500707,5.501012,2594286.000000,1673603692.232756
1673605740.232537,,,,5.496043,5.498825,2594287.000000,1673603692.233763
1673605740.232974,,,,5.487773,5.492454,2594288.000000,1673603692.234771
1673605740.233258,,,,5.487460,5.488559,2594289.000000,1673603692.235778
