__time,/gdx/grip_force_stream/grip_force,/gdx/grip_force_stream/header/seq,/gdx/grip_force_stream/header/stamp,/shimmer0/emg_stream/emg_ch1,/shimmer0/emg_stream/emg_ch2,/shimmer0/emg_stream/header/seq,/shimmer0/emg_stream/header/stamp
1673605797.783079,-0.709541,652092.000000,1673605797.723215,,,,
1673605797.783091,-0.709541,652093.000000,1673605797.724215,,,,
1673605797.783096,-0.709541,652094.000000,1673605797.725215,,,,
1673605797.783104,-0.673355,652095.000000,1673605797.726215,,,,
1673605797.783932,-0.655266,652096.000000,1673605797.727215,,,,
1673605797.783942,-0.691452,652097.000000,1673605797.728215,,,,
1673605797.783950,-0.691452,652098.000000,1673605797.729215,,,,
1673605797.783954,-0.691452,652099.000000,1673605797.730215,,,,
1673605797.783958,-0.691452,652142.000000,1673605797.773215,,,,
1673605797.783975,-0.673355,652143.000000,1673605797.774215,,,,
1673605797.783977,-0.709541,652144.000000,1673605797.775215,,,,
1673605797.783989,-0.691452,652145.000000,1673605797.776215,,,,
1673605797.784052,-0.691452,652146.000000,1673605797.777215,,,,
1673605797.784060,-0.691452,652147.000000,1673605797.778215,,,,
1673605797.784065,-0.673355,652148.000000,1673605797.779215,,,,
1673605797.784069,-0.673355,652149.000000,1673605797.780215,,,,
1673605797.784072,-0.673355,652150.000000,1673605797.781215,,,,
1673605797.784078,-0.709541,652151.000000,1673605797.782215,,,,
1673605797.796061,,,,5.598047,5.599434,2651394.000000,1673603749.745085
1673605797.796255,,,,5.612711,5.615085,2651395.000000,1673603749.746093
1673605797.796265,,,,5.616486,5.620157,2651396.000000,1673603749.747100
1673605797.796302,,,,5.612351,5.615013,2651397.000000,1673603749.748107
1673605797.796485,,,,5.611509,5.615518,2651398.000000,1673603749.749114
1673605797.796970,,,,5.616197,5.619388,2651399.000000,1673603749.750121
1673605797.797273,,,,5.617255,5.621864,2651400.000000,1673603749.751128
1673605797.797574,,,,5.618145,5.620662,2651401.000000,1673603749.752135
1673605797.797845,,,,5.618145,5.621504,2651402.000000,1673603749.753142
1673605797.798184,,,,5.618721,5.623187,2651403.000000,1673603749.754149
1673605797.798434,,,,5.620044,5.624028,2651404.000000,1673603749.755156
1673605797.798444,,,,5.620861,5.621552,2651405.000000,1673603749.756163
1673605797.798472,,,,5.622592,5.625590,2651406.000000,1673603749.757170
1673605797.798664,,,,5.619683,5.622105,2651407.000000,1673603749.758178
1673605797.799748,,,,5.617688,5.620854,2651408.000000,1673603749.759185
1673605797.800092,,,,5.619683,5.624918,2651409.000000,1673603749.760192
1673605797.800375,,,,5.621198,5.621528,2651410.000000,1673603749.761199
1673605797.800454,,,,5.616991,5.619700,2651411.000000,1673603749.762206
1673605797.800684,,,,5.616486,5.618378,2651412.000000,1673603749.763213
1673605797.800968,,,,5.619154,5.620398,2651413.000000,1673603749.764220
1673605797.801149,,,,5.617856,5.620446,2651414.000000,1673603749.765227
1673605797.801378,,,,5.623217,5.624677,2651415.000000,1673603749.766234
1673605797.815030,,,,5.621799,5.622513,2651416.000000,1673603749.767241
1673605797.815392,,,,5.620212,5.619196,2651417.000000,1673603749.768248
1673605797.815834,,,,5.621486,5.621672,2651418.000000,1673603749.769255
1673605797.816089,,,,5.624732,5.624220,2651419.000000,1673603749.770262
1673605797.816103,,,,5.622280,5.622321,2651420.000000,1673603749.771270
1673605797.816113,,,,5.604802,5.605276,2651421.000000,1673603749.772277
1673605797.817093,,,,5.591291,5.595227,2651422.000000,1673603749.773284
1673605797.817112,,,,5.596508,5.600348,2651423.000000,1673603749.774291
1673605797.817123,,,,5.604442,5.606118,2651424.000000,1673603749.775298
1673605797.817341,,,,5.608480,5.611575,2651425.000000,1673603749.776305
1673605797.831449,,,,5.623313,5.625110,2651426.000000,1673603749.777312
1673605797.831469,,,,5.637882,5.639558,2651427.000000,1673603749.778319
1673605797.831477,,,,5.637473,5.640207,2651428.000000,1673603749.779326
1673605797.831727,,,,5.636295,5.637731,2651429.000000,1673603749.780333
1673605797.831736,,,,5.631703,5.636553,2651430.000000,1673603749.781340
1673605797.831742,,,,5.619226,5.622778,2651431.000000,1673603749.782347
1673605797.831905,,,,5.602614,5.604267,2651432.000000,1673603749.783355
1673605797.839602,,,,5.583502,5.586116,2651433.000000,1673603749.784362
1673605797.840081,,,,5.580256,5.582582,2651434.000000,1673603749.785369
1673605797.840242,,,,5.580882,5.580947,2651435.000000,1673603749.786376
1673605797.840254,,,,5.594994,5.598425,2651436.000000,1673603749.787383
1673605797.840268,,,,5.598407,5.600468,2651437.000000,1673603749.788390
1673605797.840366,,,,5.595667,5.597896,2651438.000000,1673603749.789397
1673605797.840533,,,,5.627039,5.630471,2651439.000000,1673603749.790404
1673605797.840726,,,,5.645431,5.649343,2651440.000000,1673603749.791411
1673605797.840873,,,,5.657571,5.658286,2651441.000000,1673603749.792418
1673605797.840994,,,,5.653532,5.657372,2651442.000000,1673603749.793425
1673605797.841110,,,,5.643772,5.647708,2651443.000000,1673603749.794432
1673605797.841379,,,,5.641993,5.642635,2651444.000000,1673603749.795439
1673605797.841383,,,,5.644397,5.648501,2651445.000000,1673603749.796447
1673605797.841473,,,,5.649950,5.654848,2651446.000000,1673603749.797454
1673605797.841560,,,,5.650023,5.656242,2651447.000000,1673603749.798461
1673605797.841799,,,,5.647210,5.650785,2651448.000000,1673603749.799468
1673605797.841803,,,,5.642041,5.644895,2651449.000000,1673603749.800475
1673605797.841882,,,,5.634588,5.639053,2651450.000000,1673603749.801482
1673605797.842042,,,,5.629444,5.631120,2651451.000000,1673603749.802489
1673605797.847072,-0.673355,652152.000000,1673605797.786500,,,,
1673605797.847083,-0.673355,652153.000000,1673605797.787500,,,,
1673605797.847096,-0.709541,652154.000000,1673605797.788500,,,,
1673605797.847100,-0.709541,652155.000000,1673605797.789500,,,,
1673605797.847110,-0.655266,652156.000000,1673605797.790500,,,,
1673605797.847112,-0.673355,652157.000000,1673605797.791500,,,,
1673605797.847175,-0.673355,652158.000000,1673605797.792500,,,,
1673605797.847212,-0.655266,652159.000000,1673605797.793500,,,,
1673605797.847239,-0.655266,652160.000000,1673605797.794500,,,,
1673605797.847303,-0.637177,652161.000000,1673605797.795500,,,,
1673605797.847350,-0.691452,652162.000000,1673605797.796500,,,,
1673605797.847375,-0.709541,652163.000000,1673605797.797500,,,,
1673605797.847975,-0.727630,652164.000000,1673605797.798500,,,,
1673605797.847979,-0.745719,652165.000000,1673605797.799500,,,,
1673605797.847994,-0.691452,652203.000000,1673605797.837500,,,,
1673605797.847998,-0.709541,652204.000000,1673605797.838500,,,,
1673605797.848008,-0.709541,652205.000000,1673605797.839500,,,,
1673605797.848010,-0.709541,652206.000000,1673605797.840500,,,,
1673605797.848027,-0.691452,652207.000000,1673605797.841500,,,,
1673605797.848030,-0.709541,652208.000000,1673605797.842500,,,,
1673605797.848033,-0.709541,652209.000000,1673605797.843500,,,,
1673605797.848099,-0.691452,652210.000000,1673605797.844500,,,,
1673605797.848105,-0.673355,652211.000000,1673605797.845500,,,,
1673605797.848109,-0.691452,652212.000000,1673605797.846500,,,,
1673605797.855933,,,,5.612855,5.614532,2651452.000000,1673603749.803496
1673605797.856047,,,,5.606485,5.609026,2651453.000000,1673603749.804503
1673605797.856259,,,,5.614466,5.616960,2651454.000000,1673603749.805510
1673605797.856488,,,,5.617544,5.621456,2651455.000000,1673603749.806517
1673605797.856740,,,,5.621534,5.626071,2651456.000000,1673603749.807524
1673605797.857037,,,,5.628218,5.633524,2651457.000000,1673603749.808532
1673605797.857252,,,,5.640141,5.641025,2651458.000000,1673603749.809539
1673605797.857948,,,,5.634973,5.633764,2651459.000000,1673603749.810546
1673605797.857969,,,,5.623650,5.624364,2651460.000000,1673603749.811553
1673605797.858001,,,,5.626054,5.628475,2651461.000000,1673603749.812560
1673605797.858874,,,,5.625429,5.627466,2651462.000000,1673603749.813567
1673605797.858890,,,,5.628338,5.629125,2651463.000000,1673603749.814574
1673605797.859449,,,,5.627160,5.628018,2651464.000000,1673603749.815581
1673605797.859821,,,,5.629684,5.629509,2651465.000000,1673603749.816588
1673605797.860504,,,,5.628121,5.630182,2651466.000000,1673603749.817595
1673605797.860564,,,,5.627568,5.629293,2651467.000000,1673603749.818602
1673605797.860604,,,,5.626439,5.628595,2651468.000000,1673603749.819609
1673605797.861199,,,,5.623794,5.626648,2651469.000000,1673603749.820616
1673605797.861223,,,,5.619347,5.622922,2651470.000000,1673603749.821624
1673605797.861827,,,,5.618649,5.621263,2651471.000000,1673603749.822631
1673605797.862073,,,,5.619924,5.619628,2651472.000000,1673603749.823638
1673605797.862087,,,,5.619154,5.622201,2651473.000000,1673603749.824645
1673605797.862453,,,,5.620549,5.621888,2651474.000000,1673603749.825652
1673605797.862900,,,,5.619082,5.620326,2651475.000000,1673603749.826659
1673605797.862913,,,,5.621631,5.623908,2651476.000000,1673603749.827666
1673605797.862925,,,,5.622111,5.624629,2651477.000000,1673603749.828673
1673605797.862935,,,,5.625910,5.628379,2651478.000000,1673603749.829680
1673605797.862942,,,,5.631559,5.630711,2651479.000000,1673603749.830687
1673605797.862965,,,,5.639204,5.641337,2651480.000000,1673603749.831694
1673605797.863205,,,,5.642449,5.644775,2651481.000000,1673603749.832701
1673605797.863453,,,,5.635334,5.635447,2651482.000000,1673603749.833709
1673605797.863621,,,,5.633939,5.633476,2651483.000000,1673603749.834716
1673605797.863628,,,,5.624083,5.625374,2651484.000000,1673603749.835723
1673605797.863780,,,,5.607230,5.610325,2651485.000000,1673603749.836730
1673605797.864201,,,,5.586291,5.586909,2651486.000000,1673603749.837737
1673605797.864211,,,,5.595715,5.595684,2651487.000000,1673603749.838744
1673605797.864222,,,,5.624516,5.626023,2651488.000000,1673603749.839751
1673605797.864228,,,,5.641223,5.644126,2651489.000000,1673603749.840758
1673605797.864251,,,,5.645238,5.645761,2651490.000000,1673603749.841765
1673605797.866752,,,,5.636175,5.636961,2651491.000000,1673603749.842772
1673605797.866897,,,,5.629155,5.631745,2651492.000000,1673603749.843779
1673605797.869863,,,,5.625645,5.629749,2651493.000000,1673603749.844786
1673605797.869935,,,,5.624371,5.625927,2651494.000000,1673603749.845793
1673605797.870157,,,,5.624179,5.627586,2651495.000000,1673603749.846801
1673605797.870243,,,,5.626414,5.630783,2651496.000000,1673603749.847808
1673605797.870422,,,,5.628770,5.631096,2651497.000000,1673603749.848815
1673605797.870558,,,,5.626679,5.627826,2651498.000000,1673603749.849822
1673605797.870687,,,,5.627400,5.630471,2651499.000000,1673603749.850829
1673605797.870921,,,,5.629516,5.632682,2651500.000000,1673603749.851836
1673605797.870955,,,,5.632737,5.634149,2651501.000000,1673603749.852843
1673605797.871040,,,,5.634949,5.636096,2651502.000000,1673603749.853850
1673605797.871215,,,,5.630886,5.634197,2651503.000000,1673603749.854857
1673605797.874658,,,,5.625188,5.627538,2651504.000000,1673603749.855864
1673605797.875161,,,,5.624395,5.627153,2651505.000000,1673603749.856871
1673605797.875558,,,,5.623073,5.624990,2651506.000000,1673603749.857878
1673605797.875574,,,,5.623986,5.626384,2651507.000000,1673603749.858886
1673605797.875837,,,,5.625285,5.627057,2651508.000000,1673603749.859893
1673605797.876101,,,,5.629299,5.631865,2651509.000000,1673603749.860900
1673605797.876456,,,,5.630501,5.634438,2651510.000000,1673603749.861907
1673605797.877355,,,,5.630021,5.630038,2651511.000000,1673603749.862914
1673605797.877387,,,,5.629804,5.630711,2651512.000000,1673603749.863921
1673605797.877395,,,,5.624516,5.627346,2651513.000000,1673603749.864928
1673605797.877547,,,,5.612014,5.613330,2651514.000000,1673603749.865935
1673605797.900683,-0.655266,652213.000000,1673605797.840217,,,,
1673605797.900825,-0.727630,652214.000000,1673605797.841217,,,,
1673605797.900949,-0.781897,652219.000000,1673605797.846217,,,,
1673605797.900977,-0.709541,652220.000000,1673605797.847217,,,,
1673605797.901838,-0.799986,652221.000000,1673605797.848217,,,,
1673605797.901865,-0.781897,652222.000000,1673605797.849217,,,,
1673605797.901887,-0.799986,652223.000000,1673605797.850217,,,,
1673605797.901903,-0.763808,652224.000000,1673605797.851217,,,,
1673605797.901946,-0.763808,652225.000000,1673605797.852217,,,,
1673605797.901957,-0.727630,652226.000000,1673605797.853217,,,,
1673605797.901968,-0.763808,652227.000000,1673605797.854217,,,,
1673605797.901981,-0.781897,652228.000000,1673605797.855217,,,,
1673605797.901990,-0.673355,652264.000000,1673605797.891217,,,,
1673605797.902019,-0.691452,652265.000000,1673605797.892217,,,,
1673605797.902029,-0.691452,652266.000000,1673605797.893217,,,,
1673605797.902111,-0.709541,652267.000000,1673605797.894217,,,,
1673605797.902132,-0.745719,652268.000000,1673605797.895217,,,,
1673605797.902145,-0.691452,652269.000000,1673605797.896217,,,,
1673605797.902152,-0.691452,652270.000000,1673605797.897217,,,,
1673605797.902169,-0.709541,652271.000000,1673605797.898217,,,,
1673605797.902191,-0.727630,652272.000000,1673605797.899217,,,,
1673605797.902229,-0.727630,652273.000000,1673605797.900217,,,,
1673605797.915004,,,,5.593503,5.594386,2651515.000000,1673603749.866942
1673605797.915389,,,,5.587228,5.589506,2651516.000000,1673603749.867949
1673605797.915794,,,,5.595114,5.597343,2651517.000000,1673603749.868956
1673605797.915823,,,,5.601797,5.602944,2651518.000000,1673603749.869963
1673605797.916383,,,,5.595571,5.597487,2651519.000000,1673603749.870970
1673605797.916402,,,,5.596821,5.598617,2651520.000000,1673603749.871978
1673605797.916689,,,,5.610596,5.614460,2651521.000000,1673603749.872985
1673605797.916975,,,,5.612351,5.615854,2651522.000000,1673603749.873992
1673605797.917351,,,,5.604874,5.606046,2651523.000000,1673603749.874999
1673605797.918026,,,,5.585329,5.588255,2651524.000000,1673603749.876006
1673605797.918133,,,,5.613096,5.616960,2651525.000000,1673603749.877013
1673605797.918215,,,,5.645887,5.643501,2651526.000000,1673603749.878020
1673605797.918404,,,,5.653821,5.652492,2651527.000000,1673603749.879027
1673605797.919399,,,,5.660143,5.664849,2651529.000000,1673603749.881041
1673605797.920401,,,,5.662788,5.666363,2651530.000000,1673603749.882048
1673605797.920416,,,,5.661033,5.664752,2651531.000000,1673603749.883055
1673605797.920427,,,,5.655624,5.657829,2651532.000000,1673603749.884063
1673605797.920477,,,,5.651657,5.651434,2651533.000000,1673603749.885070
1673605797.920656,,,,5.646513,5.645640,2651534.000000,1673603749.886077
1673605797.920672,,,,5.642281,5.642731,2651535.000000,1673603749.887084
1673605797.920693,,,,5.628554,5.632418,2651536.000000,1673603749.888091
1673605797.920702,,,,5.627256,5.628788,2651537.000000,1673603749.889098
1673605797.920734,,,,5.632305,5.633596,2651538.000000,1673603749.890105
1673605797.921048,,,,5.629732,5.631120,2651541.000000,1673603749.893126
1673605797.921062,,,,5.632136,5.633332,2651542.000000,1673603749.894133
1673605797.921232,,,,5.633579,5.633861,2651543.000000,1673603749.895140
1673605797.921251,,,,5.629444,5.633428,2651544.000000,1673603749.896147
1673605797.921358,,,,5.629588,5.631360,2651545.000000,1673603749.897155
1673605797.921381,,,,5.632809,5.633812,2651546.000000,1673603749.898162
1673605797.921497,,,,5.631511,5.632033,2651547.000000,1673603749.899169
1673605797.921511,,,,5.632785,5.630951,2651548.000000,1673603749.900176
1673605797.921608,,,,5.632593,5.631889,2651549.000000,1673603749.901183
1673605797.921618,,,,5.628073,5.629870,2651550.000000,1673603749.902190
1673605797.922013,,,,5.626823,5.627610,2651551.000000,1673603749.903197
1673605797.922249,,,,5.628218,5.629942,2651552.000000,1673603749.904204
1673605797.922551,,,,5.629804,5.632010,2651553.000000,1673603749.905211
1673605797.922828,,,,5.628891,5.632923,2651554.000000,1673603749.906218
1673605797.922895,,,,5.631247,5.632010,2651555.000000,1673603749.907225
1673605797.923123,,,,5.629949,5.630471,2651556.000000,1673603749.908232
1673605797.923321,,,,5.628434,5.629605,2651557.000000,1673603749.909240
1673605797.929815,,,,5.626126,5.629341,2651558.000000,1673603749.910247
1673605797.930037,,,,5.627496,5.630399,2651559.000000,1673603749.911254
1673605797.930165,,,,5.631752,5.630951,2651560.000000,1673603749.912261
1673605797.930327,,,,5.628795,5.633067,2651561.000000,1673603749.913268
1673605797.930606,,,,5.633987,5.637683,2651562.000000,1673603749.914275
1673605797.930627,,,,5.637545,5.640856,2651563.000000,1673603749.915282
1673605797.930641,,,,5.635069,5.638356,2651564.000000,1673603749.916289
1673605797.934533,,,,5.626367,5.629413,2651565.000000,1673603749.917296
1673605797.934642,,,,5.627472,5.628523,2651566.000000,1673603749.918303
1673605797.934823,,,,5.629299,5.631384,2651567.000000,1673603749.919310
1673605797.935001,,,,5.626847,5.630663,2651568.000000,1673603749.920317
1673605797.936820,,,,5.638844,5.643212,2651569.000000,1673603749.921324
1673605797.937024,,,,5.640454,5.644366,2651570.000000,1673603749.922332
1673605797.937291,,,,5.624683,5.629822,2651571.000000,1673603749.923339
1673605797.951846,,,,5.612303,5.616695,2651572.000000,1673603749.924346
1673605797.951986,,,,5.607903,5.610180,2651573.000000,1673603749.925353
1673605797.951999,,,,5.605475,5.606118,2651574.000000,1673603749.926360
1673605797.953016,,,,5.620861,5.620302,2651576.000000,1673603749.928374
1673605797.953073,,,,5.632377,5.633476,2651577.000000,1673603749.929381
1673605797.953092,,,,5.640671,5.643284,2651578.000000,1673603749.930388
1673605797.953134,,,,5.646344,5.650208,2651579.000000,1673603749.931395
1673605797.953141,,,,5.648364,5.650977,2651580.000000,1673603749.932402
1673605797.953182,,,,5.639276,5.641530,2651581.000000,1673603749.933409
1673605797.953188,,,,5.634131,5.637298,2651582.000000,1673603749.934417
1673605797.953254,,,,5.628939,5.631817,2651583.000000,1673603749.935424
1673605797.953332,,,,5.623986,5.625110,2651584.000000,1673603749.936431
1673605797.953346,,,,5.620236,5.621936,2651585.000000,1673603749.937438
1673605797.965895,-0.691452,652325.000000,1673605797.955377,,,,
1673605797.965923,-0.691452,652326.000000,1673605797.956378,,,,
1673605797.965936,-0.709541,652327.000000,1673605797.957377,,,,
1673605797.965943,-0.673355,652328.000000,1673605797.958377,,,,
1673605797.966003,-0.655266,652329.000000,1673605797.959377,,,,
1673605797.966018,-0.709541,652330.000000,1673605797.960377,,,,
1673605797.966026,-0.691452,652331.000000,1673605797.961377,,,,
1673605797.966053,-0.709541,652332.000000,1673605797.962377,,,,
1673605797.966059,-0.709541,652333.000000,1673605797.963377,,,,
1673605797.966084,-0.727630,652334.000000,1673605797.964377,,,,
1673605797.974784,,,,5.627328,5.628692,2651586.000000,1673603749.938445
1673605797.975064,,,,5.631367,5.631625,2651587.000000,1673603749.939452
1673605797.975242,,,,5.622952,5.625615,2651588.000000,1673603749.940459
1673605797.975702,,,,5.621727,5.623739,2651589.000000,1673603749.941466
1673605797.976181,,,,5.628218,5.630519,2651590.000000,1673603749.942473
1673605797.976201,,,,5.636295,5.637058,2651591.000000,1673603749.943480
1673605797.976314,,,,5.644349,5.644823,2651592.000000,1673603749.944487
1673605797.976376,,,,5.649638,5.653550,2651593.000000,1673603749.945494
1673605798.019461,-0.709541,652373.000000,1673605797.996409,,,,
1673605798.019828,-0.709541,652374.000000,1673605797.997409,,,,
1673605798.019842,-0.727630,652375.000000,1673605797.998409,,,,
1673605798.019846,-0.781897,652376.000000,1673605797.999409,,,,
1673605798.019851,-0.763808,652377.000000,1673605798.000409,,,,
1673605798.019854,-0.727630,652378.000000,1673605798.001409,,,,
1673605798.019884,-0.763808,652379.000000,1673605798.002409,,,,
1673605798.019888,-0.781897,652380.000000,1673605798.003409,,,,
1673605798.019896,-0.763808,652381.000000,1673605798.004409,,,,
1673605798.019902,-0.727630,652382.000000,1673605798.005409,,,,
1673605798.019907,-0.673355,652386.000000,1673605798.009409,,,,
1673605798.019909,-0.709541,652387.000000,1673605798.010409,,,,
1673605798.019958,-0.655266,652388.000000,1673605798.011409,,,,
1673605798.019963,-0.655266,652389.000000,1673605798.012409,,,,
1673605798.019980,-0.655266,652390.000000,1673605798.013409,,,,
1673605798.020002,-0.709541,652391.000000,1673605798.014409,,,,
1673605798.020007,-0.673355,652392.000000,1673605798.015409,,,,
1673605798.020012,-0.673355,652393.000000,1673605798.016409,,,,
1673605798.020016,-0.709541,652394.000000,1673605798.017409,,,,
1673605798.020059,-0.727630,652395.000000,1673605798.018409,,,,
1673605798.041139,,,,5.659134,5.659993,2651594.000000,1673603749.946501
1673605798.041466,,,,5.662307,5.662204,2651595.000000,1673603749.947509
1673605798.041734,,,,5.659711,5.658791,2651596.000000,1673603749.948516
1673605798.041891,,,,5.654999,5.655473,2651597.000000,1673603749.949523
1673605798.042303,,,,5.640887,5.643020,2651598.000000,1673603749.950530
1673605798.042805,,,,5.619323,5.622537,2651599.000000,1673603749.951537
1673605798.043206,,,,5.620693,5.622369,2651600.000000,1673603749.952544
1673605798.043861,,,,5.627208,5.630903,2651601.000000,1673603749.953551
1673605798.043886,,,,5.617424,5.621960,2651602.000000,1673603749.954558
1673605798.043901,,,,5.608408,5.611551,2651603.000000,1673603749.955565
1673605798.043910,,,,5.613024,5.615782,2651604.000000,1673603749.956572
1673605798.044084,,,,5.612278,5.615926,2651605.000000,1673603749.957579
1673605798.044109,,,,5.591387,5.593328,2651606.000000,1673603749.958586
1673605798.044317,,,,5.584872,5.584745,2651607.000000,1673603749.959594
1673605798.044500,,,,5.597229,5.597415,2651608.000000,1673603749.960601
1673605798.044687,,,,5.599369,5.601117,2651609.000000,1673603749.961608
1673605798.045051,,,,5.608913,5.610445,2651610.000000,1673603749.962615
1673605798.045208,,,,5.617471,5.619172,2651611.000000,1673603749.963622
1673605798.045526,,,,5.657235,5.655858,2651612.000000,1673603749.964629
1673605798.045893,,,,5.677837,5.680547,2651613.000000,1673603749.965636
1673605798.046209,,,,5.683655,5.687567,2651614.000000,1673603749.966643
1673605798.049711,,,,5.678126,5.680547,2651615.000000,1673603749.967650
1673605798.049722,,,,5.667259,5.667854,2651616.000000,1673603749.968657
1673605798.049929,,,,5.654854,5.656386,2651617.000000,1673603749.969664
1673605798.050157,,,,5.648556,5.652299,2651618.000000,1673603749.970671
1673605798.050535,,,,5.642618,5.647083,2651619.000000,1673603749.971678
1673605798.050586,,,,5.634131,5.639414,2651620.000000,1673603749.972686
1673605798.050772,,,,5.632377,5.637034,2651621.000000,1673603749.973693
1673605798.054878,,,,5.634348,5.637250,2651622.000000,1673603749.974700
1673605798.055102,,,,5.633603,5.634750,2651623.000000,1673603749.975707
1673605798.055204,,,,5.634660,5.636361,2651624.000000,1673603749.976714
1673605798.055346,,,,5.636007,5.637563,2651625.000000,1673603749.977721
1673605798.055362,,,,5.632689,5.636649,2651626.000000,1673603749.978728
1673605798.055701,,,,5.630862,5.634341,2651627.000000,1673603749.979735
1673605798.055715,,,,5.629516,5.630591,2651628.000000,1673603749.980742
1673605798.062096,,,,5.633049,5.631601,2651629.000000,1673603749.981749
1673605798.062356,,,,5.633626,5.634269,2651630.000000,1673603749.982756
1673605798.062795,,,,5.634420,5.635183,2651631.000000,1673603749.983763
1673605798.063081,,,,5.636031,5.636120,2651632.000000,1673603749.984771
1673605798.064748,,,,5.633049,5.636000,2651633.000000,1673603749.985778
1673605798.064763,,,,5.632785,5.636673,2651634.000000,1673603749.986785
1673605798.064780,,,,5.633338,5.634317,2651635.000000,1673603749.987792
1673605798.095792,-0.763808,652413.000000,1673605798.051041,,,,
1673605798.095810,-0.745719,652414.000000,1673605798.052041,,,,
1673605798.095827,-0.727630,652415.000000,1673605798.053041,,,,
1673605798.095836,-0.763808,652416.000000,1673605798.054041,,,,
1673605798.095858,-0.763808,652417.000000,1673605798.055041,,,,
1673605798.095873,-0.763808,652418.000000,1673605798.056041,,,,
1673605798.095936,-0.763808,652419.000000,1673605798.057041,,,,
1673605798.095952,-0.709541,652420.000000,1673605798.058041,,,,
1673605798.097153,-0.745719,652421.000000,1673605798.059041,,,,
1673605798.097181,-0.745719,652422.000000,1673605798.060041,,,,
1673605798.097190,-0.691452,652447.000000,1673605798.085041,,,,
1673605798.097198,-0.691452,652448.000000,1673605798.086041,,,,
1673605798.097229,-0.673355,652449.000000,1673605798.087041,,,,
1673605798.097240,-0.655266,652450.000000,1673605798.088041,,,,
1673605798.097254,-0.637177,652451.000000,1673605798.089041,,,,
1673605798.097268,-0.655266,652452.000000,1673605798.090041,,,,
1673605798.097275,-0.637177,652453.000000,1673605798.091041,,,,
1673605798.097310,-0.655266,652454.000000,1673605798.092041,,,,
1673605798.097318,-0.655266,652455.000000,1673605798.093041,,,,
1673605798.097354,-0.691452,652456.000000,1673605798.094041,,,,
1673605798.099854,,,,5.632425,5.634389,2651636.000000,1673603749.988799
1673605798.100197,,,,5.633002,5.636481,2651637.000000,1673603749.989806
1673605798.100612,,,,5.634348,5.636986,2651638.000000,1673603749.990813
1673605798.100625,,,,5.636031,5.638404,2651639.000000,1673603749.991820
1673605798.100791,,,,5.635526,5.638284,2651640.000000,1673603749.992827
1673605798.100810,,,,5.636656,5.636289,2651641.000000,1673603749.993834
1673605798.100821,,,,5.637016,5.637635,2651642.000000,1673603749.994841
1673605798.107133,,,,5.632954,5.637274,2651643.000000,1673603749.995848
1673605798.107232,,,,5.629059,5.633307,2651644.000000,1673603749.996855
1673605798.107437,,,,5.631896,5.634245,2651645.000000,1673603749.997863
1673605798.148027,,,,5.638916,5.638861,2651646.000000,1673603749.998870
1673605798.148348,,,,5.639805,5.642154,2651647.000000,1673603749.999877
1673605798.148358,,,,5.638699,5.639846,2651648.000000,1673603750.000884
1673605798.148685,,,,5.635742,5.639438,2651649.000000,1673603750.001891
1673605798.148945,,,,5.631439,5.634726,2651650.000000,1673603750.002898
1673605798.148957,,,,5.621126,5.621648,2651651.000000,1673603750.003905
1673605798.149179,,,,5.612327,5.611070,2651652.000000,1673603750.004912
1673605798.149397,,,,5.613360,5.615638,2651653.000000,1673603750.005919
1673605798.149676,,,,5.616342,5.617705,2651654.000000,1673603750.006926
1673605798.149885,,,,5.620837,5.618715,2651655.000000,1673603750.007933
1673605798.150170,,,,5.624924,5.625446,2651656.000000,1673603750.008940
1673605798.150188,,,,5.629323,5.636168,2651657.000000,1673603750.009948
1673605798.150355,-0.709541,652470.000000,1673605798.101978,,,,
1673605798.150575,,,,5.632329,5.633644,2651658.000000,1673603750.010955
1673605798.150589,,,,5.622231,5.622826,2651659.000000,1673603750.011962
1673605798.151009,,,,5.615356,5.619700,2651660.000000,1673603750.012969
1673605798.151028,,,,5.619731,5.623787,2651661.000000,1673603750.013976
1673605798.151093,-0.727630,652471.000000,1673605798.102978,,,,
1673605798.151103,-0.691452,652472.000000,1673605798.103977,,,,
1673605798.151273,-0.763808,652473.000000,1673605798.104978,,,,
1673605798.151284,,,,5.614899,5.617321,2651662.000000,1673603750.014983
1673605798.151533,-0.763808,652474.000000,1673605798.105978,,,,
1673605798.151549,-0.763808,652475.000000,1673605798.106977,,,,
1673605798.151613,-0.763808,652476.000000,1673605798.107978,,,,
1673605798.151911,-0.836173,652477.000000,1673605798.108978,,,,
1673605798.151933,-0.799986,652478.000000,1673605798.109977,,,,
1673605798.151974,-0.763808,652479.000000,1673605798.110977,,,,
1673605798.152014,-0.763808,652508.000000,1673605798.139977,,,,
1673605798.152022,-0.745719,652509.000000,1673605798.140978,,,,
1673605798.152094,-0.691452,652510.000000,1673605798.141978,,,,
1673605798.152104,-0.745719,652511.000000,1673605798.142977,,,,
1673605798.152109,-0.727630,652512.000000,1673605798.143977,,,,
1673605798.152114,-0.745719,652513.000000,1673605798.144978,,,,
1673605798.152126,-0.745719,652514.000000,1673605798.145977,,,,
1673605798.152134,-0.709541,652515.000000,1673605798.146977,,,,
1673605798.152154,-0.727630,652516.000000,1673605798.147978,,,,
1673605798.152204,-0.727630,652517.000000,1673605798.148978,,,,
1673605798.152352,,,,5.605571,5.610469,2651663.000000,1673603750.015990
1673605798.152590,,,,5.620188,5.622393,2651664.000000,1673603750.016997
1673605798.152722,,,,5.629203,5.632082,2651665.000000,1673603750.018004
1673605798.152843,,,,5.616438,5.621696,2651666.000000,1673603750.019011
1673605798.153001,,,,5.618914,5.619965,2651667.000000,1673603750.020018
1673605798.153017,,,,5.633747,5.633692,2651668.000000,1673603750.021025
1673605798.153182,,,,5.648556,5.654367,2651669.000000,1673603750.022032
1673605798.153329,,,,5.667933,5.672518,2651670.000000,1673603750.023040
1673605798.153342,,,,5.686396,5.689803,2651671.000000,1673603750.024047
1673605798.153508,,,,5.685939,5.689322,2651672.000000,1673603750.025054
1673605798.153857,,,,5.670048,5.674585,2651673.000000,1673603750.026061
1673605798.154023,,,,5.648051,5.650256,2651674.000000,1673603750.027068
1673605798.154160,,,,5.599369,5.601310,2651675.000000,1673603750.028075
1673605798.154230,,,,5.554365,5.558493,2651676.000000,1673603750.029082
1673605798.154522,,,,5.541407,5.544405,2651677.000000,1673603750.030089
1673605798.154581,,,,5.558981,5.560104,2651678.000000,1673603750.031096
1673605798.154822,,,,5.588334,5.586284,2651679.000000,1673603750.032103
1673605798.154932,,,,5.617063,5.615446,2651680.000000,1673603750.033110
1673605798.155122,,,,5.667668,5.670811,2651681.000000,1673603750.034117
1673605798.155255,,,,5.683727,5.688457,2651682.000000,1673603750.035125
1673605798.159690,,,,5.681948,5.686245,2651683.000000,1673603750.036132
1673605798.160045,,,,5.677236,5.680283,2651684.000000,1673603750.037139
1673605798.160066,,,,5.664855,5.667902,2651685.000000,1673603750.038146
1673605798.160074,,,,5.655696,5.658550,2651686.000000,1673603750.039153
1673605798.160081,,,,5.653268,5.656915,2651687.000000,1673603750.040160
1673605798.160086,,,,5.653965,5.654752,2651688.000000,1673603750.041167
1673605798.169895,,,,5.650335,5.651194,2651689.000000,1673603750.042174
1673605798.170522,,,,5.644228,5.647179,2651690.000000,1673603750.043181
1673605798.170849,,,,5.640671,5.645232,2651691.000000,1673603750.044188
1673605798.171531,,,,5.641584,5.645015,2651692.000000,1673603750.045195
1673605798.171548,,,,5.647113,5.647563,2651693.000000,1673603750.046202
1673605798.171869,,,,5.646056,5.644318,2651694.000000,1673603750.047210
1673605798.171972,,,,5.640262,5.641289,2651695.000000,1673603750.048217
1673605798.174806,,,,5.644733,5.645448,2651696.000000,1673603750.049224
1673605798.175645,,,,5.649373,5.649871,2651697.000000,1673603750.050231
1673605798.175685,,,,5.645695,5.647780,2651698.000000,1673603750.051238
1673605798.175702,,,,5.642546,5.644030,2651699.000000,1673603750.052245
1673605798.177537,,,,5.639517,5.640953,2651700.000000,1673603750.053252
1673605798.177888,,,,5.640526,5.643573,2651701.000000,1673603750.054259
1673605798.177896,,,,5.638555,5.640087,2651702.000000,1673603750.055266
1673605798.178172,,,,5.636872,5.637082,2651703.000000,1673603750.056273
1673605798.178338,,,,5.639372,5.641553,2651704.000000,1673603750.057280
1673605798.178471,,,,5.640454,5.642058,2651705.000000,1673603750.058287
1673605798.178635,,,,5.637665,5.641121,2651706.000000,1673603750.059294
1673605798.178816,,,,5.635550,5.639919,2651707.000000,1673603750.060302
1673605798.183718,,,,5.638699,5.640953,2651708.000000,1673603750.061309
1673605798.183731,,,,5.638459,5.640880,2651709.000000,1673603750.062316
1673605798.183772,,,,5.636584,5.638765,2651710.000000,1673603750.063323
1673605798.184210,,,,5.640069,5.642563,2651711.000000,1673603750.064330
1673605798.184223,,,,5.637088,5.638957,2651712.000000,1673603750.065337
1673605798.184229,,,,5.635069,5.636625,2651713.000000,1673603750.066344
1673605798.184241,,,,5.634613,5.636914,2651714.000000,1673603750.067351
1673605798.184352,,,,5.637497,5.640616,2651715.000000,1673603750.068358
1673605798.184365,,,,5.632713,5.637827,2651716.000000,1673603750.069365
1673605798.184540,,,,5.633026,5.634269,2651717.000000,1673603750.070372
1673605798.184706,,,,5.633771,5.635567,2651718.000000,1673603750.071379
1673605798.184983,,,,5.637762,5.640976,2651719.000000,1673603750.072387
1673605798.185043,,,,5.638411,5.643044,2651720.000000,1673603750.073394
1673605798.185176,,,,5.637233,5.640015,2651721.000000,1673603750.074401
1673605798.185753,,,,5.636415,5.638548,2651722.000000,1673603750.075408
1673605798.185763,,,,5.634853,5.637683,2651723.000000,1673603750.076415
1673605798.185909,,,,5.634203,5.635760,2651724.000000,1673603750.077422
1673605798.185917,,,,5.635742,5.638476,2651725.000000,1673603750.078429
1673605798.185921,,,,5.636680,5.636866,2651726.000000,1673603750.079436
1673605798.185996,,,,5.635285,5.635615,2651727.000000,1673603750.080443
1673605798.186099,,,,5.637185,5.638525,2651728.000000,1673603750.081450
1673605798.186110,,,,5.636511,5.637851,2651729.000000,1673603750.082457
1673605798.186123,,,,5.636752,5.639029,2651730.000000,1673603750.083464
1673605798.186128,,,,5.636752,5.637851,2651731.000000,1673603750.084471
1673605798.205012,-0.709541,652569.000000,1673605798.194707,,,,
1673605798.205029,-0.745719,652570.000000,1673605798.195707,,,,
1673605798.205040,-0.727630,652571.000000,1673605798.196707,,,,
1673605798.205045,-0.727630,652572.000000,1673605798.197707,,,,
1673605798.205054,-0.655266,652573.000000,1673605798.198707,,,,
1673605798.205079,-0.691452,652574.000000,1673605798.199707,,,,
1673605798.205086,-0.727630,652575.000000,1673605798.200707,,,,
1673605798.205091,-0.691452,652576.000000,1673605798.201707,,,,
1673605798.205094,-0.655266,652577.000000,1673605798.202707,,,,
1673605798.205119,-0.691452,652578.000000,1673605798.203707,,,,
1673605798.208805,,,,5.630526,5.631649,2651732.000000,1673603750.085479
1673605798.208817,,,,5.624275,5.626456,2651733.000000,1673603750.086486
1673605798.208912,,,,5.625044,5.625663,2651734.000000,1673603750.087493
1673605798.208998,,,,5.626775,5.626552,2651735.000000,1673603750.088500
1673605798.209104,,,,5.624876,5.627562,2651736.000000,1673603750.089507
1673605798.209290,,,,5.623986,5.624797,2651737.000000,1673603750.090514
1673605798.209391,,,,5.629612,5.630639,2651738.000000,1673603750.091521
1673605798.209522,,,,5.638002,5.643116,2651739.000000,1673603750.092528
1673605798.209673,,,,5.641272,5.643573,2651740.000000,1673603750.093535
1673605798.209831,,,,5.633314,5.633909,2651741.000000,1673603750.094542
1673605798.210940,,,,5.630621,5.628692,2651758.000000,1673603750.111663
1673605798.210953,,,,5.629900,5.631480,2651759.000000,1673603750.112670
1673605798.210958,,,,5.628819,5.631505,2651760.000000,1673603750.113677
1673605798.210962,,,,5.627256,5.630591,2651761.000000,1673603750.114684
1673605798.210966,,,,5.626871,5.628428,2651762.000000,1673603750.115691
1673605798.210990,,,,5.637834,5.639919,2651763.000000,1673603750.116698
1673605798.210997,,,,5.640598,5.644967,2651764.000000,1673603750.117705
1673605798.211012,,,,5.647450,5.648958,2651765.000000,1673603750.118712
1673605798.211016,,,,5.650647,5.654511,2651766.000000,1673603750.119719
1673605798.211019,,,,5.649806,5.652035,2651767.000000,1673603750.120726
1673605798.221122,,,,5.643796,5.646866,2651768.000000,1673603750.121733
1673605798.221554,,,,5.636367,5.638741,2651769.000000,1673603750.122741
1673605798.221738,,,,5.638988,5.640880,2651770.000000,1673603750.123748
1673605798.222104,,,,5.636295,5.636961,2651771.000000,1673603750.124755
1673605798.222649,,,,5.632593,5.633163,2651772.000000,1673603750.125762
1673605798.223132,,,,5.629852,5.630687,2651773.000000,1673603750.126769
1673605798.223151,,,,5.622616,5.624436,2651774.000000,1673603750.127776
1673605798.223815,,,,5.621006,5.621840,2651775.000000,1673603750.128783
1673605798.224215,,,,5.617880,5.618354,2651776.000000,1673603750.129790
1673605798.224651,,,,5.620429,5.619412,2651777.000000,1673603750.130797
1673605798.224676,,,,5.627977,5.628740,2651778.000000,1673603750.131804
1673605798.224717,,,,5.632497,5.632394,2651779.000000,1673603750.132811
1673605798.224727,,,,5.636656,5.636986,2651780.000000,1673603750.133818
1673605798.225061,,,,5.641872,5.642900,2651781.000000,1673603750.134825
1673605798.225498,,,,5.636608,5.637851,2651782.000000,1673603750.135833
1673605798.225828,,,,5.634059,5.634173,2651783.000000,1673603750.136840
1673605798.226189,,,,5.632882,5.635832,2651784.000000,1673603750.137847
1673605798.226447,,,,5.627881,5.629389,2651785.000000,1673603750.138854
1673605798.226571,,,,5.620260,5.620470,2651786.000000,1673603750.139861
1673605798.227574,,,,5.618577,5.622225,2651787.000000,1673603750.140868
1673605798.227597,,,,5.632352,5.634990,2651788.000000,1673603750.141875
1673605798.227679,,,,5.642017,5.645184,2651789.000000,1673603750.142882
1673605798.227927,,,,5.639541,5.638813,2651790.000000,1673603750.143889
1673605798.227946,,,,5.633386,5.633716,2651791.000000,1673603750.144896
1673605798.227964,,,,5.631126,5.634822,2651792.000000,1673603750.145903
1673605798.230374,,,,5.634444,5.638236,2651793.000000,1673603750.146910
1673605798.230386,,,,5.632929,5.636337,2651794.000000,1673603750.147918
1673605798.230624,,,,5.633218,5.635351,2651795.000000,1673603750.148925
1673605798.230633,,,,5.632232,5.632105,2651796.000000,1673603750.149932
1673605798.231107,,,,5.630333,5.632346,2651797.000000,1673603750.150939
1673605798.231221,,,,5.627713,5.632875,2651798.000000,1673603750.151946
1673605798.231235,,,,5.631896,5.635856,2651799.000000,1673603750.152953
1673605798.231290,,,,5.631535,5.636649,2651800.000000,1673603750.153960
1673605798.231369,,,,5.632977,5.633981,2651801.000000,1673603750.154967
1673605798.231472,,,,5.633939,5.634630,2651802.000000,1673603750.155974
1673605798.231503,,,,5.633338,5.636240,2651803.000000,1673603750.156981
1673605798.231510,,,,5.628770,5.632274,2651804.000000,1673603750.157988
1673605798.231528,,,,5.624780,5.630158,2651805.000000,1673603750.158995
1673605798.234600,,,,5.624155,5.628620,2651806.000000,1673603750.160002
1673605798.234619,,,,5.629179,5.632057,2651807.000000,1673603750.161010
1673605798.234626,,,,5.623434,5.625783,2651808.000000,1673603750.162017
1673605798.234631,,,,5.611629,5.613450,2651809.000000,1673603750.163024
1673605798.237386,,,,5.609250,5.611815,2651810.000000,1673603750.164031
1673605798.237398,,,,5.609971,5.610373,2651811.000000,1673603750.165038
1673605798.237406,,,,5.608769,5.609219,2651812.000000,1673603750.166045
1673605798.237841,,,,5.611606,5.611863,2651813.000000,1673603750.167052
1673605798.237859,,,,5.622015,5.622417,2651814.000000,1673603750.168059
1673605798.237882,,,,5.630598,5.632057,2651815.000000,1673603750.169066
1673605798.238085,,,,5.633795,5.632490,2651816.000000,1673603750.170073
1673605798.238315,,,,5.636223,5.636289,2651817.000000,1673603750.171080
1673605798.243862,,,,5.639276,5.640904,2651818.000000,1673603750.172087
1673605798.243885,,,,5.637930,5.639702,2651819.000000,1673603750.173095
1673605798.244212,,,,5.641512,5.644174,2651820.000000,1673603750.174102
1673605798.244543,,,,5.639901,5.641193,2651821.000000,1673603750.175109
1673605798.245045,,,,5.637473,5.638837,2651822.000000,1673603750.176116
1673605798.245066,,,,5.631703,5.633043,2651823.000000,1673603750.177123
1673605798.245263,,,,5.626030,5.627826,2651824.000000,1673603750.178130
1673605798.246010,,,,5.623313,5.625494,2651825.000000,1673603750.179137
1673605798.246027,,,,5.626991,5.628812,2651826.000000,1673603750.180144
1673605798.246034,,,,5.632954,5.633836,2651827.000000,1673603750.181151
1673605798.246333,,,,5.633002,5.635183,2651828.000000,1673603750.182158
1673605798.246348,,,,5.631415,5.636168,2651829.000000,1673603750.183165
1673605798.246596,,,,5.629924,5.633596,2651830.000000,1673603750.184172
1673605798.246606,,,,5.632377,5.635447,2651831.000000,1673603750.185179
1673605798.246797,,,,5.628362,5.629942,2651832.000000,1673603750.186187
1673605798.246805,,,,5.625020,5.629341,2651833.000000,1673603750.187194
1673605798.246952,,,,5.622952,5.627466,2651834.000000,1673603750.188201
1673605798.247175,,,,5.607374,5.610974,2651835.000000,1673603750.189208
1673605798.247371,,,,5.592205,5.593641,2651836.000000,1673603750.190215
1673605798.247855,,,,5.578526,5.580707,2651837.000000,1673603750.191222
1673605798.247874,,,,5.579800,5.582870,2651838.000000,1673603750.192229
1673605798.248374,,,,5.588094,5.590611,2651839.000000,1673603750.193236
1673605798.248475,,,,5.592157,5.593568,2651840.000000,1673603750.194243
1673605798.248487,,,,5.621366,5.623812,2651841.000000,1673603750.195250
1673605798.268496,-0.637177,652579.000000,1673605798.207857,,,,
1673605798.268550,-0.673355,652580.000000,1673605798.208857,,,,
1673605798.268569,-0.691452,652581.000000,1673605798.209857,,,,
1673605798.268580,-0.709541,652582.000000,1673605798.210857,,,,
1673605798.269755,-0.691452,652583.000000,1673605798.211857,,,,
1673605798.269769,-0.655266,652630.000000,1673605798.258857,,,,
1673605798.269779,-0.655266,652631.000000,1673605798.259857,,,,
1673605798.269785,-0.655266,652632.000000,1673605798.260857,,,,
1673605798.269799,-0.691452,652633.000000,1673605798.261857,,,,
1673605798.269808,-0.655266,652634.000000,1673605798.262857,,,,
1673605798.269824,-0.673355,652635.000000,1673605798.263857,,,,
1673605798.269828,-0.655266,652636.000000,1673605798.264857,,,,
1673605798.269830,-0.619088,652637.000000,1673605798.265857,,,,
1673605798.269867,-0.619088,652638.000000,1673605798.266857,,,,
1673605798.269889,-0.673355,652639.000000,1673605798.267857,,,,
1673605798.275156,,,,5.629684,5.632346,2651842.000000,1673603750.196257
1673605798.275621,,,,5.630117,5.632346,2651843.000000,1673603750.197264
1673605798.275642,,,,5.634997,5.636289,2651844.000000,1673603750.198272
1673605798.275718,,,,5.637882,5.639149,2651845.000000,1673603750.199279
1673605798.276046,,,,5.630044,5.630543,2651846.000000,1673603750.200286
1673605798.276262,,,,5.634300,5.637154,2651847.000000,1673603750.201293
1673605798.276343,,,,5.640839,5.643717,2651848.000000,1673603750.202300
1673605798.282827,,,,5.639877,5.640399,2651849.000000,1673603750.203307
1673605798.283295,,,,5.626246,5.625350,2651850.000000,1673603750.265746
1673605798.283398,,,,5.621847,5.625254,2651851.000000,1673603750.266753
1673605798.283716,,,,5.620501,5.624749,2651852.000000,1673603750.267760
1673605798.284059,,,,5.622448,5.625855,2651853.000000,1673603750.268767
1673605798.284141,,,,5.624828,5.629942,2651854.000000,1673603750.269774
1673605798.284206,,,,5.626078,5.629677,2651855.000000,1673603750.270781
1673605798.284429,,,,5.624636,5.629702,2651856.000000,1673603750.271788
1673605798.284555,,,,5.624876,5.628043,2651857.000000,1673603750.272795
1673605798.284777,,,,5.623986,5.625230,2651858.000000,1673603750.273803
1673605798.284961,,,,5.624924,5.626480,2651859.000000,1673603750.274810
1673605798.285154,,,,5.622015,5.624821,2651860.000000,1673603750.275817
1673605798.285434,,,,5.621150,5.625013,2651861.000000,1673603750.276824
1673605798.285882,,,,5.625260,5.626456,2651862.000000,1673603750.277831
1673605798.285912,,,,5.623722,5.625470,2651863.000000,1673603750.278838
1673605798.285929,,,,5.622592,5.623932,2651864.000000,1673603750.279845
1673605798.286096,,,,5.619996,5.622393,2651865.000000,1673603750.280852
1673605798.286111,,,,5.622255,5.627754,2651866.000000,1673603750.281859
1673605798.286326,,,,5.625165,5.627490,2651867.000000,1673603750.282866
1673605798.286585,,,,5.624467,5.625470,2651868.000000,1673603750.283873
1673605798.286658,,,,5.625020,5.624605,2651869.000000,1673603750.284880
1673605798.286906,,,,5.621486,5.621480,2651870.000000,1673603750.285887
1673605798.287037,,,,5.622039,5.622537,2651871.000000,1673603750.286895
1673605798.287468,,,,5.622087,5.622056,2651872.000000,1673603750.287902
1673605798.287538,,,,5.620404,5.621840,2651873.000000,1673603750.288909
1673605798.294506,,,,5.619491,5.621263,2651874.000000,1673603750.289916
1673605798.294699,,,,5.619683,5.623571,2651875.000000,1673603750.290923
1673605798.294782,,,,5.626847,5.628548,2651876.000000,1673603750.291930
1673605798.294901,,,,5.629708,5.630783,2651877.000000,1673603750.292937
1673605798.295073,,,,5.624034,5.628211,2651878.000000,1673603750.293944
1673605798.296615,,,,5.623001,5.624677,2651879.000000,1673603750.294951
1673605798.296788,,,,5.624828,5.625254,2651880.000000,1673603750.295958
1673605798.326532,,,,5.623890,5.625254,2651881.000000,1673603750.296965
1673605798.326554,,,,5.626294,5.627610,2651882.000000,1673603750.297972
1673605798.326601,,,,5.628482,5.629509,2651883.000000,1673603750.298980
1673605798.326608,,,,5.626367,5.628235,2651884.000000,1673603750.299987
1673605798.332026,,,,5.622640,5.623932,2651885.000000,1673603750.300994
1673605798.332730,,,,5.616678,5.620854,2651886.000000,1673603750.302001
1673605798.332747,,,,5.616534,5.620326,2651887.000000,1673603750.303008
1673605798.332772,,,,5.620380,5.624509,2651888.000000,1673603750.304015
1673605798.334981,-0.637177,652674.000000,1673605798.306892,,,,
1673605798.335026,-0.691452,652675.000000,1673605798.307892,,,,
1673605798.335374,,,,5.625405,5.628908,2651889.000000,1673603750.305022
1673605798.335673,-0.709541,652676.000000,1673605798.308892,,,,
1673605798.335697,-0.691452,652677.000000,1673605798.309892,,,,
1673605798.335706,-0.745719,652678.000000,1673605798.310892,,,,
1673605798.335714,-0.709541,652679.000000,1673605798.311892,,,,
1673605798.335721,-0.655266,652680.000000,1673605798.312892,,,,
1673605798.335815,-0.709541,652681.000000,1673605798.313892,,,,
1673605798.335849,-0.600999,652682.000000,1673605798.314892,,,,
1673605798.335886,-0.763808,652683.000000,1673605798.315892,,,,
1673605798.335902,-0.727630,652691.000000,1673605798.323892,,,,
1673605798.335911,-0.673355,652692.000000,1673605798.324892,,,,
1673605798.335918,-0.727630,652693.000000,1673605798.325892,,,,
1673605798.335933,-0.745719,652694.000000,1673605798.326892,,,,
1673605798.335942,-0.727630,652695.000000,1673605798.327892,,,,
1673605798.336000,-0.709541,652696.000000,1673605798.328892,,,,
1673605798.336011,-0.691452,652697.000000,1673605798.329892,,,,
1673605798.336015,-0.673355,652698.000000,1673605798.330892,,,,
1673605798.336028,-0.655266,652699.000000,1673605798.331892,,,,
1673605798.336047,-0.691452,652700.000000,1673605798.332892,,,,
1673605798.336491,,,,5.627304,5.628956,2651890.000000,1673603750.306029
1673605798.336934,,,,5.623962,5.625903,2651891.000000,1673603750.307036
1673605798.337139,,,,5.620621,5.622705,2651892.000000,1673603750.308043
1673605798.337154,,,,5.618385,5.622970,2651893.000000,1673603750.309050
1673605798.337332,,,,5.618698,5.623859,2651894.000000,1673603750.310057
1673605798.337343,,,,5.620549,5.624461,2651895.000000,1673603750.311064
1673605798.337360,,,,5.624323,5.626961,2651896.000000,1673603750.312072
1673605798.337591,,,,5.623939,5.621456,2651897.000000,1673603750.313079
1673605798.337605,,,,5.618625,5.621624,2651898.000000,1673603750.314086
1673605798.337823,,,,5.621462,5.624316,2651899.000000,1673603750.315093
1673605798.337832,,,,5.621101,5.626215,2651900.000000,1673603750.316100
1673605798.337838,,,,5.621510,5.624292,2651901.000000,1673603750.317107
1673605798.337854,,,,5.621967,5.624413,2651902.000000,1673603750.318114
1673605798.339524,,,,5.621510,5.620037,2651903.000000,1673603750.319121
1673605798.339787,,,,5.619154,5.619821,2651904.000000,1673603750.320128
1673605798.339802,,,,5.609394,5.613330,2651905.000000,1673603750.321135
1673605798.342849,,,,5.583935,5.586236,2651906.000000,1673603750.322142
1673605798.343462,,,,5.577204,5.579144,2651907.000000,1673603750.323149
1673605798.343474,,,,5.585425,5.590804,2651908.000000,1673603750.324157
1673605798.343488,,,,5.592710,5.597367,2651909.000000,1673603750.325164
1673605798.343497,,,,5.603576,5.605685,2651910.000000,1673603750.326171
1673605798.343585,,,,5.611125,5.615157,2651911.000000,1673603750.327178
1673605798.343602,,,,5.641825,5.646386,2651912.000000,1673603750.328185
1673605798.343618,,,,5.655648,5.657925,2651913.000000,1673603750.329192
1673605798.343673,,,,5.658100,5.659632,2651914.000000,1673603750.330199
1673605798.343802,,,,5.652907,5.653550,2651915.000000,1673603750.331206
1673605798.343892,,,,5.644782,5.646193,2651916.000000,1673603750.332213
1673605798.346895,,,,5.637497,5.639438,2651917.000000,1673603750.333220
1673605798.347012,,,,5.639228,5.642395,2651918.000000,1673603750.334227
1673605798.347199,,,,5.642017,5.645135,2651919.000000,1673603750.335234
1673605798.347494,,,,5.641704,5.644438,2651920.000000,1673603750.336241
1673605798.349901,,,,5.640430,5.641505,2651921.000000,1673603750.337249
1673605798.350258,,,,5.639372,5.640327,2651922.000000,1673603750.338256
1673605798.350364,,,,5.642305,5.642900,2651923.000000,1673603750.339263
1673605798.350506,,,,5.646320,5.648165,2651924.000000,1673603750.340270
1673605798.350773,,,,5.647907,5.650256,2651925.000000,1673603750.341277
1673605798.350787,,,,5.647907,5.650232,2651926.000000,1673603750.342284
1673605798.350857,,,,5.647810,5.650088,2651927.000000,1673603750.343291
1673605798.364820,,,,5.648171,5.651025,2651928.000000,1673603750.344298
1673605798.365024,,,,5.642522,5.648165,2651929.000000,1673603750.345305
1673605798.365538,,,,5.643556,5.648429,2651930.000000,1673603750.346312
1673605798.365587,,,,5.641584,5.643332,2651931.000000,1673603750.347319
1673605798.365596,,,,5.638507,5.638692,2651932.000000,1673603750.348326
1673605798.365636,,,,5.639949,5.638957,2651933.000000,1673603750.349334
1673605798.365642,,,,5.638795,5.640976,2651934.000000,1673603750.350341
1673605798.386282,,,,5.638964,5.641625,2651935.000000,1673603750.351348
1673605798.386293,,,,5.636872,5.641048,2651936.000000,1673603750.352355
1673605798.386308,,,,5.638819,5.640616,2651937.000000,1673603750.353362
1673605798.390420,-0.673355,652739.000000,1673605798.366145,,,,
1673605798.390958,-0.673355,652740.000000,1673605798.367145,,,,
1673605798.390972,-0.709541,652741.000000,1673605798.368145,,,,
1673605798.390977,-0.709541,652742.000000,1673605798.369145,,,,
1673605798.390996,-0.745719,652743.000000,1673605798.370145,,,,
1673605798.391005,-0.673355,652744.000000,1673605798.371145,,,,
1673605798.391011,-0.709541,652745.000000,1673605798.372145,,,,
1673605798.391026,-0.691452,652746.000000,1673605798.373145,,,,
1673605798.391080,-0.727630,652747.000000,1673605798.374145,,,,
1673605798.391089,-0.691452,652748.000000,1673605798.375145,,,,
1673605798.391109,-0.727630,652752.000000,1673605798.379145,,,,
1673605798.391175,-0.673355,652753.000000,1673605798.380145,,,,
1673605798.391180,-0.673355,652754.000000,1673605798.381145,,,,
1673605798.391184,-0.673355,652755.000000,1673605798.382145,,,,
1673605798.391207,-0.637177,652756.000000,1673605798.383145,,,,
1673605798.391214,-0.763808,652757.000000,1673605798.384145,,,,
1673605798.391226,-0.691452,652758.000000,1673605798.385145,,,,
1673605798.391237,-0.673355,652759.000000,1673605798.386145,,,,
1673605798.391244,-0.745719,652760.000000,1673605798.387145,,,,
1673605798.391252,-0.727630,652761.000000,1673605798.388145,,,,
1673605798.392690,,,,5.640863,5.642659,2651938.000000,1673603750.354369
1673605798.392700,,,,5.640815,5.642347,2651939.000000,1673603750.355376
1673605798.392910,,,,5.639637,5.642082,2651940.000000,1673603750.356383
1673605798.393268,,,,5.639733,5.638188,2651941.000000,1673603750.357390
1673605798.393399,,,,5.625717,5.626985,2651942.000000,1673603750.358397
1673605798.393496,,,,5.621006,5.622946,2651943.000000,1673603750.359404
1673605798.393601,,,,5.618793,5.621576,2651944.000000,1673603750.360411
1673605798.393611,,,,5.612639,5.613402,2651945.000000,1673603750.361418
1673605798.393619,,,,5.613120,5.610565,2651946.000000,1673603750.362426
1673605798.393645,,,,5.616101,5.616767,2651947.000000,1673603750.363433
1673605798.393745,,,,5.626294,5.630038,2651948.000000,1673603750.364440
1673605798.393867,,,,5.636127,5.638765,2651949.000000,1673603750.365447
1673605798.399717,,,,5.647017,5.650016,2651950.000000,1673603750.366454
1673605798.399880,,,,5.658677,5.662156,2651951.000000,1673603750.367461
1673605798.400176,,,,5.665865,5.668166,2651952.000000,1673603750.368468
1673605798.400326,,,,5.657691,5.659608,2651953.000000,1673603750.369475
1673605798.400540,,,,5.646248,5.650545,2651954.000000,1673603750.370482
1673605798.400697,,,,5.644805,5.650520,2651955.000000,1673603750.371489
1673605798.402869,,,,5.641031,5.647058,2651956.000000,1673603750.372496
1673605798.403005,,,,5.636055,5.639582,2651957.000000,1673603750.373503
1673605798.403075,,,,5.633459,5.635880,2651958.000000,1673603750.374511
1673605798.403267,,,,5.637786,5.640279,2651959.000000,1673603750.375518
1673605798.403427,,,,5.651417,5.652492,2651960.000000,1673603750.376525
1673605798.403436,,,,5.657667,5.660834,2651961.000000,1673603750.377532
1673605798.403534,,,,5.658148,5.663214,2651962.000000,1673603750.378539
1673605798.403614,,,,5.662764,5.666075,2651963.000000,1673603750.379546
1673605798.403623,,,,5.663702,5.664969,2651964.000000,1673603750.380553
1673605798.403631,,,,5.650239,5.652588,2651965.000000,1673603750.381560
1673605798.403807,,,,5.634613,5.637274,2651966.000000,1673603750.382567
1673605798.403851,,,,5.621919,5.624413,2651967.000000,1673603750.383574
1673605798.403858,,,,5.625068,5.627033,2651968.000000,1673603750.384581
1673605798.403864,,,,5.634300,5.635592,2651969.000000,1673603750.385588
1673605798.414492,,,,5.646176,5.647852,2651970.000000,1673603750.386595
1673605798.415308,,,,5.656297,5.660594,2651971.000000,1673603750.387603
1673605798.415333,,,,5.655744,5.659632,2651972.000000,1673603750.388610
1673605798.415351,,,,5.653220,5.652420,2651973.000000,1673603750.389617
1673605798.417533,,,,5.653123,5.653309,2651974.000000,1673603750.390624
1673605798.417671,,,,5.651417,5.653117,2651975.000000,1673603750.391631
1673605798.417845,,,,5.647138,5.649174,2651976.000000,1673603750.392638
1673605798.418150,,,,5.645166,5.645135,2651977.000000,1673603750.393645
1673605798.418308,,,,5.639276,5.639269,2651978.000000,1673603750.394652
1673605798.418578,,,,5.627016,5.626624,2651979.000000,1673603750.395659
1673605798.418920,,,,5.627833,5.630014,2651980.000000,1673603750.396666
1673605798.424552,,,,5.627184,5.630759,2651981.000000,1673603750.397673
1673605798.424947,,,,5.629828,5.631240,2651982.000000,1673603750.398680
1673605798.425103,,,,5.620284,5.624052,2651983.000000,1673603750.399688
1673605798.438621,,,,5.626367,5.630326,2651984.000000,1673603750.400695
1673605798.438632,,,,5.651777,5.653021,2651985.000000,1673603750.401702
1673605798.438643,,,,5.654614,5.656627,2651986.000000,1673603750.402709
1673605798.438648,,,,5.650960,5.651338,2651987.000000,1673603750.403716
1673605798.438657,,,,5.650936,5.652516,2651988.000000,1673603750.404723
1673605798.454284,-0.727630,652762.000000,1673605798.393825,,,,
1673605798.454331,-0.709541,652763.000000,1673605798.394825,,,,
1673605798.454392,-0.673355,652764.000000,1673605798.395824,,,,
1673605798.455459,-0.546731,652813.000000,1673605798.444824,,,,
1673605798.455532,-0.564820,652814.000000,1673605798.445825,,,,
1673605798.455547,-0.600999,652815.000000,1673605798.446825,,,,
1673605798.455566,-0.619088,652816.000000,1673605798.447824,,,,
1673605798.455579,-0.619088,652817.000000,1673605798.448824,,,,
1673605798.455748,-0.546731,652818.000000,1673605798.449825,,,,
1673605798.455768,-0.528634,652819.000000,1673605798.450824,,,,
1673605798.455780,-0.582909,652820.000000,1673605798.451824,,,,
1673605798.455789,-0.564820,652821.000000,1673605798.452825,,,,
1673605798.455800,-0.564820,652822.000000,1673605798.453825,,,,
1673605798.459920,,,,5.647233,5.649559,2651989.000000,1673603750.405730
1673605798.460842,,,,5.638603,5.640111,2651990.000000,1673603750.406737
1673605798.461185,,,,5.628530,5.632202,2651991.000000,1673603750.407744
1673605798.461206,,,,5.632713,5.635327,2651992.000000,1673603750.408751
1673605798.461235,,,,5.637473,5.640399,2651993.000000,1673603750.409758
1673605798.461252,,,,5.641079,5.641818,2651994.000000,1673603750.410765
1673605798.472091,,,,5.644445,5.646049,2651995.000000,1673603750.411772
1673605798.472245,,,,5.646945,5.649607,2651996.000000,1673603750.412780
1673605798.472513,,,,5.652907,5.654367,2651997.000000,1673603750.413787
1673605798.472732,,,,5.650046,5.651314,2651998.000000,1673603750.414794
1673605798.472892,,,,5.640550,5.642611,2651999.000000,1673603750.415801
1673605798.475564,,,,5.638555,5.641000,2652021.000000,1673603750.437957
1673605798.475583,,,,5.640454,5.643212,2652022.000000,1673603750.438964
1673605798.475594,,,,5.640695,5.640087,2652023.000000,1673603750.439971
1673605798.475613,,,,5.640310,5.641361,2652024.000000,1673603750.440978
1673605798.475626,,,,5.633771,5.634533,2652025.000000,1673603750.441985
1673605798.475637,,,,5.616558,5.620566,2652026.000000,1673603750.442992
1673605798.475718,,,,5.613216,5.615205,2652027.000000,1673603750.443999
1673605798.475755,,,,5.612663,5.612440,2652028.000000,1673603750.445006
1673605798.475792,,,,5.610548,5.610902,2652029.000000,1673603750.446013
1673605798.475930,,,,5.611485,5.610397,2652030.000000,1673603750.447020
1673605798.479354,,,,5.621678,5.625783,2652031.000000,1673603750.448027
1673605798.479560,,,,5.634203,5.638212,2652032.000000,1673603750.449034
1673605798.479575,,,,5.638627,5.640448,2652033.000000,1673603750.450042
1673605798.479939,,,,5.649301,5.651314,2652034.000000,1673603750.451049
1673605798.480351,,,,5.660456,5.667493,2652035.000000,1673603750.452056
1673605798.480557,,,,5.659975,5.663334,2652036.000000,1673603750.453063
1673605798.480719,,,,5.652619,5.656074,2652037.000000,1673603750.454070
1673605798.480734,,,,5.645334,5.649054,2652038.000000,1673603750.455077
1673605798.483003,,,,5.636079,5.638741,2652039.000000,1673603750.456084
1673605798.483035,,,,5.624083,5.625350,2652040.000000,1673603750.457091
1673605798.483251,,,,5.621727,5.627249,2652041.000000,1673603750.458098
1673605798.483269,,,,5.623362,5.628500,2652042.000000,1673603750.459105
1673605798.483277,,,,5.631848,5.632010,2652043.000000,1673603750.460112
1673605798.483301,,,,5.635934,5.635712,2652044.000000,1673603750.461119
1673605798.486470,,,,5.644277,5.646145,2652045.000000,1673603750.462126
1673605798.486601,,,,5.650455,5.653742,2652046.000000,1673603750.463134
1673605798.486880,,,,5.659494,5.662324,2652047.000000,1673603750.464141
1673605798.487013,,,,5.661442,5.662973,2652048.000000,1673603750.465148
1673605798.505953,,,,5.656658,5.660786,2652049.000000,1673603750.466155
1673605798.506159,,,,5.655816,5.658959,2652050.000000,1673603750.467162
1673605798.506170,,,,5.641248,5.643356,2652051.000000,1673603750.468169
1673605798.506409,,,,5.618265,5.619100,2652052.000000,1673603750.469176
1673605798.506603,,,,5.617952,5.618378,2652053.000000,1673603750.470183
1673605798.506731,,,,5.620981,5.623138,2652054.000000,1673603750.471190
1673605798.506821,,,,5.625188,5.627225,2652055.000000,1673603750.472197
1673605798.508549,-0.492456,652841.000000,1673605798.465769,,,,
1673605798.508913,-0.510545,652842.000000,1673605798.466769,,,,
1673605798.509024,-0.528634,652843.000000,1673605798.467769,,,,
1673605798.509030,-0.528634,652844.000000,1673605798.468769,,,,
1673605798.509049,-0.492456,652845.000000,1673605798.469769,,,,
1673605798.509151,-0.510545,652846.000000,1673605798.470769,,,,
1673605798.509163,-0.528634,652847.000000,1673605798.471769,,,,
1673605798.509167,-0.528634,652848.000000,1673605798.472769,,,,
1673605798.509177,-0.510545,652849.000000,1673605798.473769,,,,
1673605798.509202,-0.510545,652850.000000,1673605798.474769,,,,
1673605798.509205,-0.474367,652874.000000,1673605798.498769,,,,
1673605798.509209,-0.510545,652875.000000,1673605798.499769,,,,
1673605798.509236,-0.492456,652876.000000,1673605798.500769,,,,
1673605798.509243,-0.492456,652877.000000,1673605798.501769,,,,
1673605798.509251,-0.474367,652878.000000,1673605798.502769,,,,
1673605798.509258,-0.456278,652879.000000,1673605798.503769,,,,
1673605798.509275,-0.510545,652880.000000,1673605798.504769,,,,
1673605798.509282,-0.492456,652881.000000,1673605798.505769,,,,
1673605798.509288,-0.456278,652882.000000,1673605798.506769,,,,
1673605798.509290,-0.474367,652883.000000,1673605798.507769,,,,
1673605798.512282,,,,5.623890,5.624653,2652056.000000,1673603750.473204
1673605798.512710,,,,5.634468,5.637491,2652057.000000,1673603750.474211
1673605798.512751,,,,5.666490,5.671580,2652058.000000,1673603750.475219
1673605798.512760,,,,5.679664,5.683696,2652059.000000,1673603750.476226
1673605798.512969,,,,5.684737,5.685764,2652060.000000,1673603750.477233
1673605798.513237,,,,5.683991,5.684730,2652061.000000,1673603750.478240
1673605798.513430,,,,5.677717,5.680451,2652062.000000,1673603750.479247
1673605798.515609,,,,5.667836,5.669681,2652063.000000,1673603750.480254
1673605798.515744,,,,5.663413,5.665450,2652064.000000,1673603750.481261
1673605798.516905,,,,5.663581,5.666604,2652068.000000,1673603750.485289
1673605798.516924,,,,5.663990,5.666604,2652069.000000,1673603750.486296
1673605798.517091,,,,5.667284,5.670931,2652070.000000,1673603750.487303
1673605798.517114,,,,5.670769,5.672854,2652071.000000,1673603750.488311
1673605798.517120,,,,5.670529,5.673672,2652072.000000,1673603750.489318
1673605798.517160,,,,5.667428,5.670570,2652073.000000,1673603750.490325
1673605798.517164,,,,5.665192,5.665378,2652074.000000,1673603750.491332
1673605798.517175,,,,5.665240,5.666988,2652075.000000,1673603750.492339
1673605798.517185,,,,5.663245,5.666099,2652076.000000,1673603750.493346
1673605798.517539,,,,5.662764,5.665329,2652077.000000,1673603750.494353
1673605798.517666,,,,5.661297,5.664296,2652078.000000,1673603750.495360
1673605798.517826,,,,5.661153,5.664488,2652079.000000,1673603750.496367
1673605798.517944,,,,5.658749,5.663262,2652080.000000,1673603750.497374
1673605798.519704,,,,5.661994,5.664656,2652081.000000,1673603750.498381
1673605798.519825,,,,5.666274,5.667012,2652082.000000,1673603750.499388
1673605798.520152,,,,5.663966,5.668527,2652083.000000,1673603750.500396
1673605798.520506,,,,5.664999,5.669729,2652084.000000,1673603750.501403
1673605798.520526,,,,5.662596,5.663935,2652085.000000,1673603750.502410
1673605798.520691,,,,5.655528,5.659463,2652086.000000,1673603750.503417
1673605798.520825,,,,5.651849,5.654391,2652087.000000,1673603750.504424
1673605798.522107,,,,5.651489,5.651506,2652088.000000,1673603750.505431
1673605798.522118,,,,5.650912,5.650785,2652089.000000,1673603750.506438
1673605798.522353,,,,5.652451,5.655641,2652090.000000,1673603750.507445
1673605798.522493,,,,5.651297,5.651627,2652091.000000,1673603750.508452
1673605798.522619,,,,5.647546,5.648068,2652092.000000,1673603750.509459
1673605798.522809,,,,5.645791,5.650713,2652093.000000,1673603750.510466
1673605798.522971,,,,5.624924,5.628091,2652094.000000,1673603750.511473
1673605798.529921,,,,5.615909,5.617224,2652095.000000,1673603750.512480
1673605798.530156,,,,5.626246,5.627802,2652096.000000,1673603750.513488
1673605798.530467,,,,5.638964,5.640207,2652097.000000,1673603750.514495
1673605798.530708,,,,5.651320,5.653333,2652098.000000,1673603750.515502
1673605798.530993,,,,5.675890,5.676557,2652099.000000,1673603750.516509
1673605798.533519,,,,5.703729,5.705020,2652119.000000,1673603750.536650
1673605798.533800,,,,5.699666,5.700284,2652120.000000,1673603750.537657
1673605798.533827,,,,5.707191,5.708795,2652121.000000,1673603750.538665
1673605798.533842,,,,5.706349,5.707641,2652122.000000,1673603750.539672
1673605798.534159,,,,5.709595,5.711656,2652123.000000,1673603750.540679
1673605798.534175,,,,5.700219,5.702520,2652124.000000,1673603750.541686
1673605798.534189,,,,5.701902,5.703626,2652125.000000,1673603750.542693
1673605798.534195,,,,5.715846,5.717738,2652126.000000,1673603750.543700
1673605798.534334,,,,5.729140,5.731081,2652127.000000,1673603750.544707
1673605798.534347,,,,5.738756,5.740384,2652128.000000,1673603750.545714
1673605798.534592,,,,5.740126,5.742716,2652129.000000,1673603750.546721
1673605798.534619,,,,5.740871,5.741370,2652130.000000,1673603750.547728
1673605798.536185,,,,5.740920,5.740985,2652131.000000,1673603750.548735
1673605798.536626,,,,5.735991,5.738293,2652132.000000,1673603750.549742
1673605798.536639,,,,5.726399,5.728292,2652133.000000,1673603750.550750
1673605798.537367,,,,5.718177,5.720551,2652134.000000,1673603750.551757
1673605798.537497,,,,5.705580,5.708482,2652135.000000,1673603750.552764
1673605798.537510,,,,5.692598,5.694875,2652136.000000,1673603750.553771
1673605798.537585,,,,5.675121,5.676220,2652137.000000,1673603750.554778
1673605798.537639,,,,5.667404,5.666243,2652138.000000,1673603750.555785
1673605798.538461,,,,5.667572,5.668527,2652139.000000,1673603750.556792
1673605798.538494,,,,5.723394,5.725022,2652146.000000,1673603750.563842
1673605798.538502,,,,5.723082,5.726248,2652147.000000,1673603750.564849
1673605798.538510,,,,5.732169,5.733437,2652148.000000,1673603750.565856
1673605798.538554,,,,5.732217,5.732523,2652149.000000,1673603750.566863
1673605798.538606,,,,5.723466,5.726825,2652150.000000,1673603750.567870
1673605798.538616,,,,5.710989,5.715839,2652151.000000,1673603750.568877
1673605798.538622,,,,5.704498,5.705549,2652152.000000,1673603750.569884
1673605798.538673,,,,5.711302,5.712593,2652153.000000,1673603750.570891
1673605798.538677,,,,5.719331,5.719589,2652154.000000,1673603750.571898
1673605798.538748,,,,5.727746,5.731056,2652155.000000,1673603750.572905
1673605798.541769,,,,5.737025,5.740721,2652156.000000,1673603750.573912
1673605798.542020,,,,5.733828,5.737091,2652157.000000,1673603750.574919
1673605798.542028,,,,5.726255,5.728171,2652158.000000,1673603750.575927
1673605798.544323,,,,5.719259,5.721104,2652159.000000,1673603750.576934
1673605798.544546,,,,5.717865,5.718531,2652160.000000,1673603750.577941
1673605798.544771,,,,5.716759,5.717546,2652161.000000,1673603750.578948
1673605798.544784,,,,5.713225,5.714012,2652162.000000,1673603750.579955
1673605798.549671,,,,5.711277,5.713170,2652163.000000,1673603750.580962
1673605798.550044,,,,5.706662,5.709059,2652164.000000,1673603750.581969
1673605798.550461,,,,5.704715,5.707593,2652165.000000,1673603750.582976
1673605798.550539,,,,5.707960,5.709444,2652166.000000,1673603750.583983
1673605798.552516,,,,5.706950,5.710670,2652167.000000,1673603750.584990
1673605798.552745,,,,5.709306,5.710189,2652168.000000,1673603750.585997
1673605798.553162,,,,5.710100,5.714372,2652169.000000,1673603750.587004
1673605798.553441,,,,5.712480,5.715766,2652170.000000,1673603750.588012
1673605798.553453,,,,5.716110,5.715622,2652171.000000,1673603750.589019
1673605798.553546,,,,5.717985,5.718724,2652172.000000,1673603750.590026
1673605798.566160,,,,5.722673,5.725046,2652173.000000,1673603750.591033
1673605798.566498,,,,5.729885,5.726922,2652174.000000,1673603750.592040
1673605798.566638,,,,5.730774,5.729373,2652175.000000,1673603750.593047
1673605798.566645,,,,5.725822,5.729181,2652176.000000,1673603750.594054
1673605798.566664,,,,5.722240,5.726945,2652177.000000,1673603750.595061
1673605798.566667,,,,5.718081,5.722714,2652178.000000,1673603750.596068
1673605798.566745,,,,5.721735,5.727715,2652179.000000,1673603750.597075
1673605798.571757,-0.420100,652884.000000,1673605798.511222,,,,
1673605798.573212,-0.474367,652885.000000,1673605798.512222,,,,
1673605798.573233,-0.329646,652916.000000,1673605798.543222,,,,
1673605798.573241,-0.365824,652917.000000,1673605798.544222,,,,
1673605798.573291,,,,5.724284,5.727835,2652180.000000,1673603750.598082
1673605798.573881,,,,5.725774,5.728196,2652181.000000,1673603750.599089
1673605798.574183,,,,5.724380,5.727186,2652182.000000,1673603750.600096
1673605798.574406,-0.347735,652918.000000,1673605798.545222,,,,
1673605798.574490,,,,5.720245,5.722065,2652183.000000,1673603750.601104
1673605798.574758,-0.365824,652919.000000,1673605798.546222,,,,
1673605798.574779,-0.329646,652920.000000,1673605798.547222,,,,
1673605798.574790,-0.383913,652921.000000,1673605798.548222,,,,
1673605798.574817,-0.383913,652922.000000,1673605798.549222,,,,
1673605798.574860,-0.365824,652923.000000,1673605798.550222,,,,
1673605798.574867,-0.383913,652924.000000,1673605798.551222,,,,
1673605798.574911,-0.365824,652925.000000,1673605798.552222,,,,
1673605798.574920,-0.347735,652935.000000,1673605798.562222,,,,
1673605798.574929,-0.275379,652936.000000,1673605798.563222,,,,
1673605798.574938,-0.311557,652937.000000,1673605798.564222,,,,
1673605798.574974,-0.347735,652938.000000,1673605798.565222,,,,
1673605798.575168,-0.311557,652939.000000,1673605798.566222,,,,
1673605798.575187,-0.293468,652940.000000,1673605798.567222,,,,
1673605798.575200,-0.311557,652941.000000,1673605798.568222,,,,
1673605798.575211,-0.275379,652942.000000,1673605798.569222,,,,
1673605798.575225,-0.275379,652943.000000,1673605798.570222,,,,
1673605798.575236,-0.275379,652944.000000,1673605798.571222,,,,
1673605798.580627,,,,5.719067,5.718411,2652184.000000,1673603750.602111
1673605798.580705,,,,5.715990,5.718988,2652185.000000,1673603750.603118
1673605798.580933,,,,5.712768,5.716800,2652186.000000,1673603750.604125
1673605798.580947,,,,5.707960,5.710958,2652187.000000,1673603750.605132
1673605798.581163,,,,5.708056,5.706223,2652188.000000,1673603750.606139
1673605798.581332,,,,5.701180,5.703674,2652189.000000,1673603750.607146
1673605798.581601,,,,5.691444,5.695452,2652190.000000,1673603750.608153
1673605798.581606,,,,5.698729,5.699467,2652191.000000,1673603750.609160
1673605798.582039,,,,5.684352,5.685572,2652192.000000,1673603750.610167
1673605798.582194,,,,5.616029,5.617080,2652193.000000,1673603750.611174
1673605798.582648,,,,5.527007,5.527216,2652194.000000,1673603750.612181
1673605798.582662,,,,5.487075,5.488391,2652195.000000,1673603750.613189
1673605798.582848,,,,5.516669,5.522889,2652196.000000,1673603750.614196
1673605798.582859,,,,5.538547,5.543636,2652197.000000,1673603750.615203
1673605798.582864,,,,5.589007,5.593376,2652198.000000,1673603750.616210
1673605798.582873,,,,5.690483,5.693746,2652199.000000,1673603750.617217
1673605798.583110,,,,5.787174,5.792071,2652200.000000,1673603750.618224
1673605798.583123,,,,5.804435,5.810174,2652201.000000,1673603750.619231
1673605798.583128,,,,5.776860,5.781373,2652202.000000,1673603750.620238
1673605798.583140,,,,5.780634,5.780700,2652203.000000,1673603750.621245
1673605798.583147,,,,5.751257,5.752909,2652204.000000,1673603750.622252
1673605798.587453,,,,5.737314,5.739062,2652205.000000,1673603750.623259
1673605798.588253,,,,5.738395,5.739855,2652206.000000,1673603750.624266
1673605798.588341,,,,5.751906,5.752308,2652207.000000,1673603750.625273
1673605798.588359,,,,5.777894,5.779258,2652208.000000,1673603750.626281
1673605798.588370,,,,5.791597,5.793394,2652209.000000,1673603750.627288
1673605798.588470,,,,5.791044,5.793898,2652210.000000,1673603750.628295
1673605798.588566,,,,5.784890,5.787023,2652211.000000,1673603750.629302
1673605798.588579,,,,5.769167,5.772262,2652212.000000,1673603750.630309
1673605798.589639,,,,5.753781,5.754039,2652213.000000,1673603750.631316
1673605798.590174,,,,5.747411,5.748221,2652214.000000,1673603750.632323
1673605798.590197,,,,5.744093,5.746058,2652215.000000,1673603750.633330
1673605798.590488,,,,5.742122,5.744952,2652216.000000,1673603750.634337
1673605798.590793,,,,5.742050,5.743341,2652217.000000,1673603750.635344
1673605798.591053,,,,5.741232,5.741706,2652218.000000,1673603750.636351
1673605798.591222,,,,5.737434,5.740360,2652219.000000,1673603750.637358
1673605798.594491,,,,5.736737,5.738894,2652220.000000,1673603750.638366
1673605798.594709,,,,5.736304,5.736009,2652221.000000,1673603750.639373
1673605798.594718,,,,5.734717,5.735095,2652222.000000,1673603750.640380
1673605798.597072,,,,5.732818,5.731609,2652223.000000,1673603750.641387
1673605798.597233,,,,5.727601,5.729542,2652224.000000,1673603750.642394
1673605798.597408,,,,5.723202,5.727378,2652225.000000,1673603750.643401
1673605798.597596,,,,5.724164,5.725142,2652226.000000,1673603750.644408
1673605798.597773,,,,5.724620,5.724589,2652227.000000,1673603750.645415
1673605798.598054,,,,5.721615,5.722955,2652228.000000,1673603750.646422
1673605798.598181,,,,5.719692,5.724469,2652229.000000,1673603750.647429
1673605798.602527,,,,5.711590,5.716512,2652230.000000,1673603750.648436
1673605798.602537,,,,5.704811,5.706463,2652231.000000,1673603750.649443
1673605798.602791,,,,5.705869,5.709660,2652232.000000,1673603750.650450
1673605798.602939,,,,5.705989,5.710237,2652233.000000,1673603750.651458
1673605798.603092,,,,5.707455,5.712089,2652234.000000,1673603750.652465
1673605798.603261,,,,5.713970,5.716848,2652235.000000,1673603750.653472
1673605798.603487,,,,5.725245,5.726537,2652236.000000,1673603750.654479
1673605798.603652,,,,5.727505,5.731249,2652237.000000,1673603750.655486
1673605798.604362,,,,5.730702,5.731489,2652238.000000,1673603750.656493
1673605798.604374,,,,5.730222,5.729999,2652239.000000,1673603750.657500
1673605798.609725,,,,5.725486,5.724902,2652240.000000,1673603750.658507
1673605798.609959,,,,5.724861,5.725623,2652241.000000,1673603750.659514
1673605798.610034,,,,5.726375,5.726609,2652242.000000,1673603750.660521
1673605798.610168,,,,5.724620,5.728123,2652243.000000,1673603750.661528
1673605798.610407,,,,5.724644,5.726945,2652244.000000,1673603750.662535
1673605798.610549,,,,5.723682,5.724998,2652245.000000,1673603750.663543
1673605798.610720,,,,5.721159,5.723315,2652246.000000,1673603750.664550
1673605798.610871,,,,5.715966,5.720118,2652247.000000,1673603750.665557
1673605798.611645,,,,5.711782,5.714853,2652248.000000,1673603750.666564
1673605798.611784,,,,5.710941,5.712738,2652249.000000,1673603750.667571
1673605798.611923,,,,5.711422,5.713459,2652250.000000,1673603750.668578
1673605798.625802,,,,5.713033,5.715021,2652251.000000,1673603750.669585
1673605798.626223,,,,5.716831,5.718147,2652252.000000,1673603750.670592
1673605798.627036,,,,5.720461,5.721825,2652253.000000,1673603750.671599
1673605798.627049,,,,5.716951,5.718651,2652254.000000,1673603750.672606
1673605798.633553,,,,5.714259,5.717185,2652255.000000,1673603750.673613
1673605798.633566,,,,5.714283,5.719036,2652256.000000,1673603750.674620
1673605798.633600,,,,5.718105,5.720887,2652257.000000,1673603750.675627
1673605798.633622,,,,5.716807,5.719180,2652258.000000,1673603750.676635
1673605798.637655,-0.257290,652945.000000,1673605798.576591,,,,
1673605798.639428,-0.311557,652946.000000,1673605798.577591,,,,
1673605798.639444,-0.311557,652947.000000,1673605798.578591,,,,
1673605798.639456,-0.094472,652996.000000,1673605798.627591,,,,
1673605798.639472,-0.040205,652997.000000,1673605798.628591,,,,
1673605798.639483,-0.130658,652998.000000,1673605798.629591,,,,
1673605798.639533,-0.076383,652999.000000,1673605798.630591,,,,
1673605798.639613,-0.058294,653000.000000,1673605798.631591,,,,
1673605798.639622,-0.076383,653001.000000,1673605798.632591,,,,
1673605798.639660,-0.094472,653002.000000,1673605798.633591,,,,
1673605798.639668,-0.004027,653003.000000,1673605798.634591,,,,
1673605798.639769,-0.022116,653004.000000,1673605798.635591,,,,
1673605798.639778,0.032160,653005.000000,1673605798.636591,,,,
1673605798.639806,,,,5.714307,5.714564,2652259.000000,1673603750.677642
1673605798.640149,,,,5.713610,5.713940,2652260.000000,1673603750.678649
1673605798.640162,,,,5.713585,5.716103,2652261.000000,1673603750.679656
1673605798.641684,,,,5.710869,5.715671,2652262.000000,1673603750.680663
1673605798.641882,,,,5.709739,5.713795,2652263.000000,1673603750.681670
1673605798.642016,,,,5.709619,5.714084,2652264.000000,1673603750.682677
1673605798.642223,,,,5.711638,5.715815,2652265.000000,1673603750.683684
1673605798.647283,,,,5.718394,5.717594,2652266.000000,1673603750.684691
1673605798.647394,,,,5.706854,5.709396,2652267.000000,1673603750.685698
1673605798.647751,,,,5.700411,5.705333,2652268.000000,1673603750.686705
1673605798.647937,,,,5.690747,5.694491,2652269.000000,1673603750.687712
1673605798.648190,,,,5.656225,5.659993,2652270.000000,1673603750.688720
1673605798.648200,,,,5.636992,5.640279,2652271.000000,1673603750.689727
1673605798.648225,,,,5.612351,5.616287,2652272.000000,1673603750.690734
1673605798.649785,,,,5.623121,5.626961,2652273.000000,1673603750.691741
1673605798.649798,,,,5.633290,5.635327,2652274.000000,1673603750.692748
1673605798.649923,,,,5.657018,5.659223,2652275.000000,1673603750.693755
1673605798.650087,,,,5.689665,5.692351,2652276.000000,1673603750.694762
1673605798.650183,,,,5.711398,5.713771,2652277.000000,1673603750.695769
1673605798.650454,,,,5.734982,5.736754,2652278.000000,1673603750.696776
1673605798.650600,,,,5.753204,5.755578,2652279.000000,1673603750.697783
1673605798.657141,,,,5.757724,5.760410,2652280.000000,1673603750.698790
1673605798.657192,,,,5.752844,5.754472,2652281.000000,1673603750.699797
1673605798.657442,,,,5.743324,5.746466,2652282.000000,1673603750.700804
1673605798.657456,,,,5.729981,5.733124,2652283.000000,1673603750.701812
1673605798.657475,,,,5.719091,5.719565,2652284.000000,1673603750.702819
1673605798.657656,,,,5.707936,5.709973,2652285.000000,1673603750.703826
1673605798.657846,,,,5.694041,5.696029,2652286.000000,1673603750.704833
1673605798.662230,,,,5.695411,5.697544,2652287.000000,1673603750.705840
1673605798.662238,,,,5.710316,5.711752,2652288.000000,1673603750.706847
1673605798.662686,,,,5.718153,5.719974,2652289.000000,1673603750.707854
1673605798.662697,,,,5.699257,5.701607,2652290.000000,1673603750.708861
1673605798.662726,,,,5.693199,5.695549,2652291.000000,1673603750.709868
1673605798.662751,,,,5.691709,5.694250,2652292.000000,1673603750.710875
1673605798.662957,,,,5.686949,5.692616,2652293.000000,1673603750.711882
1673605798.664663,,,,5.689713,5.693866,2652294.000000,1673603750.712889
1673605798.665017,,,,5.692839,5.697376,2652295.000000,1673603750.713897
1673605798.665192,,,,5.678558,5.680234,2652296.000000,1673603750.714904
1673605798.665461,,,,5.696036,5.698265,2652297.000000,1673603750.715911
1673605798.665823,,,,5.737314,5.739014,2652298.000000,1673603750.716918
1673605798.665844,,,,5.749022,5.751972,2652299.000000,1673603750.717925
1673605798.665854,,,,5.744790,5.746394,2652300.000000,1673603750.718932
1673605798.666118,,,,5.725269,5.730239,2652301.000000,1673603750.719939
1673605798.669739,,,,5.705724,5.706198,2652302.000000,1673603750.720946
1673605798.670531,,,,5.691324,5.690885,2652303.000000,1673603750.721953
1673605798.670552,,,,5.687622,5.690259,2652304.000000,1673603750.722960
1673605798.670614,,,,5.688511,5.693144,2652305.000000,1673603750.723967
1673605798.670627,,,,5.690915,5.692472,2652306.000000,1673603750.724974
1673605798.670838,,,,5.691949,5.695981,2652307.000000,1673603750.725981
1673605798.685831,,,,5.692767,5.697832,2652308.000000,1673603750.726989
1673605798.686203,,,,5.695075,5.698530,2652309.000000,1673603750.727996
1673605798.686217,,,,5.693199,5.694298,2652310.000000,1673603750.729003
1673605798.686479,,,,5.685578,5.689322,2652311.000000,1673603750.730010
1673605798.699507,,,,5.684881,5.687519,2652312.000000,1673603750.731017
1673605798.699674,,,,5.684785,5.685596,2652313.000000,1673603750.732024
1673605798.699843,,,,5.681660,5.683649,2652314.000000,1673603750.733031
1673605798.703386,0.014062,653013.000000,1673605798.649083,,,,
1673605798.704406,-0.004027,653014.000000,1673605798.650083,,,,
1673605798.704509,0.068338,653015.000000,1673605798.651083,,,,
1673605798.704811,0.032160,653016.000000,1673605798.652083,,,,
1673605798.704824,0.032160,653017.000000,1673605798.653083,,,,
1673605798.704831,0.068338,653018.000000,1673605798.654083,,,,
1673605798.704839,0.068338,653019.000000,1673605798.655083,,,,
1673605798.704845,0.068338,653020.000000,1673605798.656083,,,,
1673605798.704849,-0.004027,653021.000000,1673605798.657083,,,,
1673605798.704914,0.104516,653022.000000,1673605798.658083,,,,
1673605798.704920,0.357779,653057.000000,1673605798.693083,,,,
1673605798.704962,0.339690,653058.000000,1673605798.694083,,,,
1673605798.704971,0.321601,653059.000000,1673605798.695083,,,,
1673605798.704977,0.339690,653060.000000,1673605798.696083,,,,
1673605798.704987,0.357779,653061.000000,1673605798.697083,,,,
1673605798.704996,0.357779,653062.000000,1673605798.698083,,,,
1673605798.705001,0.412046,653063.000000,1673605798.699083,,,,
1673605798.705023,0.375868,653064.000000,1673605798.700083,,,,
1673605798.705030,0.393957,653065.000000,1673605798.701083,,,,
1673605798.705035,0.393957,653066.000000,1673605798.702083,,,,
1673605798.715613,,,,5.679857,5.682134,2652315.000000,1673603750.734038
1673605798.716063,,,,5.681251,5.684730,2652316.000000,1673603750.735045
1673605798.716075,,,,5.689665,5.689130,2652317.000000,1673603750.736052
1673605798.716295,,,,5.694233,5.695693,2652318.000000,1673603750.737059
1673605798.716532,,,,5.696132,5.698626,2652319.000000,1673603750.738066
1673605798.716675,,,,5.695411,5.700068,2652320.000000,1673603750.739074
1673605798.716911,,,,5.698368,5.701415,2652321.000000,1673603750.740081
1673605798.717237,,,,5.702455,5.704684,2652322.000000,1673603750.741088
1673605798.717359,,,,5.704426,5.711030,2652323.000000,1673603750.742095
1673605798.717378,,,,5.705965,5.709973,2652324.000000,1673603750.743102
1673605798.717420,,,,5.703128,5.704997,2652325.000000,1673603750.744109
1673605798.717520,,,,5.702166,5.705333,2652326.000000,1673603750.745116
1673605798.717533,,,,5.706975,5.708482,2652327.000000,1673603750.746123
1673605798.717543,,,,5.705916,5.707304,2652328.000000,1673603750.747130
1673605798.717866,,,,5.708224,5.709011,2652329.000000,1673603750.748137
1673605798.718244,,,,5.709547,5.710598,2652330.000000,1673603750.749144
1673605798.718385,,,,5.709234,5.709251,2652331.000000,1673603750.750151
1673605798.718400,,,,5.707816,5.707040,2652332.000000,1673603750.751158
1673605798.722148,,,,5.704931,5.706439,2652333.000000,1673603750.752166
1673605798.722167,,,,5.706638,5.708458,2652334.000000,1673603750.753173
1673605798.722180,,,,5.707070,5.708963,2652335.000000,1673603750.754180
1673605798.722469,,,,5.707720,5.709179,2652336.000000,1673603750.755187
1673605798.726404,,,,5.707623,5.710646,2652337.000000,1673603750.756194
1673605798.726492,,,,5.708345,5.712882,2652338.000000,1673603750.757201
1673605798.726942,,,,5.712215,5.714540,2652339.000000,1673603750.758208
1673605798.727056,,,,5.711854,5.712521,2652340.000000,1673603750.759215
1673605798.727260,,,,5.710869,5.710478,2652341.000000,1673603750.760222
1673605798.727449,,,,5.708681,5.711535,2652342.000000,1673603750.761229
1673605798.727463,,,,5.705244,5.709612,2652343.000000,1673603750.762236
1673605798.729893,,,,5.705075,5.709011,2652344.000000,1673603750.763243
1673605798.729908,,,,5.705339,5.709492,2652345.000000,1673603750.764251
1673605798.729913,,,,5.702166,5.706295,2652346.000000,1673603750.765258
1673605798.730211,,,,5.700027,5.702280,2652347.000000,1673603750.766265
1673605798.730678,,,,5.695603,5.700597,2652348.000000,1673603750.767272
1673605798.730766,,,,5.695050,5.699900,2652349.000000,1673603750.768279
1673605798.730776,,,,5.698055,5.702039,2652350.000000,1673603750.769286
1673605798.733825,,,,5.694498,5.696222,2652351.000000,1673603750.770293
1673605798.733968,,,,5.685242,5.688048,2652352.000000,1673603750.771300
1673605798.734206,,,,5.691565,5.692784,2652353.000000,1673603750.772307
1673605798.734472,,,,5.685458,5.688817,2652354.000000,1673603750.773314
1673605798.734488,,,,5.673774,5.675306,2652355.000000,1673603750.774321
1673605798.734804,,,,5.667235,5.669729,2652356.000000,1673603750.775328
1673605798.734994,,,,5.683991,5.686654,2652357.000000,1673603750.776335
1673605798.753718,,,,5.719668,5.722186,2652358.000000,1673603750.777343
1673605798.754082,,,,5.727505,5.730071,2652359.000000,1673603750.778350
1673605798.754358,,,,5.736280,5.737451,2652360.000000,1673603750.779357
1673605798.754666,,,,5.734861,5.736730,2652361.000000,1673603750.780364
1673605798.754889,,,,5.723058,5.725503,2652362.000000,1673603750.781371
1673605798.755272,,,,5.712311,5.713435,2652363.000000,1673603750.782378
1673605798.755290,,,,5.710172,5.710982,2652364.000000,1673603750.783385
1673605798.755521,,,,5.707527,5.709925,2652365.000000,1673603750.784392
1673605798.758602,0.412046,653067.000000,1673605798.697641,,,,
1673605798.758614,0.430135,653068.000000,1673605798.698641,,,,
1673605798.759816,0.665310,653099.000000,1673605798.729641,,,,
1673605798.760460,,,,5.706782,5.708651,2652366.000000,1673603750.785399
1673605798.760616,0.701488,653100.000000,1673605798.730641,,,,
1673605798.760628,0.665310,653101.000000,1673605798.731641,,,,
1673605798.760634,0.647221,653102.000000,1673605798.732641,,,,
1673605798.760637,0.683399,653103.000000,1673605798.733641,,,,
1673605798.760719,0.665310,653104.000000,1673605798.734641,,,,
1673605798.760750,0.683399,653105.000000,1673605798.735641,,,,
1673605798.760760,0.719577,653106.000000,1673605798.736641,,,,
1673605798.760774,0.737674,653107.000000,1673605798.737641,,,,
1673605798.760782,0.755763,653108.000000,1673605798.738641,,,,
1673605798.760787,0.900484,653118.000000,1673605798.748641,,,,
1673605798.760804,0.954751,653119.000000,1673605798.749641,,,,
1673605798.760823,0.918573,653120.000000,1673605798.750641,,,,
1673605798.760837,0.900484,653121.000000,1673605798.751641,,,,
1673605798.760847,0.936662,653122.000000,1673605798.752641,,,,
1673605798.760859,0.990929,653123.000000,1673605798.753641,,,,
1673605798.760907,1.009027,653124.000000,1673605798.754641,,,,
1673605798.760913,1.009027,653125.000000,1673605798.755641,,,,
1673605798.760918,0.990929,653126.000000,1673605798.756641,,,,
1673605798.760931,1.009027,653127.000000,1673605798.757641,,,,
1673605798.760956,,,,5.706301,5.707785,2652367.000000,1673603750.786406
1673605798.761066,,,,5.703128,5.706151,2652368.000000,1673603750.787413
1673605798.761630,,,,5.711566,5.713218,2652369.000000,1673603750.788420
1673605798.761854,,,,5.722937,5.726705,2652370.000000,1673603750.789428
1673605798.761868,,,,5.725943,5.728051,2652371.000000,1673603750.790435
1673605798.761918,,,,5.717504,5.720743,2652372.000000,1673603750.791442
1673605798.761926,,,,5.709138,5.713699,2652373.000000,1673603750.792449
1673605798.761938,,,,5.710749,5.712209,2652374.000000,1673603750.793456
1673605798.762215,,,,5.711470,5.712545,2652375.000000,1673603750.794463
1673605798.762371,,,,5.711831,5.713579,2652376.000000,1673603750.795470
1673605798.762571,,,,5.710268,5.714252,2652377.000000,1673603750.796477
1673605798.762858,,,,5.706301,5.709781,2652378.000000,1673603750.797484
1673605798.762868,,,,5.704138,5.706126,2652379.000000,1673603750.798491
1673605798.763507,,,,5.699594,5.700597,2652380.000000,1673603750.799498
1673605798.763522,,,,5.697767,5.697376,2652381.000000,1673603750.800505
1673605798.763624,,,,5.680169,5.680764,2652382.000000,1673603750.801512
1673605798.763635,,,,5.645791,5.648309,2652383.000000,1673603750.802520
1673605798.763642,,,,5.644036,5.645761,2652384.000000,1673603750.803527
1673605798.763686,,,,5.658412,5.657132,2652385.000000,1673603750.804534
1673605798.763705,,,,5.676178,5.676605,2652386.000000,1673603750.805541
1673605798.767368,,,,5.688175,5.690933,2652387.000000,1673603750.806548
1673605798.767591,,,,5.709475,5.712930,2652388.000000,1673603750.807555
1673605798.767818,,,,5.732938,5.735335,2652389.000000,1673603750.808562
1673605798.768221,,,,5.740968,5.741586,2652390.000000,1673603750.809569
1673605798.768237,,,,5.732530,5.736177,2652391.000000,1673603750.810576
1673605798.768268,,,,5.712384,5.714276,2652392.000000,1673603750.811583
1673605798.768351,,,,5.678775,5.680307,2652393.000000,1673603750.812590
1673605798.769838,,,,5.650118,5.652468,2652394.000000,1673603750.813597
1673605798.769849,,,,5.622592,5.625494,2652395.000000,1673603750.814605
1673605798.769865,,,,5.594320,5.599170,2652396.000000,1673603750.815612
1673605798.770112,,,,5.594705,5.599122,2652397.000000,1673603750.816619
1673605798.770132,,,,5.597470,5.599483,2652398.000000,1673603750.817626
1673605798.770295,,,,5.606341,5.609387,2652399.000000,1673603750.818633
1673605798.770311,,,,5.647955,5.652901,2652400.000000,1673603750.819640
1673605798.775162,,,,5.708345,5.712136,2652401.000000,1673603750.820647
1673605798.775189,,,,5.726423,5.728917,2652402.000000,1673603750.821654
1673605798.775203,,,,5.753060,5.756203,2652403.000000,1673603750.822661
1673605798.775217,,,,5.778399,5.782551,2652404.000000,1673603750.823668
1673605798.775436,,,,5.779144,5.785460,2652405.000000,1673603750.824675
1673605798.775867,,,,5.771884,5.776373,2652406.000000,1673603750.825682
1673605798.776021,,,,5.748805,5.750505,2652407.000000,1673603750.826689
1673605798.777008,,,,5.725750,5.729157,2652408.000000,1673603750.827697
1673605798.777170,,,,5.720966,5.723917,2652409.000000,1673603750.828704
1673605798.777364,,,,5.721687,5.725214,2652410.000000,1673603750.829711
1673605798.781907,,,,5.716230,5.719060,2652411.000000,1673603750.830718
1673605798.781914,,,,5.718778,5.721776,2652412.000000,1673603750.831725
1673605798.782155,,,,5.724404,5.726368,2652413.000000,1673603750.832732
1673605798.782166,,,,5.723490,5.723989,2652414.000000,1673603750.833739
1673605798.784270,,,,5.722528,5.721296,2652415.000000,1673603750.834746
1673605798.784498,,,,5.722553,5.724638,2652416.000000,1673603750.835753
1673605798.784553,,,,5.722817,5.726705,2652417.000000,1673603750.836760
1673605798.784610,,,,5.708369,5.713747,2652418.000000,1673603750.837767
1673605798.789366,,,,5.682573,5.685764,2652419.000000,1673603750.838774
1673605798.789608,,,,5.683535,5.686461,2652420.000000,1673603750.839782
1673605798.789652,,,,5.682790,5.686245,2652421.000000,1673603750.840789
1673605798.806006,,,,5.687069,5.689827,2652422.000000,1673603750.841796
1673605798.806652,,,,5.683270,5.684923,2652423.000000,1673603750.842803
1673605798.807090,,,,5.689304,5.692472,2652424.000000,1673603750.843810
1673605798.807119,,,,5.730197,5.732042,2652425.000000,1673603750.844817
1673605798.807138,,,,5.731953,5.731633,2652426.000000,1673603750.845824
1673605798.808630,,,,5.716759,5.714108,2652427.000000,1673603750.846831
1673605798.808678,,,,5.707143,5.706655,2652428.000000,1673603750.847838
1673605798.808798,,,,5.708970,5.711055,2652429.000000,1673603750.848845
1673605798.813463,1.117561,653128.000000,1673605798.752594,,,,
1673605798.813482,1.081383,653129.000000,1673605798.753594,,,,
1673605798.813578,,,,5.695868,5.700910,2652430.000000,1673603750.849852
1673605798.813786,1.153747,653130.000000,1673605798.754594,,,,
1673605798.814013,,,,5.684857,5.690139,2652431.000000,1673603750.850859
1673605798.814027,,,,5.690290,5.691462,2652432.000000,1673603750.851866
1673605798.814181,,,,5.698464,5.699539,2652433.000000,1673603750.852874
1673605798.814384,1.153747,653131.000000,1673605798.755594,,,,
1673605798.814539,,,,5.709306,5.711079,2652434.000000,1673603750.853881
1673605798.814760,,,,5.711662,5.712978,2652435.000000,1673603750.854888
1673605798.814855,1.135650,653132.000000,1673605798.756594,,,,
1673605798.814901,1.135650,653133.000000,1673605798.757594,,,,
1673605798.815644,2.239148,653179.000000,1673605798.803594,,,,
1673605798.815660,2.202970,653180.000000,1673605798.804595,,,,
1673605798.815673,2.275335,653181.000000,1673605798.805594,,,,
1673605798.815682,2.275335,653182.000000,1673605798.806594,,,,
1673605798.815689,2.257237,653183.000000,1673605798.807594,,,,
1673605798.815716,2.347691,653184.000000,1673605798.808594,,,,
1673605798.815825,2.365780,653185.000000,1673605798.809594,,,,
1673605798.815835,2.383869,653186.000000,1673605798.810594,,,,
1673605798.815844,2.438144,653187.000000,1673605798.811594,,,,
1673605798.815857,2.401966,653188.000000,1673605798.812594,,,,
1673605798.819525,,,,5.705147,5.709877,2652436.000000,1673603750.855895
1673605798.820045,,,,5.701325,5.703193,2652437.000000,1673603750.856902
1673605798.820058,,,,5.698729,5.701078,2652438.000000,1673603750.857909
1673605798.820065,,,,5.696589,5.698505,2652439.000000,1673603750.858916
1673605798.821950,,,,5.697839,5.699828,2652440.000000,1673603750.859923
1673605798.822292,,,,5.699402,5.704083,2652441.000000,1673603750.860930
1673605798.822335,,,,5.700940,5.706535,2652442.000000,1673603750.861937
1673605798.826963,,,,5.702911,5.706583,2652443.000000,1673603750.862944
1673605798.827038,,,,5.704378,5.708530,2652444.000000,1673603750.863951
1673605798.827080,,,,5.707695,5.710454,2652445.000000,1673603750.864959
1673605798.827086,,,,5.712215,5.714252,2652446.000000,1673603750.865966
1673605798.834737,,,,5.708513,5.709251,2652447.000000,1673603750.866973
1673605798.834750,,,,5.705267,5.704083,2652448.000000,1673603750.867980
1673605798.834976,,,,5.702743,5.701943,2652449.000000,1673603750.868987
1673605798.834983,,,,5.698368,5.696534,2652450.000000,1673603750.869994
1673605798.850709,,,,5.698945,5.699948,2652451.000000,1673603750.871001
1673605798.851872,,,,5.706518,5.709083,2652452.000000,1673603750.872008
1673605798.851954,,,,5.725943,5.727499,2652453.000000,1673603750.873015
1673605798.852139,,,,5.762364,5.763752,2652454.000000,1673603750.874022
1673605798.852152,,,,5.778134,5.782070,2652455.000000,1673603750.875029
1673605798.852162,,,,5.785635,5.788946,2652456.000000,1673603750.876036
1673605798.874830,,,,5.777029,5.779835,2652457.000000,1673603750.877043
1673605798.875045,,,,5.755897,5.759160,2652458.000000,1673603750.878051
1673605798.875285,,,,5.726808,5.729253,2652459.000000,1673603750.879058
1673605798.875291,,,,5.697719,5.698337,2652460.000000,1673603750.880065
1673605798.875321,,,,5.674664,5.676460,2652461.000000,1673603750.881072
1673605798.875419,,,,5.668558,5.672542,2652462.000000,1673603750.882079
1673605798.875572,,,,5.681948,5.685596,2652463.000000,1673603750.883086
1673605798.875697,,,,5.697911,5.698217,2652464.000000,1673603750.884093
1673605798.879492,4.066250,653229.000000,1673605798.858347,,,,
1673605798.879546,,,,5.705532,5.708458,2652465.000000,1673603750.885100
1673605798.879559,,,,5.735102,5.739615,2652466.000000,1673603750.886107
1673605798.879626,,,,5.749863,5.754111,2652467.000000,1673603750.887114
1673605798.879836,4.102437,653230.000000,1673605798.859347,,,,
1673605798.879853,4.192882,653231.000000,1673605798.860347,,,,
1673605798.879859,4.247158,653232.000000,1673605798.861347,,,,
1673605798.879864,4.229068,653233.000000,1673605798.862347,,,,
1673605798.879867,4.247158,653234.000000,1673605798.863347,,,,
1673605798.879889,4.337603,653235.000000,1673605798.864347,,,,
1673605798.879893,4.373789,653236.000000,1673605798.865347,,,,
1673605798.879899,4.373789,653237.000000,1673605798.866347,,,,
1673605798.879901,4.409967,653238.000000,1673605798.867347,,,,
1673605798.879909,4.464234,653240.000000,1673605798.869347,,,,
1673605798.879914,4.554688,653241.000000,1673605798.870347,,,,
1673605798.879918,4.663230,653242.000000,1673605798.871347,,,,
1673605798.879924,4.627044,653243.000000,1673605798.872347,,,,
1673605798.879930,4.681320,653244.000000,1673605798.873347,,,,
1673605798.879933,4.753676,653245.000000,1673605798.874347,,,,
1673605798.879937,4.826040,653246.000000,1673605798.875347,,,,
1673605798.879946,4.807951,653247.000000,1673605798.876347,,,,
1673605798.879949,4.934583,653248.000000,1673605798.877347,,,,
1673605798.879958,4.988850,653249.000000,1673605798.878347,,,,
1673605798.882222,,,,5.747579,5.749111,2652468.000000,1673603750.888121
1673605798.882238,,,,5.737434,5.738533,2652469.000000,1673603750.889128
1673605798.882273,,,,5.722288,5.722450,2652470.000000,1673603750.890136
1673605798.882285,,,,5.706590,5.707256,2652471.000000,1673603750.891143
1673605798.882540,,,,5.690074,5.688288,2652472.000000,1673603750.892150
1673605798.882740,,,,5.679328,5.678263,2652473.000000,1673603750.893157
1673605798.882895,,,,5.655215,5.658839,2652474.000000,1673603750.894164
1673605798.883120,,,,5.653725,5.655232,2652475.000000,1673603750.895171
1673605798.887284,,,,5.660865,5.664824,2652476.000000,1673603750.896178
1673605798.887766,,,,5.672140,5.675859,2652477.000000,1673603750.897185
1673605798.887778,,,,5.673967,5.676797,2652478.000000,1673603750.898192
1673605798.887871,,,,5.671130,5.671844,2652479.000000,1673603750.899199
1673605798.887885,,,,5.672043,5.674441,2652480.000000,1673603750.900206
1673605798.888031,,,,5.673558,5.676508,2652481.000000,1673603750.901213
1673605798.895029,,,,5.657667,5.660353,2652482.000000,1673603750.902220
1673605798.895098,,,,5.635382,5.637298,2652483.000000,1673603750.903228
1673605798.895248,,,,5.632641,5.635880,2652484.000000,1673603750.904235
1673605798.895265,,,,5.647810,5.650256,2652485.000000,1673603750.905242
1673605798.896792,,,,5.658797,5.659512,2652486.000000,1673603750.906249
1673605798.897089,,,,5.667476,5.666964,2652487.000000,1673603750.907256
1673605798.897198,,,,5.680386,5.681148,2652488.000000,1673603750.908263
1673605798.902147,,,,5.684064,5.687038,2652489.000000,1673603750.909270
1673605798.902167,,,,5.689809,5.692087,2652490.000000,1673603750.910277
1673605798.902575,,,,5.687742,5.689803,2652491.000000,1673603750.911284
1673605798.902937,,,,5.668173,5.671268,2652492.000000,1673603750.912291
1673605798.911548,,,,5.657884,5.661122,2652493.000000,1673603750.913298
1673605798.911577,,,,5.647210,5.646770,2652494.000000,1673603750.914305
1673605798.911923,,,,5.644493,5.645929,2652495.000000,1673603750.915313
1673605798.912145,,,,5.655071,5.659873,2652496.000000,1673603750.916320
1673605798.912506,,,,5.655215,5.658430,2652497.000000,1673603750.917327
1673605798.912634,,,,5.662716,5.667085,2652498.000000,1673603750.918334
1673605798.912962,,,,5.676852,5.679754,2652499.000000,1673603750.919341
1673605798.913141,,,,5.680169,5.682639,2652500.000000,1673603750.920348
1673605798.913461,,,,5.677741,5.678913,2652501.000000,1673603750.921355
1673605798.913795,,,,5.662860,5.664320,2652502.000000,1673603750.922362
1673605798.913812,,,,5.683655,5.687038,2652503.000000,1673603750.923369
1673605798.914148,,,,5.718514,5.719517,2652504.000000,1673603750.924376
1673605798.915485,,,,5.723731,5.725046,2652505.000000,1673603750.925383
1673605798.915506,,,,5.704570,5.709396,2652508.000000,1673603750.928405
1673605798.915518,,,,5.699017,5.699611,2652509.000000,1673603750.929412
1673605798.915636,,,,5.692045,5.692447,2652510.000000,1673603750.930419
1673605798.915645,,,,5.685073,5.689250,2652511.000000,1673603750.931426
1673605798.915683,,,,5.686804,5.689562,2652512.000000,1673603750.932433
1673605798.915754,,,,5.687285,5.691582,2652513.000000,1673603750.933440
1673605798.915769,,,,5.686732,5.691438,2652514.000000,1673603750.934447
1673605798.915783,,,,5.690170,5.694202,2652515.000000,1673603750.935454
1673605798.915916,,,,5.691083,5.693890,2652516.000000,1673603750.936461
1673605798.915932,,,,5.688367,5.690139,2652517.000000,1673603750.937468
1673605798.925766,,,,5.683944,5.686004,2652518.000000,1673603750.938475
1673605798.925967,,,,5.679640,5.678624,2652519.000000,1673603750.939482
1673605798.926335,,,,5.678053,5.676941,2652520.000000,1673603750.940490
1673605798.926612,,,,5.676804,5.675595,2652521.000000,1673603750.941497
1673605798.931548,5.043117,653250.000000,1673605798.871144,,,,
1673605798.931558,5.061214,653251.000000,1673605798.872144,,,,
1673605798.931646,5.133571,653252.000000,1673605798.873144,,,,
1673605798.932486,7.702365,653301.000000,1673605798.922144,,,,
1673605798.932498,7.774730,653302.000000,1673605798.923144,,,,
1673605798.932503,7.828997,653303.000000,1673605798.924144,,,,
1673605798.932512,7.901361,653304.000000,1673605798.925144,,,,
1673605798.932517,7.991807,653305.000000,1673605798.926144,,,,
1673605798.932549,8.027993,653306.000000,1673605798.927144,,,,
1673605798.932554,8.082260,653307.000000,1673605798.928144,,,,
1673605798.932558,8.190803,653308.000000,1673605798.929144,,,,
1673605798.932579,8.208892,653309.000000,1673605798.930144,,,,
1673605798.932583,8.281257,653310.000000,1673605798.931144,,,,
1673605798.933089,,,,5.680049,5.677566,2652522.000000,1673603750.942504
1673605798.933226,,,,5.677933,5.677686,2652523.000000,1673603750.943511
1673605798.933495,,,,5.682910,5.682759,2652524.000000,1673603750.944518
1673605798.933558,,,,5.685891,5.687375,2652525.000000,1673603750.945525
1673605798.939628,,,,5.682501,5.684201,2652526.000000,1673603750.946532
1673605798.939641,,,,5.692791,5.694900,2652527.000000,1673603750.947539
1673605798.947196,,,,5.701613,5.704564,2652528.000000,1673603750.948546
1673605798.947469,,,,5.696709,5.698121,2652529.000000,1673603750.949553
1673605798.948287,,,,5.688944,5.691029,2652530.000000,1673603750.950560
1673605798.948314,,,,5.684232,5.685548,2652531.000000,1673603750.951567
1673605798.948343,,,,5.681948,5.683841,2652532.000000,1673603750.952574
1673605798.949452,,,,5.676659,5.679946,2652533.000000,1673603750.953582
1673605798.949896,,,,5.669567,5.673095,2652534.000000,1673603750.954589
1673605798.950260,,,,5.664615,5.664320,2652535.000000,1673603750.955596
1673605798.954617,,,,5.660143,5.662180,2652536.000000,1673603750.956603
1673605798.955191,,,,5.666081,5.667541,2652537.000000,1673603750.957610
1673605798.955297,,,,5.668005,5.672253,2652538.000000,1673603750.958617
1673605798.957387,,,,5.665985,5.667277,2652539.000000,1673603750.959624
1673605798.957499,,,,5.656489,5.654391,2652540.000000,1673603750.960631
1673605798.957700,,,,5.653220,5.654223,2652541.000000,1673603750.961638
1673605798.957767,,,,5.661489,5.663863,2652542.000000,1673603750.962645
1673605798.963487,,,,5.669110,5.670426,2652543.000000,1673603750.963652
1673605798.963994,,,,5.672356,5.675162,2652544.000000,1673603750.964659
1673605798.964250,,,,5.672500,5.672181,2652545.000000,1673603750.965667
1673605798.964355,,,,5.672452,5.672710,2652546.000000,1673603750.966674
1673605798.964548,,,,5.670553,5.671460,2652547.000000,1673603750.967681
1673605798.964872,,,,5.663461,5.664969,2652548.000000,1673603750.968688
1673605798.965075,,,,5.658629,5.661242,2652549.000000,1673603750.969695
1673605798.965216,,,,5.656008,5.657709,2652550.000000,1673603750.970702
1673605798.965239,,,,5.653605,5.657829,2652551.000000,1673603750.971709
1673605798.965262,,,,5.653244,5.654680,2652552.000000,1673603750.972716
1673605798.965708,,,,5.642161,5.642227,2652553.000000,1673603750.973723
1673605798.966125,,,,5.649902,5.652756,2652554.000000,1673603750.974730
1673605798.966289,,,,5.665168,5.667734,2652555.000000,1673603750.975737
1673605798.966841,,,,5.672596,5.672277,2652556.000000,1673603750.976744
1673605798.966994,,,,5.692310,5.694563,2652557.000000,1673603750.977751
1673605798.967053,,,,5.736472,5.738004,2652558.000000,1673603750.978759
1673605798.967300,,,,5.787246,5.789018,2652559.000000,1673603750.979766
1673605798.967507,,,,5.800035,5.799404,2652560.000000,1673603750.980773
1673605798.967516,,,,5.784842,5.786253,2652561.000000,1673603750.981780
1673605798.967675,,,,5.753541,5.754977,2652562.000000,1673603750.982787
1673605798.967687,,,,5.728539,5.729037,2652563.000000,1673603750.983794
1673605798.967770,,,,5.708513,5.709276,2652564.000000,1673603750.984801
1673605798.967863,,,,5.681395,5.683408,2652565.000000,1673603750.985808
1673605798.968080,,,,5.657907,5.658334,2652566.000000,1673603750.986815
1673605798.968270,,,,5.633699,5.633861,2652567.000000,1673603750.987822
1673605798.969772,,,,5.620188,5.623259,2652568.000000,1673603750.988829
1673605798.969794,,,,5.628338,5.630856,2652569.000000,1673603750.989836
1673605798.969827,,,,5.643796,5.644751,2652570.000000,1673603750.990844
1673605798.972046,,,,5.643940,5.644895,2652571.000000,1673603750.991851
1673605798.972427,,,,5.635598,5.638140,2652572.000000,1673603750.992858
1673605798.972590,,,,5.649421,5.653358,2652573.000000,1673603750.993865
1673605798.972609,,,,5.671154,5.674994,2652574.000000,1673603750.994872
1673605798.977249,,,,5.676948,5.679105,2652575.000000,1673603750.995879
1673605798.977456,,,,5.675241,5.679393,2652576.000000,1673603750.996886
1673605798.977830,,,,5.668077,5.672782,2652577.000000,1673603750.997893
1673605798.977842,,,,5.661009,5.662781,2652578.000000,1673603750.998900
1673605798.977975,,,,5.649037,5.651025,2652579.000000,1673603750.999907
1673605798.978107,,,,5.628795,5.634077,2652580.000000,1673603751.000914
1673605798.978261,,,,5.618361,5.622754,2652581.000000,1673603751.001921
1673605798.980074,,,,5.623986,5.627490,2652582.000000,1673603751.002928
1673605798.980084,,,,5.629684,5.634389,2652583.000000,1673603751.003936
1673605798.980248,,,,5.634011,5.637394,2652584.000000,1673603751.004943
1673605798.980260,,,,5.639444,5.641121,2652585.000000,1673603751.005950
1673605798.980325,,,,5.642594,5.647058,2652586.000000,1673603751.006957
1673605798.980332,,,,5.646753,5.650857,2652587.000000,1673603751.007964
1673605798.980340,,,,5.648364,5.651891,2652588.000000,1673603751.008971
1673605798.980349,,,,5.649950,5.652660,2652589.000000,1673603751.009978
1673605799.005793,8.407880,653311.000000,1673605798.944947,,,,
1673605799.005810,8.389791,653312.000000,1673605798.945947,,,,
1673605799.005820,8.444066,653313.000000,1673605798.946947,,,,
1673605799.005830,8.480244,653314.000000,1673605798.947948,,,,
1673605799.005932,8.643054,653315.000000,1673605798.948947,,,,
1673605799.005942,8.769686,653316.000000,1673605798.949947,,,,
1673605799.005954,8.805863,653317.000000,1673605798.950948,,,,
1673605799.005958,8.878228,653318.000000,1673605798.951947,,,,
1673605799.005982,8.950584,653319.000000,1673605798.952947,,,,
1673605799.006992,,,,5.647594,5.647708,2652590.000000,1673603751.010985
1673605799.007113,12.025906,653360.000000,1673605798.993948,,,,
1673605799.007204,,,,5.646176,5.649343,2652591.000000,1673603751.011992
1673605799.007365,12.025906,653361.000000,1673605798.994947,,,,
1673605799.007381,12.206813,653362.000000,1673605798.995947,,,,
1673605799.007388,12.224901,653363.000000,1673605798.996948,,,,
1673605799.007400,12.315347,653364.000000,1673605798.997947,,,,
1673605799.007441,12.387712,653365.000000,1673605798.998947,,,,
1673605799.007450,12.478165,653366.000000,1673605798.999947,,,,
1673605799.007456,12.568610,653367.000000,1673605799.000947,,,,
1673605799.007467,12.659063,653368.000000,1673605799.001947,,,,
1673605799.007481,12.749517,653369.000000,1673605799.002947,,,,
1673605799.007487,12.839962,653370.000000,1673605799.003947,,,,
1673605799.007508,12.912327,653371.000000,1673605799.004947,,,,
1673605799.010769,,,,5.654205,5.655737,2652592.000000,1673603751.012999
1673605799.010978,,,,5.653965,5.657877,2652593.000000,1673603751.014006
1673605799.011126,,,,5.650527,5.653261,2652594.000000,1673603751.015013
1673605799.011144,,,,5.643003,5.644919,2652595.000000,1673603751.016021
1673605799.011415,,,,5.645431,5.646530,2652596.000000,1673603751.017028
1673605799.011569,,,,5.654927,5.655497,2652597.000000,1673603751.018035
1673605799.011796,,,,5.663269,5.664777,2652598.000000,1673603751.019042
1673605799.011996,,,,5.668269,5.669585,2652599.000000,1673603751.020049
1673605799.012178,,,,5.668005,5.670859,2652600.000000,1673603751.021056
1673605799.012409,,,,5.666755,5.667806,2652601.000000,1673603751.022063
1673605799.012527,,,,5.666153,5.666844,2652602.000000,1673603751.023070
1673605799.012948,,,,5.655263,5.658959,2652603.000000,1673603751.024077
1673605799.013165,,,,5.647113,5.649222,2652604.000000,1673603751.025084
1673605799.013464,,,,5.644782,5.646001,2652605.000000,1673603751.026091
1673605799.013646,,,,5.634901,5.637394,2652606.000000,1673603751.027098
1673605799.014049,,,,5.631343,5.632226,2652607.000000,1673603751.028105
1673605799.014062,,,,5.632617,5.634269,2652608.000000,1673603751.029113
1673605799.014189,,,,5.631391,5.633644,2652609.000000,1673603751.030120
1673605799.014586,,,,5.631415,5.632562,2652610.000000,1673603751.031127
1673605799.014724,,,,5.644421,5.645015,2652611.000000,1673603751.032134
1673605799.014822,,,,5.658004,5.660425,2652612.000000,1673603751.033141
1673605799.014984,,,,5.648652,5.651699,2652613.000000,1673603751.034148
1673605799.015054,,,,5.632545,5.636938,2652614.000000,1673603751.035155
1673605799.015167,,,,5.611029,5.614075,2652615.000000,1673603751.036162
1673605799.015233,,,,5.599321,5.601382,2652616.000000,1673603751.037169
1673605799.016646,,,,5.602254,5.602343,2652617.000000,1673603751.038176
1673605799.016747,,,,5.608024,5.605853,2652618.000000,1673603751.039183
1673605799.016857,,,,5.620380,5.619845,2652619.000000,1673603751.040190
1673605799.016937,,,,5.620645,5.621912,2652620.000000,1673603751.041198
1673605799.022669,,,,5.650840,5.652708,2652621.000000,1673603751.042205
1673605799.022758,,,,5.670962,5.673022,2652622.000000,1673603751.043212
1673605799.022877,,,,5.680049,5.681052,2652623.000000,1673603751.044219
1673605799.022949,,,,5.695675,5.695549,2652624.000000,1673603751.045226
1673605799.022958,,,,5.704018,5.704083,2652625.000000,1673603751.046233
1673605799.022962,,,,5.691565,5.691654,2652626.000000,1673603751.047240
1673605799.023061,,,,5.676996,5.676580,2652627.000000,1673603751.048247
1673605799.023195,,,,5.666827,5.667301,2652628.000000,1673603751.049254
1673605799.023302,,,,5.654325,5.657035,2652629.000000,1673603751.050261
1673605799.023455,,,,5.653028,5.656411,2652630.000000,1673603751.051268
1673605799.023544,,,,5.685386,5.686918,2652631.000000,1673603751.052275
1673605799.024217,,,,5.718418,5.720984,2652632.000000,1673603751.053282
1673605799.024524,,,,5.722817,5.728003,2652633.000000,1673603751.054290
1673605799.024530,,,,5.718418,5.720984,2652634.000000,1673603751.055297
1673605799.024536,,,,5.709499,5.711463,2652635.000000,1673603751.056304
1673605799.029819,,,,5.710196,5.712016,2652636.000000,1673603751.057311
1673605799.030051,,,,5.705027,5.706319,2652637.000000,1673603751.058318
1673605799.030097,,,,5.670048,5.672950,2652638.000000,1673603751.059325
1673605799.030202,,,,5.639493,5.642852,2652639.000000,1673603751.060332
1673605799.030295,,,,5.634396,5.637010,2652640.000000,1673603751.061339
1673605799.030389,,,,5.638747,5.643068,2652641.000000,1673603751.062346
1673605799.032023,,,,5.631535,5.635087,2652642.000000,1673603751.063353
1673605799.032030,,,,5.621967,5.623764,2652643.000000,1673603751.064360
1673605799.032166,,,,5.620356,5.620326,2652644.000000,1673603751.065367
1673605799.032284,,,,5.615981,5.617921,2652645.000000,1673603751.066375
1673605799.032338,,,,5.613409,5.615301,2652646.000000,1673603751.067382
1673605799.032439,,,,5.618217,5.617777,2652647.000000,1673603751.068389
1673605799.032578,,,,5.618601,5.619700,2652648.000000,1673603751.069396
1673605799.037623,,,,5.619419,5.624413,2652649.000000,1673603751.070403
1673605799.037715,,,,5.623313,5.625230,2652650.000000,1673603751.071410
1673605799.037772,,,,5.619803,5.620975,2652651.000000,1673603751.072417
1673605799.037894,,,,5.608745,5.609339,2652652.000000,1673603751.073424
1673605799.037956,,,,5.598527,5.600204,2652653.000000,1673603751.074431
1673605799.037963,,,,5.598167,5.599675,2652654.000000,1673603751.075438
1673605799.037974,,,,5.599297,5.601382,2652655.000000,1673603751.076445
1673605799.038002,,,,5.603840,5.602968,2652656.000000,1673603751.077452
1673605799.039499,,,,5.632545,5.633187,2652657.000000,1673603751.078460
1673605799.039717,,,,5.668558,5.673070,2652658.000000,1673603751.079467
1673605799.039827,,,,5.683174,5.689202,2652659.000000,1673603751.080474
1673605799.039944,,,,5.683896,5.687134,2652660.000000,1673603751.081481
1673605799.040030,,,,5.685578,5.686341,2652661.000000,1673603751.082488
1673605799.040040,,,,5.679712,5.677398,2652662.000000,1673603751.083495
1673605799.040208,,,,5.670000,5.670090,2652663.000000,1673603751.084502
1673605799.061285,,,,5.655600,5.657108,2652664.000000,1673603751.085509
1673605799.062198,,,,5.627208,5.628428,2652665.000000,1673603751.086516
1673605799.062221,,,,5.615019,5.618546,2652666.000000,1673603751.087523
1673605799.062258,,,,5.618001,5.618643,2652667.000000,1673603751.088530
1673605799.062264,,,,5.615163,5.615518,2652668.000000,1673603751.089537
1673605799.062271,,,,5.605764,5.607247,2652669.000000,1673603751.090544
1673605799.062447,,,,5.608408,5.611359,2652670.000000,1673603751.091552
1673605799.062507,15.137413,653396.000000,1673605799.023905,,,,
1673605799.062518,15.227859,653397.000000,1673605799.024905,,,,
1673605799.063467,15.300222,653398.000000,1673605799.025905,,,,
1673605799.063479,15.372579,653399.000000,1673605799.026905,,,,
1673605799.063488,15.499210,653400.000000,1673605799.027905,,,,
1673605799.063562,15.589664,653401.000000,1673605799.028905,,,,
1673605799.063572,15.716295,653402.000000,1673605799.029905,,,,
1673605799.063579,15.897195,653403.000000,1673605799.030905,,,,
1673605799.063620,15.969559,653404.000000,1673605799.031905,,,,
1673605799.063636,16.078093,653405.000000,1673605799.032905,,,,
1673605799.063653,17.995649,653423.000000,1673605799.050905,,,,
1673605799.063674,18.031826,653424.000000,1673605799.051905,,,,
1673605799.063683,18.176548,653425.000000,1673605799.052905,,,,
1673605799.063710,18.267000,653426.000000,1673605799.053905,,,,
1673605799.063723,18.339365,653427.000000,1673605799.054905,,,,
1673605799.063735,18.465988,653428.000000,1673605799.055905,,,,
1673605799.063743,18.610710,653429.000000,1673605799.056905,,,,
1673605799.063784,18.646896,653430.000000,1673605799.057905,,,,
1673605799.063822,18.827795,653431.000000,1673605799.058905,,,,
1673605799.063831,18.936338,653432.000000,1673605799.059905,,,,
1673605799.066884,,,,5.621222,5.623162,2652671.000000,1673603751.092559
1673605799.067208,,,,5.624227,5.626287,2652672.000000,1673603751.093566
1673605799.067329,,,,5.624083,5.627466,2652673.000000,1673603751.094573
1673605799.069336,,,,5.619683,5.621960,2652674.000000,1673603751.095580
1673605799.069727,,,,5.616606,5.618643,2652675.000000,1673603751.096587
1673605799.069796,,,,5.642017,5.644967,2652676.000000,1673603751.097594
1673605799.069840,,,,5.682573,5.684634,2652677.000000,1673603751.098601
1673605799.074404,,,,5.696084,5.699780,2652678.000000,1673603751.099608
1673605799.074664,,,,5.692093,5.695308,2652679.000000,1673603751.100615
1673605799.074843,,,,5.676202,5.681004,2652680.000000,1673603751.101622
1673605799.075016,,,,5.674880,5.676629,2652681.000000,1673603751.102629
1673605799.076998,,,,5.694353,5.696270,2652682.000000,1673603751.103637
1673605799.077101,,,,5.723682,5.724517,2652683.000000,1673603751.104644
1673605799.077111,,,,5.707383,5.709733,2652684.000000,1673603751.105651
1673605799.077119,,,,5.677958,5.681990,2652685.000000,1673603751.106658
1673605799.081859,,,,5.667909,5.668839,2652686.000000,1673603751.107665
1673605799.081868,,,,5.673005,5.674753,2652687.000000,1673603751.108672
1673605799.115584,,,,5.662499,5.664945,2652688.000000,1673603751.109679
1673605799.115951,,,,5.645527,5.648068,2652689.000000,1673603751.110686
1673605799.116313,,,,5.619755,5.622850,2652690.000000,1673603751.111693
1673605799.116336,,,,5.600907,5.601742,2652691.000000,1673603751.112700
1673605799.116689,,,,5.596556,5.598088,2652692.000000,1673603751.113707
1673605799.116993,,,,5.605619,5.610060,2652693.000000,1673603751.114714
1673605799.118546,,,,5.622087,5.624028,2652694.000000,1673603751.115721
1673605799.118671,,,,5.630069,5.631649,2652695.000000,1673603751.116729
1673605799.119610,,,,5.637593,5.639967,2652696.000000,1673603751.117736
1673605799.119629,,,,5.651561,5.654727,2652697.000000,1673603751.118743
1673605799.120276,,,,5.666081,5.668334,2652698.000000,1673603751.119750
1673605799.120300,,,,5.677284,5.679682,2652699.000000,1673603751.120757
1673605799.120331,,,,5.672957,5.674032,2652700.000000,1673603751.121764
1673605799.120342,,,,5.655912,5.658093,2652701.000000,1673603751.122771
1673605799.120351,,,,5.641872,5.643621,2652702.000000,1673603751.123778
1673605799.120702,,,,5.634228,5.635687,2652703.000000,1673603751.124785
1673605799.120852,,,,5.632208,5.633692,2652705.000000,1673603751.126799
1673605799.120868,,,,5.631848,5.633356,2652706.000000,1673603751.127806
1673605799.120892,,,,5.631295,5.632586,2652707.000000,1673603751.128814
1673605799.121107,,,,5.626126,5.627610,2652708.000000,1673603751.129821
1673605799.121131,,,,5.619443,5.621552,2652709.000000,1673603751.130828
1673605799.121151,,,,5.612688,5.617633,2652710.000000,1673603751.131835
1673605799.121162,,,,5.610259,5.612585,2652711.000000,1673603751.132842
1673605799.121174,,,,5.602975,5.603642,2652712.000000,1673603751.133849
1673605799.121183,,,,5.595138,5.597367,2652713.000000,1673603751.134856
1673605799.121509,,,,5.600763,5.604411,2652714.000000,1673603751.135863
1673605799.121522,,,,5.614226,5.616118,2652715.000000,1673603751.136870
1673605799.121568,,,,5.638146,5.641048,2652716.000000,1673603751.137877
1673605799.121574,,,,5.669952,5.672061,2652717.000000,1673603751.138884
1673605799.127135,,,,5.685747,5.688408,2652718.000000,1673603751.139891
1673605799.127353,,,,5.683270,5.685283,2652719.000000,1673603751.140898
1673605799.127412,21.885027,653461.000000,1673605799.094401,,,,
1673605799.127826,21.957382,653462.000000,1673605799.095401,,,,
1673605799.127835,22.102104,653463.000000,1673605799.096401,,,,
1673605799.127839,22.228735,653464.000000,1673605799.097401,,,,
1673605799.127854,22.301100,653465.000000,1673605799.098401,,,,
1673605799.127859,22.391544,653466.000000,1673605799.099401,,,,
1673605799.127884,22.500088,653467.000000,1673605799.100401,,,,
1673605799.127895,22.590542,653468.000000,1673605799.101401,,,,
1673605799.127901,22.626720,653469.000000,1673605799.102401,,,,
1673605799.127905,22.735262,653470.000000,1673605799.103401,,,,
1673605799.127915,23.802582,653484.000000,1673605799.117401,,,,
1673605799.127919,23.874939,653485.000000,1673605799.118401,,,,
1673605799.127927,24.001570,653486.000000,1673605799.119401,,,,
1673605799.127934,24.055838,653487.000000,1673605799.120401,,,,
1673605799.127940,24.055838,653488.000000,1673605799.121401,,,,
1673605799.127944,24.218655,653489.000000,1673605799.122401,,,,
1673605799.127948,24.327190,653490.000000,1673605799.123401,,,,
1673605799.127956,24.417643,653491.000000,1673605799.124401,,,,
1673605799.127961,24.471910,653492.000000,1673605799.125401,,,,
1673605799.127973,24.526186,653493.000000,1673605799.126401,,,,
1673605799.128185,,,,5.674135,5.678119,2652720.000000,1673603751.141906
1673605799.128193,,,,5.662668,5.663238,2652721.000000,1673603751.142913
1673605799.128228,,,,5.645118,5.644727,2652722.000000,1673603751.143920
1673605799.128255,,,,5.628170,5.631961,2652723.000000,1673603751.144927
1673605799.130433,,,,5.624900,5.626648,2652724.000000,1673603751.145934
1673605799.130621,,,,5.638459,5.637515,2652725.000000,1673603751.146941
1673605799.130633,,,,5.637738,5.641121,2652726.000000,1673603751.147948
1673605799.130641,,,,5.633675,5.639318,2652727.000000,1673603751.148955
1673605799.130733,,,,5.635887,5.641073,2652728.000000,1673603751.149962
1673605799.130823,,,,5.641440,5.645400,2652729.000000,1673603751.150969
1673605799.130930,,,,5.643700,5.645496,2652730.000000,1673603751.151976
1673605799.131120,,,,5.631415,5.634029,2652731.000000,1673603751.152983
1673605799.131294,,,,5.622568,5.624509,2652732.000000,1673603751.153991
1673605799.131364,,,,5.619178,5.623066,2652733.000000,1673603751.154998
1673605799.131671,,,,5.622664,5.627658,2652734.000000,1673603751.156005
1673605799.131681,,,,5.629780,5.632634,2652735.000000,1673603751.157012
1673605799.131775,,,,5.642426,5.645857,2652736.000000,1673603751.158019
1673605799.132040,,,,5.648892,5.651867,2652737.000000,1673603751.159026
1673605799.132050,,,,5.645238,5.651987,2652738.000000,1673603751.160033
1673605799.134734,,,,5.642858,5.646842,2652739.000000,1673603751.161040
1673605799.134813,,,,5.643531,5.643958,2652740.000000,1673603751.162047
1673605799.134849,,,,5.645671,5.647660,2652741.000000,1673603751.163054
1673605799.134992,,,,5.645575,5.649727,2652742.000000,1673603751.164061
1673605799.135235,,,,5.644084,5.645544,2652743.000000,1673603751.165068
1673605799.135242,,,,5.642474,5.644775,2652744.000000,1673603751.166075
1673605799.135256,,,,5.664951,5.666051,2652745.000000,1673603751.167083
1673605799.136974,,,,5.749863,5.751034,2652746.000000,1673603751.168090
1673605799.137055,,,,5.797078,5.796759,2652747.000000,1673603751.169097
1673605799.137196,,,,5.789073,5.789956,2652748.000000,1673603751.170104
1673605799.137364,,,,5.763662,5.766059,2652749.000000,1673603751.171111
1673605799.137521,,,,5.736592,5.739086,2652750.000000,1673603751.172118
1673605799.137640,,,,5.699017,5.702785,2652751.000000,1673603751.173125
1673605799.137777,,,,5.651513,5.656940,2652752.000000,1673603751.174132
1673605799.142191,,,,5.594849,5.597006,2652753.000000,1673603751.175139
1673605799.142501,,,,5.550663,5.552387,2652754.000000,1673603751.176146
1673605799.142518,,,,5.553812,5.553445,2652755.000000,1673603751.177153
1673605799.142768,,,,5.609586,5.612416,2652756.000000,1673603751.178160
1673605799.143012,,,,5.653580,5.657035,2652757.000000,1673603751.179168
