__time,/gdx/grip_force_stream/grip_force,/gdx/grip_force_stream/header/seq,/gdx/grip_force_stream/header/stamp,/shimmer0/emg_stream/emg_ch1,/shimmer0/emg_stream/emg_ch2,/shimmer0/emg_stream/header/seq,/shimmer0/emg_stream/header/stamp
1673606273.739989,,,,-0.334189,-0.334288,334763.000000,1673606273.450704
1673606273.740018,,,,-0.332603,-0.330851,334764.000000,1673606273.451711
1673606273.740026,,,,-0.328420,-0.328038,334765.000000,1673606273.452718
1673606273.740400,,,,-0.326232,-0.328230,334766.000000,1673606273.453725
1673606273.740592,,,,-0.324982,-0.327196,334767.000000,1673606273.454732
1673606273.740761,,,,-0.323275,-0.323879,334768.000000,1673606273.455739
1673606273.740818,,,,-0.327506,-0.328471,334769.000000,1673606273.456746
1673606273.741007,,,,-0.331641,-0.331860,334770.000000,1673606273.457753
1673606273.741518,,,,-0.334261,-0.333687,334771.000000,1673606273.458760
1673606273.741683,,,,-0.335800,-0.335563,334772.000000,1673606273.459768
1673606273.741872,,,,-0.336641,-0.336596,334773.000000,1673606273.460775
1673606273.741986,,,,-0.338420,-0.338351,334774.000000,1673606273.461782
1673606273.742274,,,,-0.339358,-0.339818,334775.000000,1673606273.462789
1673606273.742407,,,,-0.340223,-0.339193,334776.000000,1673606273.463796
1673606273.742568,,,,-0.341161,-0.340491,334777.000000,1673606273.464803
1673606273.742584,,,,-0.336762,-0.336692,334778.000000,1673606273.465810
1673606273.742592,,,,-0.335632,-0.337342,334779.000000,1673606273.466817
1673606273.742850,,,,-0.331905,-0.336428,334780.000000,1673606273.467824
1673606273.745672,-0.673355,870350.000000,1673606273.685421,,,,
1673606273.747243,-0.619088,870351.000000,1673606273.686421,,,,
1673606273.747258,-0.582909,870352.000000,1673606273.687421,,,,
1673606273.747267,-0.655266,870353.000000,1673606273.688421,,,,
1673606273.747353,-0.655266,870354.000000,1673606273.689421,,,,
1673606273.747374,-0.655266,870400.000000,1673606273.735421,,,,
1673606273.747392,-0.655266,870401.000000,1673606273.736421,,,,
1673606273.747403,-0.691452,870402.000000,1673606273.737421,,,,
1673606273.747457,-0.637177,870403.000000,1673606273.738421,,,,
1673606273.747471,-0.691452,870404.000000,1673606273.739421,,,,
1673606273.747479,-0.709541,870405.000000,1673606273.740421,,,,
1673606273.747485,-0.727630,870406.000000,1673606273.741421,,,,
1673606273.747507,-0.673355,870407.000000,1673606273.742421,,,,
1673606273.747512,-0.673355,870408.000000,1673606273.743421,,,,
1673606273.747539,-0.655266,870409.000000,1673606273.744421,,,,
1673606273.755014,,,,-0.332098,-0.334000,334781.000000,1673606273.468831
1673606273.755381,,,,-0.335439,-0.336789,334782.000000,1673606273.469838
1673606273.755533,,,,-0.344431,-0.342150,334783.000000,1673606273.501058
1673606273.755553,,,,-0.326088,-0.324047,334784.000000,1673606273.502065
1673606273.755755,,,,-0.318972,-0.317749,334785.000000,1673606273.503072
1673606273.755871,,,,-0.316928,-0.317917,334786.000000,1673606273.504079
1673606273.755977,,,,-0.320198,-0.319503,334787.000000,1673606273.505086
1673606273.756181,,,,-0.332266,-0.328447,334788.000000,1673606273.506093
1673606273.756388,,,,-0.342075,-0.342318,334789.000000,1673606273.507100
1673606273.756718,,,,-0.339045,-0.339722,334790.000000,1673606273.508107
1673606273.756842,,,,-0.332242,-0.332437,334791.000000,1673606273.509115
1673606273.756860,,,,-0.330102,-0.330610,334792.000000,1673606273.510122
1673606273.756941,,,,-0.330727,-0.331404,334793.000000,1673606273.511129
1673606273.757263,,,,-0.331184,-0.329144,334794.000000,1673606273.512136
1673606273.757536,,,,-0.330126,-0.328927,334795.000000,1673606273.513143
1673606273.757737,,,,-0.326809,-0.328110,334796.000000,1673606273.514150
1673606273.757838,,,,-0.321808,-0.323614,334797.000000,1673606273.515157
1673606273.757920,,,,-0.322650,-0.321355,334798.000000,1673606273.516164
1673606273.758088,,,,-0.324405,-0.322605,334799.000000,1673606273.517171
1673606273.759461,,,,-0.358013,-0.355660,334805.000000,1673606273.523214
1673606273.759747,,,,-0.353350,-0.353857,334806.000000,1673606273.524221
1673606273.759770,,,,-0.350633,-0.351429,334807.000000,1673606273.525228
1673606273.759968,,,,-0.350537,-0.349386,334808.000000,1673606273.526235
1673606273.760084,,,,-0.346859,-0.347799,334809.000000,1673606273.527242
1673606273.760100,,,,-0.348782,-0.349338,334810.000000,1673606273.528249
1673606273.760130,,,,-0.348974,-0.346910,334811.000000,1673606273.529256
1673606273.760226,,,,-0.347628,-0.347270,334812.000000,1673606273.530263
1673606273.760234,,,,-0.343589,-0.344482,334813.000000,1673606273.531270
1673606273.760238,,,,-0.342579,-0.341909,334814.000000,1673606273.532277
1673606273.760270,,,,-0.339719,-0.340226,334815.000000,1673606273.533284
1673606273.760280,,,,-0.339911,-0.342198,334816.000000,1673606273.534292
1673606273.762025,,,,-0.340392,-0.340876,334817.000000,1673606273.535299
1673606273.762271,,,,-0.340272,-0.339313,334818.000000,1673606273.536306
1673606273.762391,,,,-0.343733,-0.344554,334819.000000,1673606273.537313
1673606273.762642,,,,-0.350753,-0.351309,334820.000000,1673606273.538320
1673606273.762773,,,,-0.354311,-0.352944,334821.000000,1673606273.539327
1673606273.762786,,,,-0.355778,-0.356261,334822.000000,1673606273.540334
1673606273.763002,,,,-0.354287,-0.355492,334823.000000,1673606273.541341
1673606273.764249,,,,-0.359191,-0.360829,334830.000000,1673606273.548391
1673606273.764397,,,,-0.355417,-0.355132,334831.000000,1673606273.549398
1673606273.764510,,,,-0.353854,-0.352968,334832.000000,1673606273.550405
1673606273.764532,,,,-0.346258,-0.344506,334833.000000,1673606273.551412
1673606273.764543,,,,-0.337194,-0.337293,334834.000000,1673606273.552419
1673606273.764561,,,,-0.338685,-0.340587,334835.000000,1673606273.553426
1673606273.764810,,,,-0.342916,-0.345107,334836.000000,1673606273.554433
1673606273.764988,,,,-0.341089,-0.342510,334837.000000,1673606273.555440
1673606273.765197,,,,-0.333612,-0.335683,334838.000000,1673606273.556447
1673606273.765432,,,,-0.338925,-0.339265,334839.000000,1673606273.557454
1673606273.765610,,,,-0.352051,-0.353088,334840.000000,1673606273.558461
1673606273.765619,,,,-0.362701,-0.361743,334841.000000,1673606273.559469
1673606273.765752,,,,-0.365202,-0.365685,334842.000000,1673606273.560476
1673606273.765785,,,,-0.364072,-0.363978,334843.000000,1673606273.561483
1673606273.766136,,,,-0.368856,-0.369123,334844.000000,1673606273.562490
1673606273.766209,,,,-0.372967,-0.372922,334845.000000,1673606273.563497
1673606273.766323,,,,-0.371765,-0.370926,334846.000000,1673606273.564504
1673606273.766394,,,,-0.364889,-0.363786,334847.000000,1673606273.565511
1673606273.766410,,,,-0.363879,-0.361671,334848.000000,1673606273.566518
1673606273.766466,,,,-0.369649,-0.369604,334849.000000,1673606273.567525
1673606273.766479,,,,-0.337290,-0.339770,334850.000000,1673606273.579610
1673606273.766487,,,,-0.349936,-0.350396,334851.000000,1673606273.580617
1673606273.766493,,,,-0.365634,-0.366671,334852.000000,1673606273.581624
1673606273.805887,,,,-0.376140,-0.377129,334853.000000,1673606273.582631
1673606273.806063,,,,-0.377534,-0.378331,334854.000000,1673606273.583638
1673606273.806587,,,,-0.383064,-0.384701,334855.000000,1673606273.584646
1673606273.806655,,,,-0.387728,-0.388596,334856.000000,1673606273.585653
1673606273.806671,,,,-0.390757,-0.391313,334857.000000,1673606273.586660
1673606273.806678,,,,-0.395877,-0.395207,334858.000000,1673606273.587667
1673606273.806751,,,,-0.388232,-0.387394,334859.000000,1673606273.588674
1673606273.806758,,,,-0.376428,-0.376960,334860.000000,1673606273.589681
1673606273.806826,,,,-0.368471,-0.369099,334861.000000,1673606273.590688
1673606273.813451,-0.492456,870454.000000,1673606273.793775,,,,
1673606273.813475,-0.456278,870455.000000,1673606273.794775,,,,
1673606273.814135,-0.528634,870456.000000,1673606273.795775,,,,
1673606273.814170,-0.456278,870457.000000,1673606273.796775,,,,
1673606273.814181,-0.492456,870458.000000,1673606273.797775,,,,
1673606273.814278,-0.492456,870459.000000,1673606273.798775,,,,
1673606273.814290,-0.528634,870460.000000,1673606273.799775,,,,
1673606273.814305,-0.492456,870461.000000,1673606273.800775,,,,
1673606273.814317,-0.456278,870462.000000,1673606273.801775,,,,
1673606273.814328,-0.456278,870463.000000,1673606273.802775,,,,
1673606273.814340,-0.510545,870464.000000,1673606273.803775,,,,
1673606273.814357,-0.456278,870465.000000,1673606273.804775,,,,
1673606273.814380,-0.438189,870466.000000,1673606273.805775,,,,
1673606273.814391,-0.438189,870467.000000,1673606273.806775,,,,
1673606273.814469,-0.438189,870468.000000,1673606273.807775,,,,
1673606273.814487,-0.492456,870469.000000,1673606273.808775,,,,
1673606273.814496,-0.510545,870470.000000,1673606273.809775,,,,
1673606273.867859,-0.275379,870522.000000,1673606273.857288,,,,
1673606273.867872,-0.257290,870523.000000,1673606273.858288,,,,
1673606273.867882,-0.329646,870524.000000,1673606273.859288,,,,
1673606273.867898,-0.275379,870525.000000,1673606273.860288,,,,
1673606273.867906,-0.293468,870526.000000,1673606273.861288,,,,
1673606273.867917,-0.184925,870527.000000,1673606273.862288,,,,
1673606273.867925,-0.221104,870528.000000,1673606273.863288,,,,
1673606273.867932,-0.257290,870529.000000,1673606273.864288,,,,
1673606273.867939,-0.221104,870530.000000,1673606273.865288,,,,
1673606273.867954,-0.203014,870531.000000,1673606273.866288,,,,
1673606273.889919,,,,-0.361283,-0.359459,334862.000000,1673606273.591695
1673606273.890258,,,,-0.344166,-0.340948,334863.000000,1673606273.592702
1673606273.890968,,,,-0.322457,-0.321210,334864.000000,1673606273.593709
1673606273.891183,,,,-0.312457,-0.309887,334865.000000,1673606273.594716
1673606273.902452,,,,-0.315726,-0.313710,334866.000000,1673606273.595723
1673606273.902725,,,,-0.326304,-0.326716,334867.000000,1673606273.596730
1673606273.902958,,,,-0.337747,-0.341260,334868.000000,1673606273.597738
1673606273.902971,,,,-0.344238,-0.347751,334869.000000,1673606273.598745
1673606273.903109,,,,-0.346931,-0.346068,334870.000000,1673606273.599752
1673606273.903352,,,,-0.350369,-0.350251,334871.000000,1673606273.600759
1673606273.903648,,,,-0.357557,-0.356045,334872.000000,1673606273.601766
1673606273.931552,-0.239193,870532.000000,1673606273.870851,,,,
1673606273.931859,-0.239193,870534.000000,1673606273.872851,,,,
1673606273.931880,-0.257290,870535.000000,1673606273.873851,,,,
1673606273.931971,-0.184925,870536.000000,1673606273.874851,,,,
1673606273.932033,-0.130658,870537.000000,1673606273.875851,,,,
1673606273.932118,-0.148747,870538.000000,1673606273.876851,,,,
1673606273.933093,-0.148747,870539.000000,1673606273.877851,,,,
1673606273.933109,-0.184925,870540.000000,1673606273.878851,,,,
1673606273.933114,-0.166836,870541.000000,1673606273.879851,,,,
1673606273.933118,-0.221104,870542.000000,1673606273.880851,,,,
1673606273.933266,-0.203014,870543.000000,1673606273.881851,,,,
1673606273.933318,0.014062,870583.000000,1673606273.921851,,,,
1673606273.933325,-0.004027,870584.000000,1673606273.922851,,,,
1673606273.933332,-0.004027,870585.000000,1673606273.923851,,,,
1673606273.933346,0.032160,870586.000000,1673606273.924851,,,,
1673606273.933358,0.014062,870587.000000,1673606273.925851,,,,
1673606273.933366,0.014062,870588.000000,1673606273.926851,,,,
1673606273.933371,0.014062,870589.000000,1673606273.927851,,,,
1673606273.933377,0.014062,870590.000000,1673606273.928851,,,,
1673606273.933389,0.014062,870591.000000,1673606273.929851,,,,
1673606273.933408,0.050249,870592.000000,1673606273.930851,,,,
1673606273.948835,,,,-0.362124,-0.361142,334873.000000,1673606273.602773
1673606273.949445,,,,-0.364480,-0.363930,334874.000000,1673606273.603780
1673606273.949635,,,,-0.362509,-0.360949,334875.000000,1673606273.604787
1673606273.950328,,,,-0.360081,-0.357415,334876.000000,1673606273.605794
1673606273.951443,,,,-0.359432,-0.361118,334877.000000,1673606273.606801
1673606273.951678,,,,-0.363879,-0.364411,334878.000000,1673606273.607808
1673606273.951944,,,,-0.365202,-0.364147,334879.000000,1673606273.608815
1673606273.951973,,,,-0.358879,-0.357391,334880.000000,1673606273.609823
1673606273.952264,,,,-0.355369,-0.354434,334881.000000,1673606273.610830
1673606273.952296,,,,-0.351522,-0.350275,334882.000000,1673606273.611837
1673606273.952655,,,,-0.347051,-0.345756,334883.000000,1673606273.612844
1673606273.952681,,,,-0.346137,-0.343568,334884.000000,1673606273.613851
1673606273.953122,,,,-0.344815,-0.346309,334885.000000,1673606273.614858
1673606273.953856,,,,-0.346330,-0.348857,334886.000000,1673606273.615865
1673606273.954220,,,,-0.346282,-0.346285,334887.000000,1673606273.616872
1673606273.954604,,,,-0.347989,-0.346789,334888.000000,1673606273.617879
1673606273.954615,,,,-0.352845,-0.351501,334889.000000,1673606273.618886
1673606273.954665,,,,-0.351186,-0.351333,334890.000000,1673606273.619893
1673606273.954787,,,,-0.353662,-0.351982,334891.000000,1673606273.620900
1673606273.978859,,,,-0.355754,-0.356911,334892.000000,1673606273.621907
1673606273.979062,,,,-0.360417,-0.362344,334893.000000,1673606273.622915
1673606273.979246,,,,-0.366404,-0.366166,334894.000000,1673606273.623922
1673606273.979341,,,,-0.365971,-0.369003,334895.000000,1673606273.624929
1673606273.979506,,,,-0.365009,-0.366383,334896.000000,1673606273.625936
1673606273.979552,,,,-0.362245,-0.362752,334897.000000,1673606273.626943
1673606273.979747,,,,-0.361547,-0.362849,334898.000000,1673606273.627950
1673606273.979893,,,,-0.356042,-0.357295,334899.000000,1673606273.628957
1673606273.980082,,,,-0.353830,-0.351598,334900.000000,1673606273.629964
1673606273.980287,,,,-0.350296,-0.350924,334901.000000,1673606273.630971
1673606273.980441,,,,-0.346979,-0.347439,334902.000000,1673606273.631978
1673606273.986179,0.050249,870593.000000,1673606273.925479,,,,
1673606273.986312,0.014062,870594.000000,1673606273.926479,,,,
1673606273.986617,0.104516,870605.000000,1673606273.937479,,,,
1673606273.986628,0.122605,870606.000000,1673606273.938479,,,,
1673606273.986639,0.158783,870607.000000,1673606273.939479,,,,
1673606273.987372,0.176880,870608.000000,1673606273.940479,,,,
1673606273.987383,0.213059,870609.000000,1673606273.941479,,,,
1673606273.987388,0.158783,870610.000000,1673606273.942479,,,,
1673606273.987403,0.086427,870611.000000,1673606273.943479,,,,
1673606273.987435,0.213059,870612.000000,1673606273.944479,,,,
1673606273.987440,0.231148,870613.000000,1673606273.945479,,,,
1673606273.987443,0.213059,870614.000000,1673606273.946479,,,,
1673606273.987458,0.448233,870644.000000,1673606273.976479,,,,
1673606273.987466,0.412046,870645.000000,1673606273.977479,,,,
1673606273.987472,0.430135,870646.000000,1673606273.978479,,,,
1673606273.987480,0.466322,870647.000000,1673606273.979479,,,,
1673606273.987486,0.466322,870648.000000,1673606273.980479,,,,
1673606273.987490,0.484411,870649.000000,1673606273.981479,,,,
1673606273.987514,0.448233,870650.000000,1673606273.982479,,,,
1673606273.987519,0.466322,870651.000000,1673606273.983479,,,,
1673606273.987524,0.466322,870652.000000,1673606273.984479,,,,
1673606273.987529,0.502500,870653.000000,1673606273.985479,,,,
1673606274.024938,,,,-0.347123,-0.347030,334903.000000,1673606273.731679
1673606274.025160,,,,-0.346498,-0.346068,334904.000000,1673606273.732686
1673606274.025475,,,,-0.341209,-0.341116,334905.000000,1673606273.733693
1673606274.025675,,,,-0.334910,-0.334288,334906.000000,1673606273.734700
1673606274.026011,,,,-0.333516,-0.330177,334907.000000,1673606273.735708
1673606274.026229,,,,-0.333757,-0.333014,334908.000000,1673606273.736715
1673606274.026430,,,,-0.341714,-0.341645,334909.000000,1673606273.737722
1673606274.050513,0.466322,870654.000000,1673606273.989706,,,,
1673606274.052029,0.520589,870655.000000,1673606273.990705,,,,
1673606274.053109,0.484411,870656.000000,1673606273.991705,,,,
1673606274.053126,0.466322,870657.000000,1673606273.992706,,,,
1673606274.053144,0.990929,870705.000000,1673606274.040705,,,,
1673606274.053157,0.990929,870706.000000,1673606274.041706,,,,
1673606274.053174,1.009027,870707.000000,1673606274.042706,,,,
1673606274.053246,1.027116,870708.000000,1673606274.043705,,,,
1673606274.053268,1.027116,870709.000000,1673606274.044705,,,,
1673606274.053283,1.045205,870710.000000,1673606274.045706,,,,
1673606274.053319,1.081383,870711.000000,1673606274.046705,,,,
1673606274.053340,1.099472,870712.000000,1673606274.047705,,,,
1673606274.053352,1.117561,870713.000000,1673606274.048706,,,,
1673606274.053371,1.135650,870714.000000,1673606274.049706,,,,
1673606274.107031,2.112517,870766.000000,1673606274.096429,,,,
1673606274.107048,2.112517,870767.000000,1673606274.097429,,,,
1673606274.107060,2.166792,870768.000000,1673606274.098429,,,,
1673606274.107066,2.202970,870769.000000,1673606274.099429,,,,
1673606274.107079,2.221059,870770.000000,1673606274.100429,,,,
1673606274.107082,2.257237,870771.000000,1673606274.101429,,,,
1673606274.107136,2.347691,870772.000000,1673606274.102429,,,,
1673606274.107142,2.365780,870773.000000,1673606274.103429,,,,
1673606274.107145,2.365780,870774.000000,1673606274.104429,,,,
1673606274.107185,2.420055,870775.000000,1673606274.105429,,,,
1673606274.116328,,,,-0.350345,-0.349891,334910.000000,1673606273.738729
1673606274.116601,,,,-0.348085,-0.347967,334911.000000,1673606273.739736
1673606274.116622,,,,-0.342603,-0.342486,334912.000000,1673606273.740743
1673606274.116640,,,,-0.349094,-0.348040,334913.000000,1673606273.741750
1673606274.116648,,,,-0.352316,-0.352078,334914.000000,1673606273.742757
1673606274.116673,,,,-0.357100,-0.354891,334915.000000,1673606273.743764
1673606274.117137,,,,-0.360994,-0.361214,334916.000000,1673606273.744771
1673606274.117391,,,,-0.364072,-0.365060,334917.000000,1673606273.745778
1673606274.117948,,,,-0.357629,-0.358401,334918.000000,1673606273.746785
1673606274.118464,,,,-0.348373,-0.348256,334919.000000,1673606273.747792
1673606274.118937,,,,-0.343397,-0.342270,334920.000000,1673606273.748800
1673606274.119019,,,,-0.338949,-0.340876,334921.000000,1673606273.749807
1673606274.119227,,,,-0.338997,-0.341260,334922.000000,1673606273.750814
1673606274.119247,,,,-0.337363,-0.338207,334923.000000,1673606273.751821
1673606274.119459,,,,-0.333396,-0.335899,334924.000000,1673606273.752828
1673606274.119788,,,,-0.338781,-0.338255,334925.000000,1673606273.753835
1673606274.119852,,,,-0.341137,-0.343231,334926.000000,1673606273.754842
1673606274.119905,,,,-0.344406,-0.344265,334927.000000,1673606273.755849
1673606274.129313,,,,-0.348854,-0.344506,334928.000000,1673606273.756856
1673606274.129341,,,,-0.345080,-0.343808,334929.000000,1673606273.757863
1673606274.129624,,,,-0.345560,-0.345563,334930.000000,1673606273.758870
1673606274.130092,,,,-0.354455,-0.352054,334931.000000,1673606273.759877
1673606274.130582,,,,-0.359167,-0.357584,334932.000000,1673606273.760885
1673606274.130862,,,,-0.358807,-0.356574,334933.000000,1673606273.761892
1673606274.130875,,,,-0.356908,-0.356935,334934.000000,1673606273.762899
1673606274.131252,,,,-0.358398,-0.359050,334935.000000,1673606273.763906
1673606274.131459,,,,-0.361716,-0.361334,334936.000000,1673606273.764913
1673606274.131477,,,,-0.360754,-0.361911,334937.000000,1673606273.765920
1673606274.132538,,,,-0.354840,-0.356983,334938.000000,1673606273.766927
1673606274.132558,,,,-0.349455,-0.348737,334939.000000,1673606273.767934
1673606274.132562,,,,-0.339646,-0.340587,334941.000000,1673606273.769948
1673606274.133376,,,,-0.337867,-0.338495,334942.000000,1673606273.770955
1673606274.133386,,,,-0.335632,-0.333808,334943.000000,1673606273.771962
1673606274.133396,,,,-0.331785,-0.329721,334944.000000,1673606273.772969
1673606274.133408,,,,-0.332795,-0.333495,334945.000000,1673606273.773977
1673606274.133585,,,,-0.338709,-0.341020,334946.000000,1673606273.774984
1673606274.133597,,,,-0.343517,-0.342126,334947.000000,1673606273.775991
1673606274.133904,,,,-0.348325,-0.344650,334948.000000,1673606273.776998
1673606274.133916,,,,-0.348493,-0.349314,334949.000000,1673606273.778005
1673606274.133935,,,,-0.353999,-0.353473,334950.000000,1673606273.779012
1673606274.133945,,,,-0.353157,-0.356382,334951.000000,1673606273.780019
1673606274.133952,,,,-0.346185,-0.347030,334952.000000,1673606273.781026
1673606274.133956,,,,-0.341089,-0.342102,334953.000000,1673606273.782033
1673606274.134056,,,,-0.343325,-0.343592,334954.000000,1673606273.783040
1673606274.134068,,,,-0.357965,-0.356814,334955.000000,1673606273.784047
1673606274.134155,,,,-0.363230,-0.362849,334956.000000,1673606273.785054
1673606274.134303,,,,-0.359889,-0.358329,334957.000000,1673606273.786062
1673606274.134563,,,,-0.361139,-0.359507,334958.000000,1673606273.787069
1673606274.134644,,,,-0.359143,-0.358473,334959.000000,1673606273.788076
1673606274.145020,,,,-0.357388,-0.355781,334960.000000,1673606273.789083
1673606274.145031,,,,-0.351354,-0.351285,334961.000000,1673606273.790090
1673606274.145036,,,,-0.349768,-0.347102,334962.000000,1673606273.791097
1673606274.145489,,,,-0.346017,-0.343592,334963.000000,1673606273.792104
1673606274.145519,,,,-0.329549,-0.328519,334964.000000,1673606273.793111
1673606274.145931,,,,-0.322962,-0.323398,334965.000000,1673606273.794118
1673606274.146272,,,,-0.326256,-0.325610,334966.000000,1673606273.795125
1673606274.147017,,,,-0.332530,-0.330682,334967.000000,1673606273.796132
1673606274.147103,,,,-0.338613,-0.340707,334968.000000,1673606273.797139
1673606274.147116,,,,-0.336185,-0.334817,334969.000000,1673606273.798146
1673606274.158292,,,,-0.318924,-0.317917,334970.000000,1673606273.799154
1673606274.158578,,,,-0.311832,-0.310056,334971.000000,1673606273.800161
1673606274.158586,,,,-0.322530,-0.322052,334972.000000,1673606273.801168
1673606274.158591,,,,-0.344022,-0.342703,334973.000000,1673606273.802175
1673606274.158656,,,,-0.365202,-0.365108,334974.000000,1673606273.803182
1673606274.158663,,,,-0.374601,-0.374364,334975.000000,1673606273.804189
1673606274.158689,,,,-0.373447,-0.374965,334976.000000,1673606273.805196
1673606274.169984,2.474323,870776.000000,1673606274.109441,,,,
1673606274.172247,,,,-0.371116,-0.368113,334977.000000,1673606273.806203
1673606274.172271,,,,-0.366788,-0.364507,334978.000000,1673606273.807210
1673606274.172287,,,,-0.354912,-0.358617,334979.000000,1673606273.808217
1673606274.172391,,,,-0.352292,-0.354026,334980.000000,1673606273.809224
1673606274.172585,2.438144,870777.000000,1673606274.110441,,,,
1673606274.172600,4.952672,870827.000000,1673606274.160441,,,,
1673606274.172646,4.988850,870828.000000,1673606274.161441,,,,
1673606274.172659,5.061214,870829.000000,1673606274.162441,,,,
1673606274.172706,5.133571,870830.000000,1673606274.163441,,,,
1673606274.172716,5.205935,870831.000000,1673606274.164441,,,,
1673606274.172723,,,,-0.350849,-0.349458,334981.000000,1673606273.810231
1673606274.172723,5.296381,870832.000000,1673606274.165441,,,,
1673606274.172859,5.314469,870833.000000,1673606274.166441,,,,
1673606274.172866,5.368745,870834.000000,1673606274.167441,,,,
1673606274.172872,5.423012,870835.000000,1673606274.168441,,,,
1673606274.172889,5.513465,870836.000000,1673606274.169441,,,,
1673606274.173979,,,,-0.347508,-0.344506,334982.000000,1673606273.811239
1673606274.174278,,,,-0.337916,-0.337462,334983.000000,1673606273.812246
1673606274.174581,,,,-0.332987,-0.331692,334984.000000,1673606273.813253
1673606274.179523,,,,-0.334718,-0.335010,334985.000000,1673606273.814260
1673606274.179822,,,,-0.339839,-0.344073,334986.000000,1673606273.815267
1673606274.180403,,,,-0.341906,-0.344674,334987.000000,1673606273.816274
1673606274.180715,,,,-0.345657,-0.344434,334988.000000,1673606273.817281
1673606274.180728,,,,-0.345777,-0.345395,334989.000000,1673606273.818288
1673606274.180849,,,,-0.343805,-0.345924,334990.000000,1673606273.819295
1673606274.180871,,,,-0.348686,-0.349795,334991.000000,1673606273.820302
1673606274.184835,,,,-0.359215,-0.358738,334992.000000,1673606273.821309
1673606274.185230,,,,-0.362052,-0.361502,334993.000000,1673606273.822316
1673606274.186332,,,,-0.358831,-0.360372,334994.000000,1673606273.823323
1673606274.186756,,,,-0.359937,-0.360084,334995.000000,1673606273.824331
1673606274.186771,,,,-0.359071,-0.356694,334996.000000,1673606273.825338
1673606274.186872,,,,-0.356595,-0.358714,334997.000000,1673606273.826345
1673606274.187190,,,,-0.357485,-0.356887,334998.000000,1673606273.827352
1673606274.187387,,,,-0.358879,-0.356646,334999.000000,1673606273.828359
1673606274.187598,,,,-0.353470,-0.353232,335000.000000,1673606273.829366
1673606274.187998,,,,-0.343397,-0.347294,335001.000000,1673606273.830373
1673606274.188265,,,,-0.341714,-0.343832,335002.000000,1673606273.831380
1673606274.188541,,,,-0.342724,-0.343832,335003.000000,1673606273.832387
1673606274.188632,,,,-0.340320,-0.340058,335004.000000,1673606273.833394
1673606274.188790,,,,-0.333083,-0.335539,335005.000000,1673606273.834401
1673606274.188896,,,,-0.334430,-0.336813,335006.000000,1673606273.835408
1673606274.189130,,,,-0.342555,-0.341813,335007.000000,1673606273.836416
1673606274.189226,,,,-0.345320,-0.344241,335008.000000,1673606273.837423
1673606274.189282,,,,-0.344070,-0.342823,335009.000000,1673606273.838430
1673606274.189409,,,,-0.344839,-0.343159,335010.000000,1673606273.839437
1673606274.189577,,,,-0.347532,-0.349001,335011.000000,1673606273.840444
1673606274.189656,,,,-0.350873,-0.351021,335012.000000,1673606273.841451
1673606274.189669,,,,-0.357340,-0.357728,335013.000000,1673606273.842458
1673606274.189879,,,,-0.355225,-0.353256,335014.000000,1673606273.843465
1673606274.190227,,,,-0.352773,-0.352968,335015.000000,1673606273.844472
1673606274.190236,,,,-0.345320,-0.343352,335016.000000,1673606273.845479
1673606274.190241,,,,-0.333420,-0.330803,335017.000000,1673606273.846486
1673606274.190528,,,,-0.325823,-0.328134,335018.000000,1673606273.847493
1673606274.190692,,,,-0.330126,-0.329889,335019.000000,1673606273.848500
1673606274.190851,,,,-0.345104,-0.345059,335020.000000,1673606273.849508
1673606274.191063,,,,-0.359624,-0.362320,335021.000000,1673606273.850515
1673606274.191254,,,,-0.371404,-0.373811,335022.000000,1673606273.851522
1673606274.191446,,,,-0.371380,-0.370109,335023.000000,1673606273.852529
1673606274.191667,,,,-0.357100,-0.353184,335024.000000,1673606273.853536
1673606274.192085,,,,-0.335151,-0.333615,335025.000000,1673606273.854543
1673606274.192101,,,,-0.334670,-0.332966,335026.000000,1673606273.855550
1673606274.192299,,,,-0.337122,-0.338616,335027.000000,1673606273.856557
1673606274.225767,5.567733,870837.000000,1673606274.164951,,,,
1673606274.225783,5.622008,870838.000000,1673606274.165951,,,,
1673606274.227434,9.022949,870888.000000,1673606274.215950,,,,
1673606274.227452,9.149580,870889.000000,1673606274.216951,,,,
1673606274.227459,9.258123,870890.000000,1673606274.217951,,,,
1673606274.227466,9.312390,870891.000000,1673606274.218951,,,,
1673606274.227490,9.439022,870892.000000,1673606274.219950,,,,
1673606274.227502,9.511378,870893.000000,1673606274.220951,,,,
1673606274.227514,9.638010,870894.000000,1673606274.221951,,,,
1673606274.227526,9.710374,870895.000000,1673606274.222950,,,,
1673606274.227580,9.800819,870896.000000,1673606274.223951,,,,
1673606274.227589,9.945540,870897.000000,1673606274.224951,,,,
1673606274.228420,,,,-0.336545,-0.333062,335028.000000,1673606273.857564
1673606274.228678,,,,-0.337387,-0.338399,335029.000000,1673606273.858571
1673606274.228996,,,,-0.341161,-0.343544,335030.000000,1673606273.859578
1673606274.229133,,,,-0.347700,-0.350973,335031.000000,1673606273.860585
1673606274.229602,,,,-0.356138,-0.356670,335032.000000,1673606273.861593
1673606274.229614,,,,-0.357076,-0.355805,335033.000000,1673606273.862600
1673606274.229626,,,,-0.353951,-0.352487,335034.000000,1673606273.863607
1673606274.230008,,,,-0.348181,-0.348160,335035.000000,1673606273.864614
1673606274.230048,,,,-0.345729,-0.346958,335036.000000,1673606273.865621
1673606274.231040,,,,-0.341161,-0.340707,335037.000000,1673606273.866628
1673606274.231085,,,,-0.334189,-0.335514,335038.000000,1673606273.867635
1673606274.231231,,,,-0.324645,-0.322749,335044.000000,1673606273.873677
1673606274.231542,,,,-0.324068,-0.322821,335045.000000,1673606273.874685
1673606274.232100,,,,-0.328059,-0.325009,335046.000000,1673606273.875692
1673606274.232111,,,,-0.331737,-0.332101,335047.000000,1673606273.876699
1673606274.232124,,,,-0.339743,-0.343231,335048.000000,1673606273.877706
1673606274.232296,,,,-0.349768,-0.347318,335049.000000,1673606273.878713
1673606274.232307,,,,-0.351258,-0.348568,335050.000000,1673606273.879720
1673606274.232524,,,,-0.339887,-0.339986,335051.000000,1673606273.880727
1673606274.232538,,,,-0.331978,-0.334529,335052.000000,1673606273.881734
1673606274.232551,,,,-0.339430,-0.341308,335053.000000,1673606273.882741
1673606274.232555,,,,-0.348349,-0.351718,335054.000000,1673606273.883748
1673606274.232559,,,,-0.350849,-0.354843,335055.000000,1673606273.884755
1673606274.232565,,,,-0.349816,-0.353064,335056.000000,1673606273.885762
1673606274.232579,,,,-0.353638,-0.353617,335057.000000,1673606273.886770
1673606274.232587,,,,-0.355225,-0.352511,335058.000000,1673606273.887777
1673606274.232600,,,,-0.355826,-0.353401,335059.000000,1673606273.888784
1673606274.232614,,,,-0.348253,-0.348448,335060.000000,1673606273.889791
1673606274.232619,,,,-0.340800,-0.339794,335061.000000,1673606273.890798
1673606274.232672,,,,-0.344406,-0.344193,335062.000000,1673606273.891805
1673606274.232682,,,,-0.341594,-0.342174,335063.000000,1673606273.892812
1673606274.251078,,,,-0.332290,-0.334000,335064.000000,1673606273.893819
1673606274.251103,,,,-0.323924,-0.324360,335065.000000,1673606273.894826
1673606274.251127,,,,-0.322121,-0.321234,335066.000000,1673606273.895833
1673606274.251275,,,,-0.318467,-0.318782,335067.000000,1673606273.937124
1673606274.251626,,,,-0.320558,-0.322100,335068.000000,1673606273.938131
1673606274.252642,,,,-0.333011,-0.334072,335070.000000,1673606273.940145
1673606274.252667,,,,-0.350513,-0.352319,335071.000000,1673606273.941152
1673606274.252676,,,,-0.359841,-0.360060,335072.000000,1673606273.942159
1673606274.252921,,,,-0.348734,-0.346934,335073.000000,1673606273.943166
1673606274.252936,,,,-0.336209,-0.331932,335074.000000,1673606273.944173
1673606274.252963,,,,-0.342339,-0.340635,335075.000000,1673606273.945180
1673606274.252975,,,,-0.353109,-0.354723,335076.000000,1673606273.946187
1673606274.252980,,,,-0.358422,-0.361166,335077.000000,1673606273.947194
1673606274.252996,,,,-0.356451,-0.357752,335078.000000,1673606273.948201
1673606274.253004,,,,-0.346017,-0.345876,335079.000000,1673606273.949208
1673606274.270597,,,,-0.334430,-0.334385,335080.000000,1673606273.950216
1673606274.270634,,,,-0.328179,-0.324792,335081.000000,1673606273.951223
1673606274.270654,,,,-0.320967,-0.319503,335082.000000,1673606273.952230
1673606274.270683,,,,-0.320246,-0.318253,335083.000000,1673606273.953237
1673606274.271715,,,,-0.320582,-0.322052,335084.000000,1673606273.954244
1673606274.271950,,,,-0.328420,-0.330370,335085.000000,1673606273.955251
1673606274.272714,,,,-0.340127,-0.341813,335086.000000,1673606273.956258
1673606274.273241,,,,-0.346450,-0.350372,335087.000000,1673606273.957265
1673606274.273438,,,,-0.347989,-0.348881,335088.000000,1673606273.958272
1673606274.273686,,,,-0.344815,-0.342270,335089.000000,1673606273.959279
1673606274.273712,,,,-0.322337,-0.321162,335090.000000,1673606273.960286
1673606274.273997,,,,-0.309860,-0.309142,335091.000000,1673606273.961293
1673606274.291216,12.062092,870917.000000,1673606274.249241,,,,
1673606274.291851,12.170626,870918.000000,1673606274.250241,,,,
1673606274.291861,12.315347,870919.000000,1673606274.251240,,,,
1673606274.291865,12.387712,870920.000000,1673606274.252240,,,,
1673606274.291871,12.478165,870921.000000,1673606274.253241,,,,
1673606274.291876,12.604788,870922.000000,1673606274.254241,,,,
1673606274.291886,12.749517,870923.000000,1673606274.255240,,,,
1673606274.291892,12.858051,870924.000000,1673606274.256241,,,,
1673606274.291898,13.002772,870925.000000,1673606274.257241,,,,
1673606274.291910,13.183680,870926.000000,1673606274.258240,,,,
1673606274.291922,15.824839,870949.000000,1673606274.281240,,,,
1673606274.291940,16.060005,870950.000000,1673606274.282241,,,,
1673606274.291944,16.168547,870951.000000,1673606274.283241,,,,
1673606274.291947,16.295179,870952.000000,1673606274.284240,,,,
1673606274.291957,16.476078,870953.000000,1673606274.285240,,,,
1673606274.291962,16.584620,870954.000000,1673606274.286241,,,,
1673606274.291967,16.693163,870955.000000,1673606274.287241,,,,
1673606274.291987,16.819794,870956.000000,1673606274.288240,,,,
1673606274.291992,16.964516,870957.000000,1673606274.289241,,,,
1673606274.291997,17.091146,870958.000000,1673606274.290241,,,,
1673606274.301805,,,,-0.311832,-0.310705,335092.000000,1673606273.962301
1673606274.302137,,,,-0.312961,-0.315344,335093.000000,1673606273.963308
1673606274.302347,,,,-0.309019,-0.309382,335094.000000,1673606273.964315
1673606274.314641,,,,-0.328948,-0.327052,335095.000000,1673606273.965322
1673606274.315370,,,,-0.358326,-0.357704,335096.000000,1673606273.966329
1673606274.315429,,,,-0.364913,-0.367152,335097.000000,1673606273.967336
1673606274.315479,,,,-0.354504,-0.355733,335098.000000,1673606273.968343
1673606274.315513,,,,-0.363014,-0.365782,335099.000000,1673606274.001577
1673606274.315523,,,,-0.371524,-0.370926,335100.000000,1673606274.002584
1673606274.315528,,,,-0.368327,-0.367561,335101.000000,1673606274.003591
1673606274.331455,,,,-0.356355,-0.356045,335102.000000,1673606274.004598
1673606274.331561,,,,-0.349695,-0.349049,335103.000000,1673606274.005605
1673606274.332007,,,,-0.347291,-0.349314,335104.000000,1673606274.006612
1673606274.332904,,,,-0.353854,-0.355829,335105.000000,1673606274.007619
1673606274.332935,,,,-0.355056,-0.356165,335106.000000,1673606274.008626
1673606274.333468,,,,-0.339887,-0.340779,335107.000000,1673606274.009633
1673606274.333892,,,,-0.332386,-0.331668,335108.000000,1673606274.010640
1673606274.334476,,,,-0.331929,-0.330899,335109.000000,1673606274.011647
1673606274.334490,,,,-0.337218,-0.337390,335110.000000,1673606274.012655
1673606274.334516,,,,-0.337266,-0.338495,335111.000000,1673606274.013662
1673606274.334744,,,,-0.335103,-0.335707,335112.000000,1673606274.014669
1673606274.334832,,,,-0.338493,-0.337943,335113.000000,1673606274.015676
1673606274.335289,,,,-0.338613,-0.338952,335114.000000,1673606274.016683
1673606274.335624,,,,-0.340272,-0.341428,335115.000000,1673606274.017690
1673606274.335932,,,,-0.333180,-0.331692,335116.000000,1673606274.018697
1673606274.335954,,,,-0.305244,-0.305945,335117.000000,1673606274.019704
1673606274.335996,,,,-0.304667,-0.304743,335118.000000,1673606274.020711
1673606274.336003,,,,-0.316279,-0.315705,335119.000000,1673606274.021718
1673606274.336027,,,,-0.320606,-0.321427,335120.000000,1673606274.022725
1673606274.336284,,,,-0.328684,-0.328543,335121.000000,1673606274.023732
1673606274.336471,,,,-0.318731,-0.316931,335122.000000,1673606274.024740
1673606274.347108,,,,-0.320246,-0.320441,335123.000000,1673606274.025747
1673606274.347328,,,,-0.324261,-0.325201,335124.000000,1673606274.176809
1673606274.347630,,,,-0.322866,-0.319816,335125.000000,1673606274.177816
1673606274.347804,,,,-0.281829,-0.278610,335126.000000,1673606274.178823
1673606274.348040,,,,-0.284834,-0.285222,335127.000000,1673606274.179830
1673606274.348155,,,,-0.307985,-0.308301,335128.000000,1673606274.180837
1673606274.348402,,,,-0.308899,-0.309166,335129.000000,1673606274.181844
1673606274.348546,,,,-0.308610,-0.307339,335130.000000,1673606274.182851
1673606274.348717,,,,-0.325414,-0.324913,335131.000000,1673606274.183858
1673606274.348900,,,,-0.345729,-0.346597,335132.000000,1673606274.184865
1673606274.349082,,,,-0.371789,-0.369989,335133.000000,1673606274.185872
1673606274.349241,,,,-0.405157,-0.402419,335134.000000,1673606274.186879
1673606274.349472,,,,-0.405830,-0.408814,335135.000000,1673606274.187886
1673606274.349699,,,,-0.400084,-0.403165,335136.000000,1673606274.188894
1673606274.350325,,,,-0.403811,-0.402660,335137.000000,1673606274.189901
1673606274.350338,,,,-0.410903,-0.408742,335138.000000,1673606274.190908
1673606274.350350,,,,-0.423548,-0.421363,335139.000000,1673606274.191915
1673606274.350795,,,,-0.432924,-0.429104,335140.000000,1673606274.192922
1673606274.350896,,,,-0.384819,-0.383451,335141.000000,1673606274.193929
1673606274.351125,,,,-0.357172,-0.354675,335142.000000,1673606274.194936
1673606274.351298,,,,-0.337170,-0.335466,335143.000000,1673606274.195943
1673606274.351426,,,,-0.320775,-0.321114,335144.000000,1673606274.196950
1673606274.351485,,,,-0.317457,-0.319071,335145.000000,1673606274.197957
1673606274.356027,23.115156,871010.000000,1673606274.345311,,,,
1673606274.356042,23.296057,871011.000000,1673606274.346312,,,,
1673606274.356051,23.314144,871012.000000,1673606274.347311,,,,
1673606274.356062,23.386509,871013.000000,1673606274.348311,,,,
1673606274.356101,23.422688,871014.000000,1673606274.349311,,,,
1673606274.356107,23.531231,871015.000000,1673606274.350312,,,,
1673606274.356111,23.639765,871016.000000,1673606274.351311,,,,
1673606274.356183,23.748306,871017.000000,1673606274.352311,,,,
1673606274.356194,23.838760,871018.000000,1673606274.353312,,,,
1673606274.356200,23.929205,871019.000000,1673606274.354311,,,,
1673606274.367247,,,,-0.326424,-0.325417,335146.000000,1673606274.198964
1673606274.367423,,,,-0.358206,-0.357560,335147.000000,1673606274.199971
1673606274.367816,,,,-0.382751,-0.384076,335148.000000,1673606274.200979
1673606274.368482,,,,-0.379073,-0.381865,335149.000000,1673606274.201986
1673606274.368514,,,,-0.357076,-0.357391,335150.000000,1673606274.202993
1673606274.368974,,,,-0.339959,-0.337582,335151.000000,1673606274.204000
1673606274.375330,,,,-0.344935,-0.343953,335152.000000,1673606274.205007
1673606274.375605,,,,-0.354311,-0.353136,335153.000000,1673606274.206014
1673606274.375901,,,,-0.349575,-0.348905,335154.000000,1673606274.207021
1673606274.376206,,,,-0.343156,-0.342366,335155.000000,1673606274.208028
1673606274.376575,,,,-0.371091,-0.371143,335156.000000,1673606274.209035
1673606274.377446,,,,-0.393305,-0.394005,335157.000000,1673606274.210042
1673606274.377472,,,,-0.398378,-0.399438,335158.000000,1673606274.211049
1673606274.377484,,,,-0.399531,-0.402419,335159.000000,1673606274.212056
1673606274.377728,,,,-0.411239,-0.413238,335160.000000,1673606274.213063
1673606274.377911,,,,-0.379746,-0.381865,335161.000000,1673606274.214071
1673606274.378234,,,,-0.322482,-0.322172,335162.000000,1673606274.215078
1673606274.382205,,,,-0.304908,-0.298973,335163.000000,1673606274.216085
1673606274.382228,,,,-0.312481,-0.311738,335164.000000,1673606274.217092
1673606274.382238,,,,-0.320222,-0.322364,335165.000000,1673606274.218099
1673606274.382286,,,,-0.328371,-0.328423,335166.000000,1673606274.219106
1673606274.413460,,,,-0.331352,-0.332606,335167.000000,1673606274.220113
1673606274.413840,,,,-0.350104,-0.351646,335168.000000,1673606274.221120
1673606274.414385,,,,-0.399820,-0.401626,335169.000000,1673606274.222127
1673606274.419584,24.037748,871020.000000,1673606274.358926,,,,
1673606274.419606,24.128202,871021.000000,1673606274.359926,,,,
1673606274.420784,27.728138,871071.000000,1673606274.409925,,,,
1673606274.420804,27.836674,871072.000000,1673606274.410926,,,,
1673606274.420811,27.909037,871073.000000,1673606274.411926,,,,
1673606274.420816,27.999491,871074.000000,1673606274.412925,,,,
1673606274.420841,28.089937,871075.000000,1673606274.413925,,,,
1673606274.420849,28.126123,871076.000000,1673606274.414926,,,,
1673606274.420857,28.198479,871077.000000,1673606274.415926,,,,
1673606274.420864,28.216568,871078.000000,1673606274.416925,,,,
1673606274.420945,28.307022,871079.000000,1673606274.417926,,,,
1673606274.420951,28.288933,871080.000000,1673606274.418926,,,,
1673606274.437654,,,,-0.441482,-0.439706,335170.000000,1673606274.223134
1673606274.437838,,,,-0.414413,-0.412709,335171.000000,1673606274.224141
1673606274.437850,,,,-0.351691,-0.350588,335172.000000,1673606274.225148
1673606274.437866,,,,-0.321520,-0.322124,335173.000000,1673606274.226156
1673606274.437876,,,,-0.340945,-0.344121,335174.000000,1673606274.227163
1673606274.438100,,,,-0.355105,-0.356862,335175.000000,1673606274.228170
1673606274.438627,,,,-0.349215,-0.347751,335176.000000,1673606274.229177
1673606274.438682,,,,-0.316952,-0.315032,335177.000000,1673606274.230184
1673606274.438884,,,,-0.306422,-0.307531,335178.000000,1673606274.231191
1673606274.438894,,,,-0.324741,-0.324552,335179.000000,1673606274.232198
1673606274.439016,,,,-0.352700,-0.352319,335180.000000,1673606274.233205
1673606274.439122,,,,-0.393569,-0.394630,335181.000000,1673606274.234212
1673606274.439172,,,,-0.432227,-0.431821,335182.000000,1673606274.235219
1673606274.439266,,,,-0.430424,-0.427974,335183.000000,1673606274.236226
1673606274.439509,,,,-0.385876,-0.386745,335184.000000,1673606274.237233
1673606274.439521,,,,-0.362437,-0.363522,335185.000000,1673606274.238240
1673606274.440014,,,,-0.353830,-0.354410,335186.000000,1673606274.239248
1673606274.440358,,,,-0.354696,-0.357247,335187.000000,1673606274.240255
1673606274.440371,,,,-0.397656,-0.398717,335188.000000,1673606274.241262
1673606274.440559,,,,-0.423332,-0.426652,335189.000000,1673606274.242269
1673606274.440578,,,,-0.448646,-0.450044,335190.000000,1673606274.243276
1673606274.440886,,,,-0.465811,-0.465430,335191.000000,1673606274.244283
1673606274.441144,,,,-0.433597,-0.434778,335192.000000,1673606274.245290
1673606274.441529,,,,-0.343060,-0.343760,335193.000000,1673606274.246297
1673606274.441552,,,,-0.293392,-0.291953,335194.000000,1673606274.247304
1673606274.441564,,,,-0.286733,-0.284500,335195.000000,1673606274.248311
1673606274.441802,,,,-0.299499,-0.300391,335196.000000,1673606274.249318
1673606274.441905,,,,-0.296205,-0.296905,335197.000000,1673606274.250325
1673606274.442025,,,,-0.308177,-0.307363,335198.000000,1673606274.251333
1673606274.442456,,,,-0.316159,-0.315969,335199.000000,1673606274.252340
1673606274.442472,,,,-0.315029,-0.316787,335200.000000,1673606274.253347
1673606274.442897,,,,-0.323034,-0.324264,335201.000000,1673606274.254354
1673606274.442910,,,,-0.309139,-0.308541,335202.000000,1673606274.255361
1673606274.443057,,,,-0.280483,-0.283611,335203.000000,1673606274.256368
1673606274.443216,,,,-0.271083,-0.271302,335204.000000,1673606274.257375
1673606274.443240,,,,-0.277934,-0.276351,335205.000000,1673606274.258382
1673606274.452043,,,,-0.278896,-0.278154,335206.000000,1673606274.259389
1673606274.452297,,,,-0.278175,-0.279091,335207.000000,1673606274.260396
1673606274.452315,,,,-0.301422,-0.301088,335208.000000,1673606274.261403
1673606274.452991,,,,-0.348157,-0.349218,335209.000000,1673606274.262410
1673606274.453100,,,,-0.401575,-0.400208,335210.000000,1673606274.263417
1673606274.453165,,,,-0.454873,-0.454707,335211.000000,1673606274.264425
1673606274.453174,,,,-0.465859,-0.464660,335212.000000,1673606274.265432
1673606274.453318,,,,-0.437612,-0.437374,335213.000000,1673606274.266439
1673606274.453780,,,,-0.387872,-0.387899,335214.000000,1673606274.267446
1673606274.455143,,,,-0.385588,-0.385086,335226.000000,1673606274.279531
1673606274.455251,,,,-0.421216,-0.420955,335227.000000,1673606274.280538
1673606274.455397,,,,-0.457445,-0.455741,335228.000000,1673606274.281545
1673606274.455895,,,,-0.483433,-0.485047,335229.000000,1673606274.282552
1673606274.455918,,,,-0.467590,-0.471824,335230.000000,1673606274.283559
1673606274.456030,,,,-0.408523,-0.410497,335231.000000,1673606274.284566
1673606274.456109,,,,-0.373688,-0.375037,335232.000000,1673606274.285573
1673606274.456198,,,,-0.395781,-0.397731,335233.000000,1673606274.286580
1673606274.456266,,,,-0.407874,-0.412156,335234.000000,1673606274.287587
1673606274.456366,,,,-0.409412,-0.410377,335235.000000,1673606274.288594
1673606274.456395,,,,-0.429101,-0.427205,335236.000000,1673606274.289602
1673606274.456407,,,,-0.435039,-0.430667,335237.000000,1673606274.290609
1673606274.456415,,,,-0.423187,-0.423383,335238.000000,1673606274.291616
1673606274.456451,,,,-0.411792,-0.412156,335239.000000,1673606274.292623
1673606274.456460,,,,-0.364552,-0.364796,335240.000000,1673606274.293630
1673606274.473721,28.451742,871081.000000,1673606274.413009,,,,
1673606274.473738,28.487921,871082.000000,1673606274.414009,,,,
1673606274.473747,28.560286,871083.000000,1673606274.415009,,,,
1673606274.473753,28.632641,871084.000000,1673606274.416009,,,,
1673606274.473757,28.705006,871085.000000,1673606274.417009,,,,
1673606274.473760,28.723095,871086.000000,1673606274.418009,,,,
1673606274.473789,28.705006,871087.000000,1673606274.419009,,,,
1673606274.474489,30.477833,871132.000000,1673606274.464009,,,,
1673606274.474499,30.568285,871133.000000,1673606274.465009,,,,
1673606274.474507,30.640642,871134.000000,1673606274.466009,,,,
1673606274.474515,30.713007,871135.000000,1673606274.467009,,,,
1673606274.474530,30.749184,871136.000000,1673606274.468009,,,,
1673606274.474535,30.731094,871137.000000,1673606274.469009,,,,
1673606274.474555,30.839638,871138.000000,1673606274.470009,,,,
1673606274.474558,30.857727,871139.000000,1673606274.471009,,,,
1673606274.474561,30.875816,871140.000000,1673606274.472009,,,,
1673606274.474579,30.930092,871141.000000,1673606274.473009,,,,
1673606274.489695,,,,-0.305268,-0.303517,335241.000000,1673606274.294637
1673606274.490385,,,,-0.220934,-0.221490,335242.000000,1673606274.295644
1673606274.490400,,,,-0.252139,-0.253200,335243.000000,1673606274.296651
1673606274.490878,,,,-0.309548,-0.311378,335244.000000,1673606274.297658
1673606274.491110,,,,-0.339358,-0.339457,335245.000000,1673606274.298665
1673606274.491447,,,,-0.352676,-0.353160,335246.000000,1673606274.299672
1673606274.491663,,,,-0.384698,-0.382105,335247.000000,1673606274.300679
1673606274.491884,,,,-0.404989,-0.404920,335248.000000,1673606274.301687
1673606274.494228,,,,-0.404724,-0.404847,335249.000000,1673606274.302694
1673606274.494607,,,,-0.339646,-0.338471,335250.000000,1673606274.303701
1673606274.494947,,,,-0.290772,-0.291857,335251.000000,1673606274.304708
1673606274.509549,,,,-0.279521,-0.279572,335252.000000,1673606274.305715
1673606274.510069,,,,-0.305413,-0.307291,335253.000000,1673606274.306722
1673606274.510087,,,,-0.290099,-0.292578,335254.000000,1673606274.307729
1673606274.513520,,,,-0.307624,-0.311690,335255.000000,1673606274.308736
1673606274.513875,,,,-0.342026,-0.344506,335256.000000,1673606274.309743
1673606274.514061,,,,-0.337074,-0.339553,335257.000000,1673606274.310750
1673606274.514153,,,,-0.323732,-0.324480,335258.000000,1673606274.311757
1673606274.536393,,,,-0.293969,-0.294742,335259.000000,1673606274.312764
1673606274.536410,,,,-0.282791,-0.282745,335260.000000,1673606274.313771
1673606274.536593,,,,-0.285507,-0.286977,335261.000000,1673606274.314779
1673606274.536902,,,,-0.309067,-0.310945,335262.000000,1673606274.315786
1673606274.537244,,,,-0.340536,-0.341188,335263.000000,1673606274.316793
1673606274.537279,,,,-0.372582,-0.371720,335264.000000,1673606274.317800
1673606274.537617,,,,-0.405734,-0.407828,335265.000000,1673606274.318807
1673606274.537628,,,,-0.428885,-0.430571,335266.000000,1673606274.319814
1673606274.539645,33.118992,871193.000000,1673606274.528402,,,,
1673606274.539664,33.191357,871194.000000,1673606274.529402,,,,
1673606274.539680,33.227535,871195.000000,1673606274.530402,,,,
1673606274.539690,33.336075,871196.000000,1673606274.531402,,,,
1673606274.539716,33.336075,871197.000000,1673606274.532402,,,,
1673606274.539734,33.372253,871198.000000,1673606274.533402,,,,
1673606274.539742,33.372253,871199.000000,1673606274.534402,,,,
1673606274.539757,33.444618,871200.000000,1673606274.535402,,,,
1673606274.539765,33.444618,871201.000000,1673606274.536402,,,,
1673606274.539795,33.535065,871202.000000,1673606274.537402,,,,
1673606274.551253,,,,-0.453238,-0.452544,335267.000000,1673606274.320821
1673606274.551488,,,,-0.438934,-0.438648,335268.000000,1673606274.321828
1673606274.551507,,,,-0.363831,-0.366070,335269.000000,1673606274.322835
1673606274.551516,,,,-0.342339,-0.343231,335270.000000,1673606274.323842
1673606274.551660,,,,-0.393233,-0.392154,335271.000000,1673606274.324849
1673606274.551681,,,,-0.430327,-0.430066,335272.000000,1673606274.325856
1673606274.551693,,,,-0.427539,-0.426917,335273.000000,1673606274.326864
1673606274.551702,,,,-0.407946,-0.407684,335274.000000,1673606274.327871
1673606274.551720,,,,-0.388665,-0.387274,335275.000000,1673606274.328878
1673606274.552127,,,,-0.362269,-0.362416,335276.000000,1673606274.329885
1673606274.552421,,,,-0.335343,-0.336644,335277.000000,1673606274.330892
1673606274.552718,,,,-0.317385,-0.317147,335278.000000,1673606274.331899
1673606274.553159,,,,-0.304187,-0.305079,335279.000000,1673606274.332906
1673606274.553454,,,,-0.287815,-0.289333,335280.000000,1673606274.333913
1673606274.553785,,,,-0.287935,-0.289188,335281.000000,1673606274.334920
1673606274.554127,,,,-0.313418,-0.314743,335282.000000,1673606274.335927
1673606274.554142,,,,-0.326953,-0.326523,335283.000000,1673606274.336934
1673606274.554339,,,,-0.320751,-0.320633,335284.000000,1673606274.337941
1673606274.554353,,,,-0.344887,-0.346357,335285.000000,1673606274.338948
1673606274.554377,,,,-0.371452,-0.370061,335286.000000,1673606274.339956
1673606274.554602,,,,-0.394964,-0.393019,335287.000000,1673606274.340963
1673606274.555016,,,,-0.375827,-0.375758,335288.000000,1673606274.341970
1673606274.555035,,,,-0.337699,-0.339409,335289.000000,1673606274.342977
1673606274.555042,,,,-0.344310,-0.345010,335290.000000,1673606274.343984
1673606274.555074,,,,-0.347027,-0.348568,335291.000000,1673606274.344991
1673606274.555307,,,,-0.339911,-0.340034,335292.000000,1673606274.345998
1673606274.555529,,,,-0.326929,-0.326451,335293.000000,1673606274.347005
1673606274.555719,,,,-0.321279,-0.320994,335294.000000,1673606274.348012
1673606274.555883,,,,-0.312625,-0.311498,335295.000000,1673606274.349019
1673606274.556150,,,,-0.291469,-0.292145,335296.000000,1673606274.350026
1673606274.556741,,,,-0.275699,-0.276230,335297.000000,1673606274.351033
1673606274.556752,,,,-0.285988,-0.285222,335298.000000,1673606274.352041
1673606274.556784,,,,-0.307793,-0.306137,335299.000000,1673606274.353048
1673606274.556797,,,,-0.308274,-0.309671,335300.000000,1673606274.354055
1673606274.556824,,,,-0.306278,-0.303757,335301.000000,1673606274.355062
1673606274.556828,,,,-0.294258,-0.294501,335302.000000,1673606274.356069
1673606274.557581,,,,-0.293104,-0.291929,335303.000000,1673606274.357076
1673606274.557593,,,,-0.313034,-0.311690,335304.000000,1673606274.358083
1673606274.557684,,,,-0.322482,-0.319263,335305.000000,1673606274.359090
1673606274.558022,,,,-0.334983,-0.332750,335306.000000,1673606274.360097
1673606274.558038,,,,-0.342603,-0.341837,335307.000000,1673606274.361104
1673606274.558080,,,,-0.346762,-0.343328,335308.000000,1673606274.362111
1673606274.558093,,,,-0.363471,-0.362224,335309.000000,1673606274.387288
1673606274.558240,,,,-0.370466,-0.369892,335310.000000,1673606274.388295
1673606274.558394,,,,-0.396526,-0.397539,335311.000000,1673606274.389302
1673606274.558712,,,,-0.418716,-0.419777,335312.000000,1673606274.390310
1673606274.558721,,,,-0.397993,-0.396650,335313.000000,1673606274.391317
1673606274.558753,,,,-0.337146,-0.337774,335314.000000,1673606274.392324
1673606274.565018,,,,-0.309115,-0.307724,335315.000000,1673606274.393331
1673606274.565027,,,,-0.294811,-0.294790,335316.000000,1673606274.394338
1673606274.565241,,,,-0.300340,-0.299358,335317.000000,1673606274.395345
1673606274.565438,,,,-0.331473,-0.330658,335318.000000,1673606274.396352
1673606274.565449,,,,-0.358879,-0.358329,335319.000000,1673606274.397359
1673606274.565626,,,,-0.379626,-0.379893,335320.000000,1673606274.398366
1673606274.565881,,,,-0.404941,-0.405785,335321.000000,1673606274.399373
1673606274.566046,,,,-0.432154,-0.429705,335322.000000,1673606274.400380
1673606274.566716,,,,-0.431433,-0.431004,335323.000000,1673606274.401387
1673606274.566730,,,,-0.428116,-0.427061,335324.000000,1673606274.402395
1673606274.566774,,,,-0.444968,-0.446365,335325.000000,1673606274.403402
1673606274.566784,,,,-0.389434,-0.390663,335326.000000,1673606274.404409
1673606274.566848,,,,-0.370587,-0.371191,335327.000000,1673606274.405416
1673606274.566853,,,,-0.378039,-0.374845,335328.000000,1673606274.406423
1673606274.566871,,,,-0.350681,-0.349242,335329.000000,1673606274.407430
1673606274.593325,33.571243,871203.000000,1673606274.532042,,,,
1673606274.593807,,,,-0.304211,-0.303565,335330.000000,1673606274.408437
1673606274.593933,33.625519,871206.000000,1673606274.535042,,,,
1673606274.594227,,,,-0.280170,-0.277433,335331.000000,1673606274.409444
1673606274.594255,,,,-0.281781,-0.281447,335332.000000,1673606274.410451
1673606274.594267,,,,-0.273150,-0.273273,335333.000000,1673606274.411458
1673606274.594670,,,,-0.248292,-0.249642,335334.000000,1673606274.412465
1673606274.594744,,,,-0.259615,-0.260941,335335.000000,1673606274.413472
1673606274.594757,33.697872,871207.000000,1673606274.536042,,,,
1673606274.594861,,,,-0.293513,-0.293179,335336.000000,1673606274.414479
1673606274.594877,,,,-0.310221,-0.309022,335337.000000,1673606274.415487
1673606274.595556,33.752148,871208.000000,1673606274.537042,,,,
1673606274.595568,33.788326,871209.000000,1673606274.538042,,,,
1673606274.595573,33.860691,871210.000000,1673606274.539042,,,,
1673606274.595618,33.842594,871211.000000,1673606274.540042,,,,
1673606274.595633,33.878780,871212.000000,1673606274.541042,,,,
1673606274.595643,33.951138,871213.000000,1673606274.542042,,,,
1673606274.595652,33.987316,871214.000000,1673606274.543042,,,,
1673606274.595656,33.987316,871215.000000,1673606274.544042,,,,
1673606274.595661,35.289810,871254.000000,1673606274.583042,,,,
1673606274.595679,35.271721,871255.000000,1673606274.584042,,,,
1673606274.595687,35.344078,871256.000000,1673606274.585042,,,,
1673606274.595739,35.344078,871257.000000,1673606274.586042,,,,
1673606274.595762,35.380257,871258.000000,1673606274.587042,,,,
1673606274.595772,35.380257,871259.000000,1673606274.588042,,,,
1673606274.595782,35.452618,871260.000000,1673606274.589042,,,,
1673606274.595804,35.434532,871261.000000,1673606274.590042,,,,
1673606274.595809,35.434532,871262.000000,1673606274.591042,,,,
1673606274.595836,35.470707,871263.000000,1673606274.592042,,,,
1673606274.602677,,,,-0.312817,-0.311450,335338.000000,1673606274.416494
1673606274.603424,,,,-0.327073,-0.325153,335339.000000,1673606274.417501
1673606274.603444,,,,-0.340199,-0.335611,335340.000000,1673606274.418508
1673606274.603614,,,,-0.341834,-0.337870,335341.000000,1673606274.419515
1673606274.603625,,,,-0.340368,-0.338495,335342.000000,1673606274.420522
1673606274.603662,,,,-0.344022,-0.341452,335343.000000,1673606274.421529
1673606274.603717,,,,-0.365370,-0.364676,335344.000000,1673606274.422536
1673606274.603725,,,,-0.387992,-0.389437,335345.000000,1673606274.423543
1673606274.603803,,,,-0.401431,-0.401650,335346.000000,1673606274.424550
1673606274.604038,,,,-0.395060,-0.394606,335347.000000,1673606274.425557
1673606274.647742,,,,-0.381886,-0.380134,335348.000000,1673606274.426564
1673606274.647761,,,,-0.373952,-0.375326,335349.000000,1673606274.427572
1673606274.647778,,,,-0.364048,-0.366839,335350.000000,1673606274.428579
1673606274.648000,,,,-0.348301,-0.347318,335351.000000,1673606274.429586
1673606274.648323,,,,-0.330391,-0.330803,335352.000000,1673606274.430593
1673606274.648611,,,,-0.312216,-0.313061,335353.000000,1673606274.431600
1673606274.649338,,,,-0.325463,-0.324384,335354.000000,1673606274.432607
1673606274.649364,,,,-0.380371,-0.379941,335355.000000,1673606274.433614
1673606274.649374,,,,-0.401960,-0.400640,335356.000000,1673606274.434621
1673606274.649382,,,,-0.342820,-0.340996,335357.000000,1673606274.435628
1673606274.649723,,,,-0.320799,-0.320850,335358.000000,1673606274.436635
1673606274.650412,,,,-0.347892,-0.349434,335359.000000,1673606274.437642
1673606274.651005,,,,-0.352797,-0.352968,335360.000000,1673606274.438649
1673606274.651221,,,,-0.362677,-0.361382,335361.000000,1673606274.439656
1673606274.651423,,,,-0.377318,-0.377177,335362.000000,1673606274.440664
1673606274.651893,,,,-0.396502,-0.398693,335363.000000,1673606274.441671
1673606274.651908,,,,-0.434198,-0.434874,335364.000000,1673606274.442678
1673606274.651915,,,,-0.457445,-0.459035,335365.000000,1673606274.443685
1673606274.652112,,,,-0.478433,-0.479589,335366.000000,1673606274.444692
1673606274.652471,,,,-0.495020,-0.495216,335367.000000,1673606274.445699
1673606274.652493,,,,-0.502233,-0.500000,335368.000000,1673606274.446706
1673606274.659684,35.506886,871264.000000,1673606274.598648,,,,
1673606274.659830,35.506886,871265.000000,1673606274.599648,,,,
1673606274.659937,35.543072,871266.000000,1673606274.600647,,,,
1673606274.660369,,,,-0.502112,-0.503678,335369.000000,1673606274.447713
1673606274.660389,35.615429,871267.000000,1673606274.601648,,,,
1673606274.660578,,,,-0.490092,-0.491658,335370.000000,1673606274.448720
1673606274.660594,,,,-0.448863,-0.449346,335371.000000,1673606274.449727
1673606274.660603,,,,-0.376332,-0.378691,335372.000000,1673606274.450734
1673606274.660638,35.597340,871268.000000,1673606274.602648,,,,
1673606274.660863,,,,-0.330415,-0.328615,335373.000000,1673606274.451741
1673606274.661120,,,,-0.305293,-0.303709,335374.000000,1673606274.452749
1673606274.661437,,,,-0.259014,-0.258392,335375.000000,1673606274.453756
1673606274.661803,,,,-0.240792,-0.240771,335376.000000,1673606274.454763
1673606274.661919,36.375217,871296.000000,1673606274.630647,,,,
1673606274.661928,36.411396,871297.000000,1673606274.631648,,,,
1673606274.662108,36.447575,871298.000000,1673606274.632648,,,,
1673606274.662132,36.556118,871299.000000,1673606274.633647,,,,
1673606274.662146,36.574207,871300.000000,1673606274.634648,,,,
1673606274.662156,36.592297,871301.000000,1673606274.635648,,,,
1673606274.662166,36.628475,871302.000000,1673606274.636647,,,,
1673606274.662190,36.628475,871303.000000,1673606274.637648,,,,
1673606274.662210,36.700840,871304.000000,1673606274.638648,,,,
1673606274.662839,36.773193,871305.000000,1673606274.639647,,,,
1673606274.662863,37.026459,871315.000000,1673606274.649647,,,,
1673606274.662879,37.080734,871316.000000,1673606274.650648,,,,
1673606274.662890,37.153091,871317.000000,1673606274.651648,,,,
1673606274.662906,37.171181,871318.000000,1673606274.652647,,,,
1673606274.662912,37.189266,871319.000000,1673606274.653647,,,,
1673606274.662938,37.261631,871320.000000,1673606274.654648,,,,
1673606274.663025,37.315899,871321.000000,1673606274.655648,,,,
1673606274.663061,37.315899,871322.000000,1673606274.656647,,,,
1673606274.663069,37.424442,871323.000000,1673606274.657648,,,,
1673606274.663110,37.388264,871324.000000,1673606274.658648,,,,
1673606274.663304,,,,-0.261226,-0.262023,335377.000000,1673606274.455770
1673606274.663694,,,,-0.288224,-0.287506,335378.000000,1673606274.456777
1673606274.664174,,,,-0.285267,-0.283106,335379.000000,1673606274.457784
1673606274.664186,,,,-0.288320,-0.286544,335380.000000,1673606274.458791
1673606274.665815,,,,-0.282093,-0.284380,335389.000000,1673606274.467855
1673606274.665823,,,,-0.297576,-0.296641,335390.000000,1673606274.468862
1673606274.665835,,,,-0.305389,-0.304069,335391.000000,1673606274.469869
1673606274.665913,,,,-0.324597,-0.325369,335392.000000,1673606274.470876
1673606274.665924,,,,-0.354263,-0.356045,335393.000000,1673606274.471883
1673606274.665932,,,,-0.367894,-0.368907,335394.000000,1673606274.472890
1673606274.666002,,,,-0.355441,-0.356502,335395.000000,1673606274.473897
1673606274.666111,,,,-0.343685,-0.342630,335396.000000,1673606274.474904
1673606274.666123,,,,-0.308346,-0.308084,335397.000000,1673606274.475911
1673606274.666140,,,,-0.294498,-0.294285,335398.000000,1673606274.476918
1673606274.666472,,,,-0.397704,-0.397635,335399.000000,1673606274.508138
1673606274.666482,,,,-0.409556,-0.410834,335400.000000,1673606274.509145
1673606274.676447,,,,-0.362605,-0.361550,335401.000000,1673606274.510152
1673606274.676598,,,,-0.338300,-0.342318,335402.000000,1673606274.511159
1673606274.676724,,,,-0.354624,-0.361478,335403.000000,1673606274.512166
1673606274.683199,,,,-0.343878,-0.346164,335404.000000,1673606274.513173
1673606274.683559,,,,-0.318419,-0.320994,335405.000000,1673606274.514180
1673606274.683764,,,,-0.318323,-0.318758,335406.000000,1673606274.515188
1673606274.684002,,,,-0.336569,-0.337173,335407.000000,1673606274.516195
1673606274.684733,,,,-0.372005,-0.372128,335408.000000,1673606274.517202
1673606274.685255,,,,-0.399892,-0.397924,335409.000000,1673606274.518209
1673606274.685270,,,,-0.406046,-0.406049,335410.000000,1673606274.519216
1673606274.685284,,,,-0.422418,-0.423407,335411.000000,1673606274.520223
1673606274.685443,,,,-0.440328,-0.443697,335412.000000,1673606274.521230
1673606274.685452,,,,-0.453502,-0.457304,335413.000000,1673606274.522237
1673606274.685463,,,,-0.439968,-0.440740,335414.000000,1673606274.523244
1673606274.687089,,,,-0.452060,-0.451871,335416.000000,1673606274.525258
1673606274.687107,,,,-0.427515,-0.425330,335417.000000,1673606274.526265
1673606274.687255,,,,-0.326568,-0.328062,335418.000000,1673606274.527272
1673606274.687278,,,,-0.302985,-0.305127,335419.000000,1673606274.528280
1673606274.687288,,,,-0.331929,-0.331019,335420.000000,1673606274.529287
1673606274.687301,,,,-0.332482,-0.331860,335421.000000,1673606274.530294
1673606274.687309,,,,-0.335319,-0.334288,335422.000000,1673606274.531301
1673606274.687324,,,,-0.346979,-0.345732,335423.000000,1673606274.532308
1673606274.687422,,,,-0.360826,-0.359387,335424.000000,1673606274.533315
1673606274.687460,,,,-0.369264,-0.370854,335425.000000,1673606274.534322
1673606274.689513,,,,-0.365562,-0.368041,335426.000000,1673606274.535329
1673606274.689870,,,,-0.356547,-0.355660,335427.000000,1673606274.536336
1673606274.690535,,,,-0.355177,-0.357055,335428.000000,1673606274.537343
1673606274.690550,,,,-0.310461,-0.311209,335429.000000,1673606274.538350
1673606274.690556,,,,-0.297263,-0.295944,335430.000000,1673606274.539357
1673606274.690621,,,,-0.351955,-0.350924,335431.000000,1673606274.540365
1673606274.690640,,,,-0.390444,-0.391072,335432.000000,1673606274.541372
1673606274.714688,,,,-0.401310,-0.403501,335433.000000,1673606274.542379
1673606274.714939,,,,-0.391646,-0.394726,335434.000000,1673606274.543386
1673606274.715193,,,,-0.375419,-0.377465,335435.000000,1673606274.544393
1673606274.715206,,,,-0.340632,-0.341188,335436.000000,1673606274.545400
1673606274.715411,,,,-0.304499,-0.304118,335437.000000,1673606274.546407
1673606274.715663,,,,-0.287142,-0.285727,335438.000000,1673606274.547414
1673606274.715998,,,,-0.304259,-0.304238,335439.000000,1673606274.548421
1673606274.716262,,,,-0.339719,-0.339313,335440.000000,1673606274.549428
1673606274.716429,,,,-0.348806,-0.347919,335441.000000,1673606274.550435
1673606274.716531,,,,-0.339502,-0.339722,335442.000000,1673606274.551442
1673606274.716538,,,,-0.334790,-0.337053,335443.000000,1673606274.552449
1673606274.716560,,,,-0.335319,-0.335851,335444.000000,1673606274.553457
1673606274.716970,,,,-0.332290,-0.332894,335445.000000,1673606274.554464
1673606274.717184,,,,-0.335199,-0.333423,335446.000000,1673606274.555471
1673606274.717201,,,,-0.332266,-0.329456,335447.000000,1673606274.556478
1673606274.718028,,,,-0.335391,-0.333134,335448.000000,1673606274.557485
1673606274.718052,,,,-0.347460,-0.348184,335449.000000,1673606274.558492
1673606274.718068,,,,-0.345753,-0.348040,335450.000000,1673606274.559499
1673606274.718889,,,,-0.338228,-0.340443,335451.000000,1673606274.560506
1673606274.719098,,,,-0.339118,-0.340106,335452.000000,1673606274.561513
1673606274.719422,,,,-0.343613,-0.342390,335453.000000,1673606274.562520
1673606274.719486,,,,-0.354984,-0.355781,335454.000000,1673606274.563527
1673606274.725754,37.388264,871325.000000,1673606274.664986,,,,
1673606274.725893,37.478710,871326.000000,1673606274.665986,,,,
1673606274.725908,37.551075,871327.000000,1673606274.666986,,,,
1673606274.725924,37.605343,871328.000000,1673606274.667986,,,,
1673606274.726090,37.587254,871329.000000,1673606274.668986,,,,
1673606274.727922,40.680660,871376.000000,1673606274.715986,,,,
1673606274.727943,40.698750,871377.000000,1673606274.716986,,,,
1673606274.727961,40.807293,871378.000000,1673606274.717986,,,,
1673606274.728053,40.879658,871379.000000,1673606274.718986,,,,
1673606274.728059,40.897747,871380.000000,1673606274.719985,,,,
1673606274.728066,41.024380,871381.000000,1673606274.720986,,,,
1673606274.728075,41.078648,871382.000000,1673606274.721986,,,,
1673606274.728086,41.151012,871383.000000,1673606274.722986,,,,
1673606274.728115,41.223366,871384.000000,1673606274.723986,,,,
1673606274.728195,41.259544,871385.000000,1673606274.724986,,,,
1673606274.730310,,,,-0.363663,-0.364676,335455.000000,1673606274.564534
1673606274.730401,,,,-0.371909,-0.369724,335456.000000,1673606274.565542
1673606274.730478,,,,-0.375827,-0.377778,335457.000000,1673606274.566549
1673606274.730685,,,,-0.378424,-0.382225,335458.000000,1673606274.567556
1673606274.730695,,,,-0.387271,-0.389029,335459.000000,1673606274.568563
1673606274.730861,,,,-0.402777,-0.404006,335460.000000,1673606274.569570
1673606274.731816,,,,-0.426793,-0.429826,335461.000000,1673606274.570577
1673606274.732209,,,,-0.458767,-0.462328,335462.000000,1673606274.571584
1673606274.732251,,,,-0.500718,-0.502837,335463.000000,1673606274.572591
1673606274.732259,,,,-0.512738,-0.510145,335464.000000,1673606274.573598
1673606274.732270,,,,-0.479683,-0.480094,335465.000000,1673606274.574605
1673606274.732283,,,,-0.449464,-0.450452,335466.000000,1673606274.575612
1673606274.732299,,,,-0.425952,-0.426051,335467.000000,1673606274.576619
1673606274.750702,,,,-0.464970,-0.463915,335468.000000,1673606274.577626
1673606274.751231,,,,-0.473408,-0.474012,335469.000000,1673606274.578634
1673606274.751446,,,,-0.417225,-0.415954,335470.000000,1673606274.579641
1673606274.751504,,,,-0.356835,-0.355973,335471.000000,1673606274.580648
1673606274.752012,,,,-0.307216,-0.307676,335472.000000,1673606274.581655
1673606274.752034,,,,-0.309884,-0.310536,335473.000000,1673606274.582662
1673606274.752259,,,,-0.314356,-0.315609,335474.000000,1673606274.583669
1673606274.752562,,,,-0.316832,-0.316282,335475.000000,1673606274.584676
1673606274.752793,,,,-0.341906,-0.341332,335476.000000,1673606274.585683
1673606274.753135,,,,-0.364985,-0.367008,335477.000000,1673606274.586690
1673606274.753425,,,,-0.390444,-0.390471,335478.000000,1673606274.587697
1673606274.753711,,,,-0.412153,-0.411579,335479.000000,1673606274.588704
1673606274.753961,,,,-0.420206,-0.421195,335480.000000,1673606274.589711
1673606274.754171,,,,-0.422779,-0.424897,335481.000000,1673606274.590719
1673606274.754576,,,,-0.418355,-0.418839,335482.000000,1673606274.591726
1673606274.754833,,,,-0.423885,-0.422974,335483.000000,1673606274.592733
1673606274.754961,,,,-0.429798,-0.429537,335484.000000,1673606274.593740
1673606274.755770,,,,-0.433164,-0.435379,335485.000000,1673606274.594747
1673606274.755788,,,,-0.420182,-0.419921,335486.000000,1673606274.595754
1673606274.755798,,,,-0.399459,-0.399246,335487.000000,1673606274.596761
1673606274.755824,,,,-0.408450,-0.409559,335488.000000,1673606274.597768
1673606274.755831,,,,-0.375419,-0.378066,335489.000000,1673606274.598775
1673606274.773937,,,,-0.349768,-0.352800,335490.000000,1673606274.599782
1673606274.774490,,,,-0.384145,-0.387682,335491.000000,1673606274.600789
1673606274.775230,,,,-0.361644,-0.364724,335492.000000,1673606274.601796
1673606274.775262,,,,-0.336064,-0.336332,335493.000000,1673606274.602803
1673606274.776809,,,,-0.334959,-0.334336,335494.000000,1673606274.603811
1673606274.776836,,,,-0.355633,-0.353401,335495.000000,1673606274.604818
1673606274.777250,,,,-0.387968,-0.385495,335496.000000,1673606274.605825
1673606274.777320,,,,-0.379650,-0.379653,335497.000000,1673606274.606832
1673606274.777374,,,,-0.360201,-0.360781,335498.000000,1673606274.607839
1673606274.777414,,,,-0.366235,-0.369989,335499.000000,1673606274.608846
1673606274.780899,41.313820,871386.000000,1673606274.720034,,,,
1673606274.781135,41.404266,871387.000000,1673606274.721034,,,,
1673606274.782486,41.458542,871388.000000,1673606274.722034,,,,
1673606274.782496,41.458542,871389.000000,1673606274.723034,,,,
1673606274.782510,41.585175,871390.000000,1673606274.724034,,,,
1673606274.782550,41.621349,871391.000000,1673606274.725034,,,,
1673606274.782562,41.693714,871392.000000,1673606274.726034,,,,
1673606274.782568,41.693714,871393.000000,1673606274.727034,,,,
1673606274.782576,44.624317,871437.000000,1673606274.771034,,,,
1673606274.782680,44.750938,871438.000000,1673606274.772034,,,,
1673606274.782691,44.805214,871439.000000,1673606274.773034,,,,
1673606274.782694,44.877571,871440.000000,1673606274.774034,,,,
1673606274.782704,44.913757,871441.000000,1673606274.775034,,,,
1673606274.782711,45.022293,871442.000000,1673606274.776034,,,,
1673606274.782778,45.076569,871443.000000,1673606274.777034,,,,
1673606274.782784,45.167011,871444.000000,1673606274.778034,,,,
1673606274.782788,45.203197,871445.000000,1673606274.779034,,,,
1673606274.782796,45.329830,871446.000000,1673606274.780034,,,,
1673606274.782833,,,,-0.363663,-0.368041,335500.000000,1673606274.609853
1673606274.782967,,,,-0.350849,-0.350804,335501.000000,1673606274.610860
1673606274.784408,,,,-0.338036,-0.337366,335502.000000,1673606274.611867
1673606274.784421,,,,-0.365851,-0.368378,335519.000000,1673606274.628988
1673606274.784499,,,,-0.336305,-0.338423,335520.000000,1673606274.629995
1673606274.784505,,,,-0.313611,-0.314888,335521.000000,1673606274.631002
1673606274.784514,,,,-0.360946,-0.364147,335522.000000,1673606274.632009
1673606274.784527,,,,-0.387343,-0.390159,335523.000000,1673606274.633016
1673606274.784557,,,,-0.391935,-0.392106,335524.000000,1673606274.634023
1673606274.784564,,,,-0.392247,-0.392082,335525.000000,1673606274.635030
1673606274.784725,,,,-0.393954,-0.393116,335526.000000,1673606274.636037
1673606274.784753,,,,-0.400132,-0.399919,335527.000000,1673606274.637044
1673606274.784758,,,,-0.418860,-0.416531,335528.000000,1673606274.638051
1673606274.802345,,,,-0.409725,-0.406819,335529.000000,1673606274.639058
1673606274.802763,,,,-0.394074,-0.393043,335530.000000,1673606274.640065
1673606274.802779,,,,-0.401359,-0.400400,335531.000000,1673606274.641073
1673606274.803358,,,,-0.429270,-0.429585,335532.000000,1673606274.642080
1673606274.803377,,,,-0.475235,-0.475286,335533.000000,1673606274.643087
1673606274.803385,,,,-0.550001,-0.551182,335534.000000,1673606274.644094
1673606274.803593,,,,-0.511801,-0.511924,335535.000000,1673606274.645101
1673606274.814143,,,,-0.463335,-0.463266,335536.000000,1673606274.646108
1673606274.814350,,,,-0.473697,-0.475406,335537.000000,1673606274.647115
1673606274.814777,,,,-0.476077,-0.478243,335538.000000,1673606274.648122
1673606274.814807,,,,-0.457806,-0.459564,335539.000000,1673606274.649129
1673606274.815449,,,,-0.353902,-0.353761,335540.000000,1673606274.650136
1673606274.815558,,,,-0.282214,-0.280678,335541.000000,1673606274.651143
1673606274.815797,,,,-0.306278,-0.304262,335542.000000,1673606274.652150
1673606274.815839,,,,-0.327338,-0.326163,335543.000000,1673606274.653157
1673606274.816370,,,,-0.351426,-0.352054,335544.000000,1673606274.654165
1673606274.817475,,,,-0.392704,-0.394077,335545.000000,1673606274.655172
1673606274.818540,,,,-0.405662,-0.406386,335546.000000,1673606274.656179
1673606274.818915,,,,-0.333180,-0.335442,335547.000000,1673606274.657186
1673606274.818926,,,,-0.230719,-0.230073,335548.000000,1673606274.658193
1673606274.819147,,,,-0.182542,-0.183073,335549.000000,1673606274.659200
1673606274.819164,,,,-0.246369,-0.247069,335550.000000,1673606274.660207
1673606274.819302,,,,-0.336473,-0.336164,335552.000000,1673606274.662221
1673606274.819420,,,,-0.355730,-0.356646,335553.000000,1673606274.663228
1673606274.819441,,,,-0.350224,-0.349458,335554.000000,1673606274.664235
1673606274.819450,,,,-0.354143,-0.352848,335555.000000,1673606274.665242
1673606274.819461,,,,-0.348421,-0.348328,335556.000000,1673606274.666250
1673606274.819488,,,,-0.353229,-0.355973,335557.000000,1673606274.667257
1673606274.819496,,,,-0.379866,-0.379821,335558.000000,1673606274.668264
1673606274.819519,,,,-0.437347,-0.437158,335559.000000,1673606274.669271
1673606274.819737,,,,-0.500069,-0.498966,335560.000000,1673606274.670278
1673606274.819961,,,,-0.475091,-0.475406,335561.000000,1673606274.671285
1673606274.819980,,,,-0.463792,-0.465069,335562.000000,1673606274.672292
1673606274.820225,,,,-0.522234,-0.523127,335563.000000,1673606274.673299
1673606274.820554,,,,-0.560603,-0.560510,335564.000000,1673606274.674306
1673606274.820874,,,,-0.548992,-0.549692,335565.000000,1673606274.675313
1673606274.821118,,,,-0.535769,-0.538777,335566.000000,1673606274.676320
1673606274.821315,,,,-0.539904,-0.542696,335567.000000,1673606274.677327
1673606274.821331,,,,-0.498795,-0.500336,335568.000000,1673606274.678334
1673606274.821443,,,,-0.385323,-0.388836,335569.000000,1673606274.679342
1673606274.821670,,,,-0.315870,-0.317220,335570.000000,1673606274.680349
1673606274.821875,,,,-0.338396,-0.339457,335571.000000,1673606274.681356
1673606274.822153,,,,-0.345969,-0.346717,335572.000000,1673606274.682363
1673606274.822307,,,,-0.344719,-0.345660,335573.000000,1673606274.697469
1673606274.822314,,,,-0.379217,-0.378283,335574.000000,1673606274.698476
1673606274.842622,,,,-0.401503,-0.401241,335575.000000,1673606274.699483
1673606274.842752,,,,-0.376597,-0.378739,335576.000000,1673606274.700490
1673606274.843057,,,,-0.376981,-0.377802,335577.000000,1673606274.701497
1673606274.843221,,,,-0.397776,-0.396073,335578.000000,1673606274.702504
1673606274.843539,,,,-0.407513,-0.406362,335579.000000,1673606274.703511
1673606274.843823,,,,-0.409580,-0.408670,335580.000000,1673606274.704519
1673606274.843835,,,,-0.412489,-0.411242,335581.000000,1673606274.705526
1673606274.844112,,,,-0.415807,-0.415473,335582.000000,1673606274.706533
1673606274.844431,,,,-0.402993,-0.403814,335583.000000,1673606274.707540
1673606274.846900,46.415230,871462.000000,1673606274.800009,,,,
1673606274.847008,,,,-0.392271,-0.392995,335584.000000,1673606274.708547
1673606274.847049,46.523773,871463.000000,1673606274.801010,,,,
1673606274.847140,46.578041,871464.000000,1673606274.802010,,,,
1673606274.847154,46.578041,871465.000000,1673606274.803010,,,,
1673606274.847245,46.686584,871466.000000,1673606274.804010,,,,
1673606274.847253,46.758949,871467.000000,1673606274.805010,,,,
1673606274.847261,46.795128,871468.000000,1673606274.806010,,,,
1673606274.847488,,,,-0.402609,-0.401337,335585.000000,1673606274.709554
1673606274.847500,46.849392,871469.000000,1673606274.807009,,,,
1673606274.847668,,,,-0.433236,-0.430427,335586.000000,1673606274.710561
1673606274.847683,,,,-0.484611,-0.484806,335587.000000,1673606274.711568
1673606274.847918,,,,-0.496150,-0.495697,335588.000000,1673606274.712575
1673606274.848720,46.939846,871470.000000,1673606274.808010,,,,
1673606274.848736,47.030300,871471.000000,1673606274.809010,,,,
1673606274.848761,48.730770,871498.000000,1673606274.836010,,,,
1673606274.848768,48.785038,871499.000000,1673606274.837010,,,,
1673606274.848773,48.911671,871500.000000,1673606274.838010,,,,
1673606274.848834,48.984035,871501.000000,1673606274.839010,,,,
1673606274.848858,49.038300,871502.000000,1673606274.840009,,,,
1673606274.848871,49.128754,871503.000000,1673606274.841010,,,,
1673606274.848882,49.183022,871504.000000,1673606274.842010,,,,
1673606274.848894,49.255386,871505.000000,1673606274.843009,,,,
1673606274.848901,49.291565,871506.000000,1673606274.844010,,,,
1673606274.848920,49.345833,871507.000000,1673606274.845010,,,,
1673606274.864779,,,,-0.477230,-0.478123,335589.000000,1673606274.713582
1673606274.865399,,,,-0.456508,-0.454179,335590.000000,1673606274.714589
1673606274.865565,,,,-0.383977,-0.380711,335591.000000,1673606274.715596
1673606274.866250,,,,-0.436554,-0.433263,335592.000000,1673606274.716604
1673606274.866442,,,,-0.470379,-0.471752,335593.000000,1673606274.717611
1673606274.867111,,,,-0.471148,-0.471512,335594.000000,1673606274.718618
1673606274.867235,,,,-0.508603,-0.508775,335595.000000,1673606274.719625
1673606274.867492,,,,-0.523941,-0.525218,335596.000000,1673606274.720632
1673606274.868040,,,,-0.495020,-0.495288,335597.000000,1673606274.721639
1673606274.868341,,,,-0.370130,-0.371575,335598.000000,1673606274.722646
1673606274.868844,,,,-0.298850,-0.300439,335599.000000,1673606274.723653
1673606274.868863,,,,-0.317000,-0.316955,335600.000000,1673606274.724660
1673606274.868890,,,,-0.340247,-0.341597,335601.000000,1673606274.725667
1673606274.868903,,,,-0.380684,-0.383620,335602.000000,1673606274.726674
1673606274.868933,,,,-0.396430,-0.396962,335603.000000,1673606274.727681
1673606274.869326,,,,-0.400301,-0.400616,335604.000000,1673606274.728688
1673606274.869818,,,,-0.391718,-0.391192,335605.000000,1673606274.729696
1673606274.869948,,,,-0.375491,-0.378138,335606.000000,1673606274.730703
1673606274.869960,,,,-0.379626,-0.379653,335607.000000,1673606274.731710
1673606274.869967,,,,-0.404195,-0.405208,335608.000000,1673606274.732717
1673606274.869993,,,,-0.450233,-0.448289,335609.000000,1673606274.733724
1673606274.870117,,,,-0.509252,-0.507236,335610.000000,1673606274.734731
1673606274.870183,,,,-0.435929,-0.435788,335611.000000,1673606274.735738
1673606274.870272,,,,-0.347051,-0.349554,335612.000000,1673606274.736745
1673606274.870283,,,,-0.471292,-0.476007,335613.000000,1673606274.737752
1673606274.870383,,,,-0.569498,-0.569862,335614.000000,1673606274.738759
1673606274.870535,,,,-0.581759,-0.580343,335615.000000,1673606274.739766
1673606274.870627,,,,-0.561541,-0.558779,335616.000000,1673606274.740773
1673606274.870745,,,,-0.559425,-0.561015,335617.000000,1673606274.741781
1673606274.871185,,,,-0.570340,-0.572963,335618.000000,1673606274.742788
1673606274.871294,,,,-0.546563,-0.548225,335619.000000,1673606274.743795
1673606274.871306,,,,-0.487472,-0.488220,335620.000000,1673606274.744802
1673606274.871413,,,,-0.425255,-0.424128,335621.000000,1673606274.745809
1673606274.871418,,,,-0.422707,-0.421724,335622.000000,1673606274.746816
1673606274.871429,,,,-0.408547,-0.409271,335623.000000,1673606274.747823
1673606274.871435,,,,-0.373471,-0.374821,335624.000000,1673606274.748830
1673606274.879992,,,,-0.317794,-0.319503,335625.000000,1673606274.749837
1673606274.880617,,,,-0.272285,-0.272817,335626.000000,1673606274.750844
1673606274.880817,,,,-0.310269,-0.311835,335627.000000,1673606274.751851
1673606274.880827,,,,-0.333107,-0.331163,335628.000000,1673606274.752858
1673606274.881022,,,,-0.346282,-0.344241,335629.000000,1673606274.753865
1673606274.881135,,,,-0.326328,-0.324408,335630.000000,1673606274.754873
1673606274.881347,,,,-0.348181,-0.345684,335631.000000,1673606274.755880
1673606274.881358,,,,-0.394146,-0.394125,335632.000000,1673606274.756887
1673606274.881362,,,,-0.380780,-0.380206,335633.000000,1673606274.757894
1673606274.881383,,,,-0.283536,-0.283996,335634.000000,1673606274.758901
1673606274.881927,,,,-0.288512,-0.291592,335635.000000,1673606274.759908
1673606274.882012,,,,-0.367942,-0.367993,335636.000000,1673606274.760915
1673606274.882025,,,,-0.419677,-0.418046,335637.000000,1673606274.761922
1673606274.882035,,,,-0.437299,-0.436148,335638.000000,1673606274.762929
1673606274.901728,49.382019,871508.000000,1673606274.840673,,,,
1673606274.902109,49.436287,871509.000000,1673606274.841673,,,,
1673606274.904358,51.842270,871559.000000,1673606274.891673,,,,
1673606274.904386,51.842270,871560.000000,1673606274.892673,,,,
1673606274.904398,51.968903,871561.000000,1673606274.893673,,,,
1673606274.904405,51.932724,871562.000000,1673606274.894673,,,,
1673606274.904483,52.005081,871563.000000,1673606274.895673,,,,
1673606274.904497,52.023170,871564.000000,1673606274.896673,,,,
1673606274.904505,52.041267,871565.000000,1673606274.897673,,,,
1673606274.904526,52.005081,871566.000000,1673606274.898673,,,,
1673606274.904540,52.059357,871567.000000,1673606274.899673,,,,
1673606274.904553,52.113621,871568.000000,1673606274.900673,,,,
1673606274.929154,,,,-0.424461,-0.425426,335639.000000,1673606274.763936
1673606274.929251,,,,-0.397248,-0.393476,335640.000000,1673606274.764943
1673606274.929381,,,,-0.320967,-0.318710,335641.000000,1673606274.765950
1673606274.929559,,,,-0.295532,-0.293804,335642.000000,1673606274.766958
1673606274.939345,,,,-0.294234,-0.295150,335643.000000,1673606274.767965
1673606274.939359,,,,-0.271011,-0.272360,335644.000000,1673606274.768972
1673606274.939365,,,,-0.287863,-0.289140,335645.000000,1673606274.769979
1673606274.967399,52.095531,871569.000000,1673606274.906623,,,,
1673606274.967960,52.131710,871570.000000,1673606274.907623,,,,
1673606274.968000,52.059357,871571.000000,1673606274.908623,,,,
1673606274.970355,52.149799,871572.000000,1673606274.909623,,,,
1673606274.970387,52.185986,871573.000000,1673606274.910623,,,,
1673606274.970405,52.185986,871574.000000,1673606274.911623,,,,
1673606274.970417,51.227207,871620.000000,1673606274.957623,,,,
1673606274.970428,51.209122,871621.000000,1673606274.958623,,,,
1673606274.970436,51.191021,871622.000000,1673606274.959623,,,,
1673606274.970446,51.209122,871623.000000,1673606274.960623,,,,
1673606274.970568,51.154846,871624.000000,1673606274.961623,,,,
1673606274.970582,51.136757,871625.000000,1673606274.962623,,,,
1673606274.970591,51.118668,871626.000000,1673606274.963623,,,,
1673606274.970617,51.118668,871627.000000,1673606274.964623,,,,
1673606274.970659,50.992035,871628.000000,1673606274.965623,,,,
1673606274.970693,50.992035,871629.000000,1673606274.966623,,,,
1673606274.982480,,,,-0.315918,-0.316787,335646.000000,1673606274.770986
1673606274.982491,,,,-0.341449,-0.338784,335647.000000,1673606274.771993
1673606274.982524,,,,-0.355225,-0.355564,335648.000000,1673606274.773000
1673606274.982640,,,,-0.384867,-0.384725,335649.000000,1673606274.774007
1673606274.982848,,,,-0.448454,-0.446053,335650.000000,1673606274.775014
1673606274.983009,,,,-0.509012,-0.506082,335651.000000,1673606274.776021
1673606274.983264,,,,-0.553271,-0.554860,335652.000000,1673606274.777028
1673606274.983279,,,,-0.588466,-0.587724,335653.000000,1673606274.778035
1673606274.985275,,,,-0.608901,-0.609841,335654.000000,1673606274.779042
1673606274.985420,,,,-0.599140,-0.599071,335655.000000,1673606274.780050
1673606274.985425,,,,-0.545674,-0.545340,335656.000000,1673606274.781057
1673606274.985507,,,,-0.487039,-0.486970,335657.000000,1673606274.782064
1673606274.985534,,,,-0.494924,-0.495937,335658.000000,1673606274.783071
1673606274.985666,,,,-0.513532,-0.516804,335659.000000,1673606274.784078
1673606274.985675,,,,-0.483697,-0.485311,335660.000000,1673606274.785085
1673606274.986011,,,,-0.448358,-0.448553,335661.000000,1673606274.786092
1673606274.986114,,,,-0.418596,-0.419272,335662.000000,1673606274.787099
1673606274.986147,,,,-0.389218,-0.388860,335663.000000,1673606274.788106
1673606274.986197,,,,-0.341954,-0.343183,335664.000000,1673606274.789113
1673606274.986201,,,,-0.320895,-0.320922,335665.000000,1673606274.790120
1673606274.986214,,,,-0.365250,-0.364027,335666.000000,1673606274.791127
1673606274.991387,,,,-0.418860,-0.416050,335667.000000,1673606274.792135
1673606274.991548,,,,-0.418091,-0.417084,335668.000000,1673606274.793142
1673606274.991753,,,,-0.427803,-0.425811,335669.000000,1673606274.794149
1673606274.991760,,,,-0.432876,-0.430378,335670.000000,1673606274.795156
1673606275.031636,,,,-0.411696,-0.412252,335671.000000,1673606274.796163
1673606275.031744,,,,-0.429823,-0.430619,335672.000000,1673606274.797170
1673606275.031940,,,,-0.459561,-0.459179,335673.000000,1673606274.798177
1673606275.032226,,,,-0.343204,-0.340659,335674.000000,1673606274.799184
1673606275.032299,,,,-0.290556,-0.287049,335675.000000,1673606274.800191
1673606275.032563,,,,-0.362341,-0.361815,335676.000000,1673606274.801198
1673606275.032637,,,,-0.425856,-0.425450,335677.000000,1673606274.802205
1673606275.032743,,,,-0.418163,-0.417108,335678.000000,1673606274.803212
1673606275.032931,,,,-0.399507,-0.398429,335679.000000,1673606274.804219
1673606275.033250,,,,-0.383424,-0.382057,335680.000000,1673606274.805227
1673606275.033263,,,,-0.360754,-0.359627,335681.000000,1673606274.806234
1673606275.033270,,,,-0.340392,-0.340731,335682.000000,1673606274.807241
1673606275.033284,,,,-0.324020,-0.324047,335683.000000,1673606274.808248
1673606275.033414,,,,-0.329814,-0.330322,335684.000000,1673606274.809255
1673606275.033556,,,,-0.346498,-0.346188,335685.000000,1673606274.810262
1673606275.033807,,,,-0.363158,-0.364796,335686.000000,1673606274.811269
1673606275.033963,,,,-0.389843,-0.388019,335687.000000,1673606274.812276
1673606275.033975,,,,-0.407465,-0.405809,335688.000000,1673606274.813283
1673606275.034155,,,,-0.416648,-0.416146,335689.000000,1673606274.814290
1673606275.034326,,,,-0.433909,-0.436316,335690.000000,1673606274.815297
1673606275.034572,,,,-0.447829,-0.450308,335691.000000,1673606274.816304
1673606275.034608,50.196068,871653.000000,1673606274.996211,,,,
1673606275.034767,,,,-0.451363,-0.451198,335692.000000,1673606274.817312
1673606275.034897,,,,-0.442324,-0.443961,335693.000000,1673606274.818319
1673606275.035069,50.214157,871654.000000,1673606274.997211,,,,
1673606275.035076,,,,-0.464417,-0.465189,335694.000000,1673606274.819326
1673606275.035176,,,,-0.498554,-0.498798,335695.000000,1673606274.820333
1673606275.035455,,,,-0.527716,-0.527622,335696.000000,1673606274.821340
1673606275.035468,50.214157,871655.000000,1673606274.998211,,,,
1673606275.035483,50.196068,871656.000000,1673606274.999211,,,,
1673606275.035490,50.196068,871657.000000,1673606275.000211,,,,
1673606275.035493,50.141800,871658.000000,1673606275.001211,,,,
1673606275.035543,50.123711,871659.000000,1673606275.002211,,,,
1673606275.035553,50.141800,871660.000000,1673606275.003211,,,,
1673606275.035561,50.141800,871661.000000,1673606275.004211,,,,
1673606275.035568,50.087532,871662.000000,1673606275.005211,,,,
1673606275.035573,49.960899,871681.000000,1673606275.024211,,,,
1673606275.035576,49.978989,871682.000000,1673606275.025211,,,,
1673606275.035609,49.978989,871683.000000,1673606275.026211,,,,
1673606275.035625,49.942810,871684.000000,1673606275.027211,,,,
1673606275.035675,,,,-0.484707,-0.483364,335697.000000,1673606274.822347
1673606275.035712,49.942810,871685.000000,1673606275.028211,,,,
1673606275.035723,49.942810,871686.000000,1673606275.029211,,,,
1673606275.035730,49.960899,871687.000000,1673606275.030211,,,,
1673606275.035738,50.015167,871688.000000,1673606275.031211,,,,
1673606275.035743,49.906624,871689.000000,1673606275.032211,,,,
1673606275.035750,49.924713,871690.000000,1673606275.033211,,,,
1673606275.035808,,,,-0.445665,-0.443817,335698.000000,1673606274.823354
1673606275.036031,,,,-0.440424,-0.440596,335699.000000,1673606274.824361
1673606275.042022,,,,-0.474009,-0.474805,335700.000000,1673606274.825368
1673606275.042706,,,,-0.463600,-0.465189,335701.000000,1673606274.826375
1673606275.042722,,,,-0.383641,-0.384173,335702.000000,1673606274.827382
1673606275.042729,,,,-0.278800,-0.277312,335703.000000,1673606274.828389
1673606275.042735,,,,-0.273655,-0.271495,335704.000000,1673606274.829396
1673606275.042765,,,,-0.280194,-0.280798,335705.000000,1673606274.830404
1673606275.042799,,,,-0.302864,-0.303637,335706.000000,1673606274.831411
1673606275.044823,,,,-0.322722,-0.323903,335707.000000,1673606274.832418
1673606275.045495,,,,-0.354263,-0.352030,335708.000000,1673606274.833425
1673606275.045551,,,,-0.378256,-0.377730,335709.000000,1673606274.834432
1673606275.045565,,,,-0.374169,-0.375350,335710.000000,1673606274.835439
1673606275.045643,,,,-0.358134,-0.359651,335711.000000,1673606274.836446
1673606275.045662,,,,-0.345849,-0.344866,335712.000000,1673606274.837453
1673606275.045669,,,,-0.364889,-0.365445,335713.000000,1673606274.838460
1673606275.045775,,,,-0.391093,-0.391529,335714.000000,1673606274.839467
1673606275.045901,,,,-0.405469,-0.406554,335715.000000,1673606274.840474
1673606275.045916,,,,-0.463624,-0.465237,335716.000000,1673606274.841481
1673606275.053002,,,,-0.521802,-0.522935,335717.000000,1673606274.842489
1673606275.053265,,,,-0.555675,-0.555437,335718.000000,1673606274.843496
1673606275.053275,,,,-0.520047,-0.520627,335719.000000,1673606274.844503
1673606275.053494,,,,-0.454224,-0.453578,335720.000000,1673606274.845510
1673606275.053505,,,,-0.442396,-0.443553,335721.000000,1673606274.846517
1673606275.053537,,,,-0.467422,-0.467930,335722.000000,1673606274.847524
1673606275.053757,,,,-0.452060,-0.454058,335723.000000,1673606274.848531
1673606275.054181,,,,-0.434438,-0.434537,335724.000000,1673606274.849538
1673606275.054196,,,,-0.447709,-0.448217,335725.000000,1673606274.850545
1673606275.054202,,,,-0.446699,-0.444058,335726.000000,1673606274.851552
1673606275.054286,,,,-0.417466,-0.416291,335727.000000,1673606274.852559
1673606275.054457,,,,-0.334646,-0.335827,335728.000000,1673606274.853566
1673606275.054732,,,,-0.308851,-0.310897,335729.000000,1673606274.854573
1673606275.054874,,,,-0.362557,-0.362392,335730.000000,1673606274.855581
1673606275.055164,,,,-0.410157,-0.411194,335731.000000,1673606274.856588
1673606275.056651,,,,-0.436001,-0.435908,335732.000000,1673606274.857595
1673606275.056868,,,,-0.451555,-0.453121,335733.000000,1673606274.858602
1673606275.057264,,,,-0.473312,-0.471993,335734.000000,1673606274.859609
1673606275.057272,,,,-0.468143,-0.467209,335735.000000,1673606274.860616
1673606275.074079,,,,-0.437371,-0.436653,335736.000000,1673606274.861623
1673606275.074334,,,,-0.421745,-0.420522,335737.000000,1673606274.862630
1673606275.074353,,,,-0.392439,-0.392803,335738.000000,1673606274.863637
1673606275.074993,,,,-0.343878,-0.344650,335739.000000,1673606274.864644
1673606275.075027,,,,-0.333588,-0.332533,335740.000000,1673606274.865651
1673606275.075781,,,,-0.409316,-0.410112,335741.000000,1673606274.866658
1673606275.089455,49.924713,871691.000000,1673606275.028960,,,,
1673606275.090287,49.888535,871692.000000,1673606275.029960,,,,
1673606275.090611,49.689548,871742.000000,1673606275.079960,,,,
1673606275.090619,49.635273,871743.000000,1673606275.080960,,,,
1673606275.090622,49.635273,871744.000000,1673606275.081960,,,,
1673606275.090625,49.653362,871745.000000,1673606275.082960,,,,
1673606275.090627,49.635273,871746.000000,1673606275.083960,,,,
1673606275.090676,49.599094,871747.000000,1673606275.084960,,,,
1673606275.090681,49.653362,871748.000000,1673606275.085960,,,,
1673606275.090700,49.635273,871749.000000,1673606275.086960,,,,
1673606275.090704,49.599094,871750.000000,1673606275.087960,,,,
1673606275.090731,49.599094,871751.000000,1673606275.088960,,,,
1673606275.105645,,,,-0.502521,-0.503870,335742.000000,1673606274.867666
1673606275.105795,,,,-0.524013,-0.521805,335743.000000,1673606274.868673
1673606275.106152,,,,-0.524470,-0.521324,335744.000000,1673606274.869680
1673606275.106422,,,,-0.501680,-0.500312,335745.000000,1673606274.870687
1673606275.106712,,,,-0.405421,-0.403982,335746.000000,1673606274.871694
1673606275.107093,,,,-0.405806,-0.405256,335747.000000,1673606274.872701
1673606275.107328,,,,-0.512883,-0.512044,335748.000000,1673606274.873708
1673606275.107720,,,,-0.520047,-0.517934,335749.000000,1673606274.874715
1673606275.108012,,,,-0.454993,-0.453457,335750.000000,1673606274.875722
1673606275.108372,,,,-0.402080,-0.403477,335751.000000,1673606274.876729
1673606275.108454,,,,-0.327674,-0.327629,335752.000000,1673606274.877736
1673606275.108702,,,,-0.249014,-0.251325,335753.000000,1673606274.878743
1673606275.109012,,,,-0.195379,-0.195046,335754.000000,1673606274.879750
1673606275.109365,,,,-0.202736,-0.204061,335755.000000,1673606274.880758
1673606275.109559,,,,-0.276228,-0.279596,335756.000000,1673606274.881765
1673606275.109874,,,,-0.335848,-0.335827,335757.000000,1673606274.882772
1673606275.110293,,,,-0.353109,-0.350131,335758.000000,1673606274.883779
1673606275.110450,,,,-0.361595,-0.360300,335759.000000,1673606274.884786
1673606275.110461,,,,-0.371885,-0.371191,335760.000000,1673606274.885793
1673606275.143412,49.526737,871752.000000,1673606275.082883,,,,
1673606275.143534,49.599094,871753.000000,1673606275.083883,,,,
1673606275.144482,49.164932,871803.000000,1673606275.133883,,,,
1673606275.144493,49.183022,871804.000000,1673606275.134883,,,,
1673606275.144497,49.201111,871805.000000,1673606275.135883,,,,
1673606275.144500,49.201111,871806.000000,1673606275.136883,,,,
1673606275.144503,49.183022,871807.000000,1673606275.137883,,,,
1673606275.144540,49.201111,871808.000000,1673606275.138883,,,,
1673606275.144558,49.146843,871809.000000,1673606275.139883,,,,
1673606275.144573,49.201111,871810.000000,1673606275.140883,,,,
1673606275.144583,49.237297,871811.000000,1673606275.141883,,,,
1673606275.144585,49.237297,871812.000000,1673606275.142883,,,,
1673606275.163557,,,,-0.376861,-0.377970,335761.000000,1673606274.886800
1673606275.164083,,,,-0.384266,-0.384629,335762.000000,1673606274.887807
1673606275.164616,,,,-0.394219,-0.394005,335763.000000,1673606274.888814
1673606275.165402,,,,-0.394988,-0.393092,335764.000000,1673606274.889821
1673606275.165987,,,,-0.388882,-0.386985,335765.000000,1673606274.890828
1673606275.166000,,,,-0.400205,-0.399895,335766.000000,1673606274.891835
1673606275.166604,,,,-0.404676,-0.406939,335767.000000,1673606274.892843
1673606275.166629,,,,-0.405181,-0.405665,335768.000000,1673606274.893850
1673606275.166810,,,,-0.413523,-0.413117,335769.000000,1673606274.894857
1673606275.167126,,,,-0.423716,-0.423118,335770.000000,1673606274.895864
1673606275.167284,,,,-0.416216,-0.413839,335771.000000,1673606274.896871
1673606275.167539,,,,-0.392055,-0.392827,335772.000000,1673606274.897878
1673606275.167696,,,,-0.403378,-0.405689,335773.000000,1673606274.898885
1673606275.168143,,,,-0.410975,-0.409656,335774.000000,1673606274.899892
1673606275.168406,,,,-0.399099,-0.398741,335775.000000,1673606274.900899
1673606275.168427,,,,-0.409677,-0.408405,335776.000000,1673606274.901906
1673606275.168675,,,,-0.390035,-0.387658,335777.000000,1673606274.902913
1673606275.168951,,,,-0.359624,-0.359747,335778.000000,1673606274.903920
1673606275.169281,,,,-0.368255,-0.367080,335779.000000,1673606274.904927
1673606275.169641,,,,-0.376308,-0.375374,335780.000000,1673606274.905935
1673606275.171776,,,,-0.393401,-0.389870,335781.000000,1673606274.906942
1673606275.172007,,,,-0.411840,-0.408982,335782.000000,1673606274.907949
1673606275.172228,,,,-0.428236,-0.427349,335783.000000,1673606274.908956
1673606275.172384,,,,-0.440376,-0.441317,335784.000000,1673606274.909963
1673606275.172581,,,,-0.449151,-0.449899,335785.000000,1673606274.910970
1673606275.172737,,,,-0.478384,-0.478628,335786.000000,1673606274.911977
1673606275.173052,,,,-0.490140,-0.492331,335787.000000,1673606274.912984
1673606275.173067,,,,-0.481630,-0.483676,335788.000000,1673606274.913991
1673606275.177382,,,,-0.474538,-0.474156,335789.000000,1673606274.914998
1673606275.177505,,,,-0.438814,-0.437903,335790.000000,1673606274.916005
1673606275.177516,,,,-0.409076,-0.409247,335791.000000,1673606274.917012
1673606275.177620,,,,-0.397392,-0.399583,335792.000000,1673606274.918020
1673606275.177627,,,,-0.408667,-0.407396,335793.000000,1673606274.919027
1673606275.177653,,,,-0.448334,-0.444947,335794.000000,1673606274.920034
1673606275.177936,,,,-0.476605,-0.476536,335795.000000,1673606274.921041
1673606275.178252,,,,-0.490837,-0.490576,335796.000000,1673606274.922048
1673606275.178509,,,,-0.499925,-0.499543,335797.000000,1673606274.923055
1673606275.178543,,,,-0.488506,-0.489879,335798.000000,1673606274.924062
1673606275.187090,,,,-0.415038,-0.415666,335799.000000,1673606274.925069
1673606275.187274,,,,-0.334790,-0.333687,335800.000000,1673606274.926076
1673606275.187618,,,,-0.324140,-0.322268,335801.000000,1673606274.927083
1673606275.187958,,,,-0.329790,-0.329937,335802.000000,1673606274.928090
1673606275.188208,,,,-0.339166,-0.338544,335803.000000,1673606274.929097
1673606275.188713,,,,-0.350369,-0.350059,335804.000000,1673606274.930104
1673606275.189116,,,,-0.367389,-0.368522,335805.000000,1673606274.931112
1673606275.189425,,,,-0.380227,-0.378259,335806.000000,1673606274.932119
1673606275.207621,49.183022,871813.000000,1673606275.146903,,,,
1673606275.208776,49.201111,871814.000000,1673606275.147903,,,,
1673606275.208786,49.237297,871815.000000,1673606275.148903,,,,
1673606275.208791,49.183022,871816.000000,1673606275.149903,,,,
1673606275.208824,49.110664,871817.000000,1673606275.150903,,,,
1673606275.208830,49.164932,871864.000000,1673606275.197903,,,,
1673606275.208837,49.183022,871865.000000,1673606275.198903,,,,
1673606275.208874,49.146843,871866.000000,1673606275.199903,,,,
1673606275.208889,49.164932,871867.000000,1673606275.200903,,,,
1673606275.208898,49.255386,871868.000000,1673606275.201903,,,,
1673606275.208925,49.183022,871869.000000,1673606275.202903,,,,
1673606275.208930,49.201111,871870.000000,1673606275.203903,,,,
1673606275.208935,49.237297,871871.000000,1673606275.204903,,,,
1673606275.208968,49.237297,871872.000000,1673606275.205903,,,,
1673606275.208972,49.255386,871873.000000,1673606275.206903,,,,
1673606275.239835,,,,-0.380035,-0.377802,335807.000000,1673606274.933126
1673606275.239848,,,,-0.346762,-0.346910,335808.000000,1673606274.934133
1673606275.239872,,,,-0.362749,-0.358329,335809.000000,1673606274.935140
1673606275.240049,,,,-0.396695,-0.392875,335810.000000,1673606274.936147
1673606275.240093,,,,-0.413403,-0.415858,335811.000000,1673606274.937154
1673606275.240239,,,,-0.418163,-0.420378,335812.000000,1673606274.938161
1673606275.240342,,,,-0.416095,-0.417084,335813.000000,1673606274.939168
1673606275.240473,,,,-0.412850,-0.415137,335814.000000,1673606274.940175
1673606275.240479,,,,-0.401214,-0.402972,335815.000000,1673606274.941182
1673606275.240647,,,,-0.377222,-0.377778,335816.000000,1673606274.942189
1673606275.241358,,,,-0.529038,-0.528344,335825.000000,1673606274.951253
1673606275.241362,,,,-0.507401,-0.507837,335826.000000,1673606274.952260
1673606275.241365,,,,-0.499997,-0.499110,335827.000000,1673606274.953267
1673606275.241395,,,,-0.481966,-0.480479,335828.000000,1673606274.954274
1673606275.241737,,,,-0.349527,-0.350588,335829.000000,1673606274.955281
1673606275.241745,,,,-0.283031,-0.282577,335830.000000,1673606274.956289
1673606275.241750,,,,-0.319284,-0.317917,335831.000000,1673606274.957296
1673606275.241773,,,,-0.318250,-0.319552,335832.000000,1673606274.958303
1673606275.241791,,,,-0.321328,-0.322076,335833.000000,1673606274.959310
1673606275.241802,,,,-0.320703,-0.318037,335834.000000,1673606274.960317
1673606275.241825,,,,-0.326905,-0.323759,335835.000000,1673606274.961324
1673606275.241867,,,,-0.334574,-0.333663,335836.000000,1673606274.962331
1673606275.241889,,,,-0.338709,-0.341140,335837.000000,1673606274.963338
1673606275.241899,,,,-0.341642,-0.341597,335838.000000,1673606274.964345
1673606275.241904,,,,-0.356234,-0.355853,335839.000000,1673606274.965352
1673606275.241908,,,,-0.374649,-0.373715,335840.000000,1673606274.966359
1673606275.241911,,,,-0.390564,-0.392875,335841.000000,1673606274.967366
1673606275.241925,,,,-0.388689,-0.387442,335842.000000,1673606274.968374
1673606275.261235,,,,-0.381020,-0.378331,335843.000000,1673606274.969381
1673606275.262175,,,,-0.379674,-0.379653,335844.000000,1673606274.970388
1673606275.262837,,,,-0.411432,-0.411218,335845.000000,1673606274.971395
1673606275.262875,,,,-0.438597,-0.437567,335846.000000,1673606274.972402
1673606275.264334,,,,-0.437203,-0.439394,335847.000000,1673606274.973409
1673606275.264379,,,,-0.418163,-0.420161,335848.000000,1673606274.974416
1673606275.264399,,,,-0.438838,-0.436893,335849.000000,1673606274.975423
1673606275.264416,,,,-0.502906,-0.505361,335850.000000,1673606274.976430
1673606275.264554,,,,-0.570340,-0.570799,335851.000000,1673606274.977437
1673606275.274117,50.123711,871925.000000,1673606275.262471,,,,
1673606275.274140,50.141800,871926.000000,1673606275.263472,,,,
1673606275.274154,50.196068,871927.000000,1673606275.264472,,,,
1673606275.274161,50.250343,871928.000000,1673606275.265471,,,,
1673606275.274167,50.232254,871929.000000,1673606275.266471,,,,
1673606275.274212,50.232254,871930.000000,1673606275.267472,,,,
1673606275.274218,50.250343,871931.000000,1673606275.268471,,,,
1673606275.274236,50.250343,871932.000000,1673606275.269471,,,,
1673606275.274247,50.286522,871933.000000,1673606275.270472,,,,
1673606275.274269,50.286522,871934.000000,1673606275.271472,,,,
1673606275.275456,,,,-0.628758,-0.628016,335852.000000,1673606274.978444
1673606275.275735,,,,-0.654289,-0.656840,335853.000000,1673606274.979451
1673606275.275925,,,,-0.618637,-0.618736,335854.000000,1673606274.980458
1673606275.276108,,,,-0.513291,-0.513174,335855.000000,1673606274.981466
1673606275.276365,,,,-0.417562,-0.416627,335856.000000,1673606274.982473
1673606275.276594,,,,-0.394291,-0.394173,335857.000000,1673606274.983480
1673606275.276692,,,,-0.440953,-0.441605,335858.000000,1673606274.984487
1673606275.276906,,,,-0.430544,-0.431340,335859.000000,1673606274.985494
1673606275.277128,,,,-0.373087,-0.374604,335860.000000,1673606274.986501
1673606275.277280,,,,-0.298465,-0.298516,335861.000000,1673606274.987508
1673606275.277508,,,,-0.245672,-0.246132,335862.000000,1673606274.988515
1673606275.277708,,,,-0.238243,-0.239376,335863.000000,1673606274.989522
1673606275.277851,,,,-0.227690,-0.228197,335864.000000,1673606274.990529
1673606275.278061,,,,-0.215525,-0.216538,335865.000000,1673606274.991536
1673606275.278205,,,,-0.233580,-0.238751,335866.000000,1673606274.992543
1673606275.278368,,,,-0.289834,-0.293492,335867.000000,1673606274.993551
1673606275.278685,,,,-0.341185,-0.340539,335868.000000,1673606274.994558
1673606275.278771,,,,-0.362629,-0.361863,335869.000000,1673606274.995565
1673606275.278782,,,,-0.386501,-0.385182,335870.000000,1673606274.996572
1673606275.321512,,,,-0.411888,-0.411074,335871.000000,1673606274.997579
1673606275.321556,,,,-0.438549,-0.436917,335872.000000,1673606274.998586
1673606275.321866,,,,-0.445088,-0.443721,335873.000000,1673606274.999593
1673606275.322314,,,,-0.440929,-0.442303,335874.000000,1673606275.000600
1673606275.322607,,,,-0.460835,-0.462881,335875.000000,1673606275.001607
1673606275.322972,,,,-0.483361,-0.483869,335876.000000,1673606275.002614
1673606275.323399,,,,-0.510406,-0.510145,335877.000000,1673606275.003621
1673606275.323986,,,,-0.527067,-0.527214,335878.000000,1673606275.004628
1673606275.324130,,,,-0.529350,-0.525843,335879.000000,1673606275.005635
1673606275.324253,,,,-0.470307,-0.467329,335880.000000,1673606275.006643
1673606275.327661,50.937767,871986.000000,1673606275.316939,,,,
1673606275.327677,50.973946,871987.000000,1673606275.317939,,,,
1673606275.327688,50.955856,871988.000000,1673606275.318939,,,,
1673606275.327707,50.973946,871989.000000,1673606275.319939,,,,
1673606275.327718,50.992035,871990.000000,1673606275.320939,,,,
1673606275.327726,50.955856,871991.000000,1673606275.321939,,,,
1673606275.327759,50.992035,871992.000000,1673606275.322939,,,,
1673606275.327765,50.973946,871993.000000,1673606275.323939,,,,
1673606275.327780,51.028214,871994.000000,1673606275.324939,,,,
1673606275.327796,50.973946,871995.000000,1673606275.325939,,,,
1673606275.329467,,,,-0.333059,-0.331812,335881.000000,1673606275.007650
1673606275.329522,,,,-0.365490,-0.366743,335882.000000,1673606275.077138
1673606275.329737,,,,-0.375106,-0.375037,335883.000000,1673606275.078145
1673606275.329955,,,,-0.377631,-0.374436,335884.000000,1673606275.079152
1673606275.330074,,,,-0.377655,-0.376744,335885.000000,1673606275.080159
1673606275.330246,,,,-0.387078,-0.387466,335886.000000,1673606275.081167
1673606275.330485,,,,-0.404171,-0.407011,335887.000000,1673606275.082174
1673606275.330524,,,,-0.421913,-0.422565,335888.000000,1673606275.083181
1673606275.335022,,,,-0.425231,-0.424176,335889.000000,1673606275.084188
1673606275.335031,,,,-0.434270,-0.431580,335890.000000,1673606275.085195
1673606275.335169,,,,-0.444776,-0.445404,335891.000000,1673606275.086202
1673606275.335282,,,,-0.445713,-0.446245,335892.000000,1673606275.087209
1673606275.335586,,,,-0.462205,-0.462256,335893.000000,1673606275.088216
1673606275.336141,,,,-0.479514,-0.479926,335894.000000,1673606275.089223
1673606275.336156,,,,-0.509084,-0.508823,335895.000000,1673606275.090230
1673606275.336169,,,,-0.506320,-0.507861,335896.000000,1673606275.091237
1673606275.336181,,,,-0.512570,-0.514424,335897.000000,1673606275.092244
1673606275.336187,,,,-0.511007,-0.510818,335898.000000,1673606275.093251
1673606275.336478,,,,-0.501992,-0.499158,335899.000000,1673606275.094259
1673606275.343607,,,,-0.492015,-0.490119,335900.000000,1673606275.095266
1673606275.343990,,,,-0.437155,-0.436341,335901.000000,1673606275.096273
1673606275.344301,,,,-0.430111,-0.427926,335902.000000,1673606275.097280
1673606275.344982,,,,-0.441170,-0.438865,335903.000000,1673606275.098287
1673606275.345183,,,,-0.353350,-0.354482,335904.000000,1673606275.099294
1673606275.345330,,,,-0.255721,-0.259330,335905.000000,1673606275.100301
1673606275.345639,,,,-0.304187,-0.303156,335906.000000,1673606275.101308
1673606275.345928,,,,-0.348998,-0.346261,335907.000000,1673606275.102315
1673606275.346153,,,,-0.351547,-0.349843,335908.000000,1673606275.103322
1673606275.346360,,,,-0.394387,-0.395760,335909.000000,1673606275.104329
1673606275.346644,,,,-0.426601,-0.426989,335910.000000,1673606275.105336
1673606275.347293,,,,-0.414773,-0.413959,335911.000000,1673606275.106344
1673606275.348150,,,,-0.380660,-0.379605,335912.000000,1673606275.107351
1673606275.348172,,,,-0.340247,-0.341837,335913.000000,1673606275.108358
1673606275.348218,,,,-0.312625,-0.312051,335914.000000,1673606275.109365
1673606275.348376,,,,-0.291565,-0.291208,335915.000000,1673606275.110372
1673606275.348416,,,,-0.364504,-0.364075,335916.000000,1673606275.111379
1673606275.348441,,,,-0.411480,-0.413766,335917.000000,1673606275.112386
1673606275.348459,,,,-0.397488,-0.397323,335918.000000,1673606275.113393
1673606275.348480,,,,-0.374986,-0.377153,335919.000000,1673606275.114400
1673606275.348940,,,,-0.363158,-0.366551,335920.000000,1673606275.115407
1673606275.348953,,,,-0.368447,-0.369027,335921.000000,1673606275.116414
1673606275.348961,,,,-0.368014,-0.367152,335922.000000,1673606275.117421
1673606275.349378,,,,-0.363110,-0.362296,335923.000000,1673606275.118428
1673606275.349800,,,,-0.380155,-0.380422,335924.000000,1673606275.119436
1673606275.392956,51.498562,872047.000000,1673606275.381234,,,,
1673606275.392979,51.570919,872048.000000,1673606275.382235,,,,
1673606275.392989,51.534740,872049.000000,1673606275.383235,,,,
1673606275.392994,51.534740,872050.000000,1673606275.384234,,,,
1673606275.393025,51.516651,872051.000000,1673606275.385234,,,,
1673606275.393038,51.570919,872052.000000,1673606275.386235,,,,
1673606275.393045,51.589008,872053.000000,1673606275.387234,,,,
1673606275.393058,51.570919,872054.000000,1673606275.388234,,,,
1673606275.393066,51.589008,872055.000000,1673606275.389235,,,,
1673606275.393075,51.552830,872056.000000,1673606275.390234,,,,
1673606275.442486,,,,-0.406070,-0.405016,335925.000000,1673606275.120443
1673606275.442809,,,,-0.421985,-0.422301,335926.000000,1673606275.121450
1673606275.442871,,,,-0.449680,-0.452063,335927.000000,1673606275.122457
1673606275.442924,,,,-0.470643,-0.471584,335928.000000,1673606275.123464
1673606275.442955,,,,-0.470475,-0.468146,335929.000000,1673606275.124471
1673606275.443050,,,,-0.462926,-0.462689,335930.000000,1673606275.125478
1673606275.443138,,,,-0.454344,-0.457544,335931.000000,1673606275.126485
1673606275.443144,,,,-0.426697,-0.427998,335932.000000,1673606275.127492
1673606275.443358,,,,-0.406575,-0.408189,335933.000000,1673606275.128499
1673606275.443468,,,,-0.397151,-0.396433,335934.000000,1673606275.129506
1673606275.443584,,,,-0.391093,-0.391000,335935.000000,1673606275.130513
1673606275.443682,,,,-0.392464,-0.395015,335936.000000,1673606275.131521
1673606275.443692,,,,-0.402032,-0.402900,335937.000000,1673606275.132528
1673606275.443818,,,,-0.415951,-0.418695,335938.000000,1673606275.133535
1673606275.444001,,,,-0.477783,-0.477426,335939.000000,1673606275.134542
1673606275.444131,,,,-0.481630,-0.483027,335940.000000,1673606275.135549
1673606275.444178,,,,-0.492015,-0.492283,335941.000000,1673606275.136556
1673606275.444273,,,,-0.504925,-0.505577,335942.000000,1673606275.137563
1673606275.444283,,,,-0.472254,-0.472978,335943.000000,1673606275.138570
1673606275.444286,,,,-0.431553,-0.429225,335944.000000,1673606275.139577
1673606275.444401,,,,-0.391694,-0.392226,335945.000000,1673606275.140584
1673606275.444840,,,,-0.339526,-0.340347,335946.000000,1673606275.141591
1673606275.444846,,,,-0.281733,-0.281159,335947.000000,1673606275.142598
1673606275.444993,,,,-0.281540,-0.280125,335948.000000,1673606275.143605
1673606275.445099,,,,-0.329333,-0.328423,335949.000000,1673606275.144613
1673606275.445352,,,,-0.358807,-0.358065,335950.000000,1673606275.145620
1673606275.445360,,,,-0.354311,-0.356045,335951.000000,1673606275.146627
1673606275.456313,,,,-0.355730,-0.357704,335952.000000,1673606275.147634
1673606275.456487,,,,-0.357701,-0.355853,335953.000000,1673606275.148641
1673606275.456500,,,,-0.362004,-0.358810,335954.000000,1673606275.149648
1673606275.456853,,,,-0.381381,-0.377321,335955.000000,1673606275.150655
1673606275.456920,,,,-0.391574,-0.391024,335956.000000,1673606275.151662
1673606275.456931,51.534740,872058.000000,1673606275.397105,,,,
1673606275.457095,,,,-0.395348,-0.398405,335957.000000,1673606275.152669
1673606275.457104,,,,-0.408042,-0.408117,335958.000000,1673606275.153676
1673606275.457107,,,,-0.400469,-0.402924,335959.000000,1673606275.154683
1673606275.457188,51.552830,872059.000000,1673606275.398105,,,,
1673606275.457199,,,,-0.407032,-0.406867,335960.000000,1673606275.155690
1673606275.457475,,,,-0.453671,-0.451534,335961.000000,1673606275.156698
1673606275.457583,51.570919,872060.000000,1673606275.399106,,,,
1673606275.457596,51.607094,872061.000000,1673606275.400105,,,,
1673606275.457604,51.534740,872062.000000,1673606275.401105,,,,
1673606275.457609,,,,-0.477807,-0.475190,335962.000000,1673606275.157705
1673606275.457774,,,,-0.488554,-0.490167,335963.000000,1673606275.158712
1673606275.457784,,,,-0.537140,-0.534883,335964.000000,1673606275.159719
1673606275.457960,51.570919,872063.000000,1673606275.402106,,,,
1673606275.458059,,,,-0.530745,-0.528440,335965.000000,1673606275.160726
1673606275.458137,,,,-0.487664,-0.486754,335966.000000,1673606275.161733
1673606275.458188,51.570919,872064.000000,1673606275.403105,,,,
1673606275.458196,,,,-0.436169,-0.435547,335967.000000,1673606275.162740
1673606275.458199,,,,-0.392824,-0.393236,335968.000000,1673606275.163747
1673606275.458256,,,,-0.360874,-0.357608,335969.000000,1673606275.164754
1673606275.458392,,,,-0.322554,-0.320633,335970.000000,1673606275.165761
1673606275.458611,51.570919,872065.000000,1673606275.404105,,,,
1673606275.458619,51.607094,872066.000000,1673606275.405105,,,,
1673606275.458650,51.607094,872067.000000,1673606275.406106,,,,
1673606275.458679,51.788002,872108.000000,1673606275.447105,,,,
1673606275.458684,51.751816,872109.000000,1673606275.448106,,,,
1673606275.458694,51.842270,872110.000000,1673606275.449106,,,,
1673606275.458709,51.806091,872111.000000,1673606275.450105,,,,
1673606275.458711,51.824181,872112.000000,1673606275.451105,,,,
1673606275.458727,51.824181,872113.000000,1673606275.452106,,,,
1673606275.458733,51.806091,872114.000000,1673606275.453105,,,,
1673606275.458737,51.824181,872115.000000,1673606275.454105,,,,
1673606275.458743,51.842270,872116.000000,1673606275.455106,,,,
1673606275.458764,51.860359,872117.000000,1673606275.456105,,,,
1673606275.458822,,,,-0.303105,-0.303853,335971.000000,1673606275.166768
1673606275.459285,,,,-0.296854,-0.297194,335972.000000,1673606275.167775
1673606275.459311,,,,-0.314067,-0.311113,335973.000000,1673606275.168782
1673606275.459319,,,,-0.367750,-0.365661,335974.000000,1673606275.169790
1673606275.459421,,,,-0.406888,-0.407179,335975.000000,1673606275.170797
1673606275.459430,,,,-0.426553,-0.427854,335976.000000,1673606275.171804
1673606275.459436,,,,-0.432707,-0.434826,335977.000000,1673606275.172811
1673606275.459450,,,,-0.451411,-0.454347,335978.000000,1673606275.173818
1673606275.459469,,,,-0.478745,-0.477738,335979.000000,1673606275.174825
1673606275.459474,,,,-0.496415,-0.496105,335980.000000,1673606275.175832
1673606275.464909,,,,-0.531706,-0.533777,335981.000000,1673606275.176839
1673606275.464923,,,,-0.571061,-0.572025,335982.000000,1673606275.177846
1673606275.465000,,,,-0.550121,-0.549860,335983.000000,1673606275.178853
1673606275.465076,,,,-0.458695,-0.459948,335984.000000,1673606275.179860
1673606275.465135,,,,-0.443766,-0.442759,335985.000000,1673606275.180867
1673606275.465432,,,,-0.457686,-0.455958,335986.000000,1673606275.181875
1673606275.465815,,,,-0.431145,-0.429249,335987.000000,1673606275.182882
1673606275.465825,,,,-0.365899,-0.364868,335988.000000,1673606275.183889
1673606275.465829,,,,-0.367197,-0.368787,335989.000000,1673606275.184896
1673606275.465838,,,,-0.410278,-0.410834,335990.000000,1673606275.185903
1673606275.511650,51.842270,872118.000000,1673606275.451105,,,,
1673606275.511698,51.860359,872119.000000,1673606275.452105,,,,
1673606275.511703,51.932724,872120.000000,1673606275.453105,,,,
1673606275.511705,51.950813,872121.000000,1673606275.454105,,,,
1673606275.512599,51.896545,872122.000000,1673606275.455105,,,,
1673606275.512618,51.896545,872123.000000,1673606275.456105,,,,
1673606275.512698,52.439243,872169.000000,1673606275.502105,,,,
1673606275.512715,52.348797,872170.000000,1673606275.503105,,,,
1673606275.512723,52.403065,872171.000000,1673606275.504105,,,,
1673606275.512728,52.421154,872172.000000,1673606275.505105,,,,
1673606275.512732,52.457340,872173.000000,1673606275.506105,,,,
1673606275.512757,52.421154,872174.000000,1673606275.507105,,,,
1673606275.512764,52.493519,872175.000000,1673606275.508105,,,,
1673606275.512769,52.475430,872176.000000,1673606275.509105,,,,
1673606275.512773,52.493519,872177.000000,1673606275.510105,,,,
1673606275.512797,52.511608,872178.000000,1673606275.511105,,,,
1673606275.526865,,,,-0.405469,-0.406771,335991.000000,1673606275.186910
1673606275.527178,,,,-0.490765,-0.491754,335992.000000,1673606275.216115
1673606275.527239,,,,-0.523436,-0.524089,335993.000000,1673606275.217122
1673606275.527501,,,,-0.537813,-0.539162,335994.000000,1673606275.218129
1673606275.527514,,,,-0.535433,-0.538681,335995.000000,1673606275.219136
1673606275.527539,,,,-0.531682,-0.534089,335996.000000,1673606275.220144
1673606275.527812,,,,-0.488409,-0.491441,335997.000000,1673606275.221151
1673606275.527876,,,,-0.466941,-0.469228,335998.000000,1673606275.222158
1673606275.527933,,,,-0.437996,-0.436677,335999.000000,1673606275.223165
1673606275.528038,,,,-0.410205,-0.409992,336000.000000,1673606275.224172
1673606275.528174,,,,-0.401022,-0.400833,336001.000000,1673606275.225179
1673606275.528180,,,,-0.373327,-0.375157,336002.000000,1673606275.226186
1673606275.528315,,,,-0.374433,-0.376888,336003.000000,1673606275.227193
1673606275.528452,,,,-0.380972,-0.380855,336004.000000,1673606275.228200
1673606275.528711,,,,-0.343132,-0.340996,336005.000000,1673606275.229207
1673606275.528718,,,,-0.297576,-0.293828,336006.000000,1673606275.230214
1673606275.528816,,,,-0.276877,-0.277024,336007.000000,1673606275.231221
1673606275.528822,,,,-0.282574,-0.282505,336008.000000,1673606275.232229
1673606275.528858,,,,-0.288993,-0.287337,336009.000000,1673606275.233236
1673606275.529121,,,,-0.277622,-0.277505,336010.000000,1673606275.234243
1673606275.529130,,,,-0.278608,-0.276639,336011.000000,1673606275.235250
1673606275.529133,,,,-0.313418,-0.312868,336012.000000,1673606275.236257
1673606275.529186,,,,-0.340656,-0.343472,336013.000000,1673606275.237264
1673606275.529969,,,,-0.445593,-0.443505,336016.000000,1673606275.240285
1673606275.530074,,,,-0.464489,-0.466175,336017.000000,1673606275.241292
1673606275.530109,,,,-0.479154,-0.479373,336018.000000,1673606275.242299
1673606275.530161,,,,-0.542452,-0.541374,336019.000000,1673606275.243306
1673606275.530172,,,,-0.569570,-0.570318,336020.000000,1673606275.244313
1673606275.530177,,,,-0.536851,-0.536157,336021.000000,1673606275.245321
1673606275.530185,,,,-0.456988,-0.455669,336022.000000,1673606275.246328
1673606275.530193,,,,-0.432299,-0.432927,336023.000000,1673606275.247335
1673606275.530207,,,,-0.426673,-0.426340,336024.000000,1673606275.248342
1673606275.530264,,,,-0.407248,-0.407540,336025.000000,1673606275.249349
1673606275.530268,,,,-0.416889,-0.416483,336026.000000,1673606275.250356
1673606275.541979,,,,-0.422562,-0.421315,336027.000000,1673606275.251363
1673606275.542005,,,,-0.404941,-0.403141,336028.000000,1673606275.252370
1673606275.542299,,,,-0.364913,-0.364820,336029.000000,1673606275.253377
1673606275.542835,,,,-0.324934,-0.327389,336030.000000,1673606275.254384
1673606275.543450,,,,-0.318611,-0.320201,336031.000000,1673606275.255391
1673606275.544390,,,,-0.318371,-0.318157,336032.000000,1673606275.256398
1673606275.544609,,,,-0.323780,-0.324961,336033.000000,1673606275.257406
1673606275.544627,,,,-0.358975,-0.360108,336034.000000,1673606275.258413
1673606275.544832,,,,-0.381838,-0.382754,336035.000000,1673606275.259420
1673606275.544922,,,,-0.372029,-0.372465,336036.000000,1673606275.260427
1673606275.544939,,,,-0.381717,-0.382922,336037.000000,1673606275.261434
1673606275.545145,,,,-0.409388,-0.410737,336038.000000,1673606275.262441
1673606275.545169,,,,-0.435160,-0.434033,336039.000000,1673606275.263448
1673606275.545183,,,,-0.427779,-0.426412,336040.000000,1673606275.264455
1673606275.545206,,,,-0.419605,-0.420378,336041.000000,1673606275.265462
1673606275.545519,,,,-0.360874,-0.359435,336042.000000,1673606275.287618
1673606275.545599,,,,-0.349263,-0.347391,336043.000000,1673606275.288625
1673606275.545607,,,,-0.358879,-0.356478,336044.000000,1673606275.289632
1673606275.546062,,,,-0.368856,-0.367536,336045.000000,1673606275.290639
1673606275.546070,,,,-0.370442,-0.370013,336046.000000,1673606275.291646
1673606275.546084,,,,-0.334454,-0.335106,336047.000000,1673606275.292653
1673606275.546179,,,,-0.330223,-0.330129,336048.000000,1673606275.293660
1673606275.546193,,,,-0.372245,-0.375374,336049.000000,1673606275.294667
1673606275.546199,,,,-0.383761,-0.387827,336050.000000,1673606275.295675
1673606275.546286,,,,-0.369938,-0.371647,336051.000000,1673606275.296682
1673606275.546881,,,,-0.369649,-0.373859,336052.000000,1673606275.297689
1673606275.546927,,,,-0.382054,-0.384052,336053.000000,1673606275.298696
1673606275.546932,,,,-0.388521,-0.388740,336054.000000,1673606275.299703
1673606275.546942,,,,-0.392536,-0.394125,336055.000000,1673606275.300710
1673606275.547026,,,,-0.409749,-0.411314,336056.000000,1673606275.301717
1673606275.547034,,,,-0.448430,-0.449539,336057.000000,1673606275.302724
1673606275.547038,,,,-0.511464,-0.513390,336058.000000,1673606275.303731
1673606275.547112,,,,-0.561276,-0.564164,336059.000000,1673606275.304738
1673606275.547120,,,,-0.576518,-0.573756,336060.000000,1673606275.305745
1673606275.547138,,,,-0.570748,-0.570126,336061.000000,1673606275.306752
1673606275.561181,,,,-0.571830,-0.572434,336062.000000,1673606275.307760
1673606275.561240,,,,-0.531923,-0.531469,336063.000000,1673606275.308767
1673606275.561513,,,,-0.453695,-0.455405,336064.000000,1673606275.309774
1673606275.561520,,,,-0.460715,-0.459900,336065.000000,1673606275.310781
1673606275.561530,,,,-0.500526,-0.500625,336066.000000,1673606275.311788
1673606275.561647,,,,-0.456556,-0.454611,336067.000000,1673606275.314809
1673606275.561908,,,,-0.350345,-0.347943,336068.000000,1673606275.315816
1673606275.561918,,,,-0.239806,-0.238751,336069.000000,1673606275.316823
1673606275.577938,52.547783,872179.000000,1673606275.516497,,,,
