__time,/gdx/grip_force_stream/grip_force,/gdx/grip_force_stream/header/seq,/gdx/grip_force_stream/header/stamp,/shimmer0/emg_stream/emg_ch1,/shimmer0/emg_stream/emg_ch2,/shimmer0/emg_stream/header/seq,/shimmer0/emg_stream/header/stamp
1673606320.516601,,,,-0.506392,-0.507116,373041.000000,1673606320.491414
1673606320.517269,,,,-0.506392,-0.506948,373042.000000,1673606320.492421
1673606320.517951,,,,-0.507425,-0.507188,373043.000000,1673606320.493428
1673606320.523007,,,,-0.508700,-0.506948,373044.000000,1673606320.494436
1673606320.523312,,,,-0.510647,-0.510602,373045.000000,1673606320.495443
1673606320.523474,,,,-0.510599,-0.508102,373046.000000,1673606320.496450
1673606320.525579,-0.492456,917188.000000,1673606320.515738,,,,
1673606320.525592,-0.492456,917189.000000,1673606320.516737,,,,
1673606320.525600,-0.456278,917190.000000,1673606320.517737,,,,
1673606320.525610,-0.474367,917191.000000,1673606320.518737,,,,
1673606320.525615,-0.438189,917192.000000,1673606320.519737,,,,
1673606320.525621,-0.474367,917193.000000,1673606320.520737,,,,
1673606320.525635,-0.456278,917194.000000,1673606320.521737,,,,
1673606320.525660,-0.492456,917195.000000,1673606320.522738,,,,
1673606320.525669,-0.438189,917196.000000,1673606320.523737,,,,
1673606320.529630,,,,-0.507281,-0.507116,373047.000000,1673606320.497457
1673606320.529648,,,,-0.506392,-0.506827,373048.000000,1673606320.498464
1673606320.529908,,,,-0.507954,-0.510217,373049.000000,1673606320.499471
1673606320.531958,,,,-0.508315,-0.509640,373050.000000,1673606320.500478
1673606320.532049,,,,-0.509156,-0.509856,373051.000000,1673606320.501485
1673606320.532251,,,,-0.511200,-0.511948,373052.000000,1673606320.502492
1673606320.532571,,,,-0.516224,-0.516155,373053.000000,1673606320.503499
1673606320.532644,,,,-0.518340,-0.519064,373054.000000,1673606320.504506
1673606320.536734,,,,-0.515647,-0.515121,373055.000000,1673606320.505513
1673606320.537055,,,,-0.513772,-0.513919,373056.000000,1673606320.506521
1673606320.539407,,,,-0.518172,-0.521949,373057.000000,1673606320.507528
1673606320.539419,,,,-0.525792,-0.528584,373058.000000,1673606320.508535
1673606320.539588,,,,-0.530961,-0.531108,373059.000000,1673606320.509542
1673606320.539679,,,,-0.527403,-0.528392,373060.000000,1673606320.510549
1673606320.544892,,,,-0.516873,-0.516275,373061.000000,1673606320.511556
1673606320.545322,,,,-0.510118,-0.507861,373062.000000,1673606320.512563
1673606320.545334,,,,-0.504252,-0.504640,373063.000000,1673606320.513570
1673606320.545383,,,,-0.504661,-0.502260,373064.000000,1673606320.514577
1673606320.545411,,,,-0.508844,-0.506467,373065.000000,1673606320.515584
1673606320.545447,,,,-0.513724,-0.513030,373066.000000,1673606320.516591
1673606320.545454,,,,-0.519229,-0.519978,373067.000000,1673606320.517598
1673606320.545457,,,,-0.521585,-0.521180,373068.000000,1673606320.518605
1673606320.545486,,,,-0.519350,-0.519208,373069.000000,1673606320.519613
1673606320.545492,,,,-0.521802,-0.520170,373070.000000,1673606320.520620
1673606320.545496,,,,-0.525552,-0.526372,373071.000000,1673606320.521627
1673606320.547204,,,,-0.528100,-0.527695,373072.000000,1673606320.522634
1673606320.547220,,,,-0.528725,-0.527574,373073.000000,1673606320.523641
1673606320.547227,,,,-0.531033,-0.527166,373074.000000,1673606320.524648
1673606320.547293,,,,-0.532716,-0.530459,373075.000000,1673606320.525655
1673606320.547349,,,,-0.531875,-0.530339,373076.000000,1673606320.526662
1673606320.547356,,,,-0.526153,-0.525122,373077.000000,1673606320.527669
1673606320.547359,,,,-0.524614,-0.526012,373078.000000,1673606320.528676
1673606320.551707,,,,-0.525840,-0.525940,373079.000000,1673606320.529683
1673606320.551991,,,,-0.526778,-0.525747,373080.000000,1673606320.530690
1673606320.552292,,,,-0.530600,-0.526324,373081.000000,1673606320.531698
1673606320.554845,,,,-0.527740,-0.527142,373082.000000,1673606320.532705
1673606320.554858,,,,-0.526177,-0.527935,373083.000000,1673606320.533712
1673606320.555073,,,,-0.525119,-0.526396,373084.000000,1673606320.534719
1673606320.555293,,,,-0.527283,-0.527454,373085.000000,1673606320.535726
1673606320.555504,,,,-0.522066,-0.521973,373086.000000,1673606320.536733
1673606320.556016,,,,-0.514325,-0.514448,373087.000000,1673606320.537740
1673606320.556133,,,,-0.515767,-0.514977,373088.000000,1673606320.538747
1673606320.556150,,,,-0.520936,-0.520410,373089.000000,1673606320.539754
1673606320.556163,,,,-0.527043,-0.527671,373090.000000,1673606320.540761
1673606320.556174,,,,-0.529038,-0.529329,373091.000000,1673606320.541768
1673606320.556181,,,,-0.525288,-0.525387,373092.000000,1673606320.542775
1673606320.561726,,,,-0.531370,-0.531349,373093.000000,1673606320.543782
1673606320.562260,,,,-0.549520,-0.549908,373094.000000,1673606320.544790
1673606320.562534,,,,-0.570123,-0.568491,373095.000000,1673606320.545797
1673606320.567357,,,,-0.579812,-0.579117,373096.000000,1673606320.546804
1673606320.568016,,,,-0.565411,-0.565679,373097.000000,1673606320.547811
1673606320.568101,,,,-0.536563,-0.537816,373098.000000,1673606320.548818
1673606320.568340,,,,-0.532139,-0.534282,373099.000000,1673606320.549825
1673606320.568361,,,,-0.533245,-0.536277,373100.000000,1673606320.550832
1673606320.569378,,,,-0.533173,-0.536517,373101.000000,1673606320.551839
1673606320.569683,,,,-0.540265,-0.541758,373102.000000,1673606320.552846
1673606320.583274,,,,-0.548366,-0.550822,373103.000000,1673606320.553853
1673606320.583293,,,,-0.550626,-0.550148,373104.000000,1673606320.554860
1673606320.583551,,,,-0.549472,-0.547913,373105.000000,1673606320.555867
1673606320.583797,,,,-0.547958,-0.548826,373106.000000,1673606320.556875
1673606320.591202,,,,-0.547669,-0.549355,373107.000000,1673606320.557882
1673606320.591337,,,,-0.543751,-0.543032,373108.000000,1673606320.558889
1673606320.591342,,,,-0.542068,-0.544547,373109.000000,1673606320.559896
1673606320.591455,,,,-0.544977,-0.546086,373110.000000,1673606320.560903
1673606320.591563,,,,-0.546299,-0.545533,373111.000000,1673606320.561910
1673606320.591723,,,,-0.547741,-0.546807,373112.000000,1673606320.562917
1673606320.591937,,,,-0.550867,-0.549860,373113.000000,1673606320.563924
1673606320.591943,,,,-0.555074,-0.554067,373114.000000,1673606320.564931
1673606320.592032,,,,-0.561060,-0.559861,373115.000000,1673606320.565938
1673606320.592073,,,,-0.559113,-0.559572,373116.000000,1673606320.566945
1673606320.592077,,,,-0.556684,-0.558202,373117.000000,1673606320.567952
1673606320.592088,,,,-0.555819,-0.557673,373118.000000,1673606320.568959
1673606320.597195,,,,-0.547693,-0.549596,373119.000000,1673606320.569967
1673606320.597320,,,,-0.544640,-0.544066,373120.000000,1673606320.570974
1673606320.597435,,,,-0.541371,-0.537840,373121.000000,1673606320.571981
1673606320.597566,,,,-0.537140,-0.536157,373122.000000,1673606320.572988
1673606320.597683,,,,-0.545578,-0.543369,373123.000000,1673606320.573995
1673606320.597890,,,,-0.558223,-0.559789,373124.000000,1673606320.575002
1673606320.597896,,,,-0.574450,-0.575535,373125.000000,1673606320.576009
1673606320.599629,,,,-0.568152,-0.566592,373126.000000,1673606320.577016
1673606320.600052,,,,-0.545674,-0.545533,373127.000000,1673606320.578023
1673606320.600096,,,,-0.540169,-0.539931,373128.000000,1673606320.579030
1673606320.600271,,,,-0.547188,-0.545509,373129.000000,1673606320.580037
1673606320.600282,,,,-0.552501,-0.553178,373130.000000,1673606320.581044
1673606320.600287,,,,-0.557766,-0.553418,373131.000000,1673606320.582052
1673606320.600596,,,,-0.553367,-0.554019,373132.000000,1673606320.583059
1673606320.600606,,,,-0.553824,-0.555990,373133.000000,1673606320.584066
1673606320.600612,,,,-0.557165,-0.557024,373134.000000,1673606320.585073
1673606320.600859,,,,-0.558391,-0.557577,373135.000000,1673606320.586080
1673606320.600927,-0.184925,917248.000000,1673606320.589916,,,,
1673606320.600941,-0.239193,917249.000000,1673606320.590917,,,,
1673606320.600948,-0.239193,917250.000000,1673606320.591917,,,,
1673606320.600953,-0.184925,917251.000000,1673606320.592916,,,,
1673606320.600958,-0.148747,917252.000000,1673606320.593916,,,,
1673606320.600987,-0.148747,917253.000000,1673606320.594917,,,,
1673606320.600993,-0.166836,917254.000000,1673606320.595917,,,,
1673606320.601007,-0.166836,917255.000000,1673606320.596916,,,,
1673606320.601025,-0.148747,917256.000000,1673606320.597917,,,,
1673606320.601036,-0.148747,917257.000000,1673606320.598917,,,,
1673606320.604515,,,,-0.557213,-0.558346,373136.000000,1673606320.587087
1673606320.604668,,,,-0.557814,-0.559644,373137.000000,1673606320.588094
1673606320.604834,,,,-0.559257,-0.560245,373138.000000,1673606320.589101
1673606320.605170,,,,-0.555266,-0.555774,373139.000000,1673606320.590108
1673606320.605205,,,,-0.550915,-0.550870,373140.000000,1673606320.591115
1673606320.605227,,,,-0.549256,-0.551350,373141.000000,1673606320.592122
1673606320.605283,,,,-0.548487,-0.550124,373142.000000,1673606320.593129
1673606320.607227,,,,-0.546587,-0.549403,373143.000000,1673606320.594136
1673606320.607245,,,,-0.551444,-0.550197,373144.000000,1673606320.595144
1673606320.607251,,,,-0.553078,-0.553394,373145.000000,1673606320.596151
1673606320.607256,,,,-0.557165,-0.556784,373146.000000,1673606320.597158
1673606320.607284,,,,-0.563488,-0.562842,373147.000000,1673606320.598165
1673606320.607290,,,,-0.564113,-0.562265,373148.000000,1673606320.599172
1673606320.607341,,,,-0.563175,-0.560919,373149.000000,1673606320.600179
1673606320.612311,,,,-0.560531,-0.560077,373150.000000,1673606320.601186
1673606320.612452,,,,-0.559521,-0.560197,373151.000000,1673606320.602193
1673606320.612527,,,,-0.557237,-0.558659,373152.000000,1673606320.603200
1673606320.612828,,,,-0.557646,-0.556808,373153.000000,1673606320.604207
1673606320.612965,,,,-0.563103,-0.562169,373154.000000,1673606320.605214
1673606320.613321,,,,-0.567863,-0.568564,373155.000000,1673606320.606221
1673606320.613479,,,,-0.570123,-0.565679,373156.000000,1673606320.607229
1673606320.613838,,,,-0.564233,-0.561087,373157.000000,1673606320.608236
1673606320.615126,,,,-0.557021,-0.558322,373158.000000,1673606320.609243
1673606320.615350,,,,-0.550963,-0.552793,373159.000000,1673606320.610250
1673606320.615582,,,,-0.561565,-0.563275,373160.000000,1673606320.611257
1673606320.615803,,,,-0.568152,-0.566208,373161.000000,1673606320.612264
1673606320.616158,,,,-0.567815,-0.567842,373162.000000,1673606320.613271
1673606320.616387,,,,-0.579980,-0.580103,373163.000000,1673606320.614278
1673606320.616897,,,,-0.587312,-0.588830,373164.000000,1673606320.615285
1673606320.616925,,,,-0.586519,-0.588397,373165.000000,1673606320.616292
1673606320.617182,,,,-0.581615,-0.583757,373166.000000,1673606320.617299
1673606320.617573,,,,-0.580388,-0.580776,373167.000000,1673606320.618306
1673606320.617854,,,,-0.570267,-0.566640,373168.000000,1673606320.619313
1673606320.618071,,,,-0.547381,-0.544643,373169.000000,1673606320.620321
1673606320.618327,,,,-0.548246,-0.548345,373170.000000,1673606320.621328
1673606320.618530,,,,-0.560627,-0.559043,373171.000000,1673606320.622335
1673606320.619770,,,,-0.566806,-0.567361,373172.000000,1673606320.623342
1673606320.619789,,,,-0.569426,-0.569814,373173.000000,1673606320.624349
1673606320.619832,,,,-0.568416,-0.568179,373174.000000,1673606320.625356
1673606320.620132,,,,-0.565051,-0.566352,373175.000000,1673606320.626363
1673606320.620328,,,,-0.564137,-0.564164,373176.000000,1673606320.627370
1673606320.620556,,,,-0.560074,-0.560847,373177.000000,1673606320.628377
1673606320.620822,,,,-0.563656,-0.563972,373178.000000,1673606320.629384
1673606320.622014,,,,-0.568657,-0.569501,373179.000000,1673606320.630391
1673606320.622031,,,,-0.565579,-0.566232,373180.000000,1673606320.631398
1673606320.622323,,,,-0.557598,-0.557769,373181.000000,1673606320.632406
1673606320.622501,,,,-0.557959,-0.558226,373182.000000,1673606320.633413
1673606320.622782,,,,-0.557093,-0.557914,373183.000000,1673606320.634420
1673606320.622800,,,,-0.549785,-0.551519,373184.000000,1673606320.635427
1673606320.626746,,,,-0.550915,-0.554139,373185.000000,1673606320.636434
1673606320.626956,,,,-0.556612,-0.557601,373186.000000,1673606320.637441
1673606320.627138,,,,-0.556035,-0.557649,373187.000000,1673606320.638448
1673606320.627289,,,,-0.556372,-0.554981,373188.000000,1673606320.639455
1673606320.629349,,,,-0.556612,-0.557024,373189.000000,1673606320.640462
1673606320.629366,,,,-0.553367,-0.555077,373190.000000,1673606320.641469
1673606320.629374,,,,-0.556420,-0.558755,373191.000000,1673606320.642476
1673606320.629384,,,,-0.566733,-0.570126,373192.000000,1673606320.643483
1673606320.643473,,,,-0.570267,-0.572410,373193.000000,1673606320.644490
1673606320.643772,,,,-0.563055,-0.563611,373194.000000,1673606320.645498
1673606320.643805,,,,-0.558800,-0.560294,373195.000000,1673606320.646505
1673606320.643943,,,,-0.564810,-0.564525,373196.000000,1673606320.647512
1673606320.650666,,,,-0.572503,-0.570751,373197.000000,1673606320.648519
1673606320.650678,,,,-0.582336,-0.581233,373198.000000,1673606320.649526
1673606320.654600,0.086427,917309.000000,1673606320.643652,,,,
1673606320.654619,0.068338,917310.000000,1673606320.644652,,,,
1673606320.654629,0.032160,917311.000000,1673606320.645652,,,,
1673606320.654634,0.086427,917312.000000,1673606320.646652,,,,
1673606320.654638,0.068338,917313.000000,1673606320.647652,,,,
1673606320.654644,0.068338,917314.000000,1673606320.648652,,,,
1673606320.654677,0.104516,917315.000000,1673606320.649652,,,,
1673606320.654683,0.086427,917316.000000,1673606320.650652,,,,
1673606320.654689,0.086427,917317.000000,1673606320.651652,,,,
1673606320.654701,0.158783,917318.000000,1673606320.652652,,,,
1673606320.657165,,,,-0.590077,-0.589815,373199.000000,1673606320.650533
1673606320.657412,,,,-0.597722,-0.596138,373200.000000,1673606320.651540
1673606320.657488,,,,-0.596952,-0.596306,373201.000000,1673606320.652547
1673606320.657536,,,,-0.584115,-0.583348,373202.000000,1673606320.653554
1673606320.657659,,,,-0.563440,-0.560197,373203.000000,1673606320.654561
1673606320.657750,,,,-0.540072,-0.537984,373204.000000,1673606320.655568
1673606320.657777,,,,-0.543943,-0.544523,373205.000000,1673606320.656575
1673606320.657782,,,,-0.554833,-0.555774,373206.000000,1673606320.657583
1673606320.664686,,,,-0.553728,-0.553851,373207.000000,1673606320.658590
1673606320.664832,,,,-0.551900,-0.547600,373208.000000,1673606320.659597
1673606320.665010,,,,-0.557550,-0.552120,373209.000000,1673606320.660604
1673606320.671969,,,,-0.559137,-0.558515,373210.000000,1673606320.661611
1673606320.672400,,,,-0.556636,-0.559308,373211.000000,1673606320.662618
1673606320.672442,,,,-0.555963,-0.556183,373212.000000,1673606320.663625
1673606320.672704,,,,-0.553679,-0.555461,373213.000000,1673606320.664632
1673606320.674676,,,,-0.557526,-0.557865,373214.000000,1673606320.665639
1673606320.674692,,,,-0.570267,-0.570342,373215.000000,1673606320.666646
1673606320.674698,,,,-0.577359,-0.579526,373216.000000,1673606320.667653
1673606320.680070,,,,-0.564426,-0.565438,373217.000000,1673606320.668660
1673606320.680302,,,,-0.559954,-0.558563,373218.000000,1673606320.669667
1673606320.680656,,,,-0.560098,-0.560318,373219.000000,1673606320.670675
1673606320.680684,,,,-0.558848,-0.558635,373220.000000,1673606320.671682
1673606320.682230,,,,-0.558824,-0.557337,373221.000000,1673606320.672689
1673606320.682578,,,,-0.557045,-0.557024,373222.000000,1673606320.673696
1673606320.682884,,,,-0.562382,-0.562313,373223.000000,1673606320.674703
1673606320.683611,,,,-0.562863,-0.563803,373224.000000,1673606320.675710
1673606320.683638,,,,-0.558968,-0.560967,373225.000000,1673606320.676717
1673606320.683654,,,,-0.560002,-0.559789,373226.000000,1673606320.677724
1673606320.683686,,,,-0.559858,-0.560558,373227.000000,1673606320.678731
1673606320.683744,,,,-0.558824,-0.559380,373228.000000,1673606320.679738
1673606320.687746,,,,-0.556997,-0.560245,373229.000000,1673606320.680745
1673606320.687935,,,,-0.559401,-0.561015,373230.000000,1673606320.681752
1673606320.687953,,,,-0.564930,-0.563972,373231.000000,1673606320.682760
1673606320.688106,,,,-0.567935,-0.567361,373232.000000,1673606320.683767
1673606320.688274,,,,-0.572479,-0.570463,373233.000000,1673606320.684774
1673606320.688521,,,,-0.573128,-0.572891,373234.000000,1673606320.685781
1673606320.689133,,,,-0.576758,-0.575992,373235.000000,1673606320.686788
1673606320.689513,,,,-0.583610,-0.584046,373236.000000,1673606320.687795
1673606320.689737,,,,-0.577624,-0.578661,373237.000000,1673606320.688802
1673606320.689966,,,,-0.571998,-0.573780,373238.000000,1673606320.689809
1673606320.703535,,,,-0.562454,-0.563491,373239.000000,1673606320.690816
1673606320.704012,,,,-0.553703,-0.551543,373240.000000,1673606320.691823
1673606320.704192,,,,-0.548559,-0.550028,373241.000000,1673606320.692830
1673606320.704454,,,,-0.551107,-0.552432,373242.000000,1673606320.693837
1673606320.704498,,,,-0.558656,-0.557481,373243.000000,1673606320.694844
1673606320.704506,,,,-0.564257,-0.562986,373244.000000,1673606320.695852
1673606320.704582,,,,-0.565820,-0.560871,373245.000000,1673606320.696859
1673606320.717011,,,,-0.560579,-0.559356,373246.000000,1673606320.697866
1673606320.717119,,,,-0.558512,-0.559885,373247.000000,1673606320.698873
1673606320.717304,,,,-0.559714,-0.558971,373248.000000,1673606320.699880
1673606320.717317,,,,-0.562574,-0.561784,373249.000000,1673606320.700887
1673606320.718679,0.412046,917370.000000,1673606320.707825,,,,
1673606320.718700,0.357779,917371.000000,1673606320.708826,,,,
1673606320.718708,0.303504,917372.000000,1673606320.709826,,,,
1673606320.718717,0.393957,917373.000000,1673606320.710825,,,,
1673606320.718727,0.375868,917374.000000,1673606320.711825,,,,
1673606320.718735,0.430135,917375.000000,1673606320.712826,,,,
1673606320.718752,0.412046,917376.000000,1673606320.713825,,,,
1673606320.718760,0.430135,917377.000000,1673606320.714825,,,,
1673606320.718769,0.412046,917378.000000,1673606320.715826,,,,
1673606320.718776,0.430135,917379.000000,1673606320.716825,,,,
1673606320.719545,,,,-0.565868,-0.564116,373250.000000,1673606320.701894
1673606320.719593,,,,-0.565892,-0.565438,373251.000000,1673606320.702901
1673606320.719745,,,,-0.567094,-0.564813,373252.000000,1673606320.703908
1673606320.719872,,,,-0.568392,-0.566568,373253.000000,1673606320.704915
1673606320.720049,,,,-0.565940,-0.565174,373254.000000,1673606320.705922
1673606320.720245,,,,-0.563752,-0.562409,373255.000000,1673606320.706929
1673606320.720287,,,,-0.554785,-0.555942,373256.000000,1673606320.707937
1673606320.724397,,,,-0.548871,-0.552264,373257.000000,1673606320.708944
1673606320.724945,,,,-0.549376,-0.549716,373258.000000,1673606320.709951
1673606320.724960,,,,-0.549641,-0.549091,373259.000000,1673606320.710958
1673606320.727006,,,,-0.552429,-0.552504,373260.000000,1673606320.711965
1673606320.727021,,,,-0.564666,-0.563299,373261.000000,1673606320.712972
1673606320.727034,,,,-0.580052,-0.580319,373262.000000,1673606320.713979
1673606320.727351,,,,-0.580797,-0.580415,373263.000000,1673606320.714986
1673606320.732288,,,,-0.576133,-0.575848,373264.000000,1673606320.715993
1673606320.732303,,,,-0.570892,-0.575151,373265.000000,1673606320.717000
1673606320.732324,,,,-0.570051,-0.575631,373266.000000,1673606320.718007
1673606320.734515,,,,-0.567743,-0.570511,373267.000000,1673606320.719014
1673606320.734635,,,,-0.566132,-0.568708,373268.000000,1673606320.720021
1673606320.735103,,,,-0.568873,-0.569381,373269.000000,1673606320.721029
1673606320.735189,,,,-0.570436,-0.570294,373270.000000,1673606320.722036
1673606320.741849,,,,-0.572479,-0.572506,373271.000000,1673606320.723043
1673606320.742174,,,,-0.574667,-0.575992,373272.000000,1673606320.724050
1673606320.742662,,,,-0.576566,-0.577242,373273.000000,1673606320.725057
1673606320.742974,,,,-0.580749,-0.581738,373274.000000,1673606320.726064
1673606320.747536,,,,-0.587817,-0.588782,373275.000000,1673606320.727071
1673606320.747559,,,,-0.584980,-0.587075,373276.000000,1673606320.728078
1673606320.747707,,,,-0.578225,-0.581714,373277.000000,1673606320.729085
1673606320.748013,,,,-0.573248,-0.575030,373278.000000,1673606320.730092
1673606320.748376,,,,-0.568705,-0.568059,373279.000000,1673606320.731099
1673606320.748748,,,,-0.569570,-0.567914,373280.000000,1673606320.732106
1673606320.773458,0.574856,917431.000000,1673606320.762026,,,,
1673606320.773472,0.592954,917432.000000,1673606320.763026,,,,
1673606320.773478,0.592954,917433.000000,1673606320.764026,,,,
1673606320.773482,0.647221,917434.000000,1673606320.765026,,,,
1673606320.773485,0.611043,917435.000000,1673606320.766026,,,,
1673606320.773496,0.629132,917436.000000,1673606320.767026,,,,
1673606320.773501,0.647221,917437.000000,1673606320.768026,,,,
1673606320.773514,0.647221,917438.000000,1673606320.769026,,,,
1673606320.773542,0.665310,917439.000000,1673606320.770026,,,,
1673606320.773552,0.665310,917440.000000,1673606320.771026,,,,
1673606320.777317,,,,-0.573753,-0.573540,373281.000000,1673606320.733114
1673606320.777342,,,,-0.573609,-0.574333,373282.000000,1673606320.734121
1673606320.777348,,,,-0.575628,-0.576833,373283.000000,1673606320.735128
1673606320.777483,,,,-0.577143,-0.577987,373284.000000,1673606320.736135
1673606320.777636,,,,-0.578081,-0.577867,373285.000000,1673606320.737142
1673606320.777795,,,,-0.578057,-0.579189,373286.000000,1673606320.738149
1673606320.777874,,,,-0.576710,-0.576160,373287.000000,1673606320.739156
1673606320.781128,,,,-0.583706,-0.581353,373288.000000,1673606320.740163
1673606320.781137,,,,-0.592962,-0.594792,373289.000000,1673606320.741170
1673606320.781647,,,,-0.595726,-0.597364,373290.000000,1673606320.742177
1673606320.781663,,,,-0.590029,-0.590801,373291.000000,1673606320.743184
1673606320.784616,,,,-0.590582,-0.588974,373292.000000,1673606320.744191
1673606320.784733,,,,-0.575701,-0.576521,373293.000000,1673606320.745198
1673606320.784747,,,,-0.564786,-0.563755,373294.000000,1673606320.746206
1673606320.784755,,,,-0.565435,-0.562770,373295.000000,1673606320.747213
1673606320.788653,,,,-0.568032,-0.567650,373296.000000,1673606320.748220
1673606320.788953,,,,-0.581494,-0.582074,373297.000000,1673606320.749227
1673606320.789216,,,,-0.586278,-0.585368,373298.000000,1673606320.750234
1673606320.789480,,,,-0.587817,-0.585079,373299.000000,1673606320.751241
1673606320.791974,,,,-0.577119,-0.579959,373300.000000,1673606320.752248
1673606320.792672,,,,-0.570388,-0.575343,373301.000000,1673606320.753255
1673606320.792695,,,,-0.572479,-0.576617,373302.000000,1673606320.754262
1673606320.796807,,,,-0.572671,-0.574069,373303.000000,1673606320.755269
1673606320.796822,,,,-0.572864,-0.574742,373304.000000,1673606320.756276
1673606320.796829,,,,-0.575220,-0.573348,373305.000000,1673606320.757283
1673606320.796978,,,,-0.575076,-0.574213,373306.000000,1673606320.758291
1673606320.799491,,,,-0.571061,-0.571016,373307.000000,1673606320.759298
1673606320.799709,,,,-0.568657,-0.568539,373308.000000,1673606320.760305
1673606320.799866,,,,-0.574426,-0.576473,373309.000000,1673606320.761312
1673606320.799882,,,,-0.582264,-0.583036,373310.000000,1673606320.762319
1673606320.801729,,,,-0.591351,-0.592772,373311.000000,1673606320.763326
1673606320.801740,,,,-0.593010,-0.596306,373312.000000,1673606320.764333
1673606320.801791,,,,-0.601015,-0.603182,373313.000000,1673606320.765340
1673606320.806854,,,,-0.600751,-0.599912,373314.000000,1673606320.766347
1673606320.807196,,,,-0.590774,-0.589286,373315.000000,1673606320.767354
1673606320.807218,,,,-0.584956,-0.586979,373316.000000,1673606320.768361
1673606320.809746,,,,-0.588226,-0.588325,373317.000000,1673606320.769368
1673606320.810225,,,,-0.584163,-0.584719,373318.000000,1673606320.770375
1673606320.810554,,,,-0.584163,-0.585825,373319.000000,1673606320.771383
1673606320.810849,,,,-0.590293,-0.592292,373320.000000,1673606320.772390
1673606320.811405,,,,-0.592264,-0.592724,373321.000000,1673606320.773397
1673606320.811792,,,,-0.588995,-0.591498,373322.000000,1673606320.774404
1673606320.811821,,,,-0.593034,-0.592219,373323.000000,1673606320.775411
1673606320.823396,,,,-0.588803,-0.587604,373324.000000,1673606320.776418
1673606320.823536,,,,-0.577696,-0.578300,373325.000000,1673606320.777425
1673606320.823669,,,,-0.571878,-0.571448,373326.000000,1673606320.778432
1673606320.823678,,,,-0.577840,-0.576665,373327.000000,1673606320.779439
1673606320.831046,,,,-0.582913,-0.582195,373328.000000,1673606320.780446
1673606320.831227,,,,-0.587817,-0.587435,373329.000000,1673606320.781453
1673606320.831376,,,,-0.590990,-0.591258,373330.000000,1673606320.782460
1673606320.831384,,,,-0.584187,-0.586666,373331.000000,1673606320.783468
1673606320.831424,,,,-0.579210,-0.580440,373332.000000,1673606320.784475
1673606320.831429,,,,-0.574282,-0.577314,373333.000000,1673606320.785482
1673606320.831459,,,,-0.572551,-0.574670,373334.000000,1673606320.786489
1673606320.836694,0.701488,917467.000000,1673606320.801796,,,,
1673606320.836706,0.629132,917468.000000,1673606320.802796,,,,
1673606320.836781,0.647221,917469.000000,1673606320.803796,,,,
1673606320.836818,,,,-0.584716,-0.583469,373335.000000,1673606320.787496
1673606320.836962,,,,-0.604766,-0.602629,373336.000000,1673606320.788503
1673606320.837011,,,,-0.615944,-0.614409,373337.000000,1673606320.789510
1673606320.837270,0.665310,917470.000000,1673606320.804796,,,,
1673606320.837278,0.701488,917471.000000,1673606320.805796,,,,
1673606320.837317,0.665310,917472.000000,1673606320.806796,,,,
1673606320.837322,0.719577,917473.000000,1673606320.807796,,,,
1673606320.837329,0.665310,917474.000000,1673606320.808796,,,,
1673606320.837359,0.683399,917475.000000,1673606320.809796,,,,
1673606320.837364,0.683399,917476.000000,1673606320.810796,,,,
1673606320.837368,0.828119,917492.000000,1673606320.826796,,,,
1673606320.837376,0.882395,917493.000000,1673606320.827796,,,,
1673606320.837387,0.882395,917494.000000,1673606320.828796,,,,
1673606320.837392,0.864306,917495.000000,1673606320.829796,,,,
1673606320.837395,0.828119,917496.000000,1673606320.830796,,,,
1673606320.837404,0.828119,917497.000000,1673606320.831796,,,,
1673606320.837411,0.864306,917498.000000,1673606320.832796,,,,
1673606320.837416,0.882395,917499.000000,1673606320.833796,,,,
1673606320.837420,0.828119,917500.000000,1673606320.834796,,,,
1673606320.837432,0.846209,917501.000000,1673606320.835796,,,,
1673606320.839158,,,,-0.604573,-0.604119,373338.000000,1673606320.790517
1673606320.839252,,,,-0.587456,-0.589094,373339.000000,1673606320.791524
1673606320.839383,,,,-0.582841,-0.585031,373340.000000,1673606320.792531
1673606320.839494,,,,-0.595438,-0.594792,373341.000000,1673606320.793538
1673606320.839633,,,,-0.602698,-0.603254,373342.000000,1673606320.794545
1673606320.844260,,,,-0.603275,-0.603735,373343.000000,1673606320.795552
1673606320.844393,,,,-0.614983,-0.615635,373344.000000,1673606320.796560
1673606320.846981,,,,-0.627412,-0.630756,373345.000000,1673606320.797567
1673606320.847097,,,,-0.630321,-0.631574,373346.000000,1673606320.798574
1673606320.847170,,,,-0.629648,-0.627078,373347.000000,1673606320.799581
1673606320.847260,,,,-0.593370,-0.596258,373348.000000,1673606320.800588
1673606320.852391,,,,-0.557718,-0.560029,373349.000000,1673606320.801595
1673606320.852625,,,,-0.572046,-0.572266,373350.000000,1673606320.802602
1673606320.852636,,,,-0.586783,-0.587532,373351.000000,1673606320.803609
1673606320.852654,,,,-0.591495,-0.592604,373352.000000,1673606320.804616
1673606320.855175,,,,-0.591231,-0.595273,373353.000000,1673606320.805623
1673606320.855564,,,,-0.593058,-0.593253,373354.000000,1673606320.806630
1673606320.855612,,,,-0.595582,-0.593397,373355.000000,1673606320.807637
1673606320.856437,,,,-0.593707,-0.594287,373357.000000,1673606320.809652
1673606320.856450,,,,-0.593178,-0.595056,373358.000000,1673606320.810659
1673606320.856500,,,,-0.595654,-0.593325,373359.000000,1673606320.811666
1673606320.856658,,,,-0.593659,-0.593542,373360.000000,1673606320.812673
1673606320.856670,,,,-0.591904,-0.593926,373361.000000,1673606320.813680
1673606320.856698,,,,-0.593491,-0.591522,373362.000000,1673606320.814687
1673606320.856868,,,,-0.593034,-0.592556,373363.000000,1673606320.815694
1673606320.856884,,,,-0.590870,-0.590993,373364.000000,1673606320.816701
1673606320.856921,,,,-0.590125,-0.587796,373365.000000,1673606320.817708
1673606320.856927,,,,-0.593923,-0.592243,373366.000000,1673606320.818715
1673606320.859793,,,,-0.604165,-0.604769,373367.000000,1673606320.819722
1673606320.860093,,,,-0.607194,-0.608928,373368.000000,1673606320.820729
1673606320.860110,,,,-0.603299,-0.601956,373369.000000,1673606320.821737
1673606320.860117,,,,-0.606040,-0.606668,373370.000000,1673606320.822744
1673606320.860232,,,,-0.610559,-0.610274,373371.000000,1673606320.823751
1673606320.860396,,,,-0.611665,-0.612173,373372.000000,1673606320.824758
1673606320.860756,,,,-0.604357,-0.606980,373373.000000,1673606320.825765
1673606320.861832,,,,-0.596544,-0.598350,373374.000000,1673606320.826772
1673606320.862157,,,,-0.596616,-0.595777,373375.000000,1673606320.827779
1673606320.862180,,,,-0.600607,-0.601283,373376.000000,1673606320.828786
1673606320.862194,,,,-0.606088,-0.606067,373377.000000,1673606320.829793
1673606320.867178,,,,-0.604525,-0.604648,373378.000000,1673606320.830800
1673606320.867998,,,,-0.605126,-0.607245,373379.000000,1673606320.831807
1673606320.868094,,,,-0.607602,-0.608038,373380.000000,1673606320.832814
1673606320.868263,,,,-0.604838,-0.605754,373381.000000,1673606320.833822
1673606320.868507,,,,-0.603107,-0.603038,373382.000000,1673606320.834829
1673606320.868529,,,,-0.601352,-0.601138,373383.000000,1673606320.835836
1673606320.890142,0.936662,917502.000000,1673606320.829687,,,,
1673606320.890378,0.990929,917503.000000,1673606320.830687,,,,
1673606320.890393,0.936662,917504.000000,1673606320.831687,,,,
1673606320.890423,0.846209,917505.000000,1673606320.832687,,,,
1673606320.890561,0.954751,917506.000000,1673606320.833687,,,,
1673606320.890850,0.918573,917507.000000,1673606320.834687,,,,
1673606320.890863,0.936662,917508.000000,1673606320.835687,,,,
1673606320.891126,,,,-0.599477,-0.600826,373384.000000,1673606320.836843
1673606320.891192,0.864306,917509.000000,1673606320.836687,,,,
1673606320.891310,,,,-0.597722,-0.599335,373385.000000,1673606320.837850
1673606320.891486,,,,-0.597361,-0.597893,373386.000000,1673606320.838857
1673606320.891666,1.099472,917553.000000,1673606320.880687,,,,
1673606320.891673,1.135650,917554.000000,1673606320.881687,,,,
1673606320.891676,1.153747,917555.000000,1673606320.882687,,,,
1673606320.891693,1.117561,917556.000000,1673606320.883687,,,,
1673606320.891724,1.189925,917557.000000,1673606320.884687,,,,
1673606320.891742,1.153747,917558.000000,1673606320.885687,,,,
1673606320.891745,1.171836,917559.000000,1673606320.886687,,,,
1673606320.891748,1.208014,917560.000000,1673606320.887687,,,,
1673606320.891759,1.153747,917561.000000,1673606320.888687,,,,
1673606320.891768,1.171836,917562.000000,1673606320.889687,,,,
1673606320.891969,,,,-0.596688,-0.593542,373387.000000,1673606320.839864
1673606320.892054,,,,-0.596952,-0.594984,373388.000000,1673606320.840871
1673606320.892295,,,,-0.598707,-0.597989,373389.000000,1673606320.841878
1673606320.892397,,,,-0.596784,-0.597148,373390.000000,1673606320.842885
1673606320.892491,,,,-0.591904,-0.590368,373391.000000,1673606320.843892
1673606320.892520,,,,-0.591495,-0.589743,373392.000000,1673606320.844899
1673606320.892537,,,,-0.593947,-0.593373,373393.000000,1673606320.845906
1673606320.892541,,,,-0.600631,-0.598855,373394.000000,1673606320.846914
1673606320.907277,,,,-0.612891,-0.610033,373395.000000,1673606320.847921
1673606320.907437,,,,-0.614310,-0.614337,373396.000000,1673606320.848928
1673606320.907819,,,,-0.609814,-0.611139,373397.000000,1673606320.849935
1673606320.908168,,,,-0.604477,-0.604264,373398.000000,1673606320.850942
1673606320.908494,,,,-0.592457,-0.591378,373399.000000,1673606320.851949
1673606320.908592,,,,-0.589019,-0.589214,373400.000000,1673606320.852956
1673606320.908835,,,,-0.584668,-0.583925,373401.000000,1673606320.853963
1673606320.909156,,,,-0.590870,-0.589647,373402.000000,1673606320.854970
1673606320.909325,,,,-0.601256,-0.599167,373403.000000,1673606320.855977
1673606320.909618,,,,-0.594596,-0.593445,373404.000000,1673606320.856984
1673606320.909836,,,,-0.589572,-0.586930,373405.000000,1673606320.857991
1673606320.911002,,,,-0.591712,-0.590464,373407.000000,1673606320.860006
1673606320.911216,,,,-0.598347,-0.597027,373408.000000,1673606320.861013
1673606320.911237,,,,-0.608732,-0.607125,373409.000000,1673606320.862020
1673606320.911473,,,,-0.618180,-0.616572,373410.000000,1673606320.863027
1673606320.911500,,,,-0.620007,-0.619025,373411.000000,1673606320.864034
1673606320.911511,,,,-0.614694,-0.615563,373412.000000,1673606320.865041
1673606320.911749,,,,-0.601592,-0.601187,373413.000000,1673606320.866048
1673606320.911774,,,,-0.600078,-0.603422,373414.000000,1673606320.867055
1673606320.911791,,,,-0.600967,-0.603062,373415.000000,1673606320.868062
1673606320.912614,,,,-0.598203,-0.599720,373416.000000,1673606320.869069
1673606320.912630,,,,-0.596880,-0.597701,373417.000000,1673606320.870076
1673606320.912656,,,,-0.594188,-0.597701,373418.000000,1673606320.871083
1673606320.913837,,,,-0.598779,-0.599311,373419.000000,1673606320.872091
1673606320.914002,,,,-0.600342,-0.600874,373421.000000,1673606320.874105
1673606320.914243,,,,-0.608275,-0.608976,373422.000000,1673606320.875112
1673606320.914260,,,,-0.611064,-0.612173,373423.000000,1673606320.876119
1673606320.914397,,,,-0.611016,-0.610707,373424.000000,1673606320.877126
1673606320.914661,,,,-0.606569,-0.604240,373425.000000,1673606320.878133
1673606320.914784,,,,-0.604525,-0.603639,373426.000000,1673606320.879140
1673606320.914896,,,,-0.603491,-0.605442,373427.000000,1673606320.880147
1673606320.914908,,,,-0.603900,-0.606115,373428.000000,1673606320.881154
1673606320.914914,,,,-0.606545,-0.605923,373429.000000,1673606320.882161
1673606320.914947,,,,-0.604717,-0.604793,373430.000000,1673606320.883168
1673606320.914952,,,,-0.605607,-0.606836,373431.000000,1673606320.884176
1673606320.914964,,,,-0.595197,-0.598782,373432.000000,1673606320.885183
1673606320.914970,,,,-0.584379,-0.585897,373433.000000,1673606320.886190
1673606320.914991,,,,-0.582720,-0.586161,373434.000000,1673606320.887197
1673606320.919538,,,,-0.593130,-0.593277,373435.000000,1673606320.888204
1673606320.919722,,,,-0.607146,-0.606644,373436.000000,1673606320.889211
1673606320.920049,,,,-0.622676,-0.623544,373437.000000,1673606320.890218
1673606320.920061,,,,-0.633927,-0.635565,373438.000000,1673606320.891225
1673606320.920185,,,,-0.636187,-0.638401,373439.000000,1673606320.892232
1673606320.920245,,,,-0.628037,-0.629386,373440.000000,1673606320.893239
1673606320.921982,,,,-0.623445,-0.626117,373441.000000,1673606320.894246
1673606320.922169,,,,-0.624767,-0.624554,373442.000000,1673606320.895253
1673606320.922312,,,,-0.623517,-0.622270,373443.000000,1673606320.896260
1673606320.922534,,,,-0.594188,-0.594840,373444.000000,1673606320.897268
1673606320.922651,,,,-0.570820,-0.575054,373445.000000,1673606320.898275
1673606320.922862,,,,-0.592409,-0.592412,373446.000000,1673606320.899282
1673606320.922869,,,,-0.603203,-0.600465,373447.000000,1673606320.900289
1673606320.926672,,,,-0.605487,-0.603831,373448.000000,1673606320.901296
1673606320.926944,,,,-0.600054,-0.598855,373449.000000,1673606320.902303
1673606320.926954,,,,-0.597385,-0.597532,373450.000000,1673606320.903310
1673606320.926958,,,,-0.613420,-0.615875,373451.000000,1673606320.904317
1673606320.929222,,,,-0.621305,-0.622222,373452.000000,1673606320.905324
1673606320.929229,,,,-0.616041,-0.614457,373453.000000,1673606320.906331
1673606320.929236,,,,-0.610103,-0.607966,373454.000000,1673606320.907338
1673606320.929240,,,,-0.608300,-0.609048,373455.000000,1673606320.908345
1673606320.943186,,,,-0.606905,-0.607726,373456.000000,1673606320.909353
1673606320.943372,,,,-0.608059,-0.607485,373457.000000,1673606320.910360
1673606320.943707,,,,-0.609574,-0.608567,373458.000000,1673606320.911367
1673606320.943939,,,,-0.603828,-0.604432,373459.000000,1673606320.912374
1673606320.954046,1.189925,917563.000000,1673606320.893557,,,,
1673606320.954058,1.171836,917564.000000,1673606320.894557,,,,
1673606320.954852,1.551723,917614.000000,1673606320.944557,,,,
1673606320.954867,1.551723,917615.000000,1673606320.945557,,,,
1673606320.954873,1.533634,917616.000000,1673606320.946557,,,,
1673606320.954877,1.569820,917617.000000,1673606320.947557,,,,
1673606320.954881,1.605998,917618.000000,1673606320.948557,,,,
1673606320.954925,1.605998,917619.000000,1673606320.949557,,,,
1673606320.954933,1.660266,917620.000000,1673606320.950557,,,,
1673606320.954983,1.660266,917621.000000,1673606320.951557,,,,
1673606320.955006,1.696444,917622.000000,1673606320.952557,,,,
1673606320.955013,1.696444,917623.000000,1673606320.953557,,,,
1673606320.957050,,,,-0.601448,-0.600393,373460.000000,1673606320.913381
1673606320.957176,,,,-0.597818,-0.599984,373461.000000,1673606320.914388
1673606320.957275,,,,-0.593971,-0.596883,373462.000000,1673606320.915395
1673606320.957378,,,,-0.589884,-0.593373,373463.000000,1673606320.916402
1673606320.957523,,,,-0.589452,-0.590320,373464.000000,1673606320.917409
1673606320.957619,,,,-0.596568,-0.597941,373465.000000,1673606320.918416
1673606320.964402,,,,-0.599380,-0.600033,373466.000000,1673606320.919423
1673606320.964594,,,,-0.602434,-0.601499,373467.000000,1673606320.920430
1673606320.964795,,,,-0.611930,-0.609769,373468.000000,1673606320.921438
1673606320.965057,,,,-0.630152,-0.631526,373469.000000,1673606320.922445
1673606320.965403,,,,-0.642798,-0.645109,373470.000000,1673606320.923452
1673606320.966961,,,,-0.646500,-0.646984,373471.000000,1673606320.924459
1673606320.966972,,,,-0.631739,-0.632319,373472.000000,1673606320.925466
1673606320.972410,,,,-0.602386,-0.603639,373473.000000,1673606320.926473
1673606320.972679,,,,-0.574955,-0.576689,373474.000000,1673606320.927480
1673606320.972690,,,,-0.574306,-0.574309,373475.000000,1673606320.928487
1673606320.972723,,,,-0.572070,-0.572843,373476.000000,1673606320.929494
1673606320.974672,,,,-0.577287,-0.578829,373477.000000,1673606320.930501
1673606320.974702,,,,-0.595414,-0.594070,373478.000000,1673606320.931508
1673606320.974717,,,,-0.611208,-0.611596,373479.000000,1673606320.932515
1673606320.975039,,,,-0.614550,-0.613808,373480.000000,1673606320.933522
1673606320.979923,,,,-0.610607,-0.610803,373481.000000,1673606320.934530
1673606320.980151,,,,-0.615223,-0.616188,373482.000000,1673606320.935537
1673606320.980383,,,,-0.633302,-0.633016,373483.000000,1673606320.936544
1673606320.980485,,,,-0.660876,-0.659461,373484.000000,1673606320.937551
1673606320.981652,,,,-0.648760,-0.647777,373485.000000,1673606320.938558
1673606320.982143,,,,-0.606497,-0.607076,373486.000000,1673606320.939565
1673606320.982270,,,,-0.610535,-0.614529,373487.000000,1673606320.940572
1673606320.986893,,,,-0.632701,-0.634459,373488.000000,1673606320.941579
1673606320.987497,,,,-0.646668,-0.646142,373489.000000,1673606320.942586
1673606320.987514,,,,-0.648808,-0.647537,373490.000000,1673606320.943593
1673606320.987536,,,,-0.639504,-0.638449,373491.000000,1673606320.944600
1673606320.989940,,,,-0.628734,-0.629146,373492.000000,1673606320.945607
1673606320.990288,,,,-0.630561,-0.630276,373493.000000,1673606320.946615
1673606320.990764,,,,-0.628446,-0.627319,373494.000000,1673606320.947622
1673606320.991157,,,,-0.624623,-0.621861,373495.000000,1673606320.948629
1673606320.991996,,,,-0.621690,-0.619505,373496.000000,1673606320.949636
1673606320.992021,,,,-0.614238,-0.613736,373497.000000,1673606320.950643
1673606320.992065,,,,-0.601736,-0.599167,373498.000000,1673606320.951650
1673606320.992120,,,,-0.594789,-0.594647,373499.000000,1673606320.952657
1673606320.992176,,,,-0.592697,-0.595128,373500.000000,1673606320.953664
1673606320.992187,,,,-0.593539,-0.595249,373501.000000,1673606320.954671
1673606320.992193,,,,-0.600943,-0.601355,373502.000000,1673606320.955678
1673606321.003033,,,,-0.605511,-0.605129,373503.000000,1673606320.956685
1673606321.003047,,,,-0.606689,-0.608447,373504.000000,1673606320.957692
1673606321.010769,,,,-0.605847,-0.606644,373505.000000,1673606320.958699
1673606321.011035,,,,-0.602794,-0.601643,373506.000000,1673606320.959707
1673606321.011085,,,,-0.604116,-0.603374,373507.000000,1673606320.960714
1673606321.011220,,,,-0.613468,-0.612365,373508.000000,1673606320.961721
1673606321.017109,,,,-0.621882,-0.623737,373509.000000,1673606320.962728
1673606321.017340,,,,-0.630441,-0.631357,373510.000000,1673606320.963735
1673606321.017909,,,,-0.639384,-0.637969,373511.000000,1673606320.964742
1673606321.017926,,,,-0.642413,-0.640685,373512.000000,1673606320.965749
1673606321.018188,,,,-0.634456,-0.631766,373513.000000,1673606320.966756
1673606321.018210,,,,-0.628157,-0.626549,373514.000000,1673606320.967763
1673606321.018573,,,,-0.624912,-0.625203,373515.000000,1673606320.968770
1673606321.018854,,,,-0.626041,-0.625395,373516.000000,1673606320.969777
1673606321.019863,,,,-0.631715,-0.630756,373517.000000,1673606320.970784
1673606321.020009,1.750719,917624.000000,1673606320.959044,,,,
1673606321.020334,,,,-0.632028,-0.630468,373518.000000,1673606320.971792
1673606321.020510,1.804986,917626.000000,1673606320.961044,,,,
1673606321.020622,,,,-0.623397,-0.624073,373519.000000,1673606320.972799
1673606321.020796,1.841164,917627.000000,1673606320.962044,,,,
1673606321.020827,1.823075,917628.000000,1673606320.963044,,,,
1673606321.020839,1.804986,917629.000000,1673606320.964044,,,,
1673606321.020848,1.823075,917630.000000,1673606320.965044,,,,
1673606321.021199,,,,-0.616618,-0.619626,373520.000000,1673606320.973806
1673606321.021808,,,,-0.614742,-0.617101,373521.000000,1673606320.974813
1673606321.022282,,,,-0.613661,-0.615130,373522.000000,1673606320.975820
1673606321.022337,,,,-0.605126,-0.607485,373523.000000,1673606320.976827
1673606321.022344,,,,-0.597241,-0.599191,373524.000000,1673606320.977834
1673606321.022351,,,,-0.599597,-0.600778,373525.000000,1673606320.978841
1673606321.022401,,,,-0.606857,-0.606956,373526.000000,1673606320.979848
1673606321.022908,1.804986,917631.000000,1673606320.966044,,,,
1673606321.022925,1.877351,917632.000000,1673606320.967044,,,,
1673606321.022953,1.877351,917633.000000,1673606320.968044,,,,
1673606321.022981,1.967796,917634.000000,1673606320.969044,,,,
1673606321.022989,1.949707,917635.000000,1673606320.970044,,,,
1673606321.023000,2.799942,917675.000000,1673606321.010044,,,,
1673606321.023015,2.818031,917676.000000,1673606321.011044,,,,
1673606321.023041,2.799942,917677.000000,1673606321.012044,,,,
1673606321.023056,2.836128,917678.000000,1673606321.013044,,,,
1673606321.023071,2.836128,917679.000000,1673606321.014044,,,,
1673606321.023084,2.890396,917680.000000,1673606321.015044,,,,
1673606321.023098,2.872307,917681.000000,1673606321.016044,,,,
1673606321.023104,2.926574,917682.000000,1673606321.017044,,,,
1673606321.023137,2.962760,917683.000000,1673606321.018044,,,,
1673606321.023144,2.980849,917684.000000,1673606321.019044,,,,
1673606321.024932,,,,-0.616233,-0.619770,373527.000000,1673606320.980855
1673606321.024953,,,,-0.628133,-0.630468,373528.000000,1673606320.981862
1673606321.024959,,,,-0.627412,-0.628136,373529.000000,1673606320.982869
1673606321.024964,,,,-0.626186,-0.625828,373530.000000,1673606320.983876
1673606321.025432,,,,-0.633734,-0.633233,373531.000000,1673606320.984884
1673606321.025442,,,,-0.633566,-0.635973,373532.000000,1673606320.985891
1673606321.025446,,,,-0.637124,-0.638594,373533.000000,1673606320.986898
1673606321.026781,,,,-0.624527,-0.623136,373534.000000,1673606320.987905
1673606321.026798,,,,-0.590341,-0.590128,373535.000000,1673606320.988912
1673606321.026804,,,,-0.597313,-0.599528,373536.000000,1673606320.989919
1673606321.026873,,,,-0.626763,-0.625107,373537.000000,1673606320.990926
1673606321.031900,,,,-0.631402,-0.631694,373538.000000,1673606320.991933
1673606321.031916,,,,-0.618204,-0.617438,373539.000000,1673606320.992940
1673606321.031922,,,,-0.612963,-0.613615,373540.000000,1673606320.993947
1673606321.031995,,,,-0.616089,-0.618736,373541.000000,1673606320.994954
1673606321.036130,,,,-0.612050,-0.612221,373542.000000,1673606320.995961
1673606321.036606,,,,-0.585774,-0.585248,373543.000000,1673606320.996969
1673606321.040007,,,,-0.561973,-0.563251,373544.000000,1673606320.997976
1673606321.040493,,,,-0.564113,-0.565679,373545.000000,1673606320.998983
1673606321.040822,,,,-0.568152,-0.569333,373546.000000,1673606320.999990
1673606321.041098,,,,-0.581206,-0.581353,373547.000000,1673606321.000997
1673606321.043931,,,,-0.602626,-0.600874,373548.000000,1673606321.002004
1673606321.044282,,,,-0.606497,-0.605778,373549.000000,1673606321.003011
1673606321.044504,,,,-0.611449,-0.612726,373550.000000,1673606321.004018
1673606321.045108,,,,-0.638038,-0.637896,373551.000000,1673606321.005025
1673606321.045118,,,,-0.670829,-0.671096,373552.000000,1673606321.006032
1673606321.045465,,,,-0.681022,-0.681482,373553.000000,1673606321.007039
1673606321.045488,,,,-0.673017,-0.674101,373554.000000,1673606321.008046
1673606321.047167,,,,-0.672392,-0.675616,373555.000000,1673606321.009053
1673606321.047979,,,,-0.674435,-0.674702,373556.000000,1673606321.010061
1673606321.048227,,,,-0.650851,-0.651840,373557.000000,1673606321.011068
1673606321.048256,,,,-0.591038,-0.590440,373558.000000,1673606321.012075
1673606321.048266,,,,-0.570436,-0.569669,373559.000000,1673606321.013082
1673606321.048392,,,,-0.593034,-0.593686,373560.000000,1673606321.014089
1673606321.048400,,,,-0.609333,-0.609529,373561.000000,1673606321.015096
1673606321.051316,,,,-0.625320,-0.624434,373562.000000,1673606321.016103
1673606321.051717,,,,-0.632100,-0.628881,373563.000000,1673606321.017110
1673606321.052019,,,,-0.628397,-0.627944,373564.000000,1673606321.018117
1673606321.052040,,,,-0.626210,-0.628064,373565.000000,1673606321.019124
1673606321.052275,,,,-0.622508,-0.622823,373566.000000,1673606321.020131
1673606321.055425,,,,-0.622892,-0.623544,373567.000000,1673606321.021138
1673606321.055964,,,,-0.625921,-0.627030,373568.000000,1673606321.022146
1673606321.055985,,,,-0.611136,-0.611452,373569.000000,1673606321.023153
1673606321.056306,,,,-0.587120,-0.590200,373570.000000,1673606321.024160
1673606321.056326,,,,-0.608251,-0.610394,373571.000000,1673606321.025167
1673606321.056506,,,,-0.626979,-0.629242,373572.000000,1673606321.026174
1673606321.056669,,,,-0.629768,-0.627222,373573.000000,1673606321.027181
1673606321.056833,,,,-0.624311,-0.621020,373574.000000,1673606321.028188
1673606321.057097,,,,-0.630369,-0.631069,373575.000000,1673606321.029195
1673606321.057434,,,,-0.627292,-0.626597,373576.000000,1673606321.030202
1673606321.057777,,,,-0.610511,-0.610202,373577.000000,1673606321.031209
1673606321.057950,,,,-0.599140,-0.598326,373578.000000,1673606321.032216
1673606321.057968,,,,-0.593491,-0.593421,373579.000000,1673606321.033223
1673606321.059335,,,,-0.601520,-0.603230,373580.000000,1673606321.034230
1673606321.059380,,,,-0.633061,-0.636598,373581.000000,1673606321.035238
1673606321.059466,,,,-0.658496,-0.659773,373582.000000,1673606321.036245
1673606321.059610,,,,-0.655804,-0.655590,373583.000000,1673606321.037252
1673606321.059741,,,,-0.643831,-0.644628,373584.000000,1673606321.038259
1673606321.059813,,,,-0.644841,-0.644459,373585.000000,1673606321.039266
1673606321.060198,,,,-0.638543,-0.635396,373586.000000,1673606321.040273
1673606321.060332,,,,-0.593779,-0.593349,373587.000000,1673606321.041280
1673606321.060339,,,,-0.575677,-0.575848,373588.000000,1673606321.042287
1673606321.060388,,,,-0.588923,-0.590200,373589.000000,1673606321.043294
1673606321.060514,,,,-0.597025,-0.598542,373590.000000,1673606321.044301
1673606321.060570,,,,-0.607699,-0.607197,373591.000000,1673606321.045308
1673606321.060590,,,,-0.616017,-0.616404,373592.000000,1673606321.046315
1673606321.060749,,,,-0.622483,-0.622390,373593.000000,1673606321.047323
1673606321.060793,,,,-0.629840,-0.627679,373594.000000,1673606321.048330
1673606321.060938,,,,-0.630657,-0.628977,373595.000000,1673606321.049337
1673606321.061009,,,,-0.635489,-0.634531,373596.000000,1673606321.050344
1673606321.061055,,,,-0.641283,-0.641743,373597.000000,1673606321.051351
1673606321.061064,,,,-0.621426,-0.622823,373598.000000,1673606321.052358
1673606321.061153,,,,-0.609237,-0.609288,373599.000000,1673606321.053365
1673606321.061271,,,,-0.620248,-0.617053,373600.000000,1673606321.054372
1673606321.061278,,,,-0.630609,-0.627799,373601.000000,1673606321.055379
1673606321.061408,,,,-0.624286,-0.626044,373602.000000,1673606321.056386
1673606321.061502,,,,-0.604309,-0.603230,373603.000000,1673606321.057393
1673606321.061582,,,,-0.597553,-0.595729,373604.000000,1673606321.058400
1673606321.061692,,,,-0.608756,-0.606548,373605.000000,1673606321.059407
1673606321.061799,,,,-0.618661,-0.620731,373606.000000,1673606321.060415
1673606321.062055,,,,-0.631114,-0.632992,373607.000000,1673606321.061422
1673606321.062064,,,,-0.643230,-0.644147,373608.000000,1673606321.062429
1673606321.087315,3.035116,917685.000000,1673606321.026415,,,,
1673606321.087609,3.071295,917686.000000,1673606321.027415,,,,
1673606321.087738,3.089384,917687.000000,1673606321.028414,,,,
1673606321.088933,3.089384,917688.000000,1673606321.029415,,,,
1673606321.088947,4.373789,917736.000000,1673606321.077415,,,,
1673606321.088960,4.355692,917737.000000,1673606321.078415,,,,
1673606321.088971,4.355692,917738.000000,1673606321.079415,,,,
1673606321.088977,4.391878,917739.000000,1673606321.080415,,,,
1673606321.089028,4.446145,917740.000000,1673606321.081414,,,,
1673606321.089035,4.482323,917741.000000,1673606321.082415,,,,
1673606321.089088,4.482323,917742.000000,1673606321.083415,,,,
1673606321.089098,4.518510,917743.000000,1673606321.084414,,,,
1673606321.089105,4.518510,917744.000000,1673606321.085415,,,,
1673606321.089112,4.590866,917745.000000,1673606321.086415,,,,
1673606321.092248,,,,-0.643880,-0.643690,373609.000000,1673606321.063436
1673606321.092515,,,,-0.639913,-0.639098,373610.000000,1673606321.064443
1673606321.092534,,,,-0.641884,-0.642560,373611.000000,1673606321.065450
1673606321.107595,,,,-0.653207,-0.655158,373612.000000,1673606321.066457
1673606321.107613,,,,-0.655900,-0.654028,373613.000000,1673606321.067464
1673606321.107863,,,,-0.618661,-0.617462,373614.000000,1673606321.068471
1673606321.107877,,,,-0.580749,-0.582603,373615.000000,1673606321.069478
1673606321.108107,,,,-0.594861,-0.597100,373616.000000,1673606321.070485
1673606321.108175,,,,-0.611858,-0.613640,373617.000000,1673606321.071492
1673606321.108402,,,,-0.616065,-0.615827,373618.000000,1673606321.072500
1673606321.109510,,,,-0.615223,-0.616452,373619.000000,1673606321.073507
1673606321.109916,,,,-0.617459,-0.617582,373620.000000,1673606321.074514
1673606321.109934,,,,-0.614790,-0.613640,373621.000000,1673606321.075521
1673606321.110148,,,,-0.609069,-0.608711,373622.000000,1673606321.076528
1673606321.110306,,,,-0.615055,-0.613519,373623.000000,1673606321.077535
1673606321.110529,,,,-0.619238,-0.617654,373624.000000,1673606321.078542
1673606321.110664,,,,-0.615536,-0.616909,373625.000000,1673606321.079549
1673606321.110868,,,,-0.622508,-0.623857,373626.000000,1673606321.080556
1673606321.114646,,,,-0.633710,-0.635348,373627.000000,1673606321.081563
1673606321.114753,,,,-0.641548,-0.641767,373628.000000,1673606321.082570
1673606321.114883,,,,-0.644072,-0.644219,373629.000000,1673606321.083577
1673606321.115056,,,,-0.645562,-0.645229,373630.000000,1673606321.084584
1673606321.115216,,,,-0.646452,-0.646575,373631.000000,1673606321.085592
1673606321.115270,,,,-0.653207,-0.654845,373632.000000,1673606321.086599
1673606321.115371,,,,-0.661117,-0.663235,373633.000000,1673606321.087606
1673606321.116543,,,,-0.658208,-0.658764,373634.000000,1673606321.088613
1673606321.116629,,,,-0.654001,-0.653835,373635.000000,1673606321.089620
1673606321.116781,,,,-0.646716,-0.643378,373636.000000,1673606321.090627
1673606321.138369,,,,-0.644841,-0.645493,373637.000000,1673606321.091634
1673606321.138574,,,,-0.653928,-0.653234,373638.000000,1673606321.092641
1673606321.138776,,,,-0.633037,-0.632343,373639.000000,1673606321.093648
1673606321.138978,,,,-0.599861,-0.602268,373640.000000,1673606321.094655
1673606321.142956,6.490333,917797.000000,1673606321.131881,,,,
1673606321.142974,6.544600,917798.000000,1673606321.132881,,,,
1673606321.142995,6.526511,917799.000000,1673606321.133881,,,,
1673606321.143005,6.616964,917800.000000,1673606321.134881,,,,
1673606321.143009,6.616964,917801.000000,1673606321.135880,,,,
1673606321.143016,6.707409,917802.000000,1673606321.136881,,,,
1673606321.143081,6.743596,917803.000000,1673606321.137881,,,,
1673606321.143090,6.779774,917804.000000,1673606321.138880,,,,
1673606321.143096,6.815952,917805.000000,1673606321.139881,,,,
1673606321.143121,6.815952,917806.000000,1673606321.140881,,,,
1673606321.144401,,,,-0.590630,-0.592195,373641.000000,1673606321.095662
1673606321.144582,,,,-0.592216,-0.591715,373642.000000,1673606321.096669
1673606321.144889,,,,-0.601424,-0.601235,373643.000000,1673606321.097677
1673606321.146877,,,,-0.642750,-0.644820,373644.000000,1673606321.098684
1673606321.146923,,,,-0.718525,-0.718697,373645.000000,1673606321.099691
1673606321.147125,,,,-0.692562,-0.694392,373646.000000,1673606321.100698
1673606321.151888,,,,-0.641115,-0.641070,373647.000000,1673606321.101705
1673606321.152160,,,,-0.649601,-0.648907,373648.000000,1673606321.102712
1673606321.152173,,,,-0.665829,-0.667707,373649.000000,1673606321.103719
1673606321.152373,,,,-0.661093,-0.663524,373650.000000,1673606321.104726
1673606321.154188,,,,-0.637821,-0.642007,373651.000000,1673606321.105733
1673606321.154307,,,,-0.618974,-0.620371,373652.000000,1673606321.106740
1673606321.154633,,,,-0.607242,-0.605346,373653.000000,1673606321.107747
1673606321.154693,,,,-0.610824,-0.608807,373654.000000,1673606321.108754
1673606321.159716,,,,-0.621522,-0.620948,373655.000000,1673606321.109761
1673606321.159865,,,,-0.631330,-0.633449,373656.000000,1673606321.110769
1673606321.160033,,,,-0.632100,-0.633978,373657.000000,1673606321.111776
1673606321.162174,,,,-0.630850,-0.631285,373658.000000,1673606321.112783
1673606321.162438,,,,-0.627845,-0.629723,373659.000000,1673606321.113790
1673606321.162647,,,,-0.628205,-0.629098,373660.000000,1673606321.114797
1673606321.163122,,,,-0.630777,-0.631934,373661.000000,1673606321.115804
1673606321.163356,,,,-0.640225,-0.639723,373662.000000,1673606321.116811
1673606321.163386,,,,-0.646332,-0.645686,373663.000000,1673606321.117818
1673606321.163637,,,,-0.652510,-0.650926,373664.000000,1673606321.118825
1673606321.163651,,,,-0.663737,-0.661793,373665.000000,1673606321.119832
1673606321.169384,,,,-0.663184,-0.663572,373666.000000,1673606321.120839
1673606321.169481,,,,-0.649529,-0.650229,373667.000000,1673606321.121846
1673606321.169621,,,,-0.608396,-0.608928,373668.000000,1673606321.122854
1673606321.174441,,,,-0.588346,-0.586762,373669.000000,1673606321.123861
1673606321.174452,,,,-0.609934,-0.609096,373670.000000,1673606321.124868
1673606321.174457,,,,-0.624912,-0.625636,373671.000000,1673606321.125875
1673606321.174488,,,,-0.637821,-0.639122,373672.000000,1673606321.126882
1673606321.190998,,,,-0.646043,-0.646743,373673.000000,1673606321.127889
1673606321.191713,,,,-0.650539,-0.651984,373674.000000,1673606321.128896
1673606321.191981,,,,-0.658664,-0.658139,373675.000000,1673606321.129903
1673606321.192009,,,,-0.670853,-0.670904,373676.000000,1673606321.130910
1673606321.198112,,,,-0.696072,-0.696339,373677.000000,1673606321.131917
1673606321.198128,,,,-0.725738,-0.725644,373678.000000,1673606321.132924
1673606321.204901,,,,-0.743672,-0.745430,373679.000000,1673606321.133931
1673606321.205079,,,,-0.736892,-0.740045,373680.000000,1673606321.134938
1673606321.205093,,,,-0.667271,-0.670784,373681.000000,1673606321.135946
1673606321.205178,,,,-0.658184,-0.660278,373682.000000,1673606321.136953
1673606321.205406,,,,-0.658136,-0.659100,373683.000000,1673606321.137960
1673606321.205669,,,,-0.663569,-0.663355,373684.000000,1673606321.138967
1673606321.205681,,,,-0.634167,-0.634988,373685.000000,1673606321.139974
1673606321.206014,,,,-0.625320,-0.625876,373686.000000,1673606321.140981
1673606321.208494,10.578698,917858.000000,1673606321.197467,,,,
1673606321.208524,10.705330,917859.000000,1673606321.198467,,,,
1673606321.208535,10.705330,917860.000000,1673606321.199467,,,,
1673606321.208544,10.777686,917861.000000,1673606321.200467,,,,
1673606321.208637,10.904318,917862.000000,1673606321.201467,,,,
1673606321.208648,10.958593,917863.000000,1673606321.202467,,,,
1673606321.208655,11.121403,917864.000000,1673606321.203467,,,,
1673606321.208706,11.193759,917865.000000,1673606321.204467,,,,
1673606321.208713,11.284213,917866.000000,1673606321.205467,,,,
1673606321.208738,11.374666,917867.000000,1673606321.206467,,,,
1673606321.212317,,,,-0.647798,-0.650950,373687.000000,1673606321.141988
1673606321.212805,,,,-0.663328,-0.663235,373688.000000,1673606321.142995
1673606321.213007,,,,-0.687153,-0.686290,373689.000000,1673606321.144002
1673606321.213160,,,,-0.682080,-0.683213,373690.000000,1673606321.145009
1673606321.213310,,,,-0.680902,-0.681987,373691.000000,1673606321.146016
1673606321.213321,,,,-0.692994,-0.693142,373692.000000,1673606321.147023
1673606321.213613,,,,-0.698980,-0.697661,373693.000000,1673606321.148031
1673606321.214228,,,,-0.697129,-0.697974,373694.000000,1673606321.149038
1673606321.214516,,,,-0.666021,-0.665206,373695.000000,1673606321.150045
1673606321.214685,,,,-0.591663,-0.590176,373696.000000,1673606321.151052
1673606321.214956,,,,-0.585149,-0.587556,373697.000000,1673606321.152059
1673606321.219838,,,,-0.620825,-0.621573,373698.000000,1673606321.153066
1673606321.219856,,,,-0.650322,-0.653739,373699.000000,1673606321.154073
1673606321.220406,,,,-0.684845,-0.689824,373700.000000,1673606321.155080
1673606321.220419,,,,-0.709053,-0.709657,373701.000000,1673606321.156087
1673606321.220490,,,,-0.730594,-0.729996,373702.000000,1673606321.157094
1673606321.220568,,,,-0.751293,-0.750839,373703.000000,1673606321.158101
1673606321.221565,,,,-0.756702,-0.757450,373704.000000,1673606321.159108
1673606321.221648,,,,-0.756101,-0.754974,373705.000000,1673606321.160115
1673606321.221809,,,,-0.740595,-0.739756,373706.000000,1673606321.161123
1673606321.221816,,,,-0.707755,-0.707854,373707.000000,1673606321.162130
1673606321.227474,,,,-0.651404,-0.650710,373708.000000,1673606321.163137
1673606321.227705,,,,-0.617026,-0.618664,373709.000000,1673606321.164144
1673606321.227795,,,,-0.601833,-0.604720,373710.000000,1673606321.165151
1673606321.227805,,,,-0.596544,-0.599095,373711.000000,1673606321.166158
1673606321.227861,,,,-0.581158,-0.581401,373712.000000,1673606321.167165
1673606321.228032,,,,-0.559113,-0.559308,373713.000000,1673606321.168172
1673606321.228068,,,,-0.574186,-0.573901,373714.000000,1673606321.169179
1673606321.228245,,,,-0.600558,-0.600393,373715.000000,1673606321.170186
1673606321.228407,,,,-0.607410,-0.607149,373716.000000,1673606321.171193
1673606321.228415,,,,-0.599092,-0.600586,373717.000000,1673606321.172200
1673606321.228420,,,,-0.605126,-0.606548,373718.000000,1673606321.173208
1673606321.230256,,,,-0.632292,-0.632632,373719.000000,1673606321.174215
1673606321.230270,,,,-0.647990,-0.648162,373720.000000,1673606321.175222
1673606321.230360,,,,-0.657054,-0.657850,373721.000000,1673606321.176229
1673606321.230660,,,,-0.645178,-0.644916,373722.000000,1673606321.177236
1673606321.230707,,,,-0.656188,-0.658716,373723.000000,1673606321.178243
1673606321.230806,,,,-0.705544,-0.706725,373724.000000,1673606321.179250
1673606321.230860,,,,-0.741845,-0.740381,373725.000000,1673606321.180257
1673606321.231247,,,,-0.770405,-0.769110,373726.000000,1673606321.181264
1673606321.231257,,,,-0.747062,-0.750358,373727.000000,1673606321.182271
1673606321.231268,,,,-0.668737,-0.670255,373728.000000,1673606321.183278
1673606321.231347,,,,-0.676358,-0.675905,373729.000000,1673606321.184285
1673606321.231354,,,,-0.677296,-0.677395,373730.000000,1673606321.185292
1673606321.231370,,,,-0.587577,-0.590344,373731.000000,1673606321.186300
1673606321.231374,,,,-0.559016,-0.559524,373732.000000,1673606321.187307
1673606321.231417,,,,-0.585725,-0.584142,373733.000000,1673606321.188314
1673606321.234737,,,,-0.580629,-0.580319,373734.000000,1673606321.189321
1673606321.234877,,,,-0.567887,-0.568780,373735.000000,1673606321.190328
1673606321.235015,,,,-0.560218,-0.559909,373736.000000,1673606321.191335
1673606321.235085,,,,-0.564906,-0.566833,373737.000000,1673606321.192342
1673606321.235205,,,,-0.573922,-0.575968,373738.000000,1673606321.193349
1673606321.235348,,,,-0.561036,-0.561472,373739.000000,1673606321.194356
1673606321.235578,,,,-0.551083,-0.552144,373740.000000,1673606321.195363
1673606321.235611,,,,-0.562622,-0.564164,373741.000000,1673606321.196370
1673606321.235622,,,,-0.600727,-0.602196,373742.000000,1673606321.197377
1673606321.235624,,,,-0.670925,-0.669221,373743.000000,1673606321.198385
1673606321.236683,,,,-0.711049,-0.709730,373744.000000,1673606321.199392
1673606321.236687,,,,-0.693740,-0.694776,373745.000000,1673606321.200399
1673606321.236743,,,,-0.670468,-0.673116,373746.000000,1673606321.201406
1673606321.236756,,,,-0.645610,-0.644988,373747.000000,1673606321.202413
1673606321.251463,,,,-0.626402,-0.625756,373748.000000,1673606321.203420
1673606321.252206,,,,-0.626258,-0.624289,373749.000000,1673606321.204427
1673606321.252722,,,,-0.630705,-0.629867,373750.000000,1673606321.205434
1673606321.253209,,,,-0.631042,-0.631117,373751.000000,1673606321.206441
1673606321.253434,,,,-0.628494,-0.629482,373752.000000,1673606321.207448
1673606321.253448,,,,-0.629479,-0.628977,373753.000000,1673606321.208455
1673606321.258778,,,,-0.628854,-0.629554,373754.000000,1673606321.209462
1673606321.258789,,,,-0.632484,-0.634194,373755.000000,1673606321.210469
1673606321.258802,,,,-0.635465,-0.635637,373756.000000,1673606321.211477
1673606321.258812,,,,-0.625873,-0.625540,373757.000000,1673606321.212484
1673606321.259009,,,,-0.612507,-0.613255,373758.000000,1673606321.213491
1673606321.259281,,,,-0.617098,-0.618039,373759.000000,1673606321.214498
1673606321.259287,,,,-0.633807,-0.634988,373760.000000,1673606321.215505
1673606321.261839,15.408765,917914.000000,1673606321.246274,,,,
1673606321.261940,15.517300,917915.000000,1673606321.247274,,,,
1673606321.262153,15.571575,917916.000000,1673606321.248274,,,,
1673606321.262164,15.607753,917917.000000,1673606321.249274,,,,
1673606321.262206,15.752474,917918.000000,1673606321.250274,,,,
1673606321.262212,15.842927,917919.000000,1673606321.251274,,,,
1673606321.262214,15.933372,917920.000000,1673606321.252275,,,,
1673606321.262221,16.078093,917921.000000,1673606321.253274,,,,
1673606321.262236,16.168547,917922.000000,1673606321.254274,,,,
1673606321.262258,16.240904,917923.000000,1673606321.255274,,,,
1673606321.262270,16.331356,917924.000000,1673606321.256274,,,,
1673606321.262280,16.421810,917925.000000,1673606321.257274,,,,
1673606321.262285,16.476078,917926.000000,1673606321.258274,,,,
1673606321.263502,16.530354,917927.000000,1673606321.259274,,,,
1673606321.263517,16.638887,917928.000000,1673606321.260274,,,,
1673606321.265109,,,,-0.658809,-0.656961,373761.000000,1673606321.216512
1673606321.265124,,,,-0.697322,-0.696820,373762.000000,1673606321.217519
1673606321.265134,,,,-0.725329,-0.724995,373763.000000,1673606321.218526
1673606321.265150,,,,-0.721170,-0.722207,373764.000000,1673606321.219533
1673606321.265161,,,,-0.712275,-0.712302,373765.000000,1673606321.220540
1673606321.265280,,,,-0.713261,-0.714898,373766.000000,1673606321.221547
1673606321.265315,,,,-0.729055,-0.731558,373767.000000,1673606321.222554
1673606321.265336,,,,-0.723454,-0.725284,373768.000000,1673606321.223562
1673606321.266737,,,,-0.686744,-0.683886,373769.000000,1673606321.224569
1673606321.266905,,,,-0.663449,-0.662802,373770.000000,1673606321.225576
1673606321.267197,,,,-0.646476,-0.645830,373771.000000,1673606321.226583
1673606321.274666,,,,-0.620176,-0.618664,373772.000000,1673606321.227590
1673606321.274676,,,,-0.609982,-0.607173,373773.000000,1673606321.228597
1673606321.274826,,,,-0.648255,-0.648017,373774.000000,1673606321.229604
1673606321.274977,,,,-0.681287,-0.681290,373775.000000,1673606321.230611
1673606321.275128,,,,-0.667632,-0.667274,373776.000000,1673606321.231618
1673606321.275203,,,,-0.634023,-0.634435,373777.000000,1673606321.232625
1673606321.275297,,,,-0.613468,-0.615298,373778.000000,1673606321.233632
1673606321.275414,,,,-0.575027,-0.574429,373779.000000,1673606321.234639
1673606321.275501,,,,-0.525720,-0.528560,373780.000000,1673606321.235646
1673606321.275698,,,,-0.543174,-0.544283,373781.000000,1673606321.236654
1673606321.275790,,,,-0.560339,-0.560678,373782.000000,1673606321.237661
1673606321.275799,,,,-0.577407,-0.575968,373783.000000,1673606321.238668
1673606321.275893,,,,-0.589428,-0.589815,373784.000000,1673606321.239675
1673606321.276367,,,,-0.595750,-0.596354,373785.000000,1673606321.240682
1673606321.276371,,,,-0.601857,-0.603206,373786.000000,1673606321.241689
1673606321.276639,,,,-0.608131,-0.609192,373787.000000,1673606321.242696
1673606321.276705,,,,-0.612098,-0.612606,373788.000000,1673606321.243703
1673606321.276711,,,,-0.624599,-0.624891,373789.000000,1673606321.244710
1673606321.276804,,,,-0.634985,-0.637800,373790.000000,1673606321.245717
1673606321.276816,,,,-0.647077,-0.647248,373791.000000,1673606321.246724
1673606321.276937,,,,-0.659097,-0.658571,373792.000000,1673606321.247731
1673606321.277046,,,,-0.671574,-0.669774,373793.000000,1673606321.248739
1673606321.277052,,,,-0.676022,-0.674943,373794.000000,1673606321.249746
1673606321.277072,,,,-0.670180,-0.670015,373795.000000,1673606321.250753
1673606321.277080,,,,-0.636595,-0.639026,373796.000000,1673606321.251760
1673606321.277179,,,,-0.615992,-0.615418,373797.000000,1673606321.252767
1673606321.277198,,,,-0.615103,-0.619578,373798.000000,1673606321.253774
1673606321.277206,,,,-0.625392,-0.629963,373799.000000,1673606321.254781
1673606321.277417,,,,-0.662679,-0.661456,373800.000000,1673606321.255788
1673606321.277556,,,,-0.683066,-0.681169,373801.000000,1673606321.256795
1673606321.277684,,,,-0.675156,-0.677443,373802.000000,1673606321.257802
1673606321.277875,,,,-0.693042,-0.696026,373803.000000,1673606321.258809
1673606321.278063,,,,-0.713116,-0.712807,373804.000000,1673606321.259816
1673606321.278075,,,,-0.710135,-0.710451,373805.000000,1673606321.260823
1673606321.278118,,,,-0.701312,-0.699873,373806.000000,1673606321.261831
1673606321.278153,,,,-0.657198,-0.657249,373807.000000,1673606321.262838
1673606321.282023,,,,-0.602265,-0.603302,373808.000000,1673606321.263845
1673606321.282237,,,,-0.611521,-0.613736,373809.000000,1673606321.264852
1673606321.282289,,,,-0.643351,-0.644099,373810.000000,1673606321.265859
1673606321.282397,,,,-0.654554,-0.654268,373811.000000,1673606321.266866
1673606321.282532,,,,-0.668473,-0.669341,373812.000000,1673606321.267873
1673606321.282614,,,,-0.694749,-0.695978,373813.000000,1673606321.268880
1673606321.282620,,,,-0.698067,-0.698911,373814.000000,1673606321.269887
1673606321.286824,,,,-0.710592,-0.711533,373815.000000,1673606321.270894
1673606321.287177,,,,-0.702899,-0.702325,373816.000000,1673606321.271901
1673606321.287389,,,,-0.652390,-0.652176,373817.000000,1673606321.272908
1673606321.289447,,,,-0.608011,-0.607701,373818.000000,1673606321.273916
1673606321.289734,,,,-0.626955,-0.621525,373819.000000,1673606321.274923
1673606321.289993,,,,-0.644240,-0.642777,373820.000000,1673606321.275930
1673606321.290249,,,,-0.658905,-0.658187,373821.000000,1673606321.276937
1673606321.294429,,,,-0.696937,-0.695738,373822.000000,1673606321.277944
1673606321.294703,,,,-0.677296,-0.678741,373823.000000,1673606321.278951
1673606321.294803,,,,-0.648111,-0.648306,373824.000000,1673606321.279958
1673606321.295156,,,,-0.647510,-0.647392,373825.000000,1673606321.280965
1673606321.311031,,,,-0.647534,-0.649508,373826.000000,1673606321.281972
1673606321.311958,,,,-0.649481,-0.647825,373827.000000,1673606321.282979
1673606321.312123,,,,-0.657414,-0.656648,373828.000000,1673606321.283986
1673606321.318096,,,,-0.674916,-0.674462,373829.000000,1673606321.284993
1673606321.318298,,,,-0.695951,-0.696988,373830.000000,1673606321.286000
1673606321.318605,,,,-0.711722,-0.712494,373831.000000,1673606321.287008
1673606321.324581,,,,-0.726771,-0.726798,373832.000000,1673606321.288015
1673606321.324594,,,,-0.741340,-0.742353,373833.000000,1673606321.289022
1673606321.324607,,,,-0.762351,-0.761898,373834.000000,1673606321.290029
1673606321.324760,,,,-0.741196,-0.738506,373835.000000,1673606321.291036
1673606321.324853,,,,-0.681623,-0.680232,373836.000000,1673606321.292043
1673606321.325715,20.799618,917980.000000,1673606321.315364,,,,
1673606321.325727,20.890072,917981.000000,1673606321.316364,,,,
1673606321.325736,20.962427,917982.000000,1673606321.317364,,,,
1673606321.325755,21.070971,917983.000000,1673606321.318364,,,,
1673606321.325758,21.089060,917984.000000,1673606321.319364,,,,
1673606321.325762,21.161423,917985.000000,1673606321.320364,,,,
1673606321.325785,21.269958,917986.000000,1673606321.321364,,,,
1673606321.325789,21.342321,917987.000000,1673606321.322364,,,,
1673606321.325807,21.396589,917988.000000,1673606321.323364,,,,
1673606321.325810,21.523222,917989.000000,1673606321.324364,,,,
1673606321.326606,,,,-0.625008,-0.624674,373837.000000,1673606321.293050
1673606321.326617,,,,-0.587360,-0.586570,373838.000000,1673606321.294057
1673606321.331915,,,,-0.565772,-0.566328,373839.000000,1673606321.295064
1673606321.332119,,,,-0.562574,-0.560149,373840.000000,1673606321.296071
1673606321.332296,,,,-0.592553,-0.587339,373841.000000,1673606321.297078
1673606321.332403,,,,-0.633013,-0.629987,373842.000000,1673606321.298085
1673606321.340666,,,,-0.645394,-0.642680,373843.000000,1673606321.299093
1673606321.340691,,,,-0.636018,-0.634050,373844.000000,1673606321.300100
1673606321.340700,,,,-0.653159,-0.652345,373845.000000,1673606321.301107
1673606321.340728,,,,-0.666430,-0.666577,373846.000000,1673606321.302114
1673606321.340909,,,,-0.668305,-0.668668,373847.000000,1673606321.303121
1673606321.341018,,,,-0.651476,-0.655302,373848.000000,1673606321.304128
1673606321.341038,,,,-0.641115,-0.643426,373849.000000,1673606321.305135
1673606321.341921,,,,-0.626522,-0.627391,373850.000000,1673606321.306142
1673606321.342229,,,,-0.619430,-0.619241,373851.000000,1673606321.307149
1673606321.342925,,,,-0.624479,-0.625419,373852.000000,1673606321.308156
1673606321.342954,,,,-0.639456,-0.639627,373853.000000,1673606321.309163
1673606321.346919,,,,-0.648399,-0.649340,373854.000000,1673606321.310170
1673606321.347218,,,,-0.661405,-0.661023,373855.000000,1673606321.311177
1673606321.347613,,,,-0.681767,-0.682203,373856.000000,1673606321.312185
1673606321.351255,,,,-0.687008,-0.686771,373857.000000,1673606321.313192
1673606321.351466,,,,-0.689316,-0.687997,373858.000000,1673606321.314199
1673606321.351711,,,,-0.678883,-0.678597,373859.000000,1673606321.315206
1673606321.351916,,,,-0.667247,-0.668115,373860.000000,1673606321.316213
1673606321.352164,,,,-0.663713,-0.665110,373861.000000,1673606321.317220
1673606321.354415,,,,-0.653664,-0.654148,373862.000000,1673606321.318227
1673606321.354710,,,,-0.642437,-0.645012,373863.000000,1673606321.319234
1673606321.354970,,,,-0.646476,-0.646142,373864.000000,1673606321.320241
1673606321.359221,,,,-0.650635,-0.649195,373865.000000,1673606321.321248
1673606321.359451,,,,-0.672632,-0.671794,373866.000000,1673606321.322255
1673606321.359473,,,,-0.684917,-0.683549,373867.000000,1673606321.323262
1673606321.359818,,,,-0.711385,-0.710691,373868.000000,1673606321.324270
1673606321.359833,,,,-0.745499,-0.745430,373869.000000,1673606321.325277
1673606321.359858,,,,-0.705544,-0.706172,373870.000000,1673606321.326284
1673606321.360182,,,,-0.654650,-0.656696,373871.000000,1673606321.327291
1673606321.378232,21.577496,917990.000000,1673606321.317436,,,,
1673606321.378399,21.631763,917991.000000,1673606321.318436,,,,
1673606321.379879,21.758396,917992.000000,1673606321.319436,,,,
1673606321.379895,21.686031,917993.000000,1673606321.320436,,,,
1673606321.379909,21.866938,917994.000000,1673606321.321436,,,,
1673606321.379926,21.921206,917995.000000,1673606321.322436,,,,
1673606321.379936,25.195522,918041.000000,1673606321.368436,,,,
1673606321.379976,25.340242,918042.000000,1673606321.369436,,,,
1673606321.380017,25.394510,918043.000000,1673606321.370436,,,,
1673606321.380024,25.557320,918044.000000,1673606321.371436,,,,
1673606321.380029,25.557320,918045.000000,1673606321.372436,,,,
1673606321.380044,25.702040,918046.000000,1673606321.373436,,,,
1673606321.380049,25.756315,918047.000000,1673606321.374436,,,,
1673606321.380111,25.810583,918048.000000,1673606321.375436,,,,
1673606321.380154,25.882940,918049.000000,1673606321.376436,,,,
1673606321.380159,25.919127,918050.000000,1673606321.377436,,,,
1673606321.380202,,,,-0.636667,-0.638954,373872.000000,1673606321.328298
1673606321.380206,,,,-0.656813,-0.659076,373873.000000,1673606321.329305
1673606321.380266,,,,-0.661718,-0.662177,373874.000000,1673606321.330312
1673606321.380489,,,,-0.658496,-0.659172,373875.000000,1673606321.331319
1673606321.380836,,,,-0.670637,-0.670976,373876.000000,1673606321.332326
1673606321.380995,,,,-0.698235,-0.696483,373877.000000,1673606321.333333
1673606321.381017,,,,-0.730978,-0.727904,373878.000000,1673606321.334340
1673606321.384487,,,,-0.705808,-0.703864,373879.000000,1673606321.335347
1673606321.384914,,,,-0.651020,-0.649941,373880.000000,1673606321.336354
1673606321.384931,,,,-0.642221,-0.645830,373881.000000,1673606321.337362
1673606321.385129,,,,-0.656140,-0.658932,373882.000000,1673606321.338369
1673606321.387074,,,,-0.682080,-0.683549,373883.000000,1673606321.339376
1673606321.387129,,,,-0.705063,-0.707518,373884.000000,1673606321.340383
1673606321.387348,,,,-0.725665,-0.724418,373885.000000,1673606321.341390
1673606321.387760,,,,-0.740234,-0.737665,373886.000000,1673606321.342397
1673606321.387776,,,,-0.739272,-0.739011,373887.000000,1673606321.343404
1673606321.387810,,,,-0.717564,-0.718408,373888.000000,1673606321.344411
1673606321.391943,,,,-0.732132,-0.731510,373889.000000,1673606321.345418
1673606321.392294,,,,-0.724656,-0.724707,373890.000000,1673606321.346425
1673606321.392389,,,,-0.729897,-0.732183,373891.000000,1673606321.347432
1673606321.392553,,,,-0.737013,-0.738506,373892.000000,1673606321.348439
1673606321.399700,,,,-0.692273,-0.690906,373893.000000,1673606321.349447
1673606321.400099,,,,-0.625969,-0.625660,373894.000000,1673606321.350454
1673606321.400448,,,,-0.597289,-0.596258,373895.000000,1673606321.351461
1673606321.401776,,,,-0.612531,-0.611957,373896.000000,1673606321.352468
1673606321.402024,,,,-0.616906,-0.616645,373897.000000,1673606321.353475
1673606321.402307,,,,-0.598034,-0.599816,373898.000000,1673606321.354482
1673606321.402575,,,,-0.581903,-0.584262,373899.000000,1673606321.355489
1673606321.414835,,,,-0.588586,-0.589142,373900.000000,1673606321.356496
1673606321.414846,,,,-0.596640,-0.596859,373901.000000,1673606321.357503
1673606321.414958,,,,-0.607410,-0.607125,373902.000000,1673606321.358510
1673606321.414963,,,,-0.617531,-0.616404,373903.000000,1673606321.359517
1673606321.438813,,,,-0.621041,-0.621741,373904.000000,1673606321.360524
1673606321.439037,,,,-0.642461,-0.640276,373905.000000,1673606321.361531
1673606321.439401,,,,-0.667535,-0.666024,373906.000000,1673606321.362539
1673606321.439678,,,,-0.680036,-0.680256,373907.000000,1673606321.363546
1673606321.439949,,,,-0.693740,-0.694151,373908.000000,1673606321.364553
1673606321.440294,,,,-0.724007,-0.725140,373909.000000,1673606321.365560
1673606321.440542,,,,-0.774083,-0.776682,373910.000000,1673606321.366567
1673606321.443757,25.991482,918051.000000,1673606321.382871,,,,
1673606321.444025,26.063847,918052.000000,1673606321.383871,,,,
1673606321.444039,26.136202,918053.000000,1673606321.384871,,,,
1673606321.444050,26.226656,918054.000000,1673606321.385871,,,,
1673606321.444203,26.317110,918055.000000,1673606321.386871,,,,
1673606321.444371,26.407555,918056.000000,1673606321.387871,,,,
1673606321.444384,26.443733,918057.000000,1673606321.388871,,,,
1673606321.444392,26.570364,918058.000000,1673606321.389871,,,,
1673606321.444419,26.552277,918059.000000,1673606321.390871,,,,
1673606321.444426,26.696997,918060.000000,1673606321.391871,,,,
1673606321.444867,,,,-0.776920,-0.779471,373911.000000,1673606321.367574
1673606321.444881,,,,-0.773290,-0.774327,373912.000000,1673606321.368581
1673606321.444911,,,,-0.813702,-0.814883,373913.000000,1673606321.369588
1673606321.445064,26.751272,918061.000000,1673606321.392871,,,,
1673606321.445082,26.805538,918062.000000,1673606321.393871,,,,
1673606321.445390,26.841717,918063.000000,1673606321.394871,,,,
1673606321.445511,26.914082,918064.000000,1673606321.395871,,,,
1673606321.445608,26.986439,918065.000000,1673606321.396871,,,,
1673606321.445714,28.288933,918085.000000,1673606321.416871,,,,
1673606321.446389,28.361288,918086.000000,1673606321.417871,,,,
1673606321.446398,28.343199,918087.000000,1673606321.418871,,,,
1673606321.446443,28.433653,918088.000000,1673606321.419871,,,,
1673606321.446450,28.506010,918089.000000,1673606321.420871,,,,
1673606321.446493,28.506010,918090.000000,1673606321.421871,,,,
1673606321.446507,28.578373,918091.000000,1673606321.422871,,,,
1673606321.446545,28.686916,918092.000000,1673606321.423871,,,,
1673606321.446553,28.741184,918093.000000,1673606321.424871,,,,
1673606321.446581,28.849726,918094.000000,1673606321.425871,,,,
1673606321.446588,29.320066,918102.000000,1673606321.433871,,,,
1673606321.446618,29.428610,918103.000000,1673606321.434871,,,,
1673606321.446624,29.482876,918104.000000,1673606321.435871,,,,
1673606321.446673,29.555241,918105.000000,1673606321.436871,,,,
1673606321.446681,29.627596,918106.000000,1673606321.437871,,,,
1673606321.446687,29.699961,918107.000000,1673606321.438871,,,,
1673606321.446711,29.736139,918108.000000,1673606321.439871,,,,
1673606321.446718,29.808504,918109.000000,1673606321.440871,,,,
1673606321.446743,29.862772,918110.000000,1673606321.441871,,,,
1673606321.446751,29.880859,918111.000000,1673606321.442871,,,,
1673606321.447047,,,,-0.866880,-0.864791,373914.000000,1673606321.370595
1673606321.447272,,,,-0.882987,-0.881812,373915.000000,1673606321.371602
1673606321.447521,,,,-0.864187,-0.863108,373916.000000,1673606321.372609
1673606321.447670,,,,-0.801585,-0.798920,373917.000000,1673606321.373616
1673606321.447930,,,,-0.736868,-0.736535,373918.000000,1673606321.374624
1673606321.448215,,,,-0.708597,-0.710835,373919.000000,1673606321.375631
1673606321.448489,,,,-0.699918,-0.698022,373920.000000,1673606321.376638
1673606321.454185,,,,-0.663352,-0.662586,373921.000000,1673606321.377645
1673606321.454334,,,,-0.626594,-0.625756,373922.000000,1673606321.378652
1673606321.454626,,,,-0.637028,-0.636574,373923.000000,1673606321.379659
1673606321.454674,,,,-0.674675,-0.674342,373924.000000,1673606321.380666
1673606321.459571,,,,-0.682705,-0.679775,373925.000000,1673606321.381673
1673606321.459587,,,,-0.641620,-0.640300,373926.000000,1673606321.382680
1673606321.459749,,,,-0.580437,-0.579478,373927.000000,1673606321.383687
1673606321.459761,,,,-0.559714,-0.559596,373928.000000,1673606321.384694
1673606321.469465,,,,-0.599597,-0.598927,373929.000000,1673606321.385701
1673606321.469709,,,,-0.637605,-0.635012,373930.000000,1673606321.386708
1673606321.469902,,,,-0.652294,-0.651720,373931.000000,1673606321.387716
1673606321.475351,,,,-0.648808,-0.648546,373932.000000,1673606321.388723
1673606321.475360,,,,-0.633254,-0.634338,373933.000000,1673606321.389730
1673606321.475601,,,,-0.641451,-0.642224,373934.000000,1673606321.390737
1673606321.475610,,,,-0.663473,-0.665231,373935.000000,1673606321.391744
1673606321.475615,,,,-0.670805,-0.672419,373936.000000,1673606321.392751
1673606321.475655,,,,-0.674219,-0.672972,373937.000000,1673606321.393758
1673606321.475668,,,,-0.671310,-0.669293,373938.000000,1673606321.394765
1673606321.475676,,,,-0.666670,-0.664702,373939.000000,1673606321.395772
1673606321.479923,,,,-0.653039,-0.651816,373940.000000,1673606321.396779
1673606321.480103,,,,-0.625633,-0.624458,373941.000000,1673606321.397786
1673606321.480245,,,,-0.620753,-0.619818,373942.000000,1673606321.398793
1673606321.480257,,,,-0.642293,-0.640421,373943.000000,1673606321.399801
1673606321.480383,,,,-0.661982,-0.661985,373944.000000,1673606321.400808
1673606321.480614,,,,-0.673449,-0.673236,373945.000000,1673606321.401815
1673606321.480720,,,,-0.694485,-0.696147,373946.000000,1673606321.402822
1673606321.480856,,,,-0.694389,-0.697036,373947.000000,1673606321.403829
1673606321.480989,,,,-0.681527,-0.683886,373948.000000,1673606321.404836
1673606321.481123,,,,-0.687297,-0.685857,373949.000000,1673606321.405843
1673606321.481141,,,,-0.716338,-0.715139,373950.000000,1673606321.406850
1673606321.481188,,,,-0.723694,-0.720981,373951.000000,1673606321.407857
1673606321.481321,,,,-0.717684,-0.719899,373952.000000,1673606321.408864
1673606321.481523,,,,-0.679796,-0.679511,373953.000000,1673606321.409871
1673606321.481759,,,,-0.626186,-0.625564,373954.000000,1673606321.410878
1673606321.482032,,,,-0.656260,-0.654965,373955.000000,1673606321.411885
1673606321.482195,,,,-0.640730,-0.639772,373956.000000,1673606321.412893
1673606321.482392,,,,-0.678137,-0.674558,373957.000000,1673606321.413900
1673606321.482888,,,,-0.710015,-0.706484,373958.000000,1673606321.414907
1673606321.482962,,,,-0.719679,-0.719057,373959.000000,1673606321.415914
1673606321.483139,,,,-0.719800,-0.721509,373960.000000,1673606321.416921
1673606321.483547,,,,-0.687513,-0.689103,373961.000000,1673606321.417928
1673606321.484005,,,,-0.677656,-0.679535,373962.000000,1673606321.418935
1673606321.484051,,,,-0.700639,-0.702950,373963.000000,1673606321.419942
1673606321.484084,,,,-0.735306,-0.732808,373964.000000,1673606321.420949
1673606321.484111,,,,-0.757495,-0.756200,373965.000000,1673606321.421956
1673606321.484301,,,,-0.722131,-0.721918,373966.000000,1673606321.422963
1673606321.484454,,,,-0.679003,-0.679727,373967.000000,1673606321.423970
1673606321.484463,,,,-0.648591,-0.648522,373968.000000,1673606321.424978
1673606321.484478,,,,-0.637340,-0.639820,373969.000000,1673606321.425985
1673606321.484559,,,,-0.658063,-0.660422,373970.000000,1673606321.426992
1673606321.484867,,,,-0.678137,-0.677203,373971.000000,1673606321.427999
1673606321.484876,,,,-0.679988,-0.680641,373972.000000,1673606321.429006
1673606321.484879,,,,-0.717083,-0.715932,373973.000000,1673606321.430013
1673606321.484906,,,,-0.736003,-0.734660,373974.000000,1673606321.431020
1673606321.484913,,,,-0.729416,-0.728433,373975.000000,1673606321.432027
1673606321.484919,,,,-0.733887,-0.734684,373976.000000,1673606321.433034
1673606321.485114,,,,-0.718213,-0.720307,373977.000000,1673606321.434041
1673606321.485194,,,,-0.699149,-0.698719,373978.000000,1673606321.435048
1673606321.485398,,,,-0.708621,-0.706075,373979.000000,1673606321.436055
1673606321.485408,,,,-0.695735,-0.695281,373980.000000,1673606321.437063
1673606321.485553,,,,-0.692994,-0.693646,373981.000000,1673606321.438070
1673606321.485564,,,,-0.687802,-0.688237,373982.000000,1673606321.439077
1673606321.498118,,,,-0.690662,-0.689584,373983.000000,1673606321.440084
1673606321.498133,,,,-0.707058,-0.707927,373984.000000,1673606321.441091
1673606321.498141,,,,-0.719920,-0.722687,373985.000000,1673606321.442098
1673606321.509279,29.971313,918112.000000,1673606321.448805,,,,
1673606321.511160,33.336075,918163.000000,1673606321.499804,,,,
1673606321.511184,33.426521,918164.000000,1673606321.500805,,,,
1673606321.511201,33.462708,918165.000000,1673606321.501805,,,,
1673606321.511210,33.571243,918166.000000,1673606321.502805,,,,
1673606321.511222,33.589340,918167.000000,1673606321.503804,,,,
1673606321.511233,33.715961,918168.000000,1673606321.504805,,,,
1673606321.511318,33.752148,918169.000000,1673606321.505805,,,,
1673606321.511330,33.860691,918170.000000,1673606321.506804,,,,
1673606321.511343,33.878780,918171.000000,1673606321.507805,,,,
1673606321.511351,33.987316,918172.000000,1673606321.508805,,,,
1673606321.512298,,,,-0.724824,-0.725116,373986.000000,1673606321.443105
1673606321.512933,,,,-0.645057,-0.643522,373987.000000,1673606321.444112
1673606321.512956,,,,-0.603540,-0.602990,373988.000000,1673606321.445119
1673606321.513178,,,,-0.651212,-0.649460,373989.000000,1673606321.446126
1673606321.513478,,,,-0.656429,-0.658042,373990.000000,1673606321.447133
1673606321.513489,,,,-0.645971,-0.648522,373991.000000,1673606321.448140
1673606321.514466,,,,-0.635153,-0.637560,373992.000000,1673606321.449147
1673606321.514637,,,,-0.615896,-0.618952,373993.000000,1673606321.450155
1673606321.515227,,,,-0.614117,-0.614818,373994.000000,1673606321.451162
1673606321.515242,,,,-0.641427,-0.642705,373995.000000,1673606321.452169
1673606321.515296,,,,-0.670420,-0.673957,373996.000000,1673606321.453176
1673606321.515677,,,,-0.680469,-0.681915,373997.000000,1673606321.454183
1673606321.515914,,,,-0.682849,-0.681722,373998.000000,1673606321.455190
1673606321.519754,,,,-0.697201,-0.694272,373999.000000,1673606321.456197
1673606321.519959,,,,-0.712708,-0.710523,374000.000000,1673606321.457204
1673606321.520442,,,,-0.765020,-0.763869,374001.000000,1673606321.458211
1673606321.520859,,,,-0.801826,-0.803127,374002.000000,1673606321.459218
1673606321.520962,,,,-0.790695,-0.790554,374003.000000,1673606321.460225
1673606321.520974,,,,-0.789349,-0.788583,374004.000000,1673606321.461232
1673606321.521013,,,,-0.780310,-0.781851,374005.000000,1673606321.462240
1673606321.521033,,,,-0.772569,-0.774158,374006.000000,1673606321.463247
1673606321.521965,,,,-0.783868,-0.784928,374007.000000,1673606321.464254
1673606321.522292,,,,-0.772520,-0.773605,374008.000000,1673606321.465261
1673606321.522590,,,,-0.752807,-0.754493,374009.000000,1673606321.466268
1673606321.522944,,,,-0.754226,-0.753507,374010.000000,1673606321.467275
1673606321.523063,,,,-0.760717,-0.759493,374011.000000,1673606321.468282
1673606321.523080,,,,-0.755836,-0.754036,374012.000000,1673606321.469289
1673606321.523085,,,,-0.752158,-0.752161,374013.000000,1673606321.470296
1673606321.527250,,,,-0.748167,-0.747954,374014.000000,1673606321.471303
1673606321.527427,,,,-0.654193,-0.653547,374015.000000,1673606321.472310
1673606321.527731,,,,-0.601953,-0.601427,374016.000000,1673606321.473317
1673606321.527963,,,,-0.579980,-0.580415,374017.000000,1673606321.474324
1673606321.527973,,,,-0.594981,-0.596691,374018.000000,1673606321.475332
1673606321.528410,,,,-0.618805,-0.621909,374019.000000,1673606321.476339
1673606321.528423,,,,-0.669795,-0.672226,374020.000000,1673606321.477346
1673606321.528428,,,,-0.728142,-0.727760,374021.000000,1673606321.478353
1673606321.529881,,,,-0.756005,-0.756296,374022.000000,1673606321.479360
1673606321.529897,,,,-0.777256,-0.775649,374023.000000,1673606321.480367
1673606321.529926,,,,-0.789469,-0.789953,374024.000000,1673606321.481374
1673606321.529935,,,,-0.773891,-0.772427,374025.000000,1673606321.482381
1673606321.529943,,,,-0.725762,-0.725308,374026.000000,1673606321.483388
1673606321.529956,,,,-0.666982,-0.668019,374027.000000,1673606321.484395
1673606321.534971,,,,-0.656381,-0.658451,374028.000000,1673606321.485402
1673606321.534993,,,,-0.636932,-0.638930,374029.000000,1673606321.486409
1673606321.535001,,,,-0.622123,-0.622510,374030.000000,1673606321.487417
1673606321.535558,,,,-0.622099,-0.619794,374031.000000,1673606321.488424
1673606321.535582,,,,-0.625296,-0.623640,374032.000000,1673606321.489431
1673606321.535618,,,,-0.626162,-0.624674,374033.000000,1673606321.490438
1673606321.535965,,,,-0.632653,-0.631958,374034.000000,1673606321.491445
1673606321.536026,,,,-0.642269,-0.642584,374035.000000,1673606321.492452
1673606321.537894,,,,-0.659410,-0.657009,374036.000000,1673606321.493459
1673606321.538059,,,,-0.680662,-0.682155,374037.000000,1673606321.494466
1673606321.538070,,,,-0.699413,-0.699224,374038.000000,1673606321.495473
1673606321.538075,,,,-0.712756,-0.711100,374039.000000,1673606321.496480
1673606321.538395,,,,-0.694605,-0.695017,374040.000000,1673606321.497487
1673606321.538886,,,,-0.640874,-0.641046,374041.000000,1673606321.498494
1673606321.538999,,,,-0.613108,-0.613279,374042.000000,1673606321.499501
1673606321.539187,,,,-0.623253,-0.620659,374043.000000,1673606321.500509
1673606321.539426,,,,-0.631090,-0.628208,374044.000000,1673606321.501516
1673606321.539446,,,,-0.661309,-0.662682,374045.000000,1673606321.502523
1673606321.542616,,,,-0.711409,-0.711893,374046.000000,1673606321.503530
1673606321.542777,,,,-0.780069,-0.782019,374047.000000,1673606321.504537
1673606321.542914,,,,-0.804038,-0.804401,374048.000000,1673606321.505544
1673606321.542929,,,,-0.760548,-0.761128,374049.000000,1673606321.506551
1673606321.543021,,,,-0.756029,-0.758724,374050.000000,1673606321.507558
1673606321.543192,,,,-0.753384,-0.753339,374051.000000,1673606321.508565
1673606321.543468,,,,-0.700928,-0.701339,374052.000000,1673606321.509572
1673606321.544173,,,,-0.698764,-0.700161,374053.000000,1673606321.510579
1673606321.544536,,,,-0.741220,-0.742569,374054.000000,1673606321.511586
1673606321.544652,,,,-0.768121,-0.768316,374055.000000,1673606321.512594
1673606321.544662,,,,-0.740643,-0.737232,374056.000000,1673606321.513601
1673606321.565644,,,,-0.675180,-0.672948,374057.000000,1673606321.514608
1673606321.566111,,,,-0.630369,-0.628593,374058.000000,1673606321.515615
1673606321.566309,,,,-0.654890,-0.655951,374059.000000,1673606321.516622
1673606321.566357,,,,-0.719247,-0.717711,374060.000000,1673606321.517629
1673606321.572462,,,,-0.773097,-0.771538,374061.000000,1673606321.518636
1673606321.572484,,,,-0.816996,-0.815820,374062.000000,1673606321.519643
1673606321.573044,,,,-0.826467,-0.826374,374063.000000,1673606321.520650
1673606321.573257,,,,-0.808125,-0.807286,374064.000000,1673606321.521657
1673606321.573276,,,,-0.733070,-0.731991,374065.000000,1673606321.522664
1673606321.573549,,,,-0.682056,-0.680665,374066.000000,1673606321.523671
1673606321.573844,,,,-0.713140,-0.716629,374067.000000,1673606321.524678
1673606321.575151,,,,-0.741652,-0.744108,374068.000000,1673606321.525686
1673606321.575314,,,,-0.735787,-0.734780,374069.000000,1673606321.526693
1673606321.575490,,,,-0.718141,-0.715692,374070.000000,1673606321.527700
1673606321.575831,34.059681,918173.000000,1673606321.514385,,,,
1673606321.575852,34.132034,918174.000000,1673606321.515384,,,,
1673606321.575921,34.204399,918175.000000,1673606321.516384,,,,
1673606321.575934,34.240578,918176.000000,1673606321.517385,,,,
1673606321.575942,34.204399,918177.000000,1673606321.518384,,,,
1673606321.576099,34.312943,918178.000000,1673606321.519384,,,,
1673606321.576273,,,,-0.686071,-0.685929,374071.000000,1673606321.528707
1673606321.576289,,,,-0.655972,-0.656913,374072.000000,1673606321.529714
1673606321.576394,,,,-0.624118,-0.623472,374073.000000,1673606321.530721
1673606321.578911,36.827469,918224.000000,1673606321.565384,,,,
1673606321.578936,36.845558,918225.000000,1673606321.566385,,,,
1673606321.578952,36.899826,918226.000000,1673606321.567384,,,,
1673606321.578968,36.954102,918227.000000,1673606321.568384,,,,
1673606321.578978,37.026459,918228.000000,1673606321.569384,,,,
1673606321.578992,37.044548,918229.000000,1673606321.570385,,,,
1673606321.578999,37.153091,918230.000000,1673606321.571384,,,,
1673606321.579008,37.189266,918231.000000,1673606321.572384,,,,
1673606321.579043,37.207355,918232.000000,1673606321.573385,,,,
1673606321.579141,37.279720,918233.000000,1673606321.574384,,,,
1673606321.579393,,,,-0.586711,-0.583228,374074.000000,1673606321.531728
1673606321.579738,,,,-0.596303,-0.594623,374075.000000,1673606321.532735
1673606321.579751,,,,-0.663785,-0.662682,374076.000000,1673606321.533742
1673606321.579965,,,,-0.719223,-0.720452,374077.000000,1673606321.534749
1673606321.586895,,,,-0.751533,-0.753411,374078.000000,1673606321.535756
1673606321.587071,,,,-0.785094,-0.786227,374079.000000,1673606321.536763
1673606321.587359,,,,-0.823727,-0.824451,374080.000000,1673606321.537771
1673606321.587366,,,,-0.842286,-0.845294,374081.000000,1673606321.538778
1673606321.594527,,,,-0.786272,-0.787212,374082.000000,1673606321.539785
1673606321.594704,,,,-0.697947,-0.696844,374083.000000,1673606321.540792
1673606321.594888,,,,-0.665276,-0.669750,374084.000000,1673606321.541799
1673606321.601915,,,,-0.682272,-0.685136,374085.000000,1673606321.542806
1673606321.602090,,,,-0.701865,-0.702517,374086.000000,1673606321.543813
1673606321.602350,,,,-0.636331,-0.635613,374087.000000,1673606321.544820
1673606321.602359,,,,-0.610968,-0.611596,374088.000000,1673606321.545827
1673606321.604685,,,,-0.622868,-0.623737,374089.000000,1673606321.546834
1673606321.604801,,,,-0.604237,-0.602966,374090.000000,1673606321.547841
1673606321.604868,,,,-0.617940,-0.615899,374091.000000,1673606321.548848
1673606321.605057,,,,-0.640249,-0.640589,374092.000000,1673606321.549855
1673606321.605155,,,,-0.629335,-0.631117,374093.000000,1673606321.550863
1673606321.605286,,,,-0.646356,-0.648066,374094.000000,1673606321.551870
1673606321.605683,,,,-0.679820,-0.680112,374095.000000,1673606321.552877
1673606321.605693,,,,-0.688835,-0.690257,374096.000000,1673606321.553884
1673606321.605731,,,,-0.689508,-0.693382,374097.000000,1673606321.554891
1673606321.605825,,,,-0.699413,-0.698527,374098.000000,1673606321.555898
1673606321.619798,,,,-0.702875,-0.699488,374099.000000,1673606321.556905
1673606321.619831,,,,-0.726771,-0.725957,374100.000000,1673606321.557912
1673606321.619840,,,,-0.743263,-0.745478,374101.000000,1673606321.558919
1673606321.619854,,,,-0.748047,-0.750623,374102.000000,1673606321.559926
1673606321.621217,37.297810,918234.000000,1673606321.560468,,,,
1673606321.621264,37.388264,918235.000000,1673606321.561468,,,,
1673606321.622725,39.450539,918285.000000,1673606321.611468,,,,
1673606321.622745,39.559074,918286.000000,1673606321.612468,,,,
1673606321.622753,39.540985,918287.000000,1673606321.613468,,,,
1673606321.622758,39.559074,918288.000000,1673606321.614468,,,,
1673606321.622762,39.595261,918289.000000,1673606321.615468,,,,
1673606321.622766,39.685707,918290.000000,1673606321.616468,,,,
1673606321.622778,39.667618,918291.000000,1673606321.617468,,,,
1673606321.622784,39.703796,918292.000000,1673606321.618468,,,,
1673606321.622798,39.721886,918293.000000,1673606321.619468,,,,
1673606321.622832,39.776161,918294.000000,1673606321.620468,,,,
1673606321.624385,,,,-0.752302,-0.753243,374103.000000,1673606321.560933
1673606321.624788,,,,-0.739056,-0.741391,374104.000000,1673606321.561940
1673606321.624798,,,,-0.735017,-0.734972,374105.000000,1673606321.562948
1673606321.627046,,,,-0.739441,-0.739011,374106.000000,1673606321.563955
1673606321.627257,,,,-0.740547,-0.740622,374107.000000,1673606321.564962
1673606321.627585,,,,-0.727060,-0.725476,374108.000000,1673606321.565969
1673606321.627659,,,,-0.724223,-0.720981,374109.000000,1673606321.566976
1673606321.627761,,,,-0.740811,-0.739035,374110.000000,1673606321.567983
1673606321.627778,,,,-0.735546,-0.736559,374111.000000,1673606321.568990
1673606321.627831,,,,-0.690662,-0.689848,374112.000000,1673606321.569997
1673606321.628010,,,,-0.676286,-0.679679,374113.000000,1673606321.571004
1673606321.635083,,,,-0.770477,-0.771249,374114.000000,1673606321.572011
1673606321.635565,,,,-0.833920,-0.833154,374115.000000,1673606321.573018
1673606321.635740,,,,-0.861278,-0.860344,374116.000000,1673606321.574025
1673606321.635844,,,,-0.873491,-0.872172,374117.000000,1673606321.575032
1673606321.636310,,,,-0.851494,-0.850198,374118.000000,1673606321.576040
1673606321.636322,,,,-0.796729,-0.794569,374119.000000,1673606321.577047
1673606321.637074,,,,-0.724968,-0.723264,374120.000000,1673606321.578054
1673606321.637098,,,,-0.662511,-0.663884,374121.000000,1673606321.579061
1673606321.637343,,,,-0.624311,-0.623785,374122.000000,1673606321.580068
1673606321.637494,,,,-0.613300,-0.613038,374123.000000,1673606321.581075
1673606321.639513,,,,-0.614454,-0.613014,374124.000000,1673606321.582082
1673606321.639810,,,,-0.627219,-0.628232,374125.000000,1673606321.583089
1673606321.640006,,,,-0.672656,-0.675111,374126.000000,1673606321.584096
1673606321.640217,,,,-0.712203,-0.713913,374127.000000,1673606321.585103
1673606321.642245,,,,-0.735186,-0.737737,374128.000000,1673606321.586110
1673606321.642538,,,,-0.730305,-0.731558,374129.000000,1673606321.587117
1673606321.642557,,,,-0.720473,-0.719875,374130.000000,1673606321.588125
1673606321.643197,,,,-0.745763,-0.746391,374131.000000,1673606321.589132
1673606321.643273,,,,-0.785983,-0.783606,374132.000000,1673606321.590139
1673606321.643352,,,,-0.870918,-0.871186,374133.000000,1673606321.591146
1673606321.643363,,,,-0.954580,-0.956770,374134.000000,1673606321.592153
1673606321.646832,,,,-0.924529,-0.921310,374135.000000,1673606321.593160
1673606321.647270,,,,-0.872265,-0.869431,374136.000000,1673606321.594167
1673606321.647447,,,,-0.751461,-0.751801,374137.000000,1673606321.595174
1673606321.647455,,,,-0.616545,-0.615370,374138.000000,1673606321.596181
1673606321.649265,,,,-0.627676,-0.627847,374139.000000,1673606321.597188
1673606321.649487,,,,-0.670589,-0.673188,374140.000000,1673606321.598195
1673606321.649492,,,,-0.690398,-0.692396,374141.000000,1673606321.599202
1673606321.654365,,,,-0.646524,-0.649099,374142.000000,1673606321.600209
1673606321.654744,,,,-0.643904,-0.646623,374143.000000,1673606321.601217
1673606321.654777,,,,-0.663352,-0.662298,374144.000000,1673606321.602224
1673606321.654875,,,,-0.660155,-0.659341,374145.000000,1673606321.603231
1673606321.664603,,,,-0.673329,-0.673957,374146.000000,1673606321.604238
1673606321.664755,,,,-0.683739,-0.682444,374147.000000,1673606321.605245
1673606321.664955,,,,-0.683330,-0.681794,374148.000000,1673606321.606252
1673606321.665022,,,,-0.677416,-0.675712,374149.000000,1673606321.607259
1673606321.665179,,,,-0.671478,-0.671770,374150.000000,1673606321.608266
1673606321.665393,,,,-0.666309,-0.666673,374151.000000,1673606321.609273
1673606321.665401,,,,-0.664578,-0.663980,374152.000000,1673606321.610280
1673606321.665535,,,,-0.680854,-0.679799,374153.000000,1673606321.611287
1673606321.665674,,,,-0.711193,-0.709297,374154.000000,1673606321.612294
1673606321.665781,,,,-0.726242,-0.727832,374155.000000,1673606321.613302
1673606321.665899,,,,-0.729127,-0.731294,374156.000000,1673606321.614309
1673606321.665994,,,,-0.739393,-0.737641,374157.000000,1673606321.615316
1673606321.666142,,,,-0.763433,-0.759974,374158.000000,1673606321.616323
1673606321.666453,,,,-0.739633,-0.737737,374159.000000,1673606321.617330
1673606321.666958,,,,-0.723766,-0.725140,374160.000000,1673606321.618337
1673606321.667175,,,,-0.761390,-0.762811,374161.000000,1673606321.619344
1673606321.667440,,,,-0.766751,-0.765335,374162.000000,1673606321.620351
1673606321.667789,,,,-0.762183,-0.760768,374163.000000,1673606321.621358
1673606321.667956,,,,-0.791008,-0.788823,374164.000000,1673606321.622365
1673606321.668773,,,,-0.816250,-0.817816,374165.000000,1673606321.623372
1673606321.668805,,,,-0.804542,-0.804569,374166.000000,1673606321.624379
1673606321.668891,,,,-0.717492,-0.716918,374167.000000,1673606321.625386
1673606321.669132,,,,-0.698980,-0.700354,374168.000000,1673606321.626394
1673606321.669424,,,,-0.757471,-0.757979,374169.000000,1673606321.627401
1673606321.669447,,,,-0.752663,-0.752594,374170.000000,1673606321.628408
1673606321.669454,,,,-0.733959,-0.733313,374171.000000,1673606321.629415
1673606321.669494,,,,-0.738383,-0.738963,374172.000000,1673606321.630422
1673606321.669792,,,,-0.772328,-0.773149,374173.000000,1673606321.631429
1673606321.670061,,,,-0.757543,-0.760022,374174.000000,1673606321.632436
1673606321.670836,,,,-0.720954,-0.724803,374175.000000,1673606321.633443
1673606321.670922,,,,-0.722228,-0.719610,374176.000000,1673606321.634450
1673606321.670929,,,,-0.753769,-0.752594,374177.000000,1673606321.635457
1673606321.671036,,,,-0.721386,-0.719803,374178.000000,1673606321.636464
1673606321.671047,,,,-0.698163,-0.699176,374179.000000,1673606321.637471
1673606321.671071,,,,-0.725281,-0.725909,374180.000000,1673606321.638479
1673606321.671110,,,,-0.740523,-0.743074,374181.000000,1673606321.639486
1673606321.679330,,,,-0.716915,-0.717374,374182.000000,1673606321.640493
1673606321.679492,,,,-0.694966,-0.694416,374183.000000,1673606321.641500
1673606321.679554,,,,-0.678498,-0.678958,374184.000000,1673606321.642507
1673606321.680325,,,,-0.688042,-0.692204,374185.000000,1673606321.643514
1673606321.680340,,,,-0.682489,-0.685473,374186.000000,1673606321.644521
1673606321.680348,,,,-0.662823,-0.665014,374187.000000,1673606321.645528
1673606321.680420,,,,-0.651573,-0.650830,374188.000000,1673606321.646535
1673606321.680604,,,,-0.655491,-0.653883,374189.000000,1673606321.647542
1673606321.680614,,,,-0.690302,-0.689367,374190.000000,1673606321.648549
1673606321.680737,,,,-0.712251,-0.714610,374191.000000,1673606321.649556
1673606321.681055,,,,-0.733479,-0.731558,374192.000000,1673606321.650563
1673606321.681071,,,,-0.765068,-0.763268,374193.000000,1673606321.651571
1673606321.681123,,,,-0.740258,-0.739780,374194.000000,1673606321.652578
1673606321.681137,,,,-0.720641,-0.720548,374195.000000,1673606321.653585
1673606321.681146,,,,-0.742109,-0.744324,374196.000000,1673606321.654592
1673606321.681155,,,,-0.766414,-0.767956,374197.000000,1673606321.655599
1673606321.681224,,,,-0.782281,-0.783221,374198.000000,1673606321.656606
1673606321.686003,,,,-0.793941,-0.794064,374199.000000,1673606321.657613
1673606321.686027,,,,-0.806898,-0.806781,374200.000000,1673606321.658620
1673606321.686288,,,,-0.807475,-0.805964,374201.000000,1673606321.659627
1673606321.686302,,,,-0.813317,-0.810652,374202.000000,1673606321.660634
1673606321.688529,41.494720,918346.000000,1673606321.676402,,,,
1673606321.688552,41.567085,918347.000000,1673606321.677402,,,,
1673606321.688567,41.567085,918348.000000,1673606321.678402,,,,
1673606321.688576,41.675617,918349.000000,1673606321.679402,,,,
1673606321.688591,41.693714,918350.000000,1673606321.680402,,,,
1673606321.688624,41.693714,918351.000000,1673606321.681402,,,,
1673606321.688657,41.747982,918352.000000,1673606321.682402,,,,
1673606321.688714,41.766071,918353.000000,1673606321.683402,,,,
1673606321.688730,41.838436,918354.000000,1673606321.684402,,,,
1673606321.688738,41.874615,918355.000000,1673606321.685402,,,,
1673606321.700187,,,,-0.848897,-0.849766,374203.000000,1673606321.661641
1673606321.700207,,,,-0.886593,-0.888447,374204.000000,1673606321.662648
1673606321.700489,,,,-0.878467,-0.881523,374205.000000,1673606321.663656
1673606321.700646,,,,-0.794085,-0.795338,374206.000000,1673606321.664663
1673606321.700814,,,,-0.751725,-0.752906,374207.000000,1673606321.665670
1673606321.700850,,,,-0.729272,-0.729275,374208.000000,1673606321.666677
1673606321.701020,,,,-0.704991,-0.706436,374209.000000,1673606321.667684
1673606321.701196,,,,-0.734825,-0.733770,374210.000000,1673606321.668691
1673606321.701279,,,,-0.748768,-0.747617,374211.000000,1673606321.669698
1673606321.701402,,,,-0.759394,-0.758796,374212.000000,1673606321.670705
1673606321.706843,,,,-0.754298,-0.757258,374213.000000,1673606321.671712
1673606321.706928,,,,-0.763000,-0.761994,374214.000000,1673606321.672719
1673606321.706971,,,,-0.752086,-0.748483,374215.000000,1673606321.673726
1673606321.707006,,,,-0.702442,-0.702085,374216.000000,1673606321.674733
1673606321.709082,,,,-0.660780,-0.659100,374217.000000,1673606321.675740
1673606321.709318,,,,-0.654073,-0.655446,374218.000000,1673606321.676748
1673606321.709333,,,,-0.691456,-0.693911,374219.000000,1673606321.677755
1673606321.709338,,,,-0.737085,-0.735741,374220.000000,1673606321.678762
1673606321.714746,,,,-0.735498,-0.732640,374221.000000,1673606321.679769
1673606321.714780,,,,-0.690999,-0.691315,374222.000000,1673606321.680776
1673606321.718357,,,,-0.674724,-0.676626,374223.000000,1673606321.681783
1673606321.718377,,,,-0.676623,-0.676842,374224.000000,1673606321.682790
1673606321.718540,,,,-0.644625,-0.644099,374225.000000,1673606321.683797
1673606321.718556,,,,-0.699053,-0.700570,374226.000000,1673606321.684804
1673606321.718880,,,,-0.779420,-0.779471,374227.000000,1673606321.685811
1673606321.719156,,,,-0.833511,-0.833130,374228.000000,1673606321.686818
1673606321.719557,,,,-0.865702,-0.866762,374229.000000,1673606321.687825
1673606321.719628,,,,-0.868250,-0.869960,374230.000000,1673606321.688833
1673606321.738567,,,,-0.833271,-0.834380,374231.000000,1673606321.689840
1673606321.738578,,,,-0.762928,-0.763917,374232.000000,1673606321.690847
1673606321.738594,,,,-0.664675,-0.664581,374233.000000,1673606321.691854
1673606321.738985,,,,-0.618180,-0.617390,374234.000000,1673606321.692861
1673606321.739057,,,,-0.660371,-0.660278,374235.000000,1673606321.693868
1673606321.739082,,,,-0.653880,-0.652826,374236.000000,1673606321.694875
1673606321.739164,,,,-0.639144,-0.636622,374237.000000,1673606321.695882
1673606321.751577,41.946972,918356.000000,1673606321.690876,,,,
1673606321.751911,42.254509,918363.000000,1673606321.697876,,,,
1673606321.752096,,,,-0.659265,-0.657970,374238.000000,1673606321.696889
1673606321.752108,,,,-0.694317,-0.691795,374239.000000,1673606321.697896
1673606321.752363,,,,-0.747062,-0.745189,374240.000000,1673606321.698903
1673606321.752448,42.308777,918364.000000,1673606321.698876,,,,
1673606321.752492,42.308777,918365.000000,1673606321.699876,,,,
1673606321.753365,42.326866,918366.000000,1673606321.700876,,,,
1673606321.753390,42.381134,918367.000000,1673606321.701876,,,,
1673606321.753402,42.435410,918368.000000,1673606321.702876,,,,
1673606321.753415,42.471584,918369.000000,1673606321.703876,,,,
1673606321.753447,42.543949,918370.000000,1673606321.704876,,,,
1673606321.753461,42.598217,918371.000000,1673606321.705876,,,,
1673606321.753469,42.652485,918372.000000,1673606321.706877,,,,
1673606321.753508,44.334866,918407.000000,1673606321.741876,,,,
1673606321.753518,44.425320,918408.000000,1673606321.742877,,,,
1673606321.753558,44.425320,918409.000000,1673606321.743876,,,,
1673606321.753568,44.425320,918410.000000,1673606321.744876,,,,
1673606321.753581,44.533863,918411.000000,1673606321.745876,,,,
1673606321.753599,44.533863,918412.000000,1673606321.746876,,,,
1673606321.753611,44.606220,918413.000000,1673606321.747876,,,,
1673606321.753634,44.642406,918414.000000,1673606321.748876,,,,
1673606321.753645,44.732849,918415.000000,1673606321.749876,,,,
1673606321.753713,44.841393,918416.000000,1673606321.750876,,,,
1673606321.754333,,,,-0.796729,-0.795723,374241.000000,1673606321.699910
1673606321.754589,,,,-0.825722,-0.826446,374242.000000,1673606321.700917
1673606321.755244,,,,-0.854667,-0.855872,374243.000000,1673606321.701925
1673606321.755263,,,,-0.879020,-0.876883,374244.000000,1673606321.702932
1673606321.759450,,,,-0.887843,-0.887173,374245.000000,1673606321.703939
1673606321.759522,,,,-0.873130,-0.873878,374246.000000,1673606321.704946
1673606321.759715,,,,-0.822453,-0.822023,374247.000000,1673606321.705953
1673606321.759974,,,,-0.695687,-0.694824,374248.000000,1673606321.706960
1673606321.761793,,,,-0.598371,-0.600345,374249.000000,1673606321.707967
1673606321.761894,,,,-0.582937,-0.583709,374250.000000,1673606321.708974
1673606321.762204,,,,-0.577792,-0.578564,374251.000000,1673606321.709981
1673606321.762426,,,,-0.613348,-0.613399,374252.000000,1673606321.710988
1673606321.766825,,,,-0.685566,-0.686651,374253.000000,1673606321.711995
1673606321.766903,,,,-0.742229,-0.742353,374254.000000,1673606321.713002
1673606321.769686,,,,-0.761991,-0.764133,374255.000000,1673606321.714010
1673606321.770177,,,,-0.766799,-0.768076,374256.000000,1673606321.715017
1673606321.771386,,,,-0.777136,-0.777476,374257.000000,1673606321.716024
1673606321.771484,,,,-0.764226,-0.764951,374258.000000,1673606321.717031
1673606321.771631,,,,-0.714390,-0.713095,374259.000000,1673606321.718038
1673606321.771654,,,,-0.666478,-0.666913,374260.000000,1673606321.719045
1673606321.771672,,,,-0.655924,-0.658523,374261.000000,1673606321.720052
1673606321.771700,,,,-0.661790,-0.663187,374262.000000,1673606321.721059
1673606321.774741,,,,-0.670012,-0.670664,374263.000000,1673606321.722066
1673606321.774975,,,,-0.716915,-0.715692,374264.000000,1673606321.723073
1673606321.775099,,,,-0.790911,-0.789448,374265.000000,1673606321.724080
1673606321.776833,,,,-0.855220,-0.854093,374266.000000,1673606321.725087
1673606321.777250,,,,-0.919937,-0.920950,374267.000000,1673606321.726094
1673606321.777265,,,,-0.946911,-0.947154,374268.000000,1673606321.727102
1673606321.777355,,,,-0.940540,-0.941384,374269.000000,1673606321.728109
1673606321.782542,,,,-0.893012,-0.890034,374270.000000,1673606321.729116
1673606321.782794,,,,-0.811394,-0.809426,374271.000000,1673606321.730123
1673606321.783322,,,,-0.722612,-0.722663,374272.000000,1673606321.731130
1673606321.783340,,,,-0.592986,-0.592941,374273.000000,1673606321.732137
1673606321.783419,,,,-0.651813,-0.654436,374274.000000,1673606321.733144
1673606321.783428,,,,-0.719511,-0.722399,374275.000000,1673606321.734151
1673606321.783648,,,,-0.716722,-0.716124,374276.000000,1673606321.735158
1673606321.783736,,,,-0.711986,-0.709657,374277.000000,1673606321.736165
1673606321.784424,,,,-0.707972,-0.710547,374278.000000,1673606321.737172
1673606321.784432,,,,-0.712371,-0.712446,374279.000000,1673606321.738179
1673606321.801808,,,,-0.669194,-0.667851,374280.000000,1673606321.739187
1673606321.801825,,,,-0.657366,-0.658956,374281.000000,1673606321.740194
1673606321.801886,,,,-0.725617,-0.726630,374282.000000,1673606321.741201
1673606321.802189,,,,-0.760380,-0.757979,374283.000000,1673606321.742208
1673606321.802196,,,,-0.767640,-0.764037,374284.000000,1673606321.743215
1673606321.802206,,,,-0.780622,-0.778822,374285.000000,1673606321.744222
1673606321.802569,,,,-0.780814,-0.779327,374286.000000,1673606321.745229
1673606321.802644,,,,-0.746797,-0.745983,374287.000000,1673606321.746236
1673606321.802777,,,,-0.778627,-0.777884,374288.000000,1673606321.747243
1673606321.802905,,,,-0.853080,-0.852242,374289.000000,1673606321.748250
1673606321.803022,,,,-0.920009,-0.920277,374290.000000,1673606321.749257
1673606321.806108,47.826260,918468.000000,1673606321.795595,,,,
1673606321.806124,47.898624,918469.000000,1673606321.796596,,,,
1673606321.806132,48.007168,918470.000000,1673606321.797596,,,,
1673606321.806137,48.025257,918471.000000,1673606321.798595,,,,
1673606321.806151,48.115700,918472.000000,1673606321.799595,,,,
1673606321.806157,48.115700,918473.000000,1673606321.800596,,,,
1673606321.806163,48.188065,918474.000000,1673606321.801595,,,,
1673606321.806166,48.314697,918475.000000,1673606321.802595,,,,
1673606321.806200,48.314697,918476.000000,1673606321.803596,,,,
1673606321.806206,48.350876,918477.000000,1673606321.804595,,,,
1673606321.812113,,,,-0.920370,-0.920854,374291.000000,1673606321.750264
1673606321.812267,,,,-0.888420,-0.888615,374292.000000,1673606321.751271
1673606321.812665,,,,-0.856230,-0.856016,374293.000000,1673606321.752279
1673606321.812924,,,,-0.809110,-0.811782,374294.000000,1673606321.753286
1673606321.813123,,,,-0.747542,-0.748507,374295.000000,1673606321.754293
1673606321.813141,,,,-0.690903,-0.687949,374296.000000,1673606321.755300
1673606321.813352,,,,-0.637124,-0.636286,374297.000000,1673606321.756307
1673606321.813701,,,,-0.580413,-0.579622,374298.000000,1673606321.757314
1673606321.816550,,,,-0.553078,-0.553057,374299.000000,1673606321.758321
1673606321.816567,,,,-0.547140,-0.545004,374300.000000,1673606321.759328
1673606321.816920,,,,-0.572383,-0.570102,374301.000000,1673606321.760335
1673606321.816931,,,,-0.633686,-0.629482,374302.000000,1673606321.761342
1673606321.817235,,,,-0.683883,-0.679054,374303.000000,1673606321.762349
1673606321.817554,,,,-0.726242,-0.724250,374304.000000,1673606321.763356
1673606321.819488,,,,-0.776367,-0.776394,374305.000000,1673606321.764364
1673606321.819749,,,,-0.814856,-0.815147,374306.000000,1673606321.765371
1673606321.819766,,,,-0.835002,-0.836327,374307.000000,1673606321.766378
1673606321.819800,,,,-0.808822,-0.807575,374308.000000,1673606321.767385
1673606321.824236,,,,-0.813870,-0.813104,374309.000000,1673606321.768392
1673606321.824336,,,,-0.826948,-0.827769,374310.000000,1673606321.769399
1673606321.824360,,,,-0.784228,-0.785025,374311.000000,1673606321.770406
1673606321.827237,,,,-0.792114,-0.793439,374312.000000,1673606321.771413
1673606321.827961,,,,-0.734272,-0.733554,374313.000000,1673606321.772420
1673606321.827982,,,,-0.672271,-0.671217,374314.000000,1673606321.773427
1673606321.827993,,,,-0.675517,-0.675352,374315.000000,1673606321.774434
1673606321.828009,,,,-0.689797,-0.690545,374316.000000,1673606321.775441
1673606321.828015,,,,-0.684652,-0.684150,374317.000000,1673606321.776448
1673606321.828197,,,,-0.647558,-0.646960,374318.000000,1673606321.777456
1673606321.828244,,,,-0.626017,-0.626669,374319.000000,1673606321.778463
1673606321.829597,,,,-0.659290,-0.660254,374320.000000,1673606321.779470
1673606321.829799,,,,-0.729824,-0.730284,374321.000000,1673606321.780477
1673606321.830030,,,,-0.792931,-0.792213,374322.000000,1673606321.781484
1673606321.830223,,,,-0.753480,-0.753772,374323.000000,1673606321.782491
1673606321.830430,,,,-0.708332,-0.709537,374324.000000,1673606321.783498
1673606321.830864,,,,-0.727300,-0.727111,374325.000000,1673606321.784505
1673606321.830987,,,,-0.747735,-0.745718,374326.000000,1673606321.785512
1673606321.835320,,,,-0.784589,-0.784616,374327.000000,1673606321.786519
1673606321.835342,,,,-0.878780,-0.880417,374328.000000,1673606321.787526
1673606321.836137,,,,-0.945612,-0.948164,374329.000000,1673606321.788533
1673606321.836163,,,,-0.969629,-0.971243,374330.000000,1673606321.789541
1673606321.836175,,,,-0.973836,-0.974849,374331.000000,1673606321.790548
1673606321.836308,,,,-0.987948,-0.988383,374332.000000,1673606321.791555
1673606321.836318,,,,-0.932318,-0.935326,374333.000000,1673606321.792562
1673606321.836344,,,,-0.768674,-0.772499,374334.000000,1673606321.793569
1673606321.836371,,,,-0.726170,-0.725668,374335.000000,1673606321.794576
1673606321.836378,,,,-0.717732,-0.718192,374336.000000,1673606321.795583
1673606321.841990,,,,-0.672896,-0.672827,374337.000000,1673606321.796590
1673606321.842134,,,,-0.626378,-0.628424,374338.000000,1673606321.797597
1673606321.842261,,,,-0.609766,-0.609721,374339.000000,1673606321.798604
1673606321.842417,,,,-0.628590,-0.628160,374340.000000,1673606321.799611
1673606321.842555,,,,-0.629527,-0.629434,374341.000000,1673606321.800618
1673606321.844335,,,,-0.585365,-0.585272,374342.000000,1673606321.801625
1673606321.844491,,,,-0.561372,-0.562409,374343.000000,1673606321.802633
1673606321.844676,,,,-0.584884,-0.583637,374344.000000,1673606321.803640
1673606321.844714,,,,-0.620079,-0.619097,374345.000000,1673606321.804647
1673606321.844719,,,,-0.657607,-0.657393,374346.000000,1673606321.805654
1673606321.844927,,,,-0.675517,-0.677203,374347.000000,1673606321.806661
1673606321.858401,,,,-0.683931,-0.684848,374348.000000,1673606321.807668
1673606321.859498,,,,-0.700856,-0.701147,374349.000000,1673606321.808675
1673606321.859526,,,,-0.671406,-0.673308,374350.000000,1673606321.809682
1673606321.859673,,,,-0.693451,-0.693670,374351.000000,1673606321.810689
1673606321.868629,,,,-0.741676,-0.738939,374352.000000,1673606321.811696
1673606321.868820,,,,-0.761846,-0.761200,374353.000000,1673606321.812703
1673606321.869177,,,,-0.769251,-0.770264,374354.000000,1673606321.813710
1673606321.869389,,,,-0.741412,-0.741511,374355.000000,1673606321.814718
1673606321.869859,,,,-0.672127,-0.672467,374356.000000,1673606321.815725
1673606321.869880,,,,-0.677007,-0.679607,374357.000000,1673606321.816732
1673606321.870220,48.459419,918478.000000,1673606321.808919,,,,
1673606321.870234,,,,-0.701409,-0.699705,374358.000000,1673606321.817739
1673606321.870409,48.477509,918479.000000,1673606321.809919,,,,
1673606321.870498,48.604137,918480.000000,1673606321.810919,,,,
1673606321.870511,,,,-0.707154,-0.706196,374359.000000,1673606321.818746
1673606321.871099,,,,-0.705495,-0.704152,374360.000000,1673606321.819753
1673606321.871605,,,,-0.718910,-0.719923,374361.000000,1673606321.820760
1673606321.871942,,,,-0.756293,-0.757594,374362.000000,1673606321.821767
1673606321.872024,,,,-0.787834,-0.787861,374363.000000,1673606321.822774
1673606321.872031,,,,-0.775261,-0.776995,374364.000000,1673606321.823781
1673606321.872264,,,,-0.779372,-0.779952,374365.000000,1673606321.824788
1673606321.872674,48.604137,918481.000000,1673606321.811919,,,,
1673606321.872692,48.676495,918482.000000,1673606321.812919,,,,
1673606321.872706,48.694592,918483.000000,1673606321.813919,,,,
1673606321.872720,48.766949,918484.000000,1673606321.814919,,,,
1673606321.872729,50.395061,918529.000000,1673606321.859919,,,,
1673606321.872740,50.376972,918530.000000,1673606321.860919,,,,
1673606321.872772,50.376972,918531.000000,1673606321.861919,,,,
1673606321.872787,50.395061,918532.000000,1673606321.862919,,,,
1673606321.872797,50.449329,918533.000000,1673606321.863919,,,,
1673606321.872803,50.431240,918534.000000,1673606321.864919,,,,
1673606321.872808,50.467419,918535.000000,1673606321.865919,,,,
1673606321.872883,50.521694,918536.000000,1673606321.866919,,,,
1673606321.872890,50.557873,918537.000000,1673606321.867919,,,,
1673606321.872908,50.575962,918538.000000,1673606321.868919,,,,
1673606321.873082,,,,-0.810673,-0.811133,374366.000000,1673606321.825795
1673606321.873487,,,,-0.846061,-0.846400,374367.000000,1673606321.826802
1673606321.873578,,,,-0.842238,-0.843563,374368.000000,1673606321.827810
1673606321.873598,,,,-0.790166,-0.789977,374369.000000,1673606321.828817
1673606321.873759,,,,-0.770333,-0.771225,374370.000000,1673606321.829824
1673606321.873770,,,,-0.795479,-0.796949,374371.000000,1673606321.830831
1673606321.874196,,,,-0.788892,-0.789015,374372.000000,1673606321.831838
1673606321.874373,,,,-0.767592,-0.768244,374373.000000,1673606321.832845
1673606321.874383,,,,-0.785983,-0.783654,374374.000000,1673606321.833852
1673606321.874497,,,,-0.776487,-0.775288,374375.000000,1673606321.834859
1673606321.874609,,,,-0.760116,-0.762787,374376.000000,1673606321.835866
1673606321.874618,,,,-0.748720,-0.750262,374377.000000,1673606321.836873
1673606321.875541,,,,-0.815553,-0.813897,374384.000000,1673606321.843923
1673606321.875599,,,,-0.793412,-0.793559,374385.000000,1673606321.844930
1673606321.875607,,,,-0.763049,-0.762426,374386.000000,1673606321.845937
1673606321.875633,,,,-0.776848,-0.777812,374387.000000,1673606321.846944
1673606321.875639,,,,-0.874957,-0.877605,374388.000000,1673606321.847951
1673606321.875656,,,,-0.961888,-0.962804,374389.000000,1673606321.848958
1673606321.875736,,,,-0.998838,-0.997423,374390.000000,1673606321.849965
1673606321.875744,,,,-0.985976,-0.982253,374391.000000,1673606321.850972
1673606321.875769,,,,-0.949459,-0.947563,374392.000000,1673606321.851979
1673606321.875913,,,,-0.777473,-0.780385,374393.000000,1673606321.852987
1673606321.879306,,,,-0.636114,-0.637536,374394.000000,1673606321.853994
1673606321.879497,,,,-0.604597,-0.606548,374395.000000,1673606321.855001
1673606321.879689,,,,-0.559762,-0.562553,374396.000000,1673606321.856008
1673606321.879860,,,,-0.514998,-0.514713,374397.000000,1673606321.857015
1673606321.886907,,,,-0.502786,-0.503341,374398.000000,1673606321.858022
1673606321.887150,,,,-0.558247,-0.560245,374399.000000,1673606321.859029
1673606321.887162,,,,-0.638254,-0.638449,374400.000000,1673606321.860036
1673606321.894869,,,,-0.664675,-0.664053,374401.000000,1673606321.861043
1673606321.894920,,,,-0.655611,-0.655085,374402.000000,1673606321.862050
1673606321.895087,,,,-0.642918,-0.643570,374403.000000,1673606321.863057
1673606321.895102,,,,-0.635225,-0.634915,374404.000000,1673606321.864064
