__time,/gdx/grip_force_stream/grip_force,/gdx/grip_force_stream/header/seq,/gdx/grip_force_stream/header/stamp,/shimmer0/emg_stream/emg_ch1,/shimmer0/emg_stream/emg_ch2,/shimmer0/emg_stream/header/seq,/shimmer0/emg_stream/header/stamp
1673606363.722224,,,,-0.824881,-0.828442,415810.000000,1673606363.664590
1673606363.722286,,,,-0.831901,-0.834620,415811.000000,1673606363.665597
1673606363.722406,,,,-0.836853,-0.837072,415812.000000,1673606363.666604
1673606363.722435,,,,-0.844137,-0.843107,415813.000000,1673606363.667611
1673606363.724700,-0.564820,960325.000000,1673606363.664774,,,,
1673606363.726293,-0.510545,960326.000000,1673606363.665774,,,,
1673606363.726309,-0.510545,960327.000000,1673606363.666774,,,,
1673606363.726323,-0.546731,960328.000000,1673606363.667774,,,,
1673606363.726332,-0.564820,960329.000000,1673606363.668774,,,,
1673606363.726337,-0.510545,960330.000000,1673606363.669774,,,,
1673606363.726352,-0.528634,960375.000000,1673606363.714774,,,,
1673606363.726366,-0.528634,960376.000000,1673606363.715774,,,,
1673606363.726465,-0.528634,960377.000000,1673606363.716774,,,,
1673606363.726503,-0.510545,960378.000000,1673606363.717774,,,,
1673606363.726513,-0.564820,960379.000000,1673606363.718774,,,,
1673606363.726525,-0.474367,960380.000000,1673606363.719774,,,,
1673606363.726534,-0.492456,960381.000000,1673606363.720774,,,,
1673606363.726542,-0.438189,960382.000000,1673606363.721774,,,,
1673606363.726552,-0.492456,960383.000000,1673606363.722774,,,,
1673606363.726564,-0.492456,960384.000000,1673606363.723774,,,,
1673606363.744832,,,,-0.845147,-0.845631,415814.000000,1673606363.668618
1673606363.745116,,,,-0.843296,-0.843683,415815.000000,1673606363.669625
1673606363.745476,,,,-0.844570,-0.844333,415816.000000,1673606363.670632
1673606363.747341,,,,-0.842839,-0.841904,415817.000000,1673606363.671639
1673606363.747726,,,,-0.835579,-0.836135,415818.000000,1673606363.672647
1673606363.748197,,,,-0.826516,-0.826615,415819.000000,1673606363.673654
1673606363.748399,,,,-0.819111,-0.820605,415820.000000,1673606363.674661
1673606363.748780,,,,-0.825097,-0.826398,415821.000000,1673606363.675668
1673606363.748840,,,,-0.830939,-0.829956,415822.000000,1673606363.676675
1673606363.748854,,,,-0.834112,-0.833610,415823.000000,1673606363.677682
1673606363.748869,,,,-0.831035,-0.831110,415824.000000,1673606363.678689
1673606363.752464,,,,-0.832117,-0.830894,415825.000000,1673606363.679696
1673606363.752645,,,,-0.833151,-0.831086,415826.000000,1673606363.680703
1673606363.753260,,,,-0.830699,-0.829956,415827.000000,1673606363.681710
1673606363.753272,,,,-0.830338,-0.829932,415828.000000,1673606363.682717
1673606363.753410,,,,-0.831155,-0.830966,415829.000000,1673606363.683724
1673606363.753415,,,,-0.834112,-0.833971,415830.000000,1673606363.684731
1673606363.754281,,,,-0.842142,-0.840150,415831.000000,1673606363.685739
1673606363.754408,,,,-0.842478,-0.842578,415832.000000,1673606363.686746
1673606363.754518,,,,-0.840748,-0.841183,415833.000000,1673606363.687753
1673606363.754631,,,,-0.841974,-0.843756,415834.000000,1673606363.688760
1673606363.776295,,,,-0.845123,-0.846352,415835.000000,1673606363.689767
1673606363.776317,,,,-0.848513,-0.846184,415836.000000,1673606363.690774
1673606363.776592,,,,-0.850292,-0.851929,415837.000000,1673606363.691781
1673606363.779423,-0.492456,960385.000000,1673606363.718404,,,,
1673606363.779719,-0.528634,960386.000000,1673606363.719404,,,,
1673606363.779741,-0.582909,960387.000000,1673606363.720404,,,,
1673606363.781244,-0.510545,960436.000000,1673606363.769404,,,,
1673606363.781277,-0.564820,960437.000000,1673606363.770404,,,,
1673606363.781311,-0.510545,960438.000000,1673606363.771404,,,,
1673606363.781325,-0.492456,960439.000000,1673606363.772404,,,,
1673606363.781355,-0.528634,960440.000000,1673606363.773404,,,,
1673606363.781373,-0.510545,960441.000000,1673606363.774404,,,,
1673606363.781378,-0.528634,960442.000000,1673606363.775404,,,,
1673606363.781416,-0.546731,960443.000000,1673606363.776404,,,,
1673606363.781428,-0.600999,960444.000000,1673606363.777404,,,,
1673606363.781441,-0.582909,960445.000000,1673606363.778404,,,,
1673606363.782086,,,,-0.856158,-0.857387,415838.000000,1673606363.692788
1673606363.782303,,,,-0.857720,-0.856064,415839.000000,1673606363.693795
1673606363.782573,,,,-0.850412,-0.849814,415840.000000,1673606363.694802
1673606363.782874,,,,-0.844666,-0.844453,415841.000000,1673606363.695809
1673606363.790034,,,,-0.839329,-0.839981,415842.000000,1673606363.696816
1673606363.790966,,,,-0.835723,-0.834187,415843.000000,1673606363.697824
1673606363.790979,,,,-0.828607,-0.826278,415844.000000,1673606363.698831
1673606363.791044,,,,-0.821972,-0.822360,415845.000000,1673606363.699838
1673606363.791062,,,,-0.825506,-0.826615,415846.000000,1673606363.700845
1673606363.791368,,,,-0.829256,-0.830726,415847.000000,1673606363.701852
1673606363.791383,,,,-0.829953,-0.829259,415848.000000,1673606363.702859
1673606363.791418,,,,-0.830675,-0.831807,415849.000000,1673606363.703866
1673606363.792189,,,,-0.834160,-0.835510,415850.000000,1673606363.704873
1673606363.792453,,,,-0.838055,-0.838467,415851.000000,1673606363.705880
1673606363.792895,,,,-0.835026,-0.837385,415852.000000,1673606363.706887
1673606363.792953,,,,-0.835627,-0.836255,415853.000000,1673606363.707894
1673606363.792962,,,,-0.834785,-0.833947,415854.000000,1673606363.708901
1673606363.792981,,,,-0.832478,-0.834067,415855.000000,1673606363.709908
1673606363.793000,,,,-0.831155,-0.833947,415856.000000,1673606363.710916
1673606363.804684,,,,-0.833800,-0.834764,415857.000000,1673606363.711923
1673606363.804694,,,,-0.833487,-0.834163,415858.000000,1673606363.712930
1673606363.804696,,,,-0.830458,-0.831303,415859.000000,1673606363.713937
1673606363.807101,,,,-0.829473,-0.829139,415860.000000,1673606363.714944
1673606363.807168,,,,-0.833776,-0.832408,415861.000000,1673606363.715951
1673606363.807232,,,,-0.842647,-0.841327,415862.000000,1673606363.716958
1673606363.807266,,,,-0.848873,-0.846640,415863.000000,1673606363.717965
1673606363.814833,,,,-0.854114,-0.854285,415864.000000,1673606363.718972
1673606363.814852,,,,-0.856494,-0.856425,415865.000000,1673606363.719979
1673606363.814892,,,,-0.848921,-0.850054,415866.000000,1673606363.720986
1673606363.837075,,,,-0.838800,-0.839188,415867.000000,1673606363.721993
1673606363.837365,,,,-0.828222,-0.827937,415868.000000,1673606363.723001
1673606363.837592,,,,-0.825818,-0.827023,415869.000000,1673606363.724008
1673606363.837834,,,,-0.829352,-0.829716,415870.000000,1673606363.725015
1673606363.839021,,,,-0.835314,-0.836495,415871.000000,1673606363.726022
1673606363.839037,,,,-0.837622,-0.836255,415872.000000,1673606363.727029
1673606363.839196,,,,-0.835795,-0.836039,415873.000000,1673606363.728036
1673606363.839211,,,,-0.834882,-0.833346,415874.000000,1673606363.729043
1673606363.839433,,,,-0.839570,-0.837433,415875.000000,1673606363.730050
1673606363.839770,,,,-0.845940,-0.846112,415876.000000,1673606363.731057
1673606363.839792,,,,-0.845844,-0.847987,415877.000000,1673606363.732064
1673606363.839824,,,,-0.843248,-0.847362,415878.000000,1673606363.733071
1673606363.839935,,,,-0.842839,-0.845727,415879.000000,1673606363.734078
1673606363.839946,,,,-0.842166,-0.843323,415880.000000,1673606363.735085
1673606363.839952,,,,-0.840074,-0.841231,415881.000000,1673606363.736093
1673606363.839964,,,,-0.838848,-0.840510,415882.000000,1673606363.737100
1673606363.839983,,,,-0.832838,-0.834187,415883.000000,1673606363.738107
1673606363.839999,,,,-0.828174,-0.823754,415884.000000,1673606363.739114
1673606363.842436,,,,-0.824424,-0.820605,415885.000000,1673606363.740121
1673606363.842452,,,,-0.828487,-0.827144,415886.000000,1673606363.741128
1673606363.842760,,,,-0.833223,-0.833009,415887.000000,1673606363.742135
1673606363.843025,,,,-0.833103,-0.833034,415888.000000,1673606363.743142
1673606363.843274,,,,-0.837069,-0.835101,415889.000000,1673606363.744149
1673606363.843490,,,,-0.836805,-0.837193,415890.000000,1673606363.745156
1673606363.843688,,,,-0.832333,-0.832240,415891.000000,1673606363.746163
1673606363.844850,,,,-0.834425,-0.833058,415892.000000,1673606363.747170
1673606363.844958,,,,-0.838488,-0.840150,415893.000000,1673606363.748178
1673606363.845042,,,,-0.840050,-0.841400,415894.000000,1673606363.749185
1673606363.845284,,,,-0.838800,-0.838395,415895.000000,1673606363.750192
1673606363.845484,,,,-0.835242,-0.834933,415896.000000,1673606363.751199
1673606363.845603,,,,-0.832502,-0.833130,415897.000000,1673606363.752206
1673606363.845718,,,,-0.835338,-0.833154,415898.000000,1673606363.753213
1673606363.845920,,,,-0.836156,-0.835173,415899.000000,1673606363.754220
1673606363.845981,,,,-0.836877,-0.836255,415900.000000,1673606363.755227
1673606363.846024,,,,-0.836348,-0.839573,415901.000000,1673606363.756234
1673606363.846766,-0.582909,960497.000000,1673606363.836030,,,,
1673606363.846773,-0.619088,960498.000000,1673606363.837030,,,,
1673606363.846776,-0.582909,960499.000000,1673606363.838030,,,,
1673606363.846803,-0.600999,960500.000000,1673606363.839030,,,,
1673606363.846809,-0.582909,960501.000000,1673606363.840030,,,,
1673606363.846817,-0.564820,960502.000000,1673606363.841030,,,,
1673606363.846824,-0.564820,960503.000000,1673606363.842030,,,,
1673606363.846915,-0.600999,960504.000000,1673606363.843030,,,,
1673606363.846921,-0.582909,960505.000000,1673606363.844030,,,,
1673606363.846928,-0.600999,960506.000000,1673606363.845030,,,,
1673606363.849698,,,,-0.841204,-0.838755,415902.000000,1673606363.757241
1673606363.849993,,,,-0.844137,-0.839933,415903.000000,1673606363.758248
1673606363.850003,,,,-0.842334,-0.839813,415904.000000,1673606363.759255
1673606363.850005,,,,-0.837526,-0.837457,415905.000000,1673606363.760262
1673606363.850189,,,,-0.836925,-0.836495,415906.000000,1673606363.761270
1673606363.850341,,,,-0.833271,-0.833274,415907.000000,1673606363.762277
1673606363.850483,,,,-0.834353,-0.833923,415908.000000,1673606363.763284
1673606363.850491,,,,-0.833415,-0.835053,415909.000000,1673606363.764291
1673606363.851750,,,,-0.837622,-0.836952,415910.000000,1673606363.765298
1673606363.851769,,,,-0.837286,-0.839092,415911.000000,1673606363.766305
1673606363.851796,,,,-0.836925,-0.837409,415912.000000,1673606363.767312
1673606363.856983,,,,-0.835939,-0.835702,415913.000000,1673606363.768319
1673606363.857023,,,,-0.838824,-0.838731,415914.000000,1673606363.769326
1673606363.857078,,,,-0.839065,-0.839188,415915.000000,1673606363.770333
1673606363.859305,,,,-0.833728,-0.835101,415916.000000,1673606363.771340
1673606363.859370,,,,-0.830843,-0.831928,415917.000000,1673606363.772347
1673606363.859529,,,,-0.834882,-0.834067,415918.000000,1673606363.773355
1673606363.859663,,,,-0.836516,-0.836543,415919.000000,1673606363.774362
1673606363.864918,,,,-0.839017,-0.839669,415920.000000,1673606363.775369
1673606363.865365,,,,-0.838969,-0.840991,415921.000000,1673606363.776376
1673606363.865586,,,,-0.835194,-0.837289,415922.000000,1673606363.777383
1673606363.866161,,,,-0.835963,-0.839332,415923.000000,1673606363.778390
1673606363.866300,,,,-0.838920,-0.839476,415924.000000,1673606363.779397
1673606363.866549,,,,-0.840002,-0.842505,415925.000000,1673606363.780404
1673606363.866575,,,,-0.836372,-0.838899,415926.000000,1673606363.781411
1673606363.868179,,,,-0.842863,-0.843107,415927.000000,1673606363.782418
1673606363.868196,,,,-0.841926,-0.843924,415928.000000,1673606363.783425
1673606363.869029,,,,-0.841829,-0.842385,415929.000000,1673606363.784432
1673606363.869049,,,,-0.842310,-0.841063,415930.000000,1673606363.785439
1673606363.869056,,,,-0.840675,-0.838875,415931.000000,1673606363.786447
1673606363.869285,,,,-0.839714,-0.838250,415932.000000,1673606363.787454
1673606363.869340,,,,-0.837887,-0.835990,415933.000000,1673606363.788461
1673606363.869356,,,,-0.834713,-0.833418,415934.000000,1673606363.789468
1673606363.869399,,,,-0.834136,-0.834284,415935.000000,1673606363.790475
1673606363.869408,,,,-0.833704,-0.835173,415936.000000,1673606363.791482
1673606363.870610,,,,-0.835362,-0.835966,415937.000000,1673606363.792489
1673606363.870658,,,,-0.839449,-0.838298,415938.000000,1673606363.793496
1673606363.870671,,,,-0.842767,-0.841207,415939.000000,1673606363.794503
1673606363.870678,,,,-0.842190,-0.841231,415940.000000,1673606363.795510
1673606363.875642,,,,-0.844810,-0.843876,415941.000000,1673606363.796517
1673606363.875655,,,,-0.847335,-0.845799,415942.000000,1673606363.797524
1673606363.875751,,,,-0.847527,-0.848804,415943.000000,1673606363.798532
1673606363.875853,,,,-0.844402,-0.844789,415944.000000,1673606363.799539
1673606363.876060,,,,-0.843320,-0.842818,415945.000000,1673606363.800546
1673606363.876282,,,,-0.841373,-0.842337,415946.000000,1673606363.801553
1673606363.876478,,,,-0.840411,-0.841664,415947.000000,1673606363.802560
1673606363.876611,,,,-0.833055,-0.834788,415948.000000,1673606363.803567
1673606363.876780,,,,-0.829545,-0.831687,415949.000000,1673606363.804574
1673606363.877107,,,,-0.833151,-0.835558,415950.000000,1673606363.805581
1673606363.877306,,,,-0.834737,-0.835173,415951.000000,1673606363.806588
1673606363.877318,,,,-0.836060,-0.834452,415952.000000,1673606363.807595
1673606363.877481,,,,-0.837526,-0.836303,415953.000000,1673606363.808602
1673606363.877703,,,,-0.835651,-0.835798,415954.000000,1673606363.809609
1673606363.877716,,,,-0.830771,-0.828850,415955.000000,1673606363.810616
1673606363.888195,,,,-0.823054,-0.824211,415956.000000,1673606363.811624
1673606363.888352,,,,-0.820289,-0.819378,415957.000000,1673606363.812631
1673606363.888733,,,,-0.816274,-0.815772,415958.000000,1673606363.813638
1673606363.888856,,,,-0.815914,-0.818874,415959.000000,1673606363.814645
1673606363.898723,-0.582909,960507.000000,1673606363.838178,,,,
1673606363.898739,-0.600999,960508.000000,1673606363.839178,,,,
1673606363.898744,-0.619088,960509.000000,1673606363.840178,,,,
1673606363.898764,-0.582909,960510.000000,1673606363.841178,,,,
1673606363.898870,-0.546731,960511.000000,1673606363.842178,,,,
1673606363.898903,-0.528634,960512.000000,1673606363.843178,,,,
1673606363.899772,-0.564820,960513.000000,1673606363.844178,,,,
1673606363.899784,-0.546731,960514.000000,1673606363.845178,,,,
1673606363.899788,-0.582909,960515.000000,1673606363.846178,,,,
1673606363.899799,-0.600999,960558.000000,1673606363.889178,,,,
1673606363.899805,-0.582909,960559.000000,1673606363.890178,,,,
1673606363.899810,-0.564820,960560.000000,1673606363.891178,,,,
1673606363.899828,-0.546731,960561.000000,1673606363.892178,,,,
1673606363.899844,-0.582909,960562.000000,1673606363.893178,,,,
1673606363.899853,-0.528634,960563.000000,1673606363.894178,,,,
1673606363.899857,-0.600999,960564.000000,1673606363.895178,,,,
1673606363.899860,-0.582909,960565.000000,1673606363.896178,,,,
1673606363.899884,-0.582909,960566.000000,1673606363.897178,,,,
1673606363.899898,-0.600999,960567.000000,1673606363.898178,,,,
1673606363.901911,,,,-0.827718,-0.827600,415960.000000,1673606363.815652
1673606363.902042,,,,-0.832309,-0.834284,415961.000000,1673606363.816659
1673606363.902187,,,,-0.836877,-0.838154,415962.000000,1673606363.817666
1673606363.904598,,,,-0.840579,-0.841183,415963.000000,1673606363.818673
1673606363.904753,,,,-0.842719,-0.843107,415964.000000,1673606363.819680
1673606363.904783,,,,-0.848176,-0.847314,415965.000000,1673606363.820687
1673606363.904917,,,,-0.841950,-0.842433,415966.000000,1673606363.821694
1673606363.905062,,,,-0.845892,-0.846088,415967.000000,1673606363.822701
1673606363.905231,,,,-0.856710,-0.858012,415968.000000,1673606363.823709
1673606363.905256,,,,-0.855388,-0.854862,415969.000000,1673606363.824716
1673606363.918484,,,,-0.846613,-0.847602,415970.000000,1673606363.825723
1673606363.918508,,,,-0.844882,-0.844164,415971.000000,1673606363.826730
1673606363.918521,,,,-0.842190,-0.841231,415972.000000,1673606363.827737
1673606363.918625,,,,-0.842695,-0.840606,415973.000000,1673606363.828744
1673606363.919009,,,,-0.842238,-0.841207,415974.000000,1673606363.829751
1673606363.919031,,,,-0.834617,-0.837938,415975.000000,1673606363.830758
1673606363.919128,,,,-0.831756,-0.832144,415976.000000,1673606363.831765
1673606363.919308,,,,-0.833704,-0.835101,415977.000000,1673606363.832772
1673606363.919405,,,,-0.839786,-0.843828,415978.000000,1673606363.833779
1673606363.919702,,,,-0.841445,-0.841664,415979.000000,1673606363.834786
1673606363.920054,,,,-0.838079,-0.836952,415980.000000,1673606363.835793
1673606363.920362,,,,-0.835723,-0.835966,415981.000000,1673606363.836801
1673606363.920789,,,,-0.836949,-0.837577,415982.000000,1673606363.837808
1673606363.920860,,,,-0.840219,-0.840991,415983.000000,1673606363.838815
1673606363.925691,,,,-0.841637,-0.841183,415984.000000,1673606363.839822
1673606363.925702,,,,-0.842166,-0.843155,415985.000000,1673606363.840829
1673606363.926052,,,,-0.840748,-0.840702,415986.000000,1673606363.841836
1673606363.926165,,,,-0.843128,-0.842674,415987.000000,1673606363.842843
1673606363.926433,,,,-0.842118,-0.841880,415988.000000,1673606363.843850
1673606363.926723,,,,-0.836949,-0.839789,415989.000000,1673606363.844857
1673606363.926952,,,,-0.829689,-0.829692,415990.000000,1673606363.845864
1673606363.927612,,,,-0.826636,-0.825653,415991.000000,1673606363.846871
1673606363.927626,,,,-0.828727,-0.828923,415992.000000,1673606363.847878
1673606363.927644,,,,-0.831997,-0.831399,415993.000000,1673606363.848886
1673606363.927658,,,,-0.833992,-0.834019,415994.000000,1673606363.849893
1673606363.927665,,,,-0.835387,-0.836063,415995.000000,1673606363.850900
1673606363.927922,,,,-0.836973,-0.838202,415996.000000,1673606363.851907
1673606363.927938,,,,-0.837141,-0.838971,415997.000000,1673606363.852914
1673606363.934937,,,,-0.838536,-0.841063,415998.000000,1673606363.853921
1673606363.935358,,,,-0.838007,-0.840174,415999.000000,1673606363.854928
1673606363.935510,,,,-0.839882,-0.840222,416000.000000,1673606363.855935
1673606363.935893,,,,-0.842406,-0.842866,416001.000000,1673606363.856942
1673606363.936246,,,,-0.842767,-0.845607,416002.000000,1673606363.857949
1673606363.936257,,,,-0.844450,-0.848203,416003.000000,1673606363.858956
1673606363.936727,,,,-0.846854,-0.849621,416004.000000,1673606363.859963
1673606363.937177,,,,-0.850219,-0.850607,416005.000000,1673606363.860970
1673606363.937562,,,,-0.852023,-0.852434,416006.000000,1673606363.861978
1673606363.938171,,,,-0.851061,-0.852170,416007.000000,1673606363.862985
1673606363.938294,,,,-0.847839,-0.849597,416008.000000,1673606363.863992
1673606363.938391,,,,-0.844306,-0.845222,416009.000000,1673606363.864999
1673606363.938682,,,,-0.842767,-0.843563,416010.000000,1673606363.866006
1673606363.939136,,,,-0.844089,-0.843395,416011.000000,1673606363.867013
1673606363.939152,,,,-0.846445,-0.845727,416012.000000,1673606363.868020
1673606363.939464,,,,-0.849234,-0.849718,416013.000000,1673606363.869027
1673606363.939711,,,,-0.850748,-0.852001,416014.000000,1673606363.870034
1673606363.939934,,,,-0.849498,-0.849333,416015.000000,1673606363.871041
1673606363.940217,,,,-0.849282,-0.847698,416016.000000,1673606363.872048
1673606363.940984,,,,-0.847359,-0.846400,416017.000000,1673606363.873055
1673606363.941084,,,,-0.842887,-0.843203,416018.000000,1673606363.874063
1673606363.941352,,,,-0.836781,-0.836591,416019.000000,1673606363.875070
1673606363.941367,,,,-0.837117,-0.836519,416020.000000,1673606363.876077
1673606363.941757,,,,-0.836829,-0.836952,416021.000000,1673606363.877084
1673606363.941987,,,,-0.829737,-0.831567,416022.000000,1673606363.878091
1673606363.942506,,,,-0.821972,-0.824740,416023.000000,1673606363.879098
1673606363.942653,,,,-0.816899,-0.815532,416024.000000,1673606363.880105
1673606363.942663,,,,-0.800576,-0.799305,416025.000000,1673606363.881112
1673606363.942676,,,,-0.791248,-0.790674,416026.000000,1673606363.882119
1673606363.942751,,,,-0.799109,-0.798511,416027.000000,1673606363.883126
1673606363.942768,,,,-0.808125,-0.808777,416028.000000,1673606363.884133
1673606363.942969,,,,-0.819640,-0.822432,416029.000000,1673606363.885140
1673606363.943216,,,,-0.828607,-0.830798,416030.000000,1673606363.886147
1673606363.943631,,,,-0.837887,-0.840726,416031.000000,1673606363.887155
1673606363.943644,,,,-0.851614,-0.854574,416032.000000,1673606363.888162
1673606363.943719,,,,-0.855797,-0.858829,416033.000000,1673606363.889169
1673606363.948146,,,,-0.850460,-0.851737,416034.000000,1673606363.890176
1673606363.948155,,,,-0.846950,-0.845006,416035.000000,1673606363.891183
1673606363.948159,,,,-0.843945,-0.844765,416036.000000,1673606363.892190
1673606363.955851,,,,-0.838031,-0.837000,416037.000000,1673606363.893197
1673606363.956033,,,,-0.833343,-0.835870,416038.000000,1673606363.894204
1673606363.956235,,,,-0.839882,-0.838443,416039.000000,1673606363.895211
1673606363.956366,,,,-0.840531,-0.838803,416040.000000,1673606363.896218
1673606363.956592,,,,-0.841276,-0.841376,416041.000000,1673606363.897225
1673606363.962665,-0.619088,960568.000000,1673606363.902045,,,,
1673606363.962742,-0.582909,960569.000000,1673606363.903045,,,,
1673606363.962894,-0.600999,960570.000000,1673606363.904045,,,,
1673606363.962906,-0.564820,960571.000000,1673606363.905045,,,,
1673606363.963042,-0.564820,960572.000000,1673606363.906045,,,,
1673606363.963191,-0.510545,960573.000000,1673606363.907045,,,,
1673606363.963228,-0.582909,960574.000000,1673606363.908045,,,,
1673606363.964198,-0.564820,960575.000000,1673606363.909045,,,,
1673606363.964208,-0.582909,960576.000000,1673606363.910045,,,,
1673606363.964215,-0.546731,960577.000000,1673606363.911045,,,,
1673606363.964220,-0.546731,960578.000000,1673606363.912045,,,,
1673606363.964260,-0.510545,960579.000000,1673606363.913045,,,,
1673606363.964270,-0.546731,960580.000000,1673606363.914045,,,,
1673606363.964279,-0.510545,960581.000000,1673606363.915045,,,,
1673606363.964317,-0.510545,960582.000000,1673606363.916045,,,,
1673606363.964324,-0.510545,960583.000000,1673606363.917045,,,,
1673606363.964348,-0.058294,960619.000000,1673606363.953045,,,,
1673606363.964354,-0.076383,960620.000000,1673606363.954045,,,,
1673606363.964420,-0.004027,960621.000000,1673606363.955045,,,,
1673606363.964425,0.014062,960622.000000,1673606363.956045,,,,
1673606363.964456,-0.004027,960623.000000,1673606363.957045,,,,
1673606363.964460,0.068338,960624.000000,1673606363.958045,,,,
1673606363.964464,0.122605,960625.000000,1673606363.959045,,,,
1673606363.964480,0.050249,960626.000000,1673606363.960045,,,,
1673606363.964490,0.068338,960627.000000,1673606363.961045,,,,
1673606363.964496,0.104516,960628.000000,1673606363.962045,,,,
1673606363.985250,,,,-0.832141,-0.832048,416042.000000,1673606363.898232
1673606363.985974,,,,-0.823054,-0.825052,416043.000000,1673606363.899240
1673606363.986030,,,,-0.820674,-0.824884,416044.000000,1673606363.900247
1673606363.986038,,,,-0.825217,-0.826350,416045.000000,1673606363.901254
1673606363.986070,,,,-0.827165,-0.827120,416046.000000,1673606363.902261
1673606363.986079,,,,-0.827213,-0.826591,416047.000000,1673606363.903268
1673606363.986800,,,,-0.825097,-0.821759,416048.000000,1673606363.904275
1673606363.987095,,,,-0.821251,-0.819330,416049.000000,1673606363.905282
1673606363.987570,,,,-0.822525,-0.823634,416050.000000,1673606363.906289
1673606363.987583,,,,-0.827982,-0.830245,416051.000000,1673606363.907296
1673606364.016098,,,,-0.831997,-0.832505,416052.000000,1673606363.908303
1673606364.016121,,,,-0.829376,-0.828057,416053.000000,1673606363.909310
1673606364.016133,,,,-0.824376,-0.825605,416054.000000,1673606363.910317
1673606364.019379,1.370824,960680.000000,1673606364.007956,,,,
1673606364.019409,1.370824,960681.000000,1673606364.008956,,,,
1673606364.019433,1.370824,960682.000000,1673606364.009956,,,,
1673606364.019458,1.479367,960683.000000,1673606364.010956,,,,
1673606364.019469,1.461278,960684.000000,1673606364.011955,,,,
1673606364.019478,1.479367,960685.000000,1673606364.012956,,,,
1673606364.019573,1.497456,960686.000000,1673606364.013956,,,,
1673606364.019603,1.533634,960687.000000,1673606364.014956,,,,
1673606364.019675,1.569820,960688.000000,1673606364.015956,,,,
1673606364.019685,1.551723,960689.000000,1673606364.016956,,,,
1673606364.029956,,,,-0.821323,-0.821927,416055.000000,1673606363.911325
1673606364.029977,,,,-0.821058,-0.823537,416056.000000,1673606363.912332
1673606364.029990,,,,-0.829232,-0.831928,416057.000000,1673606363.913339
1673606364.030009,,,,-0.835218,-0.835341,416058.000000,1673606363.914346
1673606364.032304,,,,-0.836564,-0.836063,416059.000000,1673606363.915353
1673606364.032545,,,,-0.834834,-0.836255,416060.000000,1673606363.916360
1673606364.032843,,,,-0.827718,-0.827648,416061.000000,1673606363.917367
1673606364.033050,,,,-0.819928,-0.818802,416062.000000,1673606363.918374
1673606364.037437,,,,-0.812957,-0.811854,416063.000000,1673606363.919381
1673606364.037484,,,,-0.816539,-0.814883,416064.000000,1673606363.920388
1673606364.037509,,,,-0.823727,-0.824379,416065.000000,1673606363.921395
1673606364.054868,,,,-0.825578,-0.826711,416066.000000,1673606363.922402
1673606364.054911,,,,-0.823895,-0.826110,416067.000000,1673606363.923409
1673606364.054922,,,,-0.821683,-0.820508,416068.000000,1673606363.924417
1673606364.082404,,,,-0.825722,-0.826158,416069.000000,1673606363.925424
1673606364.082416,3.378825,960732.000000,1673606364.062920,,,,
1673606364.082421,3.378825,960733.000000,1673606364.063920,,,,
1673606364.082765,,,,-0.826131,-0.828177,416070.000000,1673606363.926431
1673606364.082996,,,,-0.822357,-0.825004,416071.000000,1673606363.927438
1673606364.083003,3.505456,960734.000000,1673606364.064920,,,,
1673606364.083015,3.541643,960735.000000,1673606364.065920,,,,
1673606364.083097,3.668275,960736.000000,1673606364.066920,,,,
1673606364.083111,3.758720,960737.000000,1673606364.067920,,,,
1673606364.083116,3.831084,960738.000000,1673606364.068920,,,,
1673606364.083122,3.939627,960739.000000,1673606364.069920,,,,
1673606364.083140,4.048161,960740.000000,1673606364.070920,,,,
1673606364.083158,4.174793,960741.000000,1673606364.071920,,,,
1673606364.083163,4.229068,960742.000000,1673606364.072920,,,,
1673606364.083169,4.301425,960743.000000,1673606364.073920,,,,
1673606364.083174,4.409967,960744.000000,1673606364.074920,,,,
1673606364.083189,4.590866,960745.000000,1673606364.075920,,,,
1673606364.083198,4.645142,960746.000000,1673606364.076920,,,,
1673606364.083203,4.789862,960747.000000,1673606364.077920,,,,
1673606364.083210,4.880307,960748.000000,1673606364.078920,,,,
1673606364.083218,4.970761,960749.000000,1673606364.079920,,,,
1673606364.083222,5.043117,960750.000000,1673606364.080920,,,,
1673606364.083495,,,,-0.816370,-0.817311,416072.000000,1673606363.928445
1673606364.083629,,,,-0.813678,-0.813296,416073.000000,1673606363.929452
1673606364.083795,,,,-0.823126,-0.821085,416074.000000,1673606363.930459
1673606364.083802,,,,-0.830699,-0.832360,416075.000000,1673606363.931466
1673606364.084473,,,,-0.835819,-0.839260,416076.000000,1673606363.932473
1673606364.084546,,,,-0.835963,-0.839020,416077.000000,1673606363.933480
1673606364.084556,,,,-0.839834,-0.839092,416078.000000,1673606363.934487
1673606364.084576,,,,-0.840603,-0.841039,416079.000000,1673606363.935494
1673606364.108624,,,,-0.843801,-0.843443,416080.000000,1673606363.936502
1673606364.109088,,,,-0.845411,-0.845631,416081.000000,1673606363.937509
1673606364.109125,,,,-0.850075,-0.849790,416082.000000,1673606363.938516
1673606364.109433,,,,-0.851013,-0.852602,416083.000000,1673606363.939523
1673606364.110190,,,,-0.855124,-0.854333,416084.000000,1673606363.940530
1673606364.110208,,,,-0.859788,-0.857050,416085.000000,1673606363.941537
1673606364.110445,,,,-0.855629,-0.856906,416086.000000,1673606363.942544
1673606364.110986,,,,-0.846734,-0.848996,416087.000000,1673606363.943551
1673606364.111305,,,,-0.826275,-0.826999,416088.000000,1673606363.944558
1673606364.111660,,,,-0.802114,-0.802165,416089.000000,1673606363.945565
1673606364.111938,,,,-0.788387,-0.789039,416090.000000,1673606363.946572
1673606364.112272,,,,-0.796128,-0.795963,416091.000000,1673606363.947579
1673606364.112751,,,,-0.812524,-0.813416,416092.000000,1673606363.948586
1673606364.112856,,,,-0.821034,-0.822960,416093.000000,1673606363.949594
1673606364.114465,,,,-0.828102,-0.828923,416094.000000,1673606363.950601
1673606364.114935,,,,-0.829232,-0.829500,416095.000000,1673606363.951608
1673606364.114951,,,,-0.836949,-0.836015,416096.000000,1673606363.952615
1673606364.115054,,,,-0.844041,-0.845270,416097.000000,1673606363.953622
1673606364.135280,5.205935,960751.000000,1673606364.074727,,,,
1673606364.135292,5.350656,960752.000000,1673606364.075727,,,,
1673606364.135525,5.404923,960753.000000,1673606364.076727,,,,
1673606364.135534,5.513465,960754.000000,1673606364.077727,,,,
1673606364.135549,5.640097,960755.000000,1673606364.078727,,,,
1673606364.135559,5.748631,960756.000000,1673606364.079727,,,,
1673606364.135581,5.911449,960757.000000,1673606364.080727,,,,
1673606364.136467,5.983806,960758.000000,1673606364.081727,,,,
1673606364.136481,6.128527,960759.000000,1673606364.082727,,,,
1673606364.136485,6.218980,960760.000000,1673606364.083727,,,,
1673606364.136489,12.188724,960802.000000,1673606364.125727,,,,
1673606364.136496,12.333445,960803.000000,1673606364.126727,,,,
1673606364.136514,12.496254,960804.000000,1673606364.127727,,,,
1673606364.136527,12.695242,960805.000000,1673606364.128727,,,,
1673606364.136532,12.894238,960806.000000,1673606364.129727,,,,
1673606364.136536,13.111315,960807.000000,1673606364.130727,,,,
1673606364.136540,13.310311,960808.000000,1673606364.131727,,,,
1673606364.136545,13.545477,960809.000000,1673606364.132727,,,,
1673606364.136549,13.744473,960810.000000,1673606364.133727,,,,
1673606364.136552,13.943460,960811.000000,1673606364.134727,,,,
1673606364.137197,,,,-0.848080,-0.847674,416098.000000,1673606363.954629
1673606364.137304,,,,-0.849667,-0.848636,416099.000000,1673606363.955636
1673606364.137381,,,,-0.845676,-0.847482,416100.000000,1673606363.956643
1673606364.137618,,,,-0.838103,-0.837337,416101.000000,1673606363.957650
1673606364.137687,,,,-0.832045,-0.832216,416102.000000,1673606363.958657
1673606364.137763,,,,-0.834713,-0.835053,416103.000000,1673606363.959664
1673606364.137897,,,,-0.839521,-0.841352,416104.000000,1673606363.960671
1673606364.137992,,,,-0.845435,-0.841376,416105.000000,1673606363.961679
1673606364.138303,,,,-0.840868,-0.838899,416106.000000,1673606363.962686
1673606364.138307,,,,-0.841012,-0.839428,416107.000000,1673606363.963693
1673606364.138427,,,,-0.840651,-0.838515,416108.000000,1673606363.964700
1673606364.138433,,,,-0.842959,-0.840678,416109.000000,1673606363.965707
1673606364.138446,,,,-0.843681,-0.841063,416110.000000,1673606363.966714
1673606364.138686,,,,-0.838392,-0.840053,416111.000000,1673606363.967721
1673606364.138698,,,,-0.835387,-0.836567,416112.000000,1673606363.968728
1673606364.138703,,,,-0.835771,-0.833250,416113.000000,1673606363.969735
1673606364.138938,,,,-0.847431,-0.844645,416114.000000,1673606363.970742
1673606364.138949,,,,-0.864283,-0.862675,416115.000000,1673606363.971749
1673606364.138952,,,,-0.869548,-0.865921,416116.000000,1673606363.972756
1673606364.138956,,,,-0.863875,-0.860007,416117.000000,1673606363.973763
1673606364.138978,,,,-0.839353,-0.840029,416118.000000,1673606363.974771
1673606364.138982,,,,-0.824208,-0.825701,416119.000000,1673606363.975778
1673606364.165116,,,,-0.835194,-0.836760,416120.000000,1673606363.976785
1673606364.165143,,,,-0.846301,-0.846544,416121.000000,1673606363.977792
1673606364.165576,,,,-0.850917,-0.850896,416122.000000,1673606363.978799
1673606364.167714,,,,-0.844858,-0.846496,416123.000000,1673606363.979806
1673606364.168421,,,,-0.816322,-0.816926,416124.000000,1673606363.980813
1673606364.168629,,,,-0.790359,-0.793703,416125.000000,1673606363.981820
1673606364.168652,,,,-0.799806,-0.803295,416126.000000,1673606363.982827
1673606364.168664,,,,-0.816298,-0.818273,416127.000000,1673606363.983834
1673606364.169250,,,,-0.823534,-0.826086,416128.000000,1673606363.984841
1673606364.169598,,,,-0.824977,-0.828225,416129.000000,1673606363.985848
1673606364.182461,,,,-0.827165,-0.828177,416130.000000,1673606363.986856
1673606364.182474,,,,-0.834497,-0.835726,416131.000000,1673606363.987863
1673606364.182526,,,,-0.832213,-0.833779,416132.000000,1673606363.988870
1673606364.182534,,,,-0.824977,-0.828923,416133.000000,1673606363.989877
1673606364.182691,,,,-0.846613,-0.847265,416134.000000,1673606363.990884
1673606364.182878,,,,-0.855268,-0.857939,416135.000000,1673606363.991891
1673606364.182902,,,,-0.853970,-0.852963,416136.000000,1673606363.992898
1673606364.199339,,,,-0.848296,-0.848468,416137.000000,1673606363.993905
1673606364.199701,,,,-0.845820,-0.847867,416138.000000,1673606363.994912
1673606364.201470,,,,-0.851253,-0.851304,416139.000000,1673606363.995919
1673606364.201506,,,,-0.851758,-0.852482,416140.000000,1673606363.996926
1673606364.201737,,,,-0.856302,-0.857050,416141.000000,1673606363.997933
1673606364.201977,,,,-0.854931,-0.854309,416142.000000,1673606363.998940
1673606364.202057,,,,-0.841204,-0.839404,416143.000000,1673606363.999948
1673606364.202296,,,,-0.834521,-0.832937,416144.000000,1673606364.000955
1673606364.202312,,,,-0.837694,-0.837553,416145.000000,1673606364.001962
1673606364.202325,,,,-0.836589,-0.836784,416146.000000,1673606364.002969
1673606364.202483,,,,-0.806225,-0.807334,416147.000000,1673606364.003976
1673606364.202651,,,,-0.811322,-0.811589,416148.000000,1673606364.004983
1673606364.202774,,,,-0.828799,-0.829355,416149.000000,1673606364.005990
1673606364.202798,,,,-0.837502,-0.840967,416150.000000,1673606364.006997
1673606364.202982,,,,-0.843705,-0.847121,416151.000000,1673606364.008004
1673606364.203212,,,,-0.842863,-0.844693,416152.000000,1673606364.009011
1673606364.203229,,,,-0.830362,-0.831687,416153.000000,1673606364.010018
1673606364.203242,,,,-0.834473,-0.836375,416154.000000,1673606364.011025
1673606364.206449,,,,-0.856374,-0.857988,416155.000000,1673606364.012033
1673606364.206977,,,,-0.865125,-0.866570,416156.000000,1673606364.013040
1673606364.206991,,,,-0.883275,-0.882725,416157.000000,1673606364.014047
1673606364.207083,,,,-0.919360,-0.919628,416158.000000,1673606364.015054
1673606364.207100,,,,-0.953281,-0.952491,416159.000000,1673606364.016061
1673606364.207119,,,,-0.979942,-0.980306,416160.000000,1673606364.017068
1673606364.207201,,,,-1.007156,-1.008794,416161.000000,1673606364.018075
1673606364.210839,,,,-1.021965,-1.023386,416162.000000,1673606364.019082
1673606364.211350,27.094980,960863.000000,1673606364.199892,,,,
1673606364.211363,27.384422,960864.000000,1673606364.200892,,,,
1673606364.211379,27.655775,960865.000000,1673606364.201892,,,,
1673606364.211388,27.872860,960866.000000,1673606364.202892,,,,
1673606364.211439,28.180389,960867.000000,1673606364.203892,,,,
1673606364.211448,28.451742,960868.000000,1673606364.204892,,,,
1673606364.211453,28.777361,960869.000000,1673606364.205892,,,,
1673606364.211530,29.048714,960870.000000,1673606364.206892,,,,
1673606364.211536,29.374334,960871.000000,1673606364.207892,,,,
1673606364.211555,29.681871,960872.000000,1673606364.208892,,,,
1673606364.211605,,,,-1.021412,-1.023026,416163.000000,1673606364.020089
1673606364.211851,,,,-0.997444,-0.999178,416164.000000,1673606364.021096
1673606364.211958,,,,-0.943016,-0.942995,416165.000000,1673606364.022103
1673606364.212229,,,,-0.906042,-0.904097,416166.000000,1673606364.023110
1673606364.212240,,,,-0.882266,-0.879768,416167.000000,1673606364.024117
1673606364.212250,,,,-0.823246,-0.823634,416168.000000,1673606364.025125
1673606364.212255,,,,-0.805624,-0.807022,416169.000000,1673606364.026132
1673606364.212399,,,,-0.822813,-0.824283,416170.000000,1673606364.027139
1673606364.212520,,,,-0.855340,-0.855007,416171.000000,1673606364.028146
1673606364.212787,,,,-0.882193,-0.881860,416172.000000,1673606364.029153
1673606364.213026,,,,-0.862985,-0.862916,416173.000000,1673606364.030160
1673606364.213122,,,,-0.832934,-0.832408,416174.000000,1673606364.031167
1673606364.213306,,,,-0.828030,-0.827769,416175.000000,1673606364.032174
1673606364.213364,,,,-0.828871,-0.829644,416176.000000,1673606364.033181
1673606364.213530,,,,-0.820289,-0.823994,416177.000000,1673606364.034188
1673606364.213864,,,,-0.806538,-0.809209,416178.000000,1673606364.035195
1673606364.214137,,,,-0.798028,-0.799353,416179.000000,1673606364.036202
1673606364.214372,,,,-0.801465,-0.801492,416180.000000,1673606364.037210
1673606364.214382,,,,-0.812788,-0.813537,416181.000000,1673606364.038217
1673606364.214392,,,,-0.819784,-0.821182,416182.000000,1673606364.039224
1673606364.214400,,,,-0.830386,-0.829355,416183.000000,1673606364.040231
1673606364.214411,,,,-0.843079,-0.844381,416184.000000,1673606364.041238
1673606364.214670,,,,-0.850340,-0.855487,416185.000000,1673606364.042245
1673606364.214935,,,,-0.854162,-0.859478,416186.000000,1673606364.043252
1673606364.215160,,,,-0.862817,-0.865825,416187.000000,1673606364.044259
1673606364.215544,,,,-0.858994,-0.860103,416188.000000,1673606364.045266
1673606364.215722,,,,-0.848705,-0.848155,416189.000000,1673606364.046273
1673606364.215787,,,,-0.869404,-0.870633,416190.000000,1673606364.047280
1673606364.215889,,,,-0.905080,-0.905444,416191.000000,1673606364.048287
1673606364.216575,,,,-0.934578,-0.934292,416192.000000,1673606364.049294
1673606364.216586,,,,-0.939506,-0.940350,416193.000000,1673606364.050302
1673606364.216610,,,,-0.931236,-0.931672,416194.000000,1673606364.051309
1673606364.216704,,,,-0.920466,-0.922561,416195.000000,1673606364.052316
1673606364.216713,,,,-0.900128,-0.900083,416196.000000,1673606364.053323
1673606364.216761,,,,-0.867601,-0.868037,416197.000000,1673606364.054330
1673606364.216774,,,,-0.840147,-0.838996,416198.000000,1673606364.055337
1673606364.216782,,,,-0.824111,-0.823826,416199.000000,1673606364.056344
1673606364.216791,,,,-0.803797,-0.804834,416200.000000,1673606364.057351
1673606364.217465,,,,-0.780310,-0.780168,416201.000000,1673606364.058358
1673606364.217485,,,,-0.758216,-0.757354,416202.000000,1673606364.059365
1673606364.217492,,,,-0.765404,-0.762042,416203.000000,1673606364.060372
1673606364.217728,,,,-0.772833,-0.772644,416204.000000,1673606364.061379
1673606364.217925,,,,-0.771559,-0.772211,416205.000000,1673606364.062387
1673606364.218230,,,,-0.777136,-0.776009,416206.000000,1673606364.063394
1673606364.218294,,,,-0.781175,-0.781491,416207.000000,1673606364.064401
1673606364.221674,,,,-0.794782,-0.797646,416208.000000,1673606364.065408
1673606364.221879,,,,-0.800985,-0.803199,416209.000000,1673606364.066415
1673606364.222050,,,,-0.800432,-0.802454,416210.000000,1673606364.067422
1673606364.222185,,,,-0.802259,-0.805267,416211.000000,1673606364.068429
1673606364.222440,,,,-0.808461,-0.810099,416212.000000,1673606364.069436
1673606364.222577,,,,-0.810625,-0.812599,416213.000000,1673606364.070443
1673606364.222831,,,,-0.816202,-0.816518,416214.000000,1673606364.071450
1673606364.223557,,,,-0.817645,-0.815580,416215.000000,1673606364.072457
1673606364.223574,,,,-0.816106,-0.813056,416216.000000,1673606364.073464
1673606364.223685,,,,-0.820842,-0.817792,416217.000000,1673606364.074471
1673606364.223696,,,,-0.824737,-0.825052,416218.000000,1673606364.075479
1673606364.223706,,,,-0.829617,-0.831182,416219.000000,1673606364.076486
1673606364.223776,,,,-0.829785,-0.828658,416220.000000,1673606364.077493
1673606364.223784,,,,-0.823174,-0.824451,416221.000000,1673606364.078500
1673606364.223789,,,,-0.825650,-0.826879,416222.000000,1673606364.079507
1673606364.225652,,,,-0.834160,-0.835029,416223.000000,1673606364.080514
1673606364.225776,,,,-0.840796,-0.839957,416224.000000,1673606364.081521
1673606364.225863,,,,-0.843296,-0.842890,416225.000000,1673606364.082528
1673606364.226006,,,,-0.841445,-0.843900,416226.000000,1673606364.083535
1673606364.226291,,,,-0.839762,-0.841712,416227.000000,1673606364.084542
1673606364.226302,,,,-0.846036,-0.846833,416228.000000,1673606364.085549
1673606364.226306,,,,-0.851926,-0.855247,416229.000000,1673606364.086556
1673606364.226313,,,,-0.849811,-0.854237,416230.000000,1673606364.087564
1673606364.226321,,,,-0.837430,-0.838755,416231.000000,1673606364.088571
1673606364.226340,,,,-0.831612,-0.830533,416232.000000,1673606364.089578
1673606364.226415,,,,-0.825169,-0.826470,416233.000000,1673606364.090585
1673606364.226560,,,,-0.820169,-0.821278,416234.000000,1673606364.091592
1673606364.226738,,,,-0.823438,-0.821759,416235.000000,1673606364.092599
1673606364.226854,,,,-0.847287,-0.846520,416236.000000,1673606364.093606
1673606364.226867,,,,-0.877025,-0.879889,416237.000000,1673606364.094613
1673606364.226878,,,,-0.894526,-0.896765,416238.000000,1673606364.095620
1673606364.226891,,,,-0.917172,-0.916454,416239.000000,1673606364.096627
1673606364.235431,,,,-0.954267,-0.951073,416240.000000,1673606364.097634
1673606364.235587,,,,-1.003574,-1.002880,416241.000000,1673606364.098641
1673606364.235613,,,,-1.054324,-1.056611,416242.000000,1673606364.099648
1673606364.235822,,,,-1.087932,-1.089859,416243.000000,1673606364.100656
1673606364.236084,,,,-1.080263,-1.083320,416244.000000,1673606364.101663
1673606364.236198,,,,-1.048867,-1.049495,416245.000000,1673606364.102670
1673606364.237257,,,,-1.025547,-1.026776,416246.000000,1673606364.103677
1673606364.237267,,,,-1.055382,-1.055360,416247.000000,1673606364.104684
1673606364.237361,,,,-1.099568,-1.097936,416248.000000,1673606364.105691
1673606364.237551,,,,-1.090336,-1.088200,416249.000000,1673606364.106698
1673606364.237756,,,,-1.028336,-1.029589,416250.000000,1673606364.107705
1673606364.237926,,,,-0.998886,-0.998793,416251.000000,1673606364.108712
1673606364.238037,,,,-1.004319,-1.004995,416252.000000,1673606364.109719
1673606364.238272,,,,-0.953906,-0.956001,416253.000000,1673606364.110726
1673606364.238564,,,,-0.828535,-0.829908,416254.000000,1673606364.111733
1673606364.238574,,,,-0.780334,-0.778630,416255.000000,1673606364.112741
1673606364.238658,,,,-0.776944,-0.776130,416256.000000,1673606364.113748
1673606364.238771,,,,-0.776944,-0.773317,416257.000000,1673606364.114755
1673606364.239180,,,,-0.773530,-0.771754,416258.000000,1673606364.115762
1673606364.239192,,,,-0.772040,-0.773317,416259.000000,1673606364.116769
1673606364.239197,,,,-0.779781,-0.779399,416260.000000,1673606364.117776
1673606364.239203,,,,-0.794734,-0.794112,416261.000000,1673606364.118783
1673606364.239254,,,,-0.819039,-0.816638,416262.000000,1673606364.119790
1673606364.239259,,,,-0.850532,-0.850559,416263.000000,1673606364.120797
1673606364.239329,,,,-0.900969,-0.899962,416264.000000,1673606364.121804
1673606364.256327,,,,-0.935732,-0.935879,416265.000000,1673606364.122811
1673606364.256684,,,,-0.934145,-0.933355,416266.000000,1673606364.123818
1673606364.256704,,,,-0.930707,-0.931071,416267.000000,1673606364.124825
1673606364.256934,,,,-0.946742,-0.947346,416268.000000,1673606364.125833
1673606364.257349,,,,-0.981914,-0.980186,416269.000000,1673606364.126840
1673606364.257747,,,,-0.988260,-0.988047,416270.000000,1673606364.127847
1673606364.258103,,,,-0.974509,-0.975690,416271.000000,1673606364.128854
1673606364.264034,29.917038,960873.000000,1673606364.203150,,,,
1673606364.266708,43.394184,960924.000000,1673606364.254149,,,,
1673606364.266723,43.665539,960925.000000,1673606364.255150,,,,
1673606364.266729,43.900703,960926.000000,1673606364.256150,,,,
1673606364.266795,44.172058,960927.000000,1673606364.257149,,,,
1673606364.266804,44.461498,960928.000000,1673606364.258149,,,,
1673606364.266810,44.714760,960929.000000,1673606364.259150,,,,
1673606364.266886,44.949936,960930.000000,1673606364.260149,,,,
1673606364.266894,45.167011,960931.000000,1673606364.261149,,,,
1673606364.266933,45.474552,960932.000000,1673606364.262150,,,,
1673606364.266967,45.727806,960933.000000,1673606364.263149,,,,
1673606364.270827,,,,-0.939819,-0.939124,416272.000000,1673606364.129861
1673606364.271027,,,,-0.854619,-0.855487,416273.000000,1673606364.130868
1673606364.271311,,,,-0.747735,-0.747545,416274.000000,1673606364.131875
1673606364.271504,,,,-0.702779,-0.703311,416275.000000,1673606364.132882
1673606364.271632,,,,-0.697033,-0.697108,416276.000000,1673606364.133889
1673606364.271889,,,,-0.700399,-0.698863,416277.000000,1673606364.134896
1673606364.271901,,,,-0.729151,-0.728145,416278.000000,1673606364.135903
1673606364.272101,,,,-0.787113,-0.788823,416279.000000,1673606364.136910
1673606364.272271,,,,-0.833704,-0.834115,416280.000000,1673606364.137918
1673606364.272458,,,,-0.876616,-0.878638,416281.000000,1673606364.138925
1673606364.272628,,,,-0.884045,-0.885394,416282.000000,1673606364.139932
1673606364.272857,,,,-0.871904,-0.872676,416283.000000,1673606364.140939
1673606364.272992,,,,-0.905945,-0.905732,416284.000000,1673606364.141946
1673606364.273165,,,,-0.891641,-0.892293,416285.000000,1673606364.142953
1673606364.273550,,,,-0.862673,-0.862099,416286.000000,1673606364.143960
1673606364.273679,,,,-0.816515,-0.816109,416287.000000,1673606364.144967
1673606364.273684,,,,-0.790431,-0.791299,416288.000000,1673606364.145974
1673606364.273818,,,,-0.842863,-0.843058,416289.000000,1673606364.146981
1673606364.317416,,,,-0.874885,-0.876451,416290.000000,1673606364.147988
1673606364.317808,,,,-0.885655,-0.886860,416291.000000,1673606364.148995
1673606364.317991,,,,-0.924553,-0.926046,416292.000000,1673606364.150002
1673606364.318216,,,,-0.938569,-0.939870,416293.000000,1673606364.151010
1673606364.318229,,,,-0.957681,-0.960232,416294.000000,1673606364.152017
1673606364.318462,,,,-0.956984,-0.962660,416295.000000,1673606364.153024
1673606364.318648,,,,-0.879188,-0.880538,416296.000000,1673606364.154031
1673606364.318937,,,,-0.746605,-0.746391,416297.000000,1673606364.155038
1673606364.319183,,,,-0.668545,-0.667971,416298.000000,1673606364.156045
1673606364.319412,,,,-0.660540,-0.658283,416299.000000,1673606364.157052
1673606364.319654,,,,-0.697418,-0.695329,416300.000000,1673606364.158059
1673606364.320240,,,,-0.743576,-0.741679,416301.000000,1673606364.159066
1673606364.320402,,,,-0.741797,-0.741415,416302.000000,1673606364.160073
1673606364.320416,,,,-0.770333,-0.770023,416303.000000,1673606364.161080
1673606364.320831,,,,-0.826011,-0.826254,416304.000000,1673606364.162087
1673606364.320848,,,,-0.891665,-0.893928,416305.000000,1673606364.163095
1673606364.321026,,,,-0.960518,-0.962348,416306.000000,1673606364.164102
1673606364.321589,,,,-1.026028,-1.028988,416307.000000,1673606364.165109
1673606364.321630,,,,-1.084302,-1.084450,416308.000000,1673606364.166116
1673606364.321657,,,,-1.107357,-1.106711,416309.000000,1673606364.167123
1673606364.321800,,,,-1.120435,-1.121664,416310.000000,1673606364.168130
1673606364.330109,58.951691,960985.000000,1673606364.319745,,,,
1673606364.330128,59.132599,960986.000000,1673606364.320745,,,,
1673606364.330135,59.313488,960987.000000,1673606364.321745,,,,
1673606364.330142,59.548660,960988.000000,1673606364.322745,,,,
1673606364.330147,59.711479,960989.000000,1673606364.323745,,,,
1673606364.330166,59.892372,960990.000000,1673606364.324745,,,,
1673606364.330191,60.109455,960991.000000,1673606364.325745,,,,
1673606364.330198,60.272274,960992.000000,1673606364.326745,,,,
1673606364.330203,60.489342,960993.000000,1673606364.327745,,,,
1673606364.330221,60.652161,960994.000000,1673606364.328745,,,,
1673606364.333584,,,,-0.893372,-0.894313,416334.000000,1673606364.216470
1673606364.333596,,,,-0.803821,-0.802791,416335.000000,1673606364.217477
1673606364.333602,,,,-0.830891,-0.830125,416336.000000,1673606364.218484
1673606364.333657,,,,-0.883131,-0.879865,416337.000000,1673606364.219491
1673606364.333780,,,,-0.873683,-0.872676,416338.000000,1673606364.220498
1673606364.333881,,,,-0.847647,-0.848660,416339.000000,1673606364.221505
1673606364.334011,,,,-0.829833,-0.829956,416340.000000,1673606364.222512
1673606364.334022,,,,-0.821852,-0.821903,416341.000000,1673606364.223519
1673606364.334074,,,,-0.802956,-0.802646,416342.000000,1673606364.224526
1673606364.334083,,,,-0.766558,-0.763484,416343.000000,1673606364.225533
1673606364.334091,,,,-0.763553,-0.763292,416344.000000,1673606364.226541
1673606364.334173,,,,-0.784300,-0.785025,416345.000000,1673606364.227548
1673606364.334177,,,,-0.849426,-0.849045,416346.000000,1673606364.228555
1673606364.336856,,,,-0.946237,-0.946673,416347.000000,1673606364.229562
1673606364.336904,,,,-1.011171,-1.013193,416348.000000,1673606364.230569
1673606364.336993,,,,-1.092741,-1.097576,416349.000000,1673606364.231576
1673606364.339580,,,,-1.114233,-1.117650,416350.000000,1673606364.232583
1673606364.340020,,,,-1.084495,-1.085123,416351.000000,1673606364.233590
1673606364.340039,,,,-1.023960,-1.023603,416352.000000,1673606364.234597
1673606364.340306,,,,-0.968475,-0.969247,416353.000000,1673606364.235604
1673606364.340681,,,,-0.902027,-0.903112,416354.000000,1673606364.236611
1673606364.340902,,,,-0.833992,-0.833803,416355.000000,1673606364.237618
1673606364.341184,,,,-0.829304,-0.829235,416356.000000,1673606364.238626
1673606364.346093,,,,-0.812716,-0.814258,416357.000000,1673606364.239633
1673606364.346115,,,,-0.763241,-0.762450,416358.000000,1673606364.240640
1673606364.346152,,,,-0.756173,-0.754613,416359.000000,1673606364.241647
1673606364.346670,,,,-0.781391,-0.780144,416360.000000,1673606364.242654
1673606364.346687,,,,-0.793965,-0.792020,416361.000000,1673606364.243661
1673606364.346889,,,,-0.794782,-0.796636,416362.000000,1673606364.244668
1673606364.346905,,,,-0.796248,-0.797790,416363.000000,1673606364.245675
1673606364.346913,,,,-0.777906,-0.778197,416364.000000,1673606364.246682
1673606364.346921,,,,-0.766006,-0.766874,416365.000000,1673606364.247689
1673606364.347409,,,,-0.770645,-0.770504,416366.000000,1673606364.248696
1673606364.347682,,,,-0.792498,-0.790434,416367.000000,1673606364.249703
1673606364.348097,,,,-0.815481,-0.814378,416368.000000,1673606364.250710
1673606364.348248,,,,-0.827549,-0.828249,416369.000000,1673606364.251718
1673606364.348452,,,,-0.807235,-0.809378,416370.000000,1673606364.252725
1673606364.348717,,,,-0.817548,-0.819210,416371.000000,1673606364.253732
1673606364.349181,,,,-0.877385,-0.882076,416372.000000,1673606364.254739
1673606364.349492,,,,-0.901859,-0.901982,416373.000000,1673606364.255746
1673606364.349660,,,,-0.917990,-0.916598,416374.000000,1673606364.256753
1673606364.351996,,,,-0.966023,-0.966531,416375.000000,1673606364.257760
1673606364.352544,,,,-1.037447,-1.038772,416376.000000,1673606364.258767
1673606364.352554,,,,-1.054588,-1.058005,416377.000000,1673606364.259774
1673606364.352584,,,,-0.922678,-0.921863,416378.000000,1673606364.260781
1673606364.354697,,,,-0.781824,-0.778726,416379.000000,1673606364.261788
1673606364.354738,,,,-0.769924,-0.770528,416380.000000,1673606364.262795
1673606364.354744,,,,-0.887891,-0.892005,416381.000000,1673606364.263803
1673606364.354758,,,,-0.979702,-0.980017,416382.000000,1673606364.264810
1673606364.359367,,,,-0.988765,-0.989754,416383.000000,1673606364.265817
1673606364.359652,,,,-0.999680,-1.000163,416384.000000,1673606364.266824
1673606364.359712,,,,-0.972778,-0.975738,416385.000000,1673606364.267831
1673606364.362413,,,,-0.921380,-0.924748,416386.000000,1673606364.268838
1673606364.362428,,,,-0.852575,-0.853853,416387.000000,1673606364.269845
1673606364.362565,,,,-0.853681,-0.854790,416388.000000,1673606364.270852
1673606364.376168,,,,-0.935131,-0.935615,416389.000000,1673606364.271859
1673606364.376197,,,,-0.905344,-0.906501,416390.000000,1673606364.272866
1673606364.376212,,,,-0.789637,-0.789737,416391.000000,1673606364.273873
1673606364.376241,,,,-0.800888,-0.799785,416392.000000,1673606364.274880
1673606364.376410,,,,-0.838007,-0.838395,416393.000000,1673606364.275887
1673606364.382755,60.869244,960995.000000,1673606364.322261,,,,
1673606364.382768,61.032047,960996.000000,1673606364.323261,,,,
1673606364.382896,61.194866,960997.000000,1673606364.324261,,,,
1673606364.383786,61.339596,960998.000000,1673606364.325261,,,,
1673606364.383795,61.556664,960999.000000,1673606364.326261,,,,
1673606364.383798,69.136421,961046.000000,1673606364.373261,,,,
1673606364.383854,69.317329,961047.000000,1673606364.374261,,,,
1673606364.383862,69.443970,961048.000000,1673606364.375261,,,,
1673606364.383874,69.606773,961049.000000,1673606364.376261,,,,
1673606364.383889,69.733414,961050.000000,1673606364.377261,,,,
1673606364.383895,69.932388,961051.000000,1673606364.378261,,,,
1673606364.383899,70.022850,961052.000000,1673606364.379261,,,,
1673606364.383953,70.167564,961053.000000,1673606364.380261,,,,
1673606364.383956,70.312294,961054.000000,1673606364.381261,,,,
1673606364.383959,70.475098,961055.000000,1673606364.382261,,,,
1673606364.384362,,,,-0.840603,-0.843034,416394.000000,1673606364.276895
1673606364.384664,,,,-0.805264,-0.806949,416395.000000,1673606364.277902
1673606364.384705,,,,-0.749538,-0.748363,416396.000000,1673606364.278909
1673606364.384821,,,,-0.691720,-0.690521,416397.000000,1673606364.279916
1673606364.384828,,,,-0.669675,-0.669582,416398.000000,1673606364.280923
1673606364.384839,,,,-0.675180,-0.676938,416399.000000,1673606364.281930
1673606364.384968,,,,-0.686095,-0.688814,416400.000000,1673606364.282937
1673606364.385121,,,,-0.709967,-0.713528,416401.000000,1673606364.283944
1673606364.385319,,,,-0.735378,-0.738025,416402.000000,1673606364.284951
1673606364.385536,,,,-0.759707,-0.760575,416403.000000,1673606364.285958
1673606364.385588,,,,-0.775670,-0.775000,416404.000000,1673606364.286965
1673606364.385698,,,,-0.735859,-0.737737,416405.000000,1673606364.287972
1673606364.385891,,,,-0.749129,-0.750166,416406.000000,1673606364.288980
1673606364.385972,,,,-0.831877,-0.830750,416407.000000,1673606364.289987
1673606364.400048,,,,-0.899911,-0.899698,416408.000000,1673606364.290994
1673606364.400525,,,,-0.945372,-0.945784,416409.000000,1673606364.292001
1673606364.401223,,,,-0.960566,-0.960424,416410.000000,1673606364.293008
1673606364.401391,,,,-0.947920,-0.950592,416411.000000,1673606364.294015
1673606364.401518,,,,-0.926572,-0.928066,416412.000000,1673606364.295022
1673606364.401737,,,,-0.909672,-0.909122,416413.000000,1673606364.296029
1673606364.406832,,,,-0.926717,-0.928138,416414.000000,1673606364.297036
1673606364.406940,,,,-0.976793,-0.978527,416415.000000,1673606364.298043
1673606364.407183,,,,-0.984967,-0.986364,416416.000000,1673606364.299050
1673606364.407511,,,,-1.036173,-1.035815,416417.000000,1673606364.300057
1673606364.415156,,,,-1.105602,-1.104283,416418.000000,1673606364.301064
1673606364.415959,,,,-1.206260,-1.206696,416419.000000,1673606364.302072
1673606364.416114,,,,-1.165680,-1.169866,416420.000000,1673606364.303079
1673606364.416224,,,,-1.063411,-1.067501,416421.000000,1673606364.304086
1673606364.416259,,,,-1.082211,-1.084882,416422.000000,1673606364.305093
1673606364.416542,,,,-1.078220,-1.079762,416423.000000,1673606364.306100
1673606364.416904,,,,-1.002661,-1.002183,416424.000000,1673606364.307107
1673606364.417365,,,,-0.934193,-0.934124,416425.000000,1673606364.308114
1673606364.417518,,,,-0.865750,-0.865560,416426.000000,1673606364.309121
1673606364.417640,,,,-0.734969,-0.737809,416427.000000,1673606364.310128
1673606364.417770,,,,-0.613420,-0.615611,416428.000000,1673606364.311135
1673606364.417910,,,,-0.592240,-0.592652,416429.000000,1673606364.312142
1673606364.418044,,,,-0.622868,-0.622871,416430.000000,1673606364.313149
1673606364.418257,,,,-0.678161,-0.679102,416431.000000,1673606364.314157
1673606364.418385,,,,-0.718309,-0.717134,416432.000000,1673606364.315164
1673606364.418724,,,,-0.738239,-0.737785,416433.000000,1673606364.316171
1673606364.418808,,,,-0.763097,-0.761369,416434.000000,1673606364.317178
1673606364.418896,,,,-0.790455,-0.785722,416435.000000,1673606364.318185
1673606364.418903,,,,-0.822813,-0.821350,416436.000000,1673606364.319192
1673606364.418917,,,,-0.848825,-0.847458,416437.000000,1673606364.320199
1673606364.418989,,,,-0.832838,-0.831735,416438.000000,1673606364.321206
1673606364.418996,,,,-0.864283,-0.863637,416439.000000,1673606364.322213
1673606364.418999,,,,-0.867961,-0.869215,416440.000000,1673606364.323220
1673606364.419019,,,,-0.846229,-0.847434,416441.000000,1673606364.324227
1673606364.419029,,,,-0.907436,-0.906862,416442.000000,1673606364.325234
1673606364.419134,,,,-0.967057,-0.967132,416443.000000,1673606364.326241
1673606364.419140,,,,-0.993958,-0.996485,416444.000000,1673606364.327249
1673606364.419279,,,,-0.968908,-0.969464,416445.000000,1673606364.328256
1673606364.419679,,,,-0.988837,-0.990331,416446.000000,1673606364.329263
1673606364.419692,,,,-0.986481,-0.987782,416447.000000,1673606364.330270
1673606364.419699,,,,-0.944651,-0.947154,416448.000000,1673606364.331277
1673606364.419704,,,,-0.890608,-0.888639,416449.000000,1673606364.332284
1673606364.419883,,,,-0.837502,-0.836159,416450.000000,1673606364.333291
1673606364.419893,,,,-0.824737,-0.824211,416451.000000,1673606364.334298
1673606364.419899,,,,-0.809639,-0.810772,416452.000000,1673606364.335305
1673606364.419902,,,,-0.863033,-0.863878,416453.000000,1673606364.336312
1673606364.420728,,,,-0.896666,-0.896645,416454.000000,1673606364.337319
1673606364.420847,,,,-0.812764,-0.812190,416455.000000,1673606364.338326
1673606364.420995,,,,-0.818534,-0.818898,416456.000000,1673606364.339334
1673606364.421004,,,,-0.837646,-0.838467,416457.000000,1673606364.340341
1673606364.421007,,,,-0.832838,-0.829379,416458.000000,1673606364.341348
1673606364.421175,,,,-0.837190,-0.835846,416459.000000,1673606364.342355
1673606364.421184,,,,-0.809038,-0.807454,416460.000000,1673606364.343362
1673606364.421258,,,,-0.776968,-0.774591,416461.000000,1673606364.344369
1673606364.421419,,,,-0.809879,-0.808176,416462.000000,1673606364.345376
1673606364.421557,,,,-0.903253,-0.902126,416463.000000,1673606364.346383
1673606364.421916,,,,-0.999151,-0.999562,416464.000000,1673606364.347390
1673606364.421922,,,,-1.077859,-1.081324,416465.000000,1673606364.348397
1673606364.421926,,,,-1.128393,-1.129045,416466.000000,1673606364.349404
1673606364.421942,,,,-1.056295,-1.056010,416467.000000,1673606364.350411
1673606364.421951,,,,-0.861398,-0.860344,416468.000000,1673606364.351418
1673606364.421955,,,,-0.727685,-0.729539,416469.000000,1673606364.352426
1673606364.421980,,,,-0.748576,-0.748267,416470.000000,1673606364.353433
1673606364.447915,70.601738,961056.000000,1673606364.386362,,,,
1673606364.448162,70.764534,961057.000000,1673606364.387362,,,,
1673606364.448616,70.854996,961058.000000,1673606364.388362,,,,
1673606364.448633,71.035889,961059.000000,1673606364.389362,,,,
1673606364.448657,71.144440,961060.000000,1673606364.390362,,,,
1673606364.450233,71.271065,961061.000000,1673606364.391362,,,,
1673606364.450246,71.361511,961062.000000,1673606364.392362,,,,
1673606364.450258,71.470062,961063.000000,1673606364.393362,,,,
1673606364.450278,71.578590,961064.000000,1673606364.394362,,,,
1673606364.450284,71.687141,961065.000000,1673606364.395362,,,,
1673606364.450291,73.912231,961107.000000,1673606364.437362,,,,
1673606364.450320,73.930321,961108.000000,1673606364.438362,,,,
1673606364.450326,73.894127,961109.000000,1673606364.439362,,,,
1673606364.450372,73.894127,961110.000000,1673606364.440362,,,,
1673606364.450382,73.821770,961111.000000,1673606364.441362,,,,
1673606364.450390,73.857948,961112.000000,1673606364.442362,,,,
1673606364.450397,73.876038,961113.000000,1673606364.443362,,,,
1673606364.450447,73.803680,961114.000000,1673606364.444362,,,,
1673606364.450451,73.803680,961115.000000,1673606364.445362,,,,
1673606364.450456,73.821770,961116.000000,1673606364.446362,,,,
1673606364.465423,,,,-0.820097,-0.819811,416471.000000,1673606364.354440
1673606364.465673,,,,-0.896546,-0.898039,416472.000000,1673606364.355447
1673606364.465685,,,,-0.974485,-0.976267,416473.000000,1673606364.356454
1673606364.465891,,,,-0.990544,-0.991701,416474.000000,1673606364.357461
1673606364.465969,,,,-0.881064,-0.882437,416475.000000,1673606364.358468
1673606364.466095,,,,-0.793604,-0.794400,416476.000000,1673606364.359475
1673606364.466103,,,,-0.815962,-0.816085,416477.000000,1673606364.360482
1673606364.466181,,,,-0.747735,-0.747065,416478.000000,1673606364.361489
1673606364.466397,,,,-0.591183,-0.590248,416479.000000,1673606364.362496
1673606364.466430,,,,-0.572575,-0.573949,416480.000000,1673606364.363503
1673606364.466463,,,,-0.643471,-0.643810,416481.000000,1673606364.364511
1673606364.466812,,,,-0.697610,-0.698479,416482.000000,1673606364.365518
1673606364.466821,,,,-0.715761,-0.717302,416483.000000,1673606364.366525
1673606364.466973,,,,-0.732805,-0.733121,416484.000000,1673606364.367532
1673606364.466980,,,,-0.765957,-0.767667,416485.000000,1673606364.368539
1673606364.472312,,,,-0.785022,-0.784616,416486.000000,1673606364.369546
1673606364.472481,,,,-0.788676,-0.787597,416487.000000,1673606364.370553
1673606364.472488,,,,-0.770838,-0.769903,416488.000000,1673606364.371560
1673606364.472491,,,,-0.733839,-0.734948,416489.000000,1673606364.372567
1673606364.472581,,,,-0.701553,-0.701700,416490.000000,1673606364.373574
1673606364.472588,,,,-0.719247,-0.717230,416491.000000,1673606364.374581
1673606364.474277,,,,-0.764587,-0.765432,416492.000000,1673606364.375588
1673606364.474436,,,,-0.867673,-0.868469,416493.000000,1673606364.376595
1673606364.474597,,,,-0.927678,-0.927729,416494.000000,1673606364.377603
1673606364.474705,,,,-0.949507,-0.946505,416495.000000,1673606364.378610
1673606364.474878,,,,-0.967441,-0.964487,416496.000000,1673606364.379617
1673606364.496423,,,,-0.958210,-0.959751,416497.000000,1673606364.380624
1673606364.496614,,,,-0.898902,-0.901068,416498.000000,1673606364.381631
1673606364.496634,,,,-0.823919,-0.823850,416499.000000,1673606364.382638
1673606364.497144,,,,-0.830771,-0.830413,416500.000000,1673606364.383645
1673606364.497154,,,,-0.851494,-0.852266,416501.000000,1673606364.384652
1673606364.497183,,,,-0.843608,-0.843395,416502.000000,1673606364.385659
1673606364.503491,,,,-0.814567,-0.814955,416503.000000,1673606364.386666
1673606364.503890,73.821770,961117.000000,1673606364.442900,,,,
1673606364.503967,73.803680,961118.000000,1673606364.443900,,,,
1673606364.504043,,,,-0.789830,-0.787982,416504.000000,1673606364.387673
1673606364.504109,,,,-0.769251,-0.766706,416505.000000,1673606364.388680
1673606364.504118,,,,-0.746845,-0.746223,416506.000000,1673606364.389688
1673606364.506148,73.785591,961119.000000,1673606364.444900,,,,
1673606364.506171,74.165474,961168.000000,1673606364.493900,,,,
1673606364.506181,74.219765,961169.000000,1673606364.494900,,,,
1673606364.506196,74.219765,961170.000000,1673606364.495900,,,,
1673606364.506204,74.274025,961171.000000,1673606364.496900,,,,
1673606364.506229,74.346382,961172.000000,1673606364.497900,,,,
1673606364.506309,74.364471,961173.000000,1673606364.498900,,,,
1673606364.506314,74.364471,961174.000000,1673606364.499900,,,,
1673606364.506370,74.473022,961175.000000,1673606364.500900,,,,
1673606364.506390,74.545380,961176.000000,1673606364.501900,,,,
1673606364.506403,74.599648,961177.000000,1673606364.502900,,,,
1673606364.517832,,,,-0.769011,-0.767619,416507.000000,1673606364.390695
1673606364.518090,,,,-0.859956,-0.858324,416508.000000,1673606364.391702
1673606364.518101,,,,-0.921211,-0.923931,416509.000000,1673606364.392709
1673606364.518159,,,,-0.931837,-0.933932,416510.000000,1673606364.393716
1673606364.518386,,,,-0.922750,-0.924532,416511.000000,1673606364.394723
1673606364.518548,,,,-0.896738,-0.897703,416512.000000,1673606364.395730
1673606364.518803,,,,-0.908878,-0.908593,416513.000000,1673606364.396737
1673606364.527514,,,,-0.903902,-0.906333,416514.000000,1673606364.397744
1673606364.527787,,,,-0.934842,-0.936360,416515.000000,1673606364.398751
1673606364.527993,,,,-0.980736,-0.983672,416516.000000,1673606364.399758
1673606364.528029,,,,-0.899719,-0.901693,416517.000000,1673606364.400765
1673606364.528098,,,,-0.827141,-0.825220,416518.000000,1673606364.401772
1673606364.528106,,,,-0.809062,-0.806829,416519.000000,1673606364.402780
1673606364.528114,,,,-0.795648,-0.795362,416520.000000,1673606364.403787
1673606364.528123,,,,-0.770333,-0.769494,416521.000000,1673606364.404794
1673606364.539937,,,,-0.783026,-0.784183,416522.000000,1673606364.405801
1673606364.540582,,,,-0.792089,-0.792044,416523.000000,1673606364.406808
1673606364.540603,,,,-0.781151,-0.780337,416524.000000,1673606364.407815
1673606364.541005,,,,-0.772689,-0.773870,416525.000000,1673606364.408822
1673606364.541233,,,,-0.787714,-0.789135,416526.000000,1673606364.409829
1673606364.541241,,,,-0.855196,-0.857411,416527.000000,1673606364.410836
1673606364.556064,,,,-0.879357,-0.882293,416528.000000,1673606364.411843
1673606364.556563,,,,-0.905320,-0.908545,416529.000000,1673606364.412850
1673606364.556581,,,,-0.958186,-0.961602,416530.000000,1673606364.413857
1673606364.556752,,,,-1.007517,-1.007904,416531.000000,1673606364.414865
1673606364.556767,,,,-0.998405,-0.999803,416532.000000,1673606364.415872
1673606364.556901,,,,-0.925539,-0.923089,416533.000000,1673606364.416879
1673606364.557143,,,,-0.864500,-0.861353,416534.000000,1673606364.417886
1673606364.570088,74.635826,961178.000000,1673606364.509051,,,,
1673606364.571308,74.599648,961179.000000,1673606364.510051,,,,
1673606364.571329,74.780556,961180.000000,1673606364.511051,,,,
1673606364.571532,74.744362,961181.000000,1673606364.512051,,,,
1673606364.571543,74.762466,961182.000000,1673606364.513051,,,,
1673606364.571553,74.816734,961183.000000,1673606364.514051,,,,
1673606364.571558,74.852913,961184.000000,1673606364.515051,,,,
1673606364.571566,76.535294,961229.000000,1673606364.560051,,,,
1673606364.571573,76.571472,961230.000000,1673606364.561051,,,,
1673606364.571582,76.625740,961231.000000,1673606364.562051,,,,
1673606364.571588,76.716202,961232.000000,1673606364.563051,,,,
1673606364.571593,76.770470,961233.000000,1673606364.564051,,,,
1673606364.571598,76.788559,961234.000000,1673606364.565051,,,,
1673606364.571601,76.915176,961235.000000,1673606364.566051,,,,
1673606364.571609,76.951355,961236.000000,1673606364.567051,,,,
1673606364.571613,77.041817,961237.000000,1673606364.568051,,,,
1673606364.571648,77.096085,961238.000000,1673606364.569051,,,,
1673606364.573130,,,,-0.922533,-0.921863,416535.000000,1673606364.418893
1673606364.573136,,,,-0.903181,-0.904049,416536.000000,1673606364.419900
1673606364.573144,,,,-0.875414,-0.875802,416537.000000,1673606364.420907
1673606364.573442,,,,-0.827189,-0.827288,416538.000000,1673606364.421914
1673606364.573450,,,,-0.790286,-0.792718,416539.000000,1673606364.422921
1673606364.573604,,,,-0.779540,-0.780168,416540.000000,1673606364.423928
1673606364.574039,,,,-0.738142,-0.738650,416541.000000,1673606364.424935
1673606364.574169,,,,-0.692297,-0.692781,416542.000000,1673606364.425942
1673606364.574175,,,,-0.709823,-0.707878,416543.000000,1673606364.426950
1673606364.574246,,,,-0.726579,-0.727063,416544.000000,1673606364.427957
1673606364.574300,,,,-0.749418,-0.750406,416545.000000,1673606364.428964
1673606364.574413,,,,-0.797787,-0.799617,416546.000000,1673606364.429971
1673606364.574664,,,,-0.862047,-0.863589,416547.000000,1673606364.430978
1673606364.574677,,,,-0.879309,-0.878807,416548.000000,1673606364.431985
1673606364.577444,,,,-0.852383,-0.850559,416549.000000,1673606364.432992
1673606364.577473,,,,-0.873659,-0.872580,416550.000000,1673606364.433999
1673606364.577641,,,,-0.874669,-0.873975,416551.000000,1673606364.435006
1673606364.577723,,,,-0.802547,-0.803776,416552.000000,1673606364.436013
1673606364.577873,,,,-0.800432,-0.803752,416553.000000,1673606364.437020
1673606364.578056,,,,-0.902171,-0.904338,416554.000000,1673606364.438027
1673606364.578200,,,,-0.962248,-0.962636,416555.000000,1673606364.439034
1673606364.579681,,,,-0.962272,-0.964054,416556.000000,1673606364.440042
1673606364.579775,,,,-0.947103,-0.950255,416557.000000,1673606364.441049
1673606364.579972,,,,-0.938881,-0.940687,416558.000000,1673606364.442056
1673606364.580117,,,,-0.958618,-0.961025,416559.000000,1673606364.443063
1673606364.580395,,,,-0.949218,-0.949558,416560.000000,1673606364.444070
1673606364.580408,,,,-0.855845,-0.855656,416561.000000,1673606364.445077
1673606364.580454,,,,-0.779035,-0.777572,416562.000000,1673606364.446084
1673606364.585168,,,,-0.744658,-0.745526,416563.000000,1673606364.447091
1673606364.585325,,,,-0.740210,-0.740405,416564.000000,1673606364.448098
1673606364.585596,,,,-0.781007,-0.780890,416565.000000,1673606364.449105
1673606364.585897,,,,-0.851950,-0.851689,416566.000000,1673606364.450112
1673606364.586283,,,,-0.924649,-0.925229,416567.000000,1673606364.451119
1673606364.586348,,,,-0.994054,-0.995668,416568.000000,1673606364.452127
1673606364.586388,,,,-1.026076,-1.023435,416569.000000,1673606364.453134
1673606364.586426,,,,-0.973307,-0.973502,416570.000000,1673606364.454141
1673606364.586433,,,,-0.840026,-0.841760,416571.000000,1673606364.455148
1673606364.586539,,,,-0.795599,-0.794737,416572.000000,1673606364.456155
1673606364.586560,,,,-0.800119,-0.800170,416573.000000,1673606364.457162
1673606364.587123,,,,-0.782786,-0.783847,416574.000000,1673606364.458169
1673606364.587191,,,,-0.743768,-0.743843,416575.000000,1673606364.459176
1673606364.587201,,,,-0.736339,-0.739131,416576.000000,1673606364.460183
1673606364.587212,,,,-0.881809,-0.882413,416577.000000,1673606364.461190
1673606364.587310,,,,-1.042736,-1.044638,416578.000000,1673606364.462197
1673606364.587442,,,,-1.100409,-1.099331,416579.000000,1673606364.463204
1673606364.587588,,,,-1.104641,-1.104451,416580.000000,1673606364.464211
1673606364.597427,,,,-1.034659,-1.035311,416581.000000,1673606364.465219
1673606364.597705,,,,-0.965061,-0.964752,416582.000000,1673606364.466226
1673606364.597719,,,,-0.904551,-0.903064,416583.000000,1673606364.467233
1673606364.598868,,,,-0.857888,-0.856665,416584.000000,1673606364.468240
1673606364.598892,,,,-0.783122,-0.782572,416585.000000,1673606364.469247
1673606364.599011,,,,-0.724896,-0.721365,416586.000000,1673606364.470254
1673606364.599714,,,,-0.727805,-0.726390,416587.000000,1673606364.471261
1673606364.599730,,,,-0.725377,-0.727231,416588.000000,1673606364.472268
1673606364.599771,,,,-0.742806,-0.742713,416589.000000,1673606364.473275
1673606364.599859,,,,-0.788628,-0.786587,416590.000000,1673606364.474282
1673606364.600007,,,,-0.807091,-0.802983,416591.000000,1673606364.475289
1673606364.600198,,,,-0.793003,-0.793126,416592.000000,1673606364.476296
1673606364.600211,,,,-0.805264,-0.805603,416593.000000,1673606364.477304
1673606364.600382,,,,-0.830122,-0.830846,416594.000000,1673606364.478311
1673606364.600629,,,,-0.824328,-0.826302,416595.000000,1673606364.479318
1673606364.601094,,,,-0.800287,-0.802286,416596.000000,1673606364.480325
1673606364.601405,,,,-0.781295,-0.781539,416597.000000,1673606364.481332
1673606364.601614,,,,-0.771607,-0.769687,416598.000000,1673606364.482339
1673606364.601773,,,,-0.806033,-0.805243,416599.000000,1673606364.483346
1673606364.602065,,,,-0.774227,-0.775841,416600.000000,1673606364.484353
1673606364.602260,,,,-0.727372,-0.730621,416601.000000,1673606364.485360
1673606364.602454,,,,-0.734488,-0.734443,416602.000000,1673606364.486367
1673606364.602630,,,,-0.737974,-0.738458,416603.000000,1673606364.487374
1673606364.602918,,,,-0.740763,-0.742617,416604.000000,1673606364.488381
1673606364.603135,,,,-0.757062,-0.757258,416605.000000,1673606364.489388
1673606364.603345,,,,-0.777208,-0.777644,416606.000000,1673606364.490396
1673606364.603500,,,,-0.785743,-0.787957,416607.000000,1673606364.491403
1673606364.603693,,,,-0.784493,-0.784351,416608.000000,1673606364.492410
1673606364.603839,,,,-0.759731,-0.759061,416609.000000,1673606364.493417
1673606364.604119,,,,-0.752639,-0.753051,416610.000000,1673606364.494424
1673606364.604367,,,,-0.787065,-0.787284,416611.000000,1673606364.495431
1673606364.604418,,,,-0.805648,-0.806853,416612.000000,1673606364.496438
1673606364.604611,,,,-0.835988,-0.836591,416613.000000,1673606364.497445
1673606364.604815,,,,-0.864091,-0.863541,416614.000000,1673606364.498452
1673606364.605289,,,,-0.853417,-0.855872,416615.000000,1673606364.499459
1673606364.605378,,,,-0.840892,-0.843323,416616.000000,1673606364.500466
1673606364.605392,,,,-0.835266,-0.836375,416617.000000,1673606364.501473
1673606364.605509,,,,-0.829617,-0.830774,416618.000000,1673606364.502481
1673606364.605728,,,,-0.817308,-0.815965,416619.000000,1673606364.503488
1673606364.605888,,,,-0.843392,-0.842626,416620.000000,1673606364.504495
1673606364.606004,,,,-0.939819,-0.938307,416621.000000,1673606364.505502
1673606364.606014,,,,-1.047688,-1.046922,416622.000000,1673606364.506509
1673606364.606069,,,,-1.084735,-1.083848,416623.000000,1673606364.507516
1673606364.606488,,,,-1.085745,-1.086613,416624.000000,1673606364.508523
1673606364.606616,,,,-1.098630,-1.097335,416625.000000,1673606364.509530
1673606364.606851,,,,-1.101563,-1.100989,416626.000000,1673606364.510537
1673606364.607350,,,,-1.055357,-1.058365,416627.000000,1673606364.511544
1673606364.607417,,,,-0.953161,-0.954294,416628.000000,1673606364.512551
1673606364.607719,,,,-0.919793,-0.917079,416629.000000,1673606364.513558
1673606364.607788,,,,-0.950805,-0.950712,416630.000000,1673606364.514565
1673606364.608106,,,,-0.923639,-0.925854,416631.000000,1673606364.515573
1673606364.608283,,,,-0.853369,-0.854646,416632.000000,1673606364.516580
1673606364.608480,,,,-0.760861,-0.759614,416633.000000,1673606364.517587
1673606364.608819,,,,-0.711097,-0.710283,416634.000000,1673606364.518594
1673606364.608956,,,,-0.793243,-0.793631,416635.000000,1673606364.519601
1673606364.608968,,,,-0.936717,-0.936191,416636.000000,1673606364.520608
1673606364.609020,,,,-0.953858,-0.951241,416637.000000,1673606364.521615
1673606364.609179,,,,-0.801465,-0.797718,416638.000000,1673606364.522622
1673606364.609291,,,,-0.718405,-0.718336,416639.000000,1673606364.523629
1673606364.610276,,,,-0.731363,-0.729972,416640.000000,1673606364.524636
1673606364.610286,,,,-0.750620,-0.749421,416641.000000,1673606364.525643
1673606364.610291,,,,-0.765885,-0.766129,416642.000000,1673606364.526650
1673606364.610309,,,,-0.778098,-0.775072,416643.000000,1673606364.527658
1673606364.610330,,,,-0.780550,-0.781827,416644.000000,1673606364.528665
1673606364.610337,,,,-0.815673,-0.817696,416645.000000,1673606364.529672
1673606364.610343,,,,-0.842334,-0.842914,416646.000000,1673606364.530679
1673606364.610347,,,,-0.879405,-0.881187,416647.000000,1673606364.531686
1673606364.610362,,,,-0.936213,-0.932633,416648.000000,1673606364.532693
1673606364.610367,,,,-0.966047,-0.964752,416649.000000,1673606364.533700
1673606364.623292,,,,-0.965085,-0.967540,416650.000000,1673606364.534707
1673606364.623551,,,,-0.933400,-0.935951,416651.000000,1673606364.535714
1673606364.633924,77.168442,961239.000000,1673606364.573260,,,,
1673606364.635321,77.132263,961240.000000,1673606364.574260,,,,
1673606364.635339,79.049820,961290.000000,1673606364.624260,,,,
1673606364.635346,78.995552,961291.000000,1673606364.625260,,,,
1673606364.635354,79.049820,961292.000000,1673606364.626260,,,,
1673606364.635364,79.067909,961293.000000,1673606364.627260,,,,
1673606364.635382,79.031731,961294.000000,1673606364.628260,,,,
1673606364.635392,79.085999,961295.000000,1673606364.629260,,,,
1673606364.635399,79.031731,961296.000000,1673606364.630260,,,,
1673606364.635406,79.031731,961297.000000,1673606364.631260,,,,
1673606364.635451,79.031731,961298.000000,1673606364.632260,,,,
1673606364.635462,79.031731,961299.000000,1673606364.633260,,,,
1673606364.641945,,,,-0.907532,-0.908785,416652.000000,1673606364.536721
1673606364.642426,,,,-0.852479,-0.854069,416653.000000,1673606364.537728
1673606364.642438,,,,-0.769563,-0.769398,416654.000000,1673606364.538735
1673606364.642532,,,,-0.746412,-0.746031,416655.000000,1673606364.539742
1673606364.642540,,,,-0.733791,-0.734155,416656.000000,1673606364.540750
1673606364.642571,,,,-0.710135,-0.712735,416657.000000,1673606364.541757
1673606364.642578,,,,-0.731940,-0.733866,416658.000000,1673606364.542764
1673606364.642598,,,,-0.816827,-0.816518,416659.000000,1673606364.543771
1673606364.644515,,,,-0.893685,-0.895058,416660.000000,1673606364.544778
1673606364.644533,,,,-0.957633,-0.956626,416661.000000,1673606364.545785
1673606364.644715,,,,-0.964845,-0.963453,416662.000000,1673606364.546792
1673606364.649284,,,,-0.881280,-0.881619,416663.000000,1673606364.547799
1673606364.649809,,,,-0.867913,-0.870561,416664.000000,1673606364.548806
1673606364.649890,,,,-0.915321,-0.919796,416665.000000,1673606364.549813
1673606364.650016,,,,-0.934722,-0.937393,416666.000000,1673606364.550820
1673606364.652059,,,,-0.925971,-0.927224,416667.000000,1673606364.551827
1673606364.652369,,,,-0.918014,-0.918305,416668.000000,1673606364.552835
1673606364.652573,,,,-0.906234,-0.905347,416669.000000,1673606364.553842
1673606364.652822,,,,-0.865990,-0.866426,416670.000000,1673606364.554849
1673606364.659690,,,,-0.723406,-0.725837,416671.000000,1673606364.555856
1673606364.660303,,,,-0.623157,-0.623280,416672.000000,1673606364.556863
1673606364.660319,,,,-0.660876,-0.660759,416673.000000,1673606364.557870
1673606364.664950,,,,-0.701505,-0.700474,416674.000000,1673606364.558877
1673606364.665373,,,,-0.719631,-0.718985,416675.000000,1673606364.559884
1673606364.665687,,,,-0.724824,-0.726101,416676.000000,1673606364.560891
1673606364.665703,,,,-0.743840,-0.745718,416677.000000,1673606364.561898
1673606364.666036,,,,-0.759971,-0.762883,416678.000000,1673606364.562905
1673606364.666319,,,,-0.773530,-0.775529,416679.000000,1673606364.563912
1673606364.666768,,,,-0.798604,-0.798391,416680.000000,1673606364.564919
1673606364.666998,,,,-0.826540,-0.822095,416681.000000,1673606364.565927
1673606364.667071,,,,-0.867841,-0.862315,416682.000000,1673606364.566934
1673606364.667319,,,,-0.920009,-0.918450,416683.000000,1673606364.567941
1673606364.667738,,,,-0.933135,-0.930085,416684.000000,1673606364.568948
1673606364.668196,,,,-0.814207,-0.813609,416685.000000,1673606364.569955
1673606364.668853,,,,-0.710977,-0.713167,416686.000000,1673606364.570962
1673606364.668990,,,,-0.701360,-0.701964,416687.000000,1673606364.571969
1673606364.669211,,,,-0.722252,-0.721461,416688.000000,1673606364.572976
1673606364.669601,,,,-0.714463,-0.715451,416689.000000,1673606364.573983
1673606364.669664,,,,-0.723285,-0.724418,416690.000000,1673606364.574990
1673606364.669855,,,,-0.759971,-0.758051,416691.000000,1673606364.575997
1673606364.670212,,,,-0.791320,-0.789352,416692.000000,1673606364.577004
1673606364.670399,,,,-0.807091,-0.804954,416693.000000,1673606364.578012
1673606364.671117,,,,-0.828823,-0.830004,416694.000000,1673606364.579019
1673606364.671302,,,,-0.864908,-0.867580,416695.000000,1673606364.580026
1673606364.672485,,,,-0.883323,-0.882966,416696.000000,1673606364.581033
1673606364.672878,,,,-0.875101,-0.872724,416697.000000,1673606364.582040
1673606364.672926,,,,-0.847263,-0.849309,416710.000000,1673606364.595132
1673606364.673274,,,,-0.875390,-0.876787,416711.000000,1673606364.596139
1673606364.673292,,,,-0.942127,-0.943356,416712.000000,1673606364.597146
1673606364.673343,,,,-0.922533,-0.924364,416713.000000,1673606364.598153
1673606364.673346,,,,-0.859980,-0.861714,416714.000000,1673606364.599160
1673606364.673402,,,,-0.837526,-0.838467,416715.000000,1673606364.600167
1673606364.673407,,,,-0.829424,-0.829932,416716.000000,1673606364.601174
1673606364.673416,,,,-0.832598,-0.834692,416717.000000,1673606364.602181
1673606364.673436,,,,-0.876592,-0.878975,416718.000000,1673606364.603189
1673606364.673440,,,,-0.919528,-0.918450,416719.000000,1673606364.604196
1673606364.687521,79.031731,961300.000000,1673606364.626867,,,,
1673606364.688365,79.013641,961301.000000,1673606364.627867,,,,
1673606364.688375,79.085999,961302.000000,1673606364.628866,,,,
1673606364.688390,79.013641,961303.000000,1673606364.629867,,,,
1673606364.688401,79.031731,961304.000000,1673606364.630867,,,,
1673606364.688408,79.031731,961305.000000,1673606364.631866,,,,
1673606364.688412,79.031731,961306.000000,1673606364.632867,,,,
1673606364.688417,79.393532,961351.000000,1673606364.677866,,,,
1673606364.688434,79.393532,961352.000000,1673606364.678867,,,,
1673606364.688440,79.411613,961353.000000,1673606364.679867,,,,
1673606364.688444,79.429703,961354.000000,1673606364.680866,,,,
1673606364.688463,79.429703,961355.000000,1673606364.681866,,,,
1673606364.688468,79.447792,961356.000000,1673606364.682867,,,,
1673606364.688474,79.483971,961357.000000,1673606364.683867,,,,
1673606364.688490,79.538254,961358.000000,1673606364.684866,,,,
1673606364.688495,79.538254,961359.000000,1673606364.685867,,,,
1673606364.688502,79.574432,961360.000000,1673606364.686867,,,,
1673606364.691864,,,,-0.895608,-0.896981,416720.000000,1673606364.605203
1673606364.692063,,,,-0.845988,-0.848275,416721.000000,1673606364.606210
1673606364.692568,,,,-0.810072,-0.812070,416722.000000,1673606364.607217
1673606364.692657,,,,-0.803124,-0.804618,416723.000000,1673606364.608224
1673606364.697380,,,,-0.794782,-0.796420,416724.000000,1673606364.609231
1673606364.697593,,,,-0.735210,-0.735934,416725.000000,1673606364.610238
1673606364.698052,,,,-0.698043,-0.697541,416726.000000,1673606364.611245
1673606364.698277,,,,-0.733503,-0.732760,416727.000000,1673606364.612252
1673606364.698550,,,,-0.748696,-0.748507,416728.000000,1673606364.613259
1673606364.699072,,,,-0.736748,-0.737160,416729.000000,1673606364.614266
1673606364.699130,,,,-0.798845,-0.798151,416730.000000,1673606364.615273
1673606364.704686,,,,-0.936814,-0.935831,416731.000000,1673606364.616281
1673606364.704993,,,,-0.983356,-0.982950,416732.000000,1673606364.617288
1673606364.705341,,,,-0.918783,-0.919988,416733.000000,1673606364.618295
1673606364.714608,,,,-0.930178,-0.931984,416734.000000,1673606364.619302
1673606364.714939,,,,-0.907749,-0.906069,416735.000000,1673606364.620309
1673606364.715604,,,,-0.872144,-0.872893,416736.000000,1673606364.621316
1673606364.715628,,,,-0.844762,-0.843587,416737.000000,1673606364.622323
1673606364.727300,,,,-0.790311,-0.789761,416738.000000,1673606364.623330
1673606364.727420,,,,-0.790767,-0.791491,416739.000000,1673606364.624337
1673606364.727524,,,,-0.804639,-0.805411,416740.000000,1673606364.625344
1673606364.727579,,,,-0.808293,-0.806300,416741.000000,1673606364.626351
1673606364.729213,,,,-0.834521,-0.835558,416742.000000,1673606364.627358
1673606364.729364,,,,-0.869428,-0.869767,416743.000000,1673606364.628366
1673606364.729503,,,,-0.841445,-0.842890,416744.000000,1673606364.629373
1673606364.752627,79.592522,961361.000000,1673606364.690786,,,,
1673606364.754292,79.592522,961362.000000,1673606364.691786,,,,
1673606364.754319,79.538254,961363.000000,1673606364.692786,,,,
1673606364.754326,79.628700,961364.000000,1673606364.693786,,,,
1673606364.754330,79.610611,961365.000000,1673606364.694786,,,,
1673606364.754339,79.592522,961366.000000,1673606364.695786,,,,
1673606364.754350,79.646790,961367.000000,1673606364.696786,,,,
1673606364.754379,80.533203,961412.000000,1673606364.741786,,,,
1673606364.754410,80.497025,961413.000000,1673606364.742786,,,,
1673606364.754428,80.587471,961414.000000,1673606364.743786,,,,
1673606364.754436,80.551292,961415.000000,1673606364.744786,,,,
1673606364.754458,80.587471,961416.000000,1673606364.745785,,,,
1673606364.754505,80.623665,961417.000000,1673606364.746786,,,,
1673606364.754519,80.605560,961418.000000,1673606364.747786,,,,
1673606364.754526,80.623665,961419.000000,1673606364.748785,,,,
1673606364.754535,80.659843,961420.000000,1673606364.749786,,,,
1673606364.754544,80.696022,961421.000000,1673606364.750786,,,,
1673606364.758444,,,,-0.889478,-0.890563,416745.000000,1673606364.630380
1673606364.758598,,,,-0.940924,-0.940278,416746.000000,1673606364.631387
1673606364.759178,,,,-0.961647,-0.961218,416747.000000,1673606364.632394
1673606364.759724,,,,-0.971168,-0.970690,416748.000000,1673606364.633401
1673606364.759737,,,,-0.946742,-0.947082,416749.000000,1673606364.634408
1673606364.759769,,,,-0.875077,-0.876451,416750.000000,1673606364.635415
1673606364.759819,,,,-0.773530,-0.772379,416751.000000,1673606364.636422
1673606364.759846,,,,-0.752158,-0.751007,416752.000000,1673606364.637429
1673606364.759912,,,,-0.747951,-0.748074,416753.000000,1673606364.638436
1673606364.759925,,,,-0.721218,-0.722663,416754.000000,1673606364.639443
1673606364.760004,,,,-0.732685,-0.734299,416755.000000,1673606364.640450
1673606364.760071,,,,-0.750139,-0.751464,416756.000000,1673606364.641458
1673606364.760079,,,,-0.745162,-0.744973,416757.000000,1673606364.642465
1673606364.761334,,,,-0.722180,-0.724394,416758.000000,1673606364.643472
1673606364.761342,,,,-0.731820,-0.732857,416759.000000,1673606364.644479
1673606364.761348,,,,-0.762135,-0.760215,416760.000000,1673606364.645486
1673606364.761355,,,,-0.757904,-0.755623,416761.000000,1673606364.646493
1673606364.761363,,,,-0.753288,-0.755094,416762.000000,1673606364.647500
1673606364.761373,,,,-0.774468,-0.774423,416763.000000,1673606364.648507
1673606364.761377,,,,-0.799686,-0.797958,416764.000000,1673606364.649514
1673606364.761398,,,,-0.810817,-0.810844,416765.000000,1673606364.650521
1673606364.764668,,,,-0.791609,-0.792621,416766.000000,1673606364.651528
1673606364.764679,,,,-0.831492,-0.829620,416767.000000,1673606364.652535
1673606364.764812,,,,-0.882025,-0.880634,416768.000000,1673606364.653543
1673606364.764935,,,,-0.878058,-0.879889,416769.000000,1673606364.654550
1673606364.767040,,,,-0.864115,-0.865104,416770.000000,1673606364.655557
1673606364.767051,,,,-0.869212,-0.867676,416771.000000,1673606364.656564
1673606364.767191,,,,-0.868923,-0.869191,416772.000000,1673606364.657571
1673606364.767339,,,,-0.870077,-0.869671,416773.000000,1673606364.658578
1673606364.773185,,,,-0.876664,-0.876282,416774.000000,1673606364.659585
1673606364.773356,,,,-0.867024,-0.865921,416775.000000,1673606364.660592
1673606364.773676,,,,-0.861543,-0.865248,416776.000000,1673606364.661599
1673606364.773690,,,,-0.861350,-0.864094,416777.000000,1673606364.662606
1673606364.773695,,,,-0.752759,-0.754733,416778.000000,1673606364.663613
1673606364.773782,,,,-0.694269,-0.696363,416779.000000,1673606364.664620
1673606364.773792,,,,-0.682705,-0.680833,416780.000000,1673606364.665627
1673606364.773795,,,,-0.739922,-0.740477,416781.000000,1673606364.666635
1673606364.773799,,,,-0.805384,-0.808729,416782.000000,1673606364.667642
1673606364.773953,,,,-0.810024,-0.811349,416783.000000,1673606364.668649
1673606364.773965,,,,-0.800047,-0.800242,416784.000000,1673606364.669656
1673606364.773972,,,,-0.824929,-0.826807,416785.000000,1673606364.670663
1673606364.774018,,,,-0.817308,-0.820076,416786.000000,1673606364.671670
1673606364.779686,,,,-0.807427,-0.807070,416787.000000,1673606364.672677
1673606364.779884,,,,-0.826660,-0.825100,416788.000000,1673606364.673684
1673606364.779894,,,,-0.853537,-0.853925,416789.000000,1673606364.674691
1673606364.779973,,,,-0.868442,-0.867147,416790.000000,1673606364.675698
1673606364.781879,,,,-0.869789,-0.867964,416791.000000,1673606364.676705
1673606364.781893,,,,-0.885920,-0.886620,416792.000000,1673606364.677712
1673606364.781904,,,,-0.926260,-0.927705,416793.000000,1673606364.678720
1673606364.782268,,,,-0.939578,-0.941240,416794.000000,1673606364.679727
1673606364.803759,,,,-0.972129,-0.974897,416795.000000,1673606364.680734
1673606364.804052,,,,-1.009993,-1.011126,416796.000000,1673606364.681741
1673606364.804429,,,,-1.007781,-1.008385,416797.000000,1673606364.682748
1673606364.804498,,,,-0.967561,-0.967997,416798.000000,1673606364.683755
1673606364.804693,,,,-0.897123,-0.898688,416799.000000,1673606364.684762
1673606364.804876,,,,-0.834088,-0.835822,416800.000000,1673606364.685769
1673606364.805027,,,,-0.781319,-0.780264,416801.000000,1673606364.686776
1673606364.817262,,,,-0.770333,-0.768629,416802.000000,1673606364.687783
1673606364.817365,81.057823,961462.000000,1673606364.796172,,,,
1673606364.817542,,,,-0.848657,-0.848636,416803.000000,1673606364.688790
1673606364.817549,,,,-0.966696,-0.967492,416804.000000,1673606364.689797
1673606364.817626,81.021645,961463.000000,1673606364.797172,,,,
1673606364.817712,81.039734,961464.000000,1673606364.798172,,,,
1673606364.817720,81.003555,961465.000000,1673606364.799172,,,,
1673606364.817888,81.075912,961466.000000,1673606364.800172,,,,
1673606364.817898,81.039734,961467.000000,1673606364.801172,,,,
1673606364.817904,81.003555,961468.000000,1673606364.802172,,,,
1673606364.817909,81.021645,961469.000000,1673606364.803172,,,,
1673606364.817912,81.021645,961470.000000,1673606364.804172,,,,
1673606364.817925,80.967377,961471.000000,1673606364.805172,,,,
1673606364.817927,,,,-1.058242,-1.057284,416805.000000,1673606364.690804
1673606364.818004,81.039734,961473.000000,1673606364.807172,,,,
1673606364.818008,80.949287,961474.000000,1673606364.808172,,,,
1673606364.818010,80.967377,961475.000000,1673606364.809172,,,,
1673606364.818021,80.858826,961476.000000,1673606364.810172,,,,
1673606364.818031,80.913109,961477.000000,1673606364.811172,,,,
1673606364.818041,80.931198,961478.000000,1673606364.812172,,,,
1673606364.818045,80.931198,961479.000000,1673606364.813172,,,,
1673606364.818049,80.949287,961480.000000,1673606364.814172,,,,
1673606364.818053,80.895004,961481.000000,1673606364.815172,,,,
1673606364.818065,80.876915,961482.000000,1673606364.816172,,,,
1673606364.818085,,,,-1.092572,-1.093994,416806.000000,1673606364.691812
1673606364.818088,,,,-1.095072,-1.096590,416807.000000,1673606364.692819
1673606364.818139,,,,-1.110915,-1.109692,416808.000000,1673606364.693826
1673606364.827172,,,,-1.067065,-1.066491,416809.000000,1673606364.694833
1673606364.827191,,,,-1.012133,-1.011895,416810.000000,1673606364.695840
1673606364.827196,,,,-1.007685,-1.008097,416811.000000,1673606364.696847
1673606364.835813,,,,-0.937871,-0.935951,416812.000000,1673606364.697854
1673606364.836088,,,,-0.703476,-0.701580,416813.000000,1673606364.698861
1673606364.836102,,,,-0.493987,-0.493773,416814.000000,1673606364.699868
1673606364.836246,,,,-0.540097,-0.538441,416815.000000,1673606364.700875
1673606364.836693,,,,-0.619190,-0.617414,416816.000000,1673606364.701882
1673606364.836922,,,,-0.655635,-0.655759,416817.000000,1673606364.702889
1673606364.836951,,,,-0.644408,-0.644147,416818.000000,1673606364.703897
1673606364.836962,,,,-0.720569,-0.718432,416819.000000,1673606364.704904
1673606364.848928,,,,-0.859716,-0.859670,416820.000000,1673606364.705911
1673606364.849341,,,,-0.941021,-0.943283,416821.000000,1673606364.706918
1673606364.850005,,,,-0.970542,-0.973839,416822.000000,1673606364.707925
1673606364.850444,,,,-0.980471,-0.982301,416823.000000,1673606364.708932
1673606364.850466,,,,-0.925490,-0.926263,416824.000000,1673606364.709939
1673606364.850478,,,,-0.816322,-0.815724,416825.000000,1673606364.710946
1673606364.850538,,,,-0.761173,-0.761585,416826.000000,1673606364.711953
1673606364.851121,,,,-0.725161,-0.724707,416827.000000,1673606364.712960
1673606364.851381,,,,-0.705808,-0.706893,416828.000000,1673606364.713967
1673606364.851556,,,,-0.707755,-0.710042,416829.000000,1673606364.714974
1673606364.851794,,,,-0.690182,-0.689391,416830.000000,1673606364.715981
1673606364.852173,,,,-0.693667,-0.693334,416831.000000,1673606364.716989
1673606364.852388,,,,-0.751028,-0.751248,416832.000000,1673606364.717996
1673606364.853014,,,,-0.781343,-0.781467,416833.000000,1673606364.719003
1673606364.853047,,,,-0.817380,-0.817599,416834.000000,1673606364.720010
1673606364.853060,,,,-0.878467,-0.879336,416835.000000,1673606364.721017
1673606364.853326,,,,-0.916932,-0.917488,416836.000000,1673606364.722024
1673606364.853735,,,,-0.938809,-0.941168,416837.000000,1673606364.723031
1673606364.854017,,,,-0.900200,-0.901910,416838.000000,1673606364.724038
1673606364.854295,,,,-0.777473,-0.777884,416839.000000,1673606364.725045
1673606364.854457,,,,-0.693475,-0.693118,416840.000000,1673606364.726052
1673606364.854747,,,,-0.735017,-0.734299,416841.000000,1673606364.727059
1673606364.863305,,,,-0.763698,-0.762787,416842.000000,1673606364.728066
1673606364.863362,,,,-0.787354,-0.789111,416843.000000,1673606364.729074
1673606364.870419,80.895004,961483.000000,1673606364.809916,,,,
1673606364.870567,80.858826,961484.000000,1673606364.810916,,,,
1673606364.871656,80.876915,961485.000000,1673606364.811916,,,,
1673606364.871676,80.804558,961486.000000,1673606364.812917,,,,
1673606364.871682,80.714111,961534.000000,1673606364.860916,,,,
1673606364.871688,80.732201,961535.000000,1673606364.861917,,,,
1673606364.871696,80.714111,961536.000000,1673606364.862916,,,,
1673606364.871702,80.677933,961537.000000,1673606364.863916,,,,
1673606364.871718,80.587471,961538.000000,1673606364.864916,,,,
1673606364.871724,80.641754,961539.000000,1673606364.865916,,,,
1673606364.871737,80.641754,961540.000000,1673606364.866916,,,,
1673606364.871739,80.641754,961541.000000,1673606364.867916,,,,
1673606364.871749,80.623665,961542.000000,1673606364.868917,,,,
1673606364.871752,80.569382,961543.000000,1673606364.869916,,,,
1673606364.879599,,,,-0.783411,-0.782476,416844.000000,1673606364.730081
1673606364.879978,,,,-0.751990,-0.751849,416845.000000,1673606364.731088
1673606364.880253,,,,-0.692345,-0.693406,416846.000000,1673606364.732095
1673606364.880723,,,,-0.663232,-0.662923,416847.000000,1673606364.733102
1673606364.895634,,,,-0.700808,-0.698190,416848.000000,1673606364.734109
1673606364.895970,,,,-0.744609,-0.742881,416849.000000,1673606364.735116
1673606364.896086,,,,-0.775718,-0.773269,416850.000000,1673606364.736123
1673606364.896452,,,,-0.802908,-0.801637,416851.000000,1673606364.737130
1673606364.896472,,,,-0.816971,-0.816638,416852.000000,1673606364.738137
1673606364.896513,,,,-0.843897,-0.842962,416853.000000,1673606364.739144
1673606364.896728,,,,-0.885391,-0.883062,416854.000000,1673606364.740151
1673606364.896772,,,,-0.931669,-0.929869,416855.000000,1673606364.741158
1673606364.897129,,,,-0.976913,-0.978383,416856.000000,1673606364.742166
1673606364.897420,,,,-0.988549,-0.990331,416857.000000,1673606364.743173
1673606364.897614,,,,-0.963499,-0.963838,416858.000000,1673606364.744180
1673606364.898318,,,,-0.908229,-0.906429,416859.000000,1673606364.745187
1673606364.898332,,,,-0.847383,-0.847073,416860.000000,1673606364.746194
1673606364.898633,,,,-0.828030,-0.828442,416861.000000,1673606364.747201
1673606364.902637,,,,-0.840411,-0.840630,416862.000000,1673606364.748208
1673606364.903081,,,,-0.821323,-0.820196,416863.000000,1673606364.749215
1673606364.904026,,,,-0.778410,-0.778726,416864.000000,1673606364.750222
1673606364.904187,,,,-0.764539,-0.764951,416865.000000,1673606364.751229
1673606364.904195,,,,-0.761438,-0.763316,416866.000000,1673606364.752236
1673606364.904452,,,,-0.740811,-0.745887,416867.000000,1673606364.753243
1673606364.904460,,,,-0.769275,-0.771321,416868.000000,1673606364.754251
1673606364.904495,,,,-0.805408,-0.803079,416869.000000,1673606364.755258
1673606364.904581,,,,-0.832886,-0.832433,416870.000000,1673606364.756265
1673606364.904964,,,,-0.910730,-0.909434,416871.000000,1673606364.757272
1673606364.904984,,,,-1.000882,-1.000644,416872.000000,1673606364.758279
1673606364.905037,,,,-1.045910,-1.046105,416873.000000,1673606364.759286
1673606364.905059,,,,-0.998117,-1.000067,416874.000000,1673606364.760293
1673606364.905350,,,,-0.981505,-0.979921,416875.000000,1673606364.761300
1673606364.905447,,,,-0.937246,-0.937393,416876.000000,1673606364.762307
1673606364.905886,,,,-0.828391,-0.826182,416877.000000,1673606364.763314
1673606364.906484,,,,-0.905248,-0.905155,416881.000000,1673606364.767343
1673606364.906497,,,,-0.956743,-0.956337,416882.000000,1673606364.768350
1673606364.906505,,,,-0.981265,-0.981820,416883.000000,1673606364.769357
1673606364.906579,,,,-0.961167,-0.962925,416884.000000,1673606364.770364
1673606364.906627,,,,-0.943329,-0.944966,416885.000000,1673606364.771371
1673606364.906700,,,,-0.944338,-0.945351,416886.000000,1673606364.772378
1673606364.906742,,,,-0.916812,-0.915444,416887.000000,1673606364.773385
1673606364.907015,,,,-0.803557,-0.805146,416888.000000,1673606364.774392
1673606364.907171,,,,-0.746989,-0.747521,416889.000000,1673606364.775399
1673606364.907362,,,,-0.771655,-0.772307,416890.000000,1673606364.776406
1673606364.907371,,,,-0.797571,-0.797598,416891.000000,1673606364.777413
1673606364.907389,,,,-0.799494,-0.801396,416892.000000,1673606364.778420
1673606364.907706,,,,-0.817885,-0.818393,416893.000000,1673606364.779428
1673606364.907716,,,,-0.855316,-0.856906,416894.000000,1673606364.780435
1673606364.907748,,,,-0.866952,-0.869311,416895.000000,1673606364.781442
1673606364.908104,,,,-0.789277,-0.789304,416896.000000,1673606364.782449
1673606364.908141,,,,-0.742638,-0.743579,416897.000000,1673606364.783456
1673606364.933362,,,,-0.724487,-0.725188,416898.000000,1673606364.784463
1673606364.933383,,,,-0.687778,-0.691771,416899.000000,1673606364.785470
1673606364.933423,,,,-0.683787,-0.683862,416900.000000,1673606364.786477
1673606364.933544,,,,-0.683426,-0.682924,416901.000000,1673606364.787484
1673606364.934088,,,,-0.692514,-0.692108,416902.000000,1673606364.788491
1673606364.934595,,,,-0.720160,-0.722832,416903.000000,1673606364.789498
1673606364.934622,,,,-0.774348,-0.774567,416904.000000,1673606364.790505
1673606364.935189,,,,-0.815793,-0.812479,416905.000000,1673606364.791512
1673606364.935214,,,,-0.856662,-0.852410,416906.000000,1673606364.792520
1673606364.935465,,,,-0.908975,-0.909603,416907.000000,1673606364.793527
1673606364.935827,,,,-0.944074,-0.946072,416908.000000,1673606364.794534
1673606364.935850,,,,-0.975519,-0.979272,416909.000000,1673606364.795541
1673606364.936078,,,,-1.011459,-1.016222,416910.000000,1673606364.796548
1673606364.936221,,,,-1.042231,-1.045360,416911.000000,1673606364.797555
1673606364.936321,,,,-1.029923,-1.032762,416912.000000,1673606364.798562
1673606364.936520,,,,-0.954291,-0.953669,416913.000000,1673606364.799569
1673606364.936695,,,,-0.878611,-0.877797,416914.000000,1673606364.800576
1673606364.936790,79.809608,961568.000000,1673606364.898460,,,,
1673606364.936798,79.755325,961569.000000,1673606364.899460,,,,
1673606364.936919,,,,-0.833848,-0.835293,416915.000000,1673606364.801583
1673606364.936931,,,,-0.810793,-0.810123,416916.000000,1673606364.802590
1673606364.936934,79.719147,961570.000000,1673606364.900460,,,,
1673606364.937283,,,,-0.762904,-0.760191,416917.000000,1673606364.803597
1673606364.937458,79.719147,961571.000000,1673606364.901460,,,,
1673606364.937801,79.664879,961572.000000,1673606364.902460,,,,
1673606364.937813,79.610611,961573.000000,1673606364.903460,,,,
1673606364.937826,79.628700,961574.000000,1673606364.904460,,,,
1673606364.937831,79.610611,961575.000000,1673606364.905460,,,,
1673606364.937879,79.574432,961576.000000,1673606364.906460,,,,
1673606364.937884,79.520164,961577.000000,1673606364.907460,,,,
1673606364.937891,79.212624,961595.000000,1673606364.925460,,,,
1673606364.937902,79.230728,961596.000000,1673606364.926460,,,,
1673606364.937908,79.303085,961597.000000,1673606364.927460,,,,
1673606364.937915,79.230728,961598.000000,1673606364.928460,,,,
1673606364.937924,79.140266,961599.000000,1673606364.929460,,,,
1673606364.937929,79.140266,961600.000000,1673606364.930460,,,,
1673606364.937944,79.122177,961601.000000,1673606364.931460,,,,
1673606364.937994,79.158356,961602.000000,1673606364.932460,,,,
1673606364.937998,79.104088,961603.000000,1673606364.933460,,,,
1673606364.938005,79.140266,961604.000000,1673606364.934460,,,,
1673606364.938189,,,,-0.732709,-0.733313,416918.000000,1673606364.804605
1673606364.938412,,,,-0.705784,-0.705306,416919.000000,1673606364.805612
1673606364.938429,,,,-0.671286,-0.669678,416920.000000,1673606364.806619
1673606364.938475,,,,-0.657775,-0.658643,416921.000000,1673606364.807626
1673606364.938526,,,,-0.698235,-0.701219,416922.000000,1673606364.808633
1673606364.938606,,,,-0.784348,-0.785121,416923.000000,1673606364.809640
1673606364.938615,,,,-0.847503,-0.845751,416924.000000,1673606364.810647
1673606364.938622,,,,-0.894166,-0.894770,416925.000000,1673606364.811654
1673606364.944383,,,,-0.927318,-0.930590,416926.000000,1673606364.812661
1673606364.944545,,,,-0.962152,-0.963790,416927.000000,1673606364.813668
1673606364.944749,,,,-1.022398,-1.021199,416928.000000,1673606364.814675
1673606364.944851,,,,-1.108343,-1.110389,416929.000000,1673606364.815682
1673606364.946760,,,,-1.119401,-1.119044,416930.000000,1673606364.816689
1673606364.946967,,,,-0.919504,-0.919363,416931.000000,1673606364.817697
1673606364.947016,,,,-0.705087,-0.703695,416932.000000,1673606364.818704
1673606364.947233,,,,-0.699726,-0.699416,416933.000000,1673606364.819711
1673606364.952242,,,,-0.762928,-0.762066,416934.000000,1673606364.820718
1673606364.952829,,,,-0.782065,-0.780817,416935.000000,1673606364.821725
1673606364.952851,,,,-0.754827,-0.754229,416936.000000,1673606364.822732
1673606364.954453,,,,-0.725112,-0.723841,416937.000000,1673606364.823739
1673606364.955086,,,,-0.712515,-0.712711,416938.000000,1673606364.824746
1673606364.955109,,,,-0.715256,-0.713744,416939.000000,1673606364.825753
1673606364.985062,,,,-0.743696,-0.742545,416940.000000,1673606364.826760
1673606364.985139,,,,-0.775886,-0.774302,416941.000000,1673606364.827767
1673606364.985859,,,,-0.796657,-0.795049,416942.000000,1673606364.828774
1673606364.986166,,,,-0.768530,-0.768990,416943.000000,1673606364.829782
1673606364.986338,,,,-0.742999,-0.743795,416944.000000,1673606364.830789
1673606364.986469,,,,-0.715400,-0.717302,416945.000000,1673606364.831796
1673606364.986630,,,,-0.713621,-0.714994,416946.000000,1673606364.832803
1673606364.986720,,,,-0.725281,-0.726630,416947.000000,1673606364.833810
1673606364.986880,,,,-0.750812,-0.751873,416948.000000,1673606364.834817
1673606364.987034,,,,-0.796321,-0.796997,416949.000000,1673606364.835824
1673606364.987165,,,,-0.817404,-0.814715,416950.000000,1673606364.836831
1673606364.987973,,,,-0.826948,-0.822528,416951.000000,1673606364.837838
1673606364.988252,,,,-0.822765,-0.822167,416952.000000,1673606364.838845
1673606364.988263,,,,-0.824857,-0.825365,416953.000000,1673606364.839852
1673606364.988281,,,,-0.840291,-0.837120,416954.000000,1673606364.840859
1673606364.988627,,,,-0.855821,-0.855271,416955.000000,1673606364.841866
1673606364.988634,,,,-0.863730,-0.863469,416956.000000,1673606364.842874
1673606364.988644,,,,-0.867769,-0.869671,416957.000000,1673606364.843881
1673606364.991465,78.525208,961656.000000,1673606364.980944,,,,
1673606364.991482,78.489029,961657.000000,1673606364.981944,,,,
1673606364.991490,78.507118,961658.000000,1673606364.982944,,,,
1673606364.991497,78.489029,961659.000000,1673606364.983944,,,,
1673606364.991502,78.452850,961660.000000,1673606364.984944,,,,
1673606364.991506,78.434761,961661.000000,1673606364.985944,,,,
1673606364.991541,78.380478,961662.000000,1673606364.986944,,,,
1673606364.991546,78.380478,961663.000000,1673606364.987944,,,,
1673606364.991560,78.398582,961664.000000,1673606364.988944,,,,
1673606364.991580,78.344299,961665.000000,1673606364.989944,,,,
1673606364.992043,,,,-0.842575,-0.843323,416958.000000,1673606364.844888
1673606364.992584,,,,-0.801537,-0.801973,416959.000000,1673606364.845895
1673606364.993033,,,,-0.769131,-0.769590,416960.000000,1673606364.846902
1673606364.993046,,,,-0.790767,-0.792357,416961.000000,1673606364.847909
1673606364.993052,,,,-0.825915,-0.828129,416962.000000,1673606364.848916
1673606364.993084,,,,-0.852575,-0.853708,416963.000000,1673606364.849923
1673606364.993250,,,,-0.864115,-0.867508,416964.000000,1673606364.850930
1673606364.993262,,,,-0.876736,-0.878735,416965.000000,1673606364.851937
1673606364.993330,,,,-0.877265,-0.878951,416966.000000,1673606364.852944
1673606364.993447,,,,-0.845964,-0.846184,416967.000000,1673606364.853951
1673606364.993460,,,,-0.812211,-0.812575,416968.000000,1673606364.854959
1673606364.993477,,,,-0.825073,-0.826783,416969.000000,1673606364.855966
1673606364.993612,,,,-0.868731,-0.869479,416970.000000,1673606364.856973
1673606364.993621,,,,-0.882362,-0.883663,416971.000000,1673606364.857980
1673606364.993700,,,,-0.887963,-0.888327,416972.000000,1673606364.858987
1673606364.993759,,,,-0.893613,-0.891716,416973.000000,1673606364.859994
1673606364.993771,,,,-0.881136,-0.881018,416974.000000,1673606364.861001
1673606364.993847,,,,-0.870005,-0.868325,416975.000000,1673606364.862008
1673606364.993854,,,,-0.884646,-0.882605,416976.000000,1673606364.863015
1673606364.994112,,,,-0.884742,-0.882653,416977.000000,1673606364.864022
1673606364.994123,,,,-0.845940,-0.845318,416978.000000,1673606364.865029
1673606364.994131,,,,-0.835555,-0.835534,416979.000000,1673606364.866036
1673606365.014183,,,,-0.896185,-0.897078,416980.000000,1673606364.867043
1673606365.014284,,,,-1.000593,-1.002375,416981.000000,1673606364.868051
1673606365.014753,,,,-1.017373,-1.016174,416982.000000,1673606364.869058
1673606365.014771,,,,-0.912605,-0.913064,416983.000000,1673606364.870065
1673606365.014784,,,,-0.930395,-0.934581,416984.000000,1673606364.871072
1673606365.014985,,,,-0.987876,-0.992086,416985.000000,1673606364.872079
1673606365.014993,,,,-0.980543,-0.981989,416986.000000,1673606364.873086
1673606365.015418,,,,-0.990472,-0.990595,416987.000000,1673606364.874093
1673606365.015956,,,,-1.000257,-1.000981,416988.000000,1673606364.875100
1673606365.016051,,,,-0.961984,-0.962588,416989.000000,1673606364.876107
1673606365.016221,,,,-0.966191,-0.966074,416990.000000,1673606364.877114
1673606365.016363,,,,-0.953978,-0.951698,416991.000000,1673606364.878121
1673606365.016438,,,,-0.953065,-0.951505,416992.000000,1673606364.879128
1673606365.016449,,,,-0.939073,-0.938836,416993.000000,1673606364.880136
1673606365.016634,,,,-0.896810,-0.892005,416994.000000,1673606364.881143
1673606365.016644,,,,-0.817356,-0.814859,416995.000000,1673606364.882150
1673606365.016672,,,,-0.744754,-0.743651,416996.000000,1673606364.883157
1673606365.016677,,,,-0.683907,-0.687059,416997.000000,1673606364.884164
1673606365.016975,,,,-0.636114,-0.639098,416998.000000,1673606364.885171
1673606365.017148,,,,-0.582696,-0.586329,416999.000000,1673606364.886178
1673606365.017377,,,,-0.576518,-0.576112,417000.000000,1673606364.887185
1673606365.017517,,,,-0.645394,-0.644459,417001.000000,1673606364.888192
1673606365.017772,,,,-0.710808,-0.712807,417002.000000,1673606364.889199
1673606365.017875,,,,-0.777930,-0.781995,417003.000000,1673606364.890206
1673606365.021818,,,,-0.809783,-0.812238,417004.000000,1673606364.891213
1673606365.022034,,,,-0.777689,-0.777716,417005.000000,1673606364.892220
1673606365.022234,,,,-0.765813,-0.764903,417006.000000,1673606364.893228
1673606365.022453,,,,-0.754250,-0.754902,417007.000000,1673606364.894235
1673606365.027216,,,,-0.745884,-0.749228,417008.000000,1673606364.895242
1673606365.027436,,,,-0.741388,-0.743002,417009.000000,1673606364.896249
1673606365.027614,,,,-0.723261,-0.724202,417010.000000,1673606364.897256
1673606365.027634,,,,-0.710856,-0.711701,417011.000000,1673606364.898263
1673606365.030390,,,,-0.734104,-0.737785,417012.000000,1673606364.899270
1673606365.030798,,,,-0.780574,-0.783005,417013.000000,1673606364.900277
1673606365.030890,,,,-0.826972,-0.829019,417014.000000,1673606364.901284
1673606365.031395,,,,-0.886833,-0.888159,417015.000000,1673606364.902291
1673606365.032126,,,,-0.934602,-0.937586,417016.000000,1673606364.903298
1673606365.032358,,,,-0.970134,-0.970041,417017.000000,1673606364.904305
1673606365.032462,,,,-0.986698,-0.986845,417018.000000,1673606364.905313
1673606365.032605,,,,-0.994391,-0.996245,417019.000000,1673606364.906320
1673606365.032897,,,,-0.983428,-0.985667,417020.000000,1673606364.907327
1673606365.033242,,,,-0.942271,-0.942851,417021.000000,1673606364.908334
1673606365.033935,,,,-0.907436,-0.908425,417022.000000,1673606364.909341
1673606365.033949,,,,-0.947536,-0.949438,417023.000000,1673606364.910348
1673606365.033964,,,,-0.969845,-0.972949,417024.000000,1673606364.911355
1673606365.034004,,,,-0.955854,-0.958116,417025.000000,1673606364.912362
1673606365.046613,,,,-0.896137,-0.894409,417026.000000,1673606364.913369
1673606365.046806,,,,-0.837646,-0.838130,417027.000000,1673606364.914376
1673606365.046920,,,,-0.824905,-0.826615,417028.000000,1673606364.915383
1673606365.046926,,,,-0.793099,-0.792934,417029.000000,1673606364.916390
1673606365.047066,,,,-0.796248,-0.796131,417030.000000,1673606364.917397
1673606365.047271,,,,-0.872096,-0.871210,417031.000000,1673606364.918405
1673606365.047344,,,,-0.955830,-0.957395,417032.000000,1673606364.919412
1673606365.047482,,,,-1.025475,-1.025454,417033.000000,1673606364.920419
1673606365.047875,,,,-1.003911,-1.003842,417034.000000,1673606364.921426
1673606365.048104,,,,-0.894767,-0.895491,417035.000000,1673606364.922433
1673606365.048115,,,,-0.793147,-0.795891,417036.000000,1673606364.923440
1673606365.048275,,,,-0.748336,-0.749324,417037.000000,1673606364.924447
1673606365.048515,,,,-0.712227,-0.709778,417038.000000,1673606364.925454
1673606365.048572,,,,-0.634143,-0.634867,417039.000000,1673606364.926461
1673606365.054019,,,,-0.610030,-0.613640,417040.000000,1673606364.927468
1673606365.054026,,,,-0.612747,-0.615226,417041.000000,1673606364.928475
1673606365.054196,,,,-0.638062,-0.639627,417042.000000,1673606364.929482
1673606365.054423,,,,-0.686335,-0.689367,417043.000000,1673606364.930490
1673606365.054468,,,,-0.728983,-0.730717,417044.000000,1673606364.931497
1673606365.054561,,,,-0.748841,-0.748579,417045.000000,1673606364.932504
1673606365.054796,,,,-0.750451,-0.749108,417046.000000,1673606364.933511
1673606365.056009,77.711143,961717.000000,1673606365.045052,,,,
1673606365.056023,77.674973,961718.000000,1673606365.046052,,,,
1673606365.056031,77.602615,961719.000000,1673606365.047052,,,,
1673606365.056036,77.620705,961720.000000,1673606365.048052,,,,
1673606365.056044,77.602615,961721.000000,1673606365.049052,,,,
1673606365.056050,77.620705,961722.000000,1673606365.050052,,,,
1673606365.056056,77.530243,961723.000000,1673606365.051052,,,,
1673606365.056063,77.475975,961724.000000,1673606365.052052,,,,
1673606365.056076,77.475975,961725.000000,1673606365.053052,,,,
1673606365.056078,77.475975,961726.000000,1673606365.054052,,,,
1673606365.068383,,,,-0.762904,-0.762234,417047.000000,1673606364.934518
1673606365.068731,,,,-0.791080,-0.791900,417048.000000,1673606364.935525
1673606365.068800,,,,-0.846541,-0.846520,417049.000000,1673606364.936532
1673606365.068810,,,,-0.873130,-0.874383,417050.000000,1673606364.937539
1673606365.069252,,,,-0.852383,-0.853035,417051.000000,1673606364.938546
1673606365.069355,,,,-0.839594,-0.839789,417052.000000,1673606364.939553
1673606365.069585,,,,-0.828703,-0.829668,417053.000000,1673606364.940560
1673606365.069847,,,,-0.774780,-0.775961,417054.000000,1673606364.941567
1673606365.069942,,,,-0.779372,-0.780433,417055.000000,1673606364.942575
1673606365.070222,,,,-0.817236,-0.817960,417056.000000,1673606364.943582
1673606365.070425,,,,-0.802355,-0.803416,417057.000000,1673606364.944589
1673606365.070686,,,,-0.803941,-0.804497,417058.000000,1673606364.945596
1673606365.070862,,,,-0.831396,-0.832168,417059.000000,1673606364.946603
1673606365.071104,,,,-0.851542,-0.851160,417060.000000,1673606364.947610
1673606365.071510,,,,-0.833271,-0.833538,417061.000000,1673606364.948617
1673606365.071573,,,,-0.815192,-0.815652,417062.000000,1673606364.949624
1673606365.071654,,,,-0.829208,-0.829668,417063.000000,1673606364.950631
1673606365.071828,,,,-0.860317,-0.859382,417064.000000,1673606364.951638
1673606365.072003,,,,-0.870149,-0.866955,417065.000000,1673606364.952645
1673606365.072016,,,,-0.851878,-0.850439,417066.000000,1673606364.953652
1673606365.072459,,,,-0.845700,-0.845366,417067.000000,1673606364.954659
1673606365.072756,,,,-0.876688,-0.876811,417068.000000,1673606364.955667
1673606365.072763,,,,-0.858201,-0.855319,417069.000000,1673606364.956674
1673606365.072975,,,,-0.838728,-0.837120,417070.000000,1673606364.957681
1673606365.073072,,,,-0.905801,-0.904338,417071.000000,1673606364.958688
1673606365.073449,,,,-0.985856,-0.984561,417072.000000,1673606364.959695
1673606365.073467,,,,-1.019297,-1.019131,417073.000000,1673606364.960702
1673606365.073654,,,,-0.998670,-0.997831,417074.000000,1673606364.961709
1673606365.073678,,,,-0.995064,-0.993360,417075.000000,1673606364.962716
1673606365.074516,,,,-1.054540,-1.055216,417076.000000,1673606364.963723
1673606365.074543,,,,-1.072330,-1.073367,417077.000000,1673606364.964730
1673606365.074549,,,,-1.025667,-1.021583,417078.000000,1673606364.965737
1673606365.074570,,,,-0.919024,-0.919459,417079.000000,1673606364.966744
1673606365.074678,,,,-0.810384,-0.810940,417080.000000,1673606364.967752
1673606365.074697,,,,-0.742109,-0.743362,417081.000000,1673606364.968759
1673606365.074708,,,,-0.709053,-0.710451,417082.000000,1673606364.969766
1673606365.079929,,,,-0.694124,-0.695281,417083.000000,1673606364.970773
1673606365.080251,,,,-0.707755,-0.708359,417084.000000,1673606364.971780
1673606365.080471,,,,-0.739248,-0.740021,417085.000000,1673606364.972787
1673606365.080696,,,,-0.771823,-0.769182,417086.000000,1673606364.973794
1673606365.080847,,,,-0.778170,-0.777596,417087.000000,1673606364.974801
1673606365.081114,,,,-0.752014,-0.751849,417088.000000,1673606364.975808
1673606365.081283,,,,-0.734705,-0.733313,417089.000000,1673606364.976815
1673606365.081451,,,,-0.740643,-0.740934,417090.000000,1673606364.977822
1673606365.087765,,,,-0.736508,-0.737280,417091.000000,1673606364.978829
1673606365.087778,,,,-0.724343,-0.726294,417092.000000,1673606364.979836
1673606365.088116,,,,-0.749369,-0.751031,417093.000000,1673606364.980844
1673606365.088243,,,,-0.806129,-0.804978,417094.000000,1673606364.981851
1673606365.088644,,,,-0.829208,-0.826038,417095.000000,1673606364.982858
1673606365.088657,,,,-0.828463,-0.828081,417096.000000,1673606364.983865
1673606365.088815,,,,-0.833511,-0.834813,417097.000000,1673606364.984872
1673606365.088973,,,,-0.845724,-0.848876,417098.000000,1673606364.985879
1673606365.088992,,,,-0.843608,-0.846232,417099.000000,1673606364.986886
1673606365.089091,,,,-0.879236,-0.878783,417100.000000,1673606364.987893
1673606365.089715,,,,-0.972225,-0.971916,417101.000000,1673606364.988900
1673606365.089927,,,,-1.058819,-1.056514,417102.000000,1673606364.989907
1673606365.090050,,,,-1.140749,-1.138324,417103.000000,1673606364.990914
1673606365.090394,,,,-1.190201,-1.189459,417104.000000,1673606364.991921
1673606365.090544,,,,-1.238787,-1.238093,417105.000000,1673606364.992929
1673606365.090715,,,,-1.233113,-1.229967,417106.000000,1673606364.993936
1673606365.094558,,,,-1.120916,-1.121712,417107.000000,1673606364.994943
1673606365.094842,,,,-0.982923,-0.984753,417108.000000,1673606364.995950
1673606365.095161,,,,-0.822885,-0.823369,417109.000000,1673606364.996957
1673606365.095192,,,,-0.726339,-0.727471,417110.000000,1673606364.997964
1673606365.118876,77.475975,961727.000000,1673606365.058362,,,,
1673606365.119874,76.083031,961778.000000,1673606365.109362,,,,
1673606365.119880,76.028763,961779.000000,1673606365.110363,,,,
1673606365.119882,76.010674,961780.000000,1673606365.111362,,,,
1673606365.119932,75.956413,961781.000000,1673606365.112362,,,,
1673606365.119941,75.938324,961782.000000,1673606365.113362,,,,
1673606365.119961,75.884056,961783.000000,1673606365.114362,,,,
1673606365.119965,75.884056,961784.000000,1673606365.115362,,,,
1673606365.119972,75.920235,961785.000000,1673606365.116362,,,,
1673606365.119977,75.847862,961786.000000,1673606365.117362,,,,
1673606365.119984,75.865944,961787.000000,1673606365.118362,,,,
1673606365.126216,,,,-0.631066,-0.632367,417111.000000,1673606364.998971
1673606365.126312,,,,-0.498699,-0.498101,417112.000000,1673606364.999978
1673606365.126691,,,,-0.493939,-0.492932,417113.000000,1673606365.000985
1673606365.127026,,,,-0.563680,-0.565030,417114.000000,1673606365.001992
1673606365.127321,,,,-0.635105,-0.639363,417115.000000,1673606365.002999
1673606365.127729,,,,-0.655131,-0.654148,417116.000000,1673606365.004006
1673606365.128163,,,,-0.665756,-0.667490,417117.000000,1673606365.005013
1673606365.129163,,,,-0.694100,-0.691867,417118.000000,1673606365.006021
1673606365.129608,,,,-0.706890,-0.702950,417119.000000,1673606365.007028
1673606365.129809,,,,-0.707250,-0.704513,417120.000000,1673606365.008035
1673606365.130662,,,,-0.721362,-0.720380,417121.000000,1673606365.009042
1673606365.130710,,,,-0.746773,-0.744973,417122.000000,1673606365.010049
1673606365.131008,,,,-0.758505,-0.755935,417123.000000,1673606365.011056
1673606365.131215,,,,-0.759058,-0.759133,417124.000000,1673606365.012063
1673606365.131242,,,,-0.779156,-0.778389,417125.000000,1673606365.013070
1673606365.131249,,,,-0.805384,-0.804978,417126.000000,1673606365.014077
1673606365.131257,,,,-0.829953,-0.831014,417127.000000,1673606365.015084
1673606365.131304,,,,-0.844882,-0.846039,417128.000000,1673606365.016091
1673606365.131321,,,,-0.870894,-0.872172,417129.000000,1673606365.017098
1673606365.131975,,,,-0.885559,-0.885322,417130.000000,1673606365.018106
1673606365.132001,,,,-0.901306,-0.902246,417131.000000,1673606365.019113
1673606365.132013,,,,-0.937607,-0.937393,417132.000000,1673606365.020120
1673606365.132196,,,,-0.966287,-0.968189,417133.000000,1673606365.021127
1673606365.132457,,,,-0.981240,-0.980715,417134.000000,1673606365.022134
1673606365.132544,,,,-0.967970,-0.966579,417135.000000,1673606365.023141
1673606365.132816,,,,-0.945540,-0.945976,417136.000000,1673606365.024148
1673606365.133373,,,,-0.858658,-0.858685,417137.000000,1673606365.025155
1673606365.133659,,,,-0.767784,-0.767643,417138.000000,1673606365.026162
1673606365.133671,,,,-0.781391,-0.780577,417139.000000,1673606365.027169
1673606365.140961,,,,-0.806297,-0.802935,417140.000000,1673606365.028176
1673606365.141130,,,,-0.818125,-0.817311,417141.000000,1673606365.029183
1673606365.141258,,,,-0.792570,-0.793823,417142.000000,1673606365.030190
1673606365.141285,,,,-0.763313,-0.764013,417143.000000,1673606365.031198
1673606365.141445,,,,-0.742157,-0.742641,417144.000000,1673606365.032205
1673606365.141586,,,,-0.728406,-0.731847,417145.000000,1673606365.033212
1673606365.141734,,,,-0.749730,-0.748747,417146.000000,1673606365.034219
1673606365.141903,,,,-0.793748,-0.791588,417147.000000,1673606365.035226
1673606365.142049,,,,-0.837767,-0.836904,417148.000000,1673606365.036233
1673606365.142236,,,,-0.878924,-0.877052,417149.000000,1673606365.037240
1673606365.142638,,,,-0.896329,-0.890947,417150.000000,1673606365.038247
1673606365.142722,,,,-0.881112,-0.879023,417151.000000,1673606365.039254
1673606365.142809,,,,-0.848465,-0.847193,417152.000000,1673606365.040261
1673606365.142817,,,,-0.796128,-0.795362,417153.000000,1673606365.041268
1673606365.142822,,,,-0.793340,-0.792790,417154.000000,1673606365.042275
1673606365.142967,,,,-0.842623,-0.841352,417155.000000,1673606365.043283
1673606365.142975,,,,-0.881400,-0.877989,417156.000000,1673606365.044290
1673606365.143094,,,,-0.904191,-0.902703,417157.000000,1673606365.045297
1673606365.143210,,,,-0.936189,-0.934821,417158.000000,1673606365.046304
1673606365.143225,,,,-0.976336,-0.976291,417159.000000,1673606365.047311
1673606365.143271,,,,-1.030211,-1.027305,417160.000000,1673606365.048318
1673606365.147079,,,,-1.092909,-1.094474,417161.000000,1673606365.049325
1673606365.147092,,,,-1.147409,-1.148349,417162.000000,1673606365.050332
1673606365.147226,,,,-1.172651,-1.168591,417163.000000,1673606365.051339
1673606365.147372,,,,-1.131542,-1.133108,417164.000000,1673606365.052346
1673606365.155084,,,,-1.087163,-1.088440,417165.000000,1673606365.053353
1673606365.155305,,,,-0.997276,-0.996605,417166.000000,1673606365.054360
1673606365.155351,,,,-0.867216,-0.867988,417167.000000,1673606365.055367
1673606365.155356,,,,-0.787185,-0.788150,417168.000000,1673606365.056375
1673606365.155522,,,,-0.743167,-0.743146,417169.000000,1673606365.057382
1673606365.155638,,,,-0.686552,-0.686603,417170.000000,1673606365.058389
1673606365.155764,,,,-0.617940,-0.619121,417171.000000,1673606365.059396
1673606365.156986,,,,-0.581134,-0.581954,417172.000000,1673606365.060403
