__time,/gdx/grip_force_stream/grip_force,/gdx/grip_force_stream/header/seq,/gdx/grip_force_stream/header/stamp,/shimmer0/emg_stream/emg_ch1,/shimmer0/emg_stream/emg_ch2,/shimmer0/emg_stream/header/seq,/shimmer0/emg_stream/header/stamp
1670926173.046804,,,,7.321878,7.325689,447543.000000,1670926173.088797
1670926173.048741,,,,7.320821,7.325617,447544.000000,1670926173.089804
1670926173.049190,,,,7.318489,7.322948,447545.000000,1670926173.090811
1670926173.049207,,,,7.322263,7.325906,447546.000000,1670926173.091819
1670926173.049214,,,,7.325989,7.326699,447547.000000,1670926173.092826
1670926173.054489,,,,7.323754,7.323934,447548.000000,1670926173.093833
1670926173.054677,,,,7.323634,7.326507,447549.000000,1670926173.094840
1670926173.054700,,,,7.326037,7.326530,447550.000000,1670926173.095847
1670926173.054712,,,,7.331855,7.331964,447551.000000,1670926173.096854
1670926173.056375,,,,7.328947,7.331411,447552.000000,1670926173.097861
1670926173.056756,,,,7.331110,7.332805,447553.000000,1670926173.098868
1670926173.056773,,,,7.330269,7.332565,447554.000000,1670926173.099875
1670926173.070996,,,,7.327168,7.331099,447555.000000,1670926173.100882
1670926173.071122,,,,7.325749,7.329175,447556.000000,1670926173.101889
1670926173.071138,,,,7.321301,7.325593,447557.000000,1670926173.102896
1670926173.078333,,,,7.321422,7.324896,447558.000000,1670926173.103904
1670926173.078560,,,,7.318176,7.319102,447559.000000,1670926173.104911
1670926173.078807,,,,7.317407,7.316843,447560.000000,1670926173.105918
1670926173.079211,,,,7.317527,7.318044,447561.000000,1670926173.106925
1670926173.079665,,,,7.317191,7.318814,447562.000000,1670926173.107932
1670926173.079678,,,,7.319859,7.323117,447563.000000,1670926173.108939
1670926173.079694,,,,7.320821,7.323766,447564.000000,1670926173.109946
1670926173.082110,-0.869183,952262.000000,1670926173.068865,,,,
1670926173.082129,-0.833005,952263.000000,1670926173.069865,,,,
1670926173.082135,-0.814908,952264.000000,1670926173.070865,,,,
1670926173.082140,-0.869183,952265.000000,1670926173.071865,,,,
1670926173.082167,-0.833005,952266.000000,1670926173.072865,,,,
1670926173.082170,-0.887272,952267.000000,1670926173.073865,,,,
1670926173.082197,-0.851094,952268.000000,1670926173.074865,,,,
1670926173.082203,-0.833005,952269.000000,1670926173.075865,,,,
1670926173.082237,-0.869183,952270.000000,1670926173.076865,,,,
1670926173.082243,-0.869183,952271.000000,1670926173.077865,,,,
1670926173.083905,,,,7.315845,7.322011,447565.000000,1670926173.110953
1670926173.084161,,,,7.316782,7.320425,447566.000000,1670926173.111960
1670926173.084365,,,,7.322263,7.326338,447567.000000,1670926173.112967
1670926173.084471,,,,7.326591,7.328574,447568.000000,1670926173.113974
1670926173.091824,,,,7.328105,7.328671,447569.000000,1670926173.114981
1670926173.091915,,,,7.327816,7.329536,447570.000000,1670926173.115988
1670926173.091928,,,,7.327985,7.330497,447571.000000,1670926173.116996
1670926173.091941,,,,7.328345,7.329151,447572.000000,1670926173.118003
1670926173.094047,,,,7.330629,7.331194,447573.000000,1670926173.119010
1670926173.094063,,,,7.331495,7.334344,447574.000000,1670926173.120017
1670926173.094075,,,,7.329379,7.330858,447575.000000,1670926173.121024
1670926173.094346,,,,7.325148,7.328189,447576.000000,1670926173.122031
1670926173.099056,,,,7.323609,7.328791,447577.000000,1670926173.123038
1670926173.099076,,,,7.322960,7.328069,447578.000000,1670926173.124045
1670926173.099133,,,,7.322937,7.326386,447579.000000,1670926173.125052
1670926173.106872,,,,7.320773,7.321963,447580.000000,1670926173.126059
1670926173.107255,,,,7.320172,7.321506,447581.000000,1670926173.127066
1670926173.107273,,,,7.316494,7.320184,447582.000000,1670926173.128073
1670926173.107284,,,,7.321301,7.321530,447583.000000,1670926173.129081
1670926173.107431,,,,7.322191,7.319799,447584.000000,1670926173.130088
1670926173.107673,,,,7.315340,7.319294,447585.000000,1670926173.131095
1670926173.107871,,,,7.319979,7.324896,447586.000000,1670926173.132102
1670926173.109186,,,,7.327168,7.330954,447587.000000,1670926173.133109
1670926173.109329,,,,7.329187,7.331074,447588.000000,1670926173.134116
1670926173.109482,,,,7.328514,7.330473,447589.000000,1670926173.135123
1670926173.109754,,,,7.325292,7.327589,447590.000000,1670926173.136130
1670926173.109897,,,,7.327624,7.331459,447591.000000,1670926173.137137
1670926173.110223,,,,7.327720,7.331676,447592.000000,1670926173.138144
1670926173.110350,,,,7.330437,7.330858,447593.000000,1670926173.139151
1670926173.110360,,,,7.330149,7.331699,447594.000000,1670926173.140158
1670926173.115338,,,,7.328995,7.332685,447595.000000,1670926173.141165
1670926173.115570,,,,7.327744,7.332589,447596.000000,1670926173.142173
1670926173.115811,,,,7.327961,7.329391,447597.000000,1670926173.143180
1670926173.116081,,,,7.329331,7.328382,447598.000000,1670926173.144187
1670926173.116165,,,,7.324811,7.324992,447599.000000,1670926173.145194
1670926173.116463,,,,7.323273,7.328502,447600.000000,1670926173.146201
1670926173.116784,,,,7.323754,7.327973,447601.000000,1670926173.147208
1670926173.117115,,,,7.319931,7.323982,447602.000000,1670926173.148215
1670926173.117912,,,,7.319354,7.323574,447603.000000,1670926173.149222
1670926173.117924,,,,7.323345,7.325545,447604.000000,1670926173.150229
1670926173.118145,,,,7.323994,7.328094,447605.000000,1670926173.151236
1670926173.118415,,,,7.326519,7.328189,447606.000000,1670926173.152243
1670926173.118445,,,,7.322816,7.326867,447607.000000,1670926173.153250
1670926173.118456,,,,7.326254,7.328598,447608.000000,1670926173.154258
1670926173.118691,,,,7.323537,7.324824,447609.000000,1670926173.155265
1670926173.118909,,,,7.326182,7.329151,447610.000000,1670926173.156272
1670926173.119202,,,,7.329235,7.334272,447611.000000,1670926173.157279
1670926173.119508,,,,7.332697,7.337084,447612.000000,1670926173.158286
1670926173.119952,,,,7.331759,7.337974,447613.000000,1670926173.159293
1670926173.119972,,,,7.328393,7.332156,447614.000000,1670926173.160300
1670926173.133368,,,,7.327720,7.331483,447615.000000,1670926173.161307
1670926173.133764,,,,7.331759,7.334993,447616.000000,1670926173.162314
1670926173.133775,,,,7.329596,7.331555,447617.000000,1670926173.163321
1670926173.133862,,,,7.324715,7.325545,447618.000000,1670926173.164328
1670926173.139412,,,,7.322239,7.324776,447619.000000,1670926173.165335
1670926173.139556,,,,7.322672,7.326290,447620.000000,1670926173.166342
1670926173.139963,,,,7.320821,7.322612,447621.000000,1670926173.167350
1670926173.145300,,,,7.321783,7.325136,447622.000000,1670926173.168357
1670926173.145820,,,,7.321301,7.324391,447623.000000,1670926173.169364
1670926173.146645,-0.869183,952272.000000,1670926173.084717,,,,
1670926173.146717,,,,7.320893,7.325473,447624.000000,1670926173.170371
1670926173.146726,,,,7.319715,7.324992,447625.000000,1670926173.171378
1670926173.147356,-0.905361,952273.000000,1670926173.085717,,,,
1670926173.147368,-0.851094,952274.000000,1670926173.086717,,,,
1670926173.148108,-0.959628,952275.000000,1670926173.087717,,,,
1670926173.148122,-0.923450,952276.000000,1670926173.088717,,,,
1670926173.148128,-0.869183,952277.000000,1670926173.089717,,,,
1670926173.148182,-0.851094,952278.000000,1670926173.090717,,,,
1670926173.148192,-0.905361,952323.000000,1670926173.135717,,,,
1670926173.148203,-0.923450,952324.000000,1670926173.136717,,,,
1670926173.148261,-0.869183,952325.000000,1670926173.137717,,,,
1670926173.148269,-0.887272,952326.000000,1670926173.138717,,,,
1670926173.148275,-0.923450,952327.000000,1670926173.139717,,,,
1670926173.148287,-0.869183,952328.000000,1670926173.140717,,,,
1670926173.148292,-0.905361,952329.000000,1670926173.141717,,,,
1670926173.148324,-0.887272,952330.000000,1670926173.142717,,,,
1670926173.148330,-0.869183,952331.000000,1670926173.143717,,,,
1670926173.148347,-0.923450,952332.000000,1670926173.144717,,,,
1670926173.151371,,,,7.319450,7.321963,447626.000000,1670926173.172385
1670926173.151559,,,,7.319258,7.321626,447627.000000,1670926173.173392
1670926173.151709,,,,7.323514,7.324824,447628.000000,1670926173.174399
1670926173.151873,,,,7.332793,7.334464,447629.000000,1670926173.175406
1670926173.153732,,,,7.331831,7.334776,447630.000000,1670926173.176413
1670926173.153912,,,,7.331952,7.335474,447631.000000,1670926173.177420
1670926173.154080,,,,7.334211,7.337637,447632.000000,1670926173.178427
1670926173.154269,,,,7.330726,7.332901,447633.000000,1670926173.179435
1670926173.158879,,,,7.326855,7.329391,447634.000000,1670926173.180442
1670926173.159054,,,,7.326422,7.328815,447635.000000,1670926173.181449
1670926173.159370,,,,7.327143,7.329752,447636.000000,1670926173.182456
1670926173.161580,,,,7.328514,7.334104,447637.000000,1670926173.183463
1670926173.161829,,,,7.318777,7.322973,447638.000000,1670926173.184470
1670926173.162077,,,,7.316782,7.316890,447639.000000,1670926173.185477
1670926173.162104,,,,7.315291,7.315087,447640.000000,1670926173.186484
1670926173.166507,,,,7.314209,7.317395,447641.000000,1670926173.187491
1670926173.167076,,,,7.313681,7.318814,447642.000000,1670926173.188498
1670926173.167094,,,,7.311060,7.315736,447643.000000,1670926173.189505
1670926173.168856,,,,7.312863,7.313356,447644.000000,1670926173.190512
1670926173.169474,,,,7.317888,7.319246,447645.000000,1670926173.191519
1670926173.169494,,,,7.321085,7.325040,447646.000000,1670926173.192527
1670926173.174490,,,,7.322960,7.324584,447647.000000,1670926173.193534
1670926173.174515,,,,7.325196,7.325617,447648.000000,1670926173.194541
1670926173.174614,,,,7.326807,7.329463,447649.000000,1670926173.195548
1670926173.174852,,,,7.327937,7.330834,447650.000000,1670926173.196555
1670926173.176648,,,,7.328057,7.329223,447651.000000,1670926173.197562
1670926173.176716,,,,7.329067,7.329271,447652.000000,1670926173.198569
1670926173.176736,,,,7.331398,7.332925,447653.000000,1670926173.199576
1670926173.190486,,,,7.328393,7.329800,447654.000000,1670926173.200583
1670926173.190667,,,,7.329427,7.328598,447655.000000,1670926173.201590
1670926173.190686,,,,7.327672,7.326987,447656.000000,1670926173.202597
1670926173.190781,,,,7.326663,7.327733,447657.000000,1670926173.203604
1670926173.190788,,,,7.324066,7.325809,447658.000000,1670926173.204612
1670926173.190906,,,,7.318873,7.322828,447659.000000,1670926173.205619
1670926173.191003,,,,7.318345,7.322107,447660.000000,1670926173.206626
1670926173.198078,,,,7.318104,7.322155,447661.000000,1670926173.207633
1670926173.198407,,,,7.316974,7.319607,447662.000000,1670926173.208640
1670926173.198425,,,,7.317167,7.321458,447663.000000,1670926173.209647
1670926173.198437,,,,7.320580,7.321939,447664.000000,1670926173.210654
1670926173.198455,,,,7.322239,7.324872,447665.000000,1670926173.211661
1670926173.201620,-0.851094,952333.000000,1670926173.140835,,,,
1670926173.201904,-0.887272,952334.000000,1670926173.141835,,,,
1670926173.201988,-0.887272,952335.000000,1670926173.142835,,,,
1670926173.202111,-0.887272,952336.000000,1670926173.143835,,,,
1670926173.203397,-0.887272,952337.000000,1670926173.144835,,,,
1670926173.203414,-0.887272,952338.000000,1670926173.145835,,,,
1670926173.203421,-0.887272,952339.000000,1670926173.146835,,,,
1670926173.203426,-0.905361,952384.000000,1670926173.191835,,,,
1670926173.203430,-0.869183,952385.000000,1670926173.192835,,,,
1670926173.203435,-0.887272,952386.000000,1670926173.193835,,,,
1670926173.203444,-0.851094,952387.000000,1670926173.194835,,,,
1670926173.203448,-0.869183,952388.000000,1670926173.195835,,,,
1670926173.203455,-0.887272,952389.000000,1670926173.196835,,,,
1670926173.203466,-0.869183,952390.000000,1670926173.197835,,,,
1670926173.203523,-0.887272,952391.000000,1670926173.198835,,,,
1670926173.203547,-0.869183,952392.000000,1670926173.199835,,,,
1670926173.203558,-0.869183,952393.000000,1670926173.200835,,,,
1670926173.204340,,,,7.323970,7.327348,447666.000000,1670926173.212668
1670926173.204445,,,,7.325965,7.326627,447667.000000,1670926173.213675
1670926173.204607,,,,7.324739,7.326122,447668.000000,1670926173.214682
1670926173.204725,,,,7.325365,7.329055,447669.000000,1670926173.215689
1670926173.205109,,,,7.332240,7.335378,447670.000000,1670926173.216697
1670926173.205116,,,,7.331591,7.335618,447671.000000,1670926173.217704
1670926173.205170,,,,7.326639,7.329103,447672.000000,1670926173.218711
1670926173.206870,,,,7.324499,7.328189,447673.000000,1670926173.219718
1670926173.207012,,,,7.324619,7.327973,447674.000000,1670926173.220725
1670926173.207141,,,,7.326037,7.327204,447675.000000,1670926173.221732
1670926173.207392,,,,7.323778,7.326627,447676.000000,1670926173.222739
1670926173.207554,,,,7.315820,7.319006,447677.000000,1670926173.223746
1670926173.207593,,,,7.314979,7.318405,447678.000000,1670926173.224753
1670926173.207729,,,,7.315460,7.319439,447679.000000,1670926173.225760
1670926173.208005,,,,7.314209,7.315929,447680.000000,1670926173.226767
1670926173.208016,,,,7.310988,7.311674,447681.000000,1670926173.227774
1670926173.208164,,,,7.307791,7.310303,447682.000000,1670926173.228781
1670926173.208174,,,,7.313440,7.316289,447683.000000,1670926173.229789
1670926173.211941,,,,7.316422,7.320617,447684.000000,1670926173.230796
1670926173.212132,,,,7.317094,7.321699,447685.000000,1670926173.231803
1670926173.212464,,,,7.320724,7.323381,447686.000000,1670926173.232810
1670926173.212961,,,,7.321398,7.323021,447687.000000,1670926173.233817
1670926173.213015,,,,7.325605,7.326819,447688.000000,1670926173.234824
1670926173.213469,,,,7.327624,7.327781,447689.000000,1670926173.235831
1670926173.213603,,,,7.322455,7.324343,447690.000000,1670926173.236838
1670926173.213614,,,,7.320148,7.320545,447691.000000,1670926173.237845
1670926173.213949,,,,7.321783,7.323525,447692.000000,1670926173.238852
1670926173.214300,,,,7.326302,7.328718,447693.000000,1670926173.239859
1670926173.214329,,,,7.324619,7.328622,447694.000000,1670926173.240866
1670926173.214727,,,,7.323249,7.325930,447695.000000,1670926173.241874
1670926173.214932,,,,7.320965,7.322684,447696.000000,1670926173.242881
1670926173.215068,,,,7.319667,7.322853,447697.000000,1670926173.243888
1670926173.215432,,,,7.317912,7.319415,447698.000000,1670926173.244895
1670926173.215699,,,,7.315363,7.317443,447699.000000,1670926173.245902
1670926173.215861,,,,7.316542,7.319343,447700.000000,1670926173.246909
1670926173.222317,,,,7.314354,7.317395,447701.000000,1670926173.247916
1670926173.222577,,,,7.310892,7.315472,447702.000000,1670926173.248923
1670926173.223162,,,,7.315388,7.317107,447703.000000,1670926173.249930
1670926173.223284,,,,7.316926,7.319631,447704.000000,1670926173.250937
1670926173.223562,,,,7.317383,7.321506,447705.000000,1670926173.251944
1670926173.223572,,,,7.320124,7.321049,447706.000000,1670926173.252951
1670926173.223586,,,,7.317383,7.317275,447707.000000,1670926173.253958
1670926173.223666,,,,7.317984,7.319150,447708.000000,1670926173.254966
1670926173.223678,,,,7.321229,7.322155,447709.000000,1670926173.255973
1670926173.223684,,,,7.320052,7.321699,447710.000000,1670926173.256980
1670926173.223689,,,,7.317984,7.321602,447711.000000,1670926173.257987
1670926173.226610,,,,7.321518,7.323069,447712.000000,1670926173.258994
1670926173.226730,,,,7.320412,7.320617,447713.000000,1670926173.260001
1670926173.226879,,,,7.316037,7.316410,447714.000000,1670926173.261008
1670926173.226901,,,,7.317984,7.317083,447715.000000,1670926173.262015
1670926173.227026,,,,7.320099,7.322083,447716.000000,1670926173.263022
1670926173.227154,,,,7.313464,7.315905,447717.000000,1670926173.264029
1670926173.227169,,,,7.311517,7.316266,447718.000000,1670926173.265036
1670926173.229190,,,,7.311373,7.315520,447719.000000,1670926173.266043
1670926173.229202,,,,7.312743,7.316602,447720.000000,1670926173.267051
1670926173.229211,,,,7.312767,7.318189,447721.000000,1670926173.268058
1670926173.229465,,,,7.311781,7.318381,447722.000000,1670926173.269065
1670926173.229636,,,,7.312046,7.315544,447723.000000,1670926173.270072
1670926173.229645,,,,7.321133,7.322324,447724.000000,1670926173.271079
1670926173.229754,,,,7.320052,7.322324,447725.000000,1670926173.272086
1670926173.234308,,,,7.319571,7.322973,447726.000000,1670926173.273093
1670926173.234515,,,,7.319811,7.321170,447727.000000,1670926173.274100
1670926173.234795,,,,7.328297,7.329440,447728.000000,1670926173.275107
1670926173.234984,,,,7.326687,7.329656,447729.000000,1670926173.276114
1670926173.235183,,,,7.327768,7.330834,447730.000000,1670926173.277121
1670926173.235405,,,,7.328297,7.333094,447731.000000,1670926173.278128
1670926173.235606,,,,7.325677,7.326843,447732.000000,1670926173.279135
1670926173.236960,,,,7.320484,7.324487,447733.000000,1670926173.280143
1670926173.236985,,,,7.320268,7.322804,447734.000000,1670926173.281150
1670926173.236994,,,,7.319306,7.323045,447735.000000,1670926173.282157
1670926173.237010,,,,7.317214,7.323453,447736.000000,1670926173.283164
1670926173.237026,,,,7.319066,7.319823,447737.000000,1670926173.284171
1670926173.237031,,,,7.318224,7.321290,447738.000000,1670926173.285178
1670926173.237057,,,,7.315892,7.320713,447739.000000,1670926173.286185
1670926173.244361,,,,7.313753,7.319968,447740.000000,1670926173.287192
1670926173.244766,,,,7.315580,7.319607,447741.000000,1670926173.288199
1670926173.245250,,,,7.319643,7.322492,447742.000000,1670926173.289206
1670926173.245367,,,,7.317864,7.322540,447743.000000,1670926173.290213
1670926173.245896,,,,7.315868,7.317900,447744.000000,1670926173.291220
1670926173.246025,,,,7.311974,7.315063,447745.000000,1670926173.292228
1670926173.246062,,,,7.314642,7.315544,447746.000000,1670926173.293235
1670926173.246075,,,,7.317647,7.320929,447747.000000,1670926173.294242
1670926173.256683,-0.887272,952394.000000,1670926173.195550,,,,
1670926173.256704,-0.869183,952395.000000,1670926173.196550,,,,
1670926173.256770,-0.851094,952396.000000,1670926173.197550,,,,
1670926173.257124,-0.851094,952397.000000,1670926173.198550,,,,
1670926173.257142,-0.869183,952398.000000,1670926173.199550,,,,
1670926173.257160,-0.869183,952399.000000,1670926173.200550,,,,
1670926173.257860,-0.851094,952400.000000,1670926173.201550,,,,
1670926173.257977,-0.887272,952417.000000,1670926173.218550,,,,
1670926173.259029,-0.851094,952418.000000,1670926173.219550,,,,
1670926173.259042,-0.887272,952419.000000,1670926173.220550,,,,
1670926173.259049,-0.851094,952420.000000,1670926173.221550,,,,
1670926173.259059,-0.833005,952421.000000,1670926173.222550,,,,
1670926173.259101,-0.851094,952422.000000,1670926173.223550,,,,
1670926173.259117,-0.851094,952423.000000,1670926173.224550,,,,
1670926173.259323,-0.851094,952424.000000,1670926173.225550,,,,
1670926173.259339,-0.833005,952425.000000,1670926173.226550,,,,
1670926173.259350,-0.887272,952426.000000,1670926173.227550,,,,
1670926173.259360,-0.814908,952445.000000,1670926173.246550,,,,
1670926173.259373,-0.833005,952446.000000,1670926173.247550,,,,
1670926173.259377,-0.796819,952447.000000,1670926173.248550,,,,
1670926173.259391,-0.869183,952448.000000,1670926173.249550,,,,
1670926173.259397,-0.851094,952449.000000,1670926173.250550,,,,
1670926173.259415,-0.869183,952450.000000,1670926173.251550,,,,
1670926173.259426,-0.869183,952451.000000,1670926173.252550,,,,
1670926173.259431,-0.869183,952452.000000,1670926173.253550,,,,
1670926173.259436,-0.869183,952453.000000,1670926173.254550,,,,
1670926173.259467,-0.796819,952454.000000,1670926173.255550,,,,
1670926173.259605,,,,7.324667,7.329463,447748.000000,1670926173.295249
1670926173.259820,,,,7.327216,7.332373,447749.000000,1670926173.296256
1670926173.260037,,,,7.325388,7.327060,447750.000000,1670926173.297263
1670926173.260052,,,,7.324835,7.326555,447751.000000,1670926173.298270
1670926173.260062,,,,7.322335,7.325425,447752.000000,1670926173.299277
1670926173.260078,,,,7.322455,7.327853,447753.000000,1670926173.300284
1670926173.264620,,,,7.327408,7.330930,447754.000000,1670926173.301291
1670926173.264972,,,,7.326374,7.328021,447755.000000,1670926173.302298
1670926173.265018,,,,7.328418,7.329824,447756.000000,1670926173.303305
1670926173.265127,,,,7.323465,7.328718,447757.000000,1670926173.304312
1670926173.265138,,,,7.321133,7.324679,447758.000000,1670926173.305320
1670926173.265153,,,,7.315508,7.315087,447759.000000,1670926173.306327
1670926173.265159,,,,7.306204,7.307539,447760.000000,1670926173.307334
1670926173.266316,,,,7.306805,7.309342,447761.000000,1670926173.308341
1670926173.266623,,,,7.309402,7.314390,447762.000000,1670926173.309348
1670926173.266633,,,,7.309330,7.315232,447763.000000,1670926173.310355
1670926173.266639,,,,7.310363,7.315712,447764.000000,1670926173.311362
1670926173.271749,,,,7.310050,7.312082,447765.000000,1670926173.312369
1670926173.272056,,,,7.314979,7.316770,447766.000000,1670926173.313376
1670926173.272350,,,,7.317864,7.318333,447767.000000,1670926173.314383
1670926173.272861,,,,7.308512,7.310400,447768.000000,1670926173.315390
1670926173.273059,,,,7.309113,7.309390,447769.000000,1670926173.316397
1670926173.273178,,,,7.315772,7.316169,447770.000000,1670926173.317405
1670926173.273195,,,,7.318200,7.317948,447771.000000,1670926173.318412
1670926173.273208,,,,7.316854,7.318357,447772.000000,1670926173.319419
1670926173.273847,,,,7.317407,7.320809,447773.000000,1670926173.320426
1670926173.273866,,,,7.314137,7.316193,447774.000000,1670926173.321433
1670926173.279078,,,,7.312815,7.315761,447775.000000,1670926173.322440
1670926173.279096,,,,7.311204,7.313044,447776.000000,1670926173.323447
1670926173.279284,,,,7.308753,7.310448,447777.000000,1670926173.324454
1670926173.279739,,,,7.317599,7.318573,447778.000000,1670926173.325461
1670926173.282073,,,,7.330605,7.333983,447779.000000,1670926173.326468
1670926173.282206,,,,7.330269,7.330425,447780.000000,1670926173.327475
1670926173.282547,,,,7.320749,7.320328,447781.000000,1670926173.328482
1670926173.282776,,,,7.316301,7.318381,447782.000000,1670926173.329489
1670926173.283177,,,,7.306108,7.309654,447783.000000,1670926173.330497
1670926173.283517,,,,7.300218,7.303692,447784.000000,1670926173.331504
1670926173.284100,,,,7.301997,7.302634,447785.000000,1670926173.332511
1670926173.284261,,,,7.300699,7.299701,447786.000000,1670926173.333518
1670926173.284537,,,,7.301684,7.301384,447787.000000,1670926173.334525
1670926173.284556,,,,7.321470,7.325329,447788.000000,1670926173.335532
1670926173.284718,,,,7.334764,7.338335,447789.000000,1670926173.336539
1670926173.286780,,,,7.315243,7.319174,447790.000000,1670926173.337546
1670926173.286806,,,,7.301901,7.305976,447791.000000,1670926173.338553
1670926173.286948,,,,7.301973,7.305423,447792.000000,1670926173.339560
1670926173.286964,,,,7.313440,7.316626,447793.000000,1670926173.340567
1670926173.288824,,,,7.323177,7.326410,447794.000000,1670926173.341574
1670926173.288995,,,,7.313609,7.315664,447795.000000,1670926173.342582
1670926173.289341,,,,7.308656,7.310952,447796.000000,1670926173.343589
1670926173.294420,,,,7.312647,7.314318,447797.000000,1670926173.344596
1670926173.295175,,,,7.316662,7.318044,447798.000000,1670926173.345603
1670926173.295190,,,,7.316325,7.314751,447799.000000,1670926173.346610
1670926173.295297,,,,7.316205,7.315977,447800.000000,1670926173.347617
1670926173.295352,,,,7.315892,7.315881,447801.000000,1670926173.348624
1670926173.295362,,,,7.316181,7.316169,447802.000000,1670926173.349631
1670926173.295389,,,,7.319859,7.322708,447803.000000,1670926173.350638
1670926173.296650,,,,7.321999,7.323622,447804.000000,1670926173.351645
1670926173.296901,,,,7.322095,7.323670,447805.000000,1670926173.352652
1670926173.297124,,,,7.322576,7.325617,447806.000000,1670926173.353659
1670926173.297434,,,,7.332312,7.334945,447807.000000,1670926173.354666
1670926173.297769,,,,7.347241,7.349730,447808.000000,1670926173.355674
1670926173.298226,,,,7.345823,7.349417,447809.000000,1670926173.356681
1670926173.298242,,,,7.337096,7.340186,447810.000000,1670926173.357688
1670926173.310298,,,,7.326422,7.328141,447811.000000,1670926173.358695
1670926173.310668,,,,7.314498,7.317371,447812.000000,1670926173.359702
1670926173.310996,,,,7.318850,7.321530,447813.000000,1670926173.360709
1670926173.311298,,,,7.312166,7.317131,447814.000000,1670926173.361716
1670926173.318141,,,,7.309281,7.312419,447815.000000,1670926173.362723
1670926173.318151,,,,7.330942,7.336387,447816.000000,1670926173.363730
1670926173.318154,,,,7.340654,7.347085,447817.000000,1670926173.364737
1670926173.321223,-0.796819,952455.000000,1670926173.260748,,,,
1670926173.321483,-0.778729,952456.000000,1670926173.261748,,,,
1670926173.322641,-0.561653,952506.000000,1670926173.311748,,,,
1670926173.322657,-0.579742,952507.000000,1670926173.312748,,,,
1670926173.322675,-0.489288,952508.000000,1670926173.313748,,,,
1670926173.322681,-0.525466,952509.000000,1670926173.314748,,,,
1670926173.322697,-0.543555,952510.000000,1670926173.315748,,,,
1670926173.322715,-0.507377,952511.000000,1670926173.316748,,,,
1670926173.322726,-0.471199,952512.000000,1670926173.317748,,,,
1670926173.322749,-0.507377,952513.000000,1670926173.318748,,,,
1670926173.322752,-0.489288,952514.000000,1670926173.319748,,,,
1670926173.322772,-0.507377,952515.000000,1670926173.320748,,,,
1670926173.323887,,,,7.337144,7.342566,447818.000000,1670926173.365744
1670926173.324356,,,,7.338178,7.341508,447819.000000,1670926173.366751
1670926173.324368,,,,7.344957,7.346196,447820.000000,1670926173.367759
1670926173.326257,,,,7.320460,7.320977,447821.000000,1670926173.368766
1670926173.326480,,,,7.309089,7.312996,447822.000000,1670926173.369773
1670926173.326660,,,,7.302910,7.306962,447823.000000,1670926173.370780
1670926173.326863,,,,7.299232,7.303428,447824.000000,1670926173.371787
1670926173.327026,,,,7.298920,7.302418,447825.000000,1670926173.372794
1670926173.331687,,,,7.307478,7.310472,447826.000000,1670926173.373801
1670926173.331701,,,,7.309281,7.312924,447827.000000,1670926173.374808
1670926173.331705,,,,7.313729,7.316506,447828.000000,1670926173.375815
1670926173.333883,,,,7.316013,7.318333,447829.000000,1670926173.376822
1670926173.334496,,,,7.319667,7.321626,447830.000000,1670926173.377829
1670926173.334617,,,,7.319763,7.320881,447831.000000,1670926173.378836
1670926173.339321,,,,7.317647,7.318525,447832.000000,1670926173.379843
1670926173.339582,,,,7.322624,7.325377,447833.000000,1670926173.380851
1670926173.339912,,,,7.325605,7.328887,447834.000000,1670926173.381858
1670926173.340189,,,,7.320460,7.324968,447835.000000,1670926173.382865
1670926173.340337,,,,7.318056,7.321458,447836.000000,1670926173.383872
1670926173.340536,,,,7.321903,7.322804,447837.000000,1670926173.384879
1670926173.340699,,,,7.320172,7.322299,447838.000000,1670926173.385886
1670926173.340953,,,,7.317623,7.319415,447839.000000,1670926173.386893
1670926173.341532,,,,7.313272,7.314847,447840.000000,1670926173.387900
1670926173.341959,,,,7.310122,7.312347,447841.000000,1670926173.388907
1670926173.341977,,,,7.309113,7.315159,447842.000000,1670926173.389914
1670926173.342114,,,,7.308127,7.312443,447843.000000,1670926173.390921
1670926173.342319,,,,7.312094,7.314294,447844.000000,1670926173.391928
1670926173.342530,,,,7.307310,7.308356,447845.000000,1670926173.392936
1670926173.346727,,,,7.311613,7.313549,447846.000000,1670926173.393943
1670926173.347034,,,,7.323032,7.323886,447847.000000,1670926173.394950
1670926173.347399,,,,7.327360,7.329512,447848.000000,1670926173.395957
1670926173.347611,,,,7.323802,7.326170,447849.000000,1670926173.396964
1670926173.348182,,,,7.318729,7.320689,447850.000000,1670926173.397971
1670926173.348204,,,,7.311517,7.313717,447851.000000,1670926173.398978
1670926173.348442,,,,7.308512,7.314967,447852.000000,1670926173.399985
1670926173.349284,,,,7.313825,7.317420,447853.000000,1670926173.400992
1670926173.349419,,,,7.311421,7.312972,447854.000000,1670926173.401999
1670926173.349596,,,,7.307070,7.309221,447855.000000,1670926173.403006
1670926173.349878,,,,7.307166,7.307827,447856.000000,1670926173.404013
1670926173.350128,,,,7.307382,7.307490,447857.000000,1670926173.405020
1670926173.350354,,,,7.311253,7.311433,447858.000000,1670926173.406028
1670926173.350532,,,,7.311060,7.310736,447859.000000,1670926173.407035
1670926173.350802,,,,7.303776,7.306072,447860.000000,1670926173.408042
1670926173.353898,,,,7.306925,7.310159,447861.000000,1670926173.409049
1670926173.354319,,,,7.314811,7.319054,447862.000000,1670926173.410056
1670926173.354342,,,,7.325485,7.329463,447863.000000,1670926173.411063
1670926173.354764,,,,7.324835,7.330040,447864.000000,1670926173.412070
1670926173.356465,,,,7.322407,7.323525,447865.000000,1670926173.413077
1670926173.356764,,,,7.323057,7.324535,447866.000000,1670926173.414084
1670926173.357021,,,,7.329187,7.331676,447867.000000,1670926173.415091
1670926173.370118,,,,7.330509,7.332733,447868.000000,1670926173.416098
1670926173.370149,,,,7.331519,7.332253,447869.000000,1670926173.417105
1670926173.370203,,,,7.327288,7.328718,447870.000000,1670926173.418113
1670926173.370351,,,,7.321229,7.324487,447871.000000,1670926173.419120
1670926173.378059,,,,7.319114,7.320929,447872.000000,1670926173.420127
1670926173.378380,,,,7.320508,7.321146,447873.000000,1670926173.421134
1670926173.378833,,,,7.319931,7.322876,447874.000000,1670926173.422141
1670926173.379133,,,,7.315748,7.317684,447875.000000,1670926173.423148
1670926173.384001,,,,7.312335,7.314487,447876.000000,1670926173.424155
1670926173.384171,,,,7.311181,7.311193,447877.000000,1670926173.425162
1670926173.386975,-0.525466,952516.000000,1670926173.326077,,,,
1670926173.387110,-0.525466,952517.000000,1670926173.327077,,,,
1670926173.388995,0.089595,952567.000000,1670926173.377077,,,,
1670926173.389011,0.071506,952568.000000,1670926173.378078,,,,
1670926173.389031,0.107684,952569.000000,1670926173.379077,,,,
1670926173.389043,0.125773,952570.000000,1670926173.380077,,,,
1670926173.389050,0.107684,952571.000000,1670926173.381077,,,,
1670926173.389102,0.107684,952572.000000,1670926173.382077,,,,
1670926173.389187,0.107684,952573.000000,1670926173.383077,,,,
1670926173.389207,0.035328,952574.000000,1670926173.384077,,,,
1670926173.389219,0.053417,952575.000000,1670926173.385077,,,,
1670926173.389231,0.089595,952576.000000,1670926173.386077,,,,
1670926173.391672,,,,7.318681,7.318597,447878.000000,1670926173.426169
1670926173.392112,,,,7.319090,7.322540,447879.000000,1670926173.427176
1670926173.392287,,,,7.317744,7.319992,447880.000000,1670926173.428183
1670926173.392297,,,,7.316998,7.317275,447881.000000,1670926173.429190
1670926173.392389,,,,7.317094,7.317395,447882.000000,1670926173.430197
1670926173.393628,,,,7.314618,7.317972,447883.000000,1670926173.431205
1670926173.393855,,,,7.318273,7.322660,447884.000000,1670926173.432212
1670926173.399193,,,,7.319402,7.320497,447885.000000,1670926173.433219
1670926173.399471,,,,7.321710,7.323598,447886.000000,1670926173.434226
1670926173.399548,,,,7.326783,7.327252,447887.000000,1670926173.435233
1670926173.399768,,,,7.323537,7.327997,447888.000000,1670926173.436240
1670926173.400170,,,,7.318128,7.322179,447889.000000,1670926173.437247
1670926173.400184,,,,7.322648,7.325329,447890.000000,1670926173.438254
1670926173.400192,,,,7.326951,7.329391,447891.000000,1670926173.439261
1670926173.400306,,,,7.332240,7.332421,447892.000000,1670926173.440268
1670926173.401649,,,,7.333634,7.335065,447893.000000,1670926173.441275
1670926173.401904,,,,7.334620,7.337589,447894.000000,1670926173.442282
1670926173.402254,,,,7.331447,7.331315,447895.000000,1670926173.443290
1670926173.402614,,,,7.329764,7.328983,447896.000000,1670926173.444297
1670926173.402875,,,,7.313849,7.315400,447897.000000,1670926173.445304
1670926173.403212,,,,7.293823,7.294845,447898.000000,1670926173.446311
1670926173.406681,,,,7.289977,7.290157,447899.000000,1670926173.447318
1670926173.406950,,,,7.284592,7.288739,447900.000000,1670926173.448325
1670926173.407515,,,,7.293415,7.298668,447901.000000,1670926173.449332
1670926173.407648,,,,7.324306,7.329608,447902.000000,1670926173.450339
1670926173.407652,,,,7.348900,7.354105,447903.000000,1670926173.451346
1670926173.407822,,,,7.350343,7.352591,447904.000000,1670926173.452353
1670926173.407933,,,,7.345078,7.348263,447905.000000,1670926173.453360
1670926173.408047,,,,7.341664,7.346124,447906.000000,1670926173.454367
1670926173.409087,,,,7.327071,7.330065,447907.000000,1670926173.455374
1670926173.409387,,,,7.315917,7.320809,447908.000000,1670926173.456382
1670926173.409631,,,,7.312599,7.313092,447909.000000,1670926173.457389
1670926173.409705,,,,7.316494,7.317876,447910.000000,1670926173.458396
1670926173.409890,,,,7.333009,7.336868,447911.000000,1670926173.459403
1670926173.409934,,,,7.337817,7.342181,447912.000000,1670926173.460410
1670926173.410117,,,,7.333201,7.337373,447913.000000,1670926173.461417
1670926173.413900,,,,7.324379,7.326507,447914.000000,1670926173.462424
1670926173.413914,,,,7.312647,7.313477,447915.000000,1670926173.463431
1670926173.414175,,,,7.304521,7.307467,447916.000000,1670926173.464438
1670926173.414183,,,,7.316806,7.319823,447917.000000,1670926173.465445
1670926173.416283,,,,7.319547,7.323237,447918.000000,1670926173.466452
1670926173.416384,,,,7.307526,7.312106,447919.000000,1670926173.467459
1670926173.416612,,,,7.318104,7.318525,447920.000000,1670926173.468467
1670926173.416655,,,,7.334404,7.337469,447921.000000,1670926173.469474
1670926173.430016,,,,7.353780,7.356701,447922.000000,1670926173.470481
1670926173.430258,,,,7.352987,7.355620,447923.000000,1670926173.471488
1670926173.430455,,,,7.351400,7.354466,447924.000000,1670926173.472495
1670926173.437912,,,,7.353780,7.356990,447925.000000,1670926173.473502
1670926173.438233,,,,7.370897,7.374780,447926.000000,1670926173.474509
1670926173.438515,,,,7.374888,7.379805,447927.000000,1670926173.475516
1670926173.438712,,,,7.380393,7.385358,447928.000000,1670926173.476523
1670926173.443815,2.242316,952627.000000,1670926173.431163,,,,
1670926173.443832,2.260413,952628.000000,1670926173.432163,,,,
1670926173.443844,2.368948,952629.000000,1670926173.433163,,,,
1670926173.443851,2.441312,952630.000000,1670926173.434163,,,,
1670926173.444023,2.513669,952631.000000,1670926173.435163,,,,
1670926173.444028,2.549855,952632.000000,1670926173.436163,,,,
1670926173.444034,2.567944,952633.000000,1670926173.437163,,,,
1670926173.444046,2.658389,952634.000000,1670926173.438163,,,,
1670926173.444062,2.766932,952635.000000,1670926173.439163,,,,
1670926173.444077,2.785021,952636.000000,1670926173.440163,,,,
1670926173.444080,2.911653,952637.000000,1670926173.441163,,,,
1670926173.445269,,,,7.366979,7.373073,447929.000000,1670926173.477530
1670926173.445366,,,,7.355776,7.360043,447930.000000,1670926173.478537
1670926173.445656,,,,7.346833,7.351340,447931.000000,1670926173.479544
1670926173.445797,,,,7.332601,7.337397,447932.000000,1670926173.480551
1670926173.445888,,,,7.335654,7.340666,447933.000000,1670926173.481559
1670926173.446093,,,,7.332216,7.332253,447934.000000,1670926173.482566
1670926173.446211,,,,7.319066,7.323165,447935.000000,1670926173.483573
1670926173.446591,,,,7.320917,7.325449,447936.000000,1670926173.484580
1670926173.446711,,,,7.343106,7.344970,447937.000000,1670926173.485587
1670926173.447203,,,,7.367339,7.369371,447938.000000,1670926173.486594
1670926173.447212,,,,7.380369,7.381824,447939.000000,1670926173.487601
1670926173.447288,,,,7.374383,7.374059,447940.000000,1670926173.488608
1670926173.447318,,,,7.360103,7.361029,447941.000000,1670926173.489615
1670926173.447368,,,,7.338803,7.343287,447942.000000,1670926173.490622
1670926173.447384,,,,7.315003,7.318164,447943.000000,1670926173.491629
1670926173.447390,,,,7.315604,7.318669,447944.000000,1670926173.492636
1670926173.447478,,,,7.324691,7.327612,447945.000000,1670926173.493644
1670926173.447487,,,,7.344260,7.349369,447946.000000,1670926173.494651
1670926173.447496,,,,7.341808,7.345883,447947.000000,1670926173.495658
1670926173.447523,,,,7.338659,7.339392,447948.000000,1670926173.496665
1670926173.447529,,,,7.342626,7.341724,447949.000000,1670926173.497672
1670926173.451371,,,,7.336086,7.338599,447950.000000,1670926173.498679
1670926173.451598,,,,7.331326,7.334993,447951.000000,1670926173.499686
1670926173.451910,,,,7.333755,7.334849,447952.000000,1670926173.500693
1670926173.452140,,,,7.333755,7.333719,447953.000000,1670926173.501700
1670926173.453805,,,,7.337024,7.340162,447954.000000,1670926173.502707
1670926173.454078,,,,7.335462,7.340042,447955.000000,1670926173.503714
1670926173.454090,,,,7.330750,7.333550,447956.000000,1670926173.504721
1670926173.459069,,,,7.333611,7.337132,447957.000000,1670926173.505728
1670926173.459094,,,,7.338082,7.341796,447958.000000,1670926173.506736
1670926173.459456,,,,7.337457,7.342373,447959.000000,1670926173.507743
1670926173.461871,,,,7.336279,7.339801,447960.000000,1670926173.508750
1670926173.462859,,,,7.329980,7.332589,447961.000000,1670926173.509757
1670926173.463128,,,,7.320052,7.322684,447962.000000,1670926173.510764
1670926173.463410,,,,7.311397,7.315135,447963.000000,1670926173.511771
1670926173.463443,,,,7.305146,7.307827,447964.000000,1670926173.512778
1670926173.463457,,,,7.307983,7.310279,447965.000000,1670926173.513785
1670926173.463989,,,,7.319739,7.324463,447966.000000,1670926173.514792
1670926173.466851,,,,7.342024,7.344008,447967.000000,1670926173.515799
1670926173.467173,,,,7.345582,7.350691,447968.000000,1670926173.516806
1670926173.467556,,,,7.337409,7.344729,447969.000000,1670926173.517813
1670926173.467817,,,,7.330678,7.336724,447970.000000,1670926173.518821
1670926173.467983,,,,7.332624,7.336724,447971.000000,1670926173.519828
1670926173.468313,,,,7.339476,7.341123,447972.000000,1670926173.520835
1670926173.468694,,,,7.336567,7.337709,447973.000000,1670926173.521842
1670926173.468776,,,,7.318176,7.322444,447974.000000,1670926173.522849
1670926173.470728,,,,7.306372,7.308236,447975.000000,1670926173.523856
1670926173.470892,,,,7.310676,7.314078,447976.000000,1670926173.524863
1670926173.471044,,,,7.335990,7.339224,447977.000000,1670926173.525870
1670926173.471209,,,,7.337193,7.341868,447978.000000,1670926173.526877
1670926173.473798,,,,7.324499,7.328911,447979.000000,1670926173.527884
1670926173.473808,,,,7.319306,7.325016,447980.000000,1670926173.528891
1670926173.478360,,,,7.312815,7.316410,447981.000000,1670926173.529898
1670926173.478372,,,,7.301733,7.304894,447982.000000,1670926173.530905
1670926173.478498,,,,7.308512,7.309751,447983.000000,1670926173.531913
1670926173.478625,,,,7.319787,7.323237,447984.000000,1670926173.532920
1670926173.493979,,,,7.321326,7.325184,447985.000000,1670926173.533927
1670926173.495321,,,,7.338442,7.341243,447986.000000,1670926173.534934
1670926173.495351,,,,7.357459,7.361918,447987.000000,1670926173.535941
1670926173.495366,,,,7.345895,7.351653,447988.000000,1670926173.536948
1670926173.497648,,,,7.350992,7.352447,447989.000000,1670926173.537955
1670926173.497992,,,,7.360392,7.362688,447990.000000,1670926173.538962
1670926173.498133,,,,7.359598,7.362447,447991.000000,1670926173.539969
1670926173.504196,,,,7.367652,7.372520,447992.000000,1670926173.540976
1670926173.504611,,,,7.357410,7.358577,447993.000000,1670926173.541983
1670926173.504625,,,,7.343635,7.343696,447994.000000,1670926173.542990
1670926173.505019,,,,7.344188,7.344898,447995.000000,1670926173.543998
1670926173.506419,,,,7.335966,7.338479,447996.000000,1670926173.545005
1670926173.506437,,,,7.323393,7.327949,447997.000000,1670926173.546012
1670926173.506821,,,,7.309906,7.313837,447998.000000,1670926173.547019
1670926173.506961,,,,7.313897,7.316746,447999.000000,1670926173.548026
1670926173.507616,3.020195,952638.000000,1670926173.446783,,,,
1670926173.507631,3.074462,952639.000000,1670926173.447783,,,,
1670926173.507738,3.164916,952640.000000,1670926173.448783,,,,
1670926173.509436,3.237280,952641.000000,1670926173.449783,,,,
1670926173.509457,7.235193,952689.000000,1670926173.497783,,,,
1670926173.509466,7.361825,952690.000000,1670926173.498783,,,,
1670926173.509504,7.452278,952691.000000,1670926173.499783,,,,
1670926173.509516,7.596999,952692.000000,1670926173.500783,,,,
1670926173.509526,7.687444,952693.000000,1670926173.501783,,,,
1670926173.509554,7.886440,952694.000000,1670926173.502783,,,,
1670926173.509568,8.049250,952695.000000,1670926173.503783,,,,
1670926173.509578,8.139704,952696.000000,1670926173.504783,,,,
1670926173.509585,8.266335,952697.000000,1670926173.505783,,,,
1670926173.509611,8.429145,952698.000000,1670926173.506783,,,,
1670926173.511441,,,,7.333370,7.336964,448000.000000,1670926173.549033
1670926173.511716,,,,7.325412,7.328069,448001.000000,1670926173.550040
1670926173.511902,,,,7.306108,7.307058,448002.000000,1670926173.551047
1670926173.513921,,,,7.309882,7.312948,448003.000000,1670926173.552054
1670926173.513935,,,,7.403929,7.408677,448004.000000,1670926173.553061
1670926173.513960,,,,7.512424,7.515225,448005.000000,1670926173.554068
1670926173.518947,,,,7.540671,7.542271,448006.000000,1670926173.555075
1670926173.518959,,,,7.518386,7.520033,448007.000000,1670926173.556082
1670926173.519142,,,,7.454198,7.456398,448008.000000,1670926173.557090
1670926173.519359,,,,7.384048,7.387281,448009.000000,1670926173.558097
1670926173.521630,,,,7.354646,7.355740,448010.000000,1670926173.559104
1670926173.521724,,,,7.323658,7.324800,448011.000000,1670926173.560111
1670926173.522112,,,,7.260647,7.262871,448012.000000,1670926173.561118
1670926173.526754,,,,7.219874,7.220824,448013.000000,1670926173.562125
1670926173.527060,,,,7.182684,7.185581,448014.000000,1670926173.563132
1670926173.527649,,,,7.207061,7.212795,448015.000000,1670926173.564139
1670926173.527921,,,,7.329067,7.331339,448016.000000,1670926173.565146
1670926173.528318,,,,7.420854,7.422164,448017.000000,1670926173.566153
1670926173.528342,,,,7.359238,7.362639,448018.000000,1670926173.567160
1670926173.528759,,,,7.289712,7.293211,448019.000000,1670926173.568167
1670926173.529000,,,,7.248435,7.251140,448020.000000,1670926173.569175
1670926173.529120,,,,7.286972,7.288571,448021.000000,1670926173.570182
1670926173.529264,,,,7.381211,7.383579,448022.000000,1670926173.571189
1670926173.529373,,,,7.384096,7.386969,448023.000000,1670926173.572196
1670926173.529576,,,,7.362218,7.364827,448024.000000,1670926173.573203
1670926173.534163,,,,7.350944,7.353096,448025.000000,1670926173.574210
1670926173.534419,,,,7.344212,7.348816,448026.000000,1670926173.575217
1670926173.534429,,,,7.349982,7.352831,448027.000000,1670926173.576224
1670926173.534528,,,,7.341183,7.342037,448028.000000,1670926173.577231
1670926173.534698,,,,7.331567,7.331291,448029.000000,1670926173.578238
1670926173.534707,,,,7.344068,7.345859,448030.000000,1670926173.579245
1670926173.534811,,,,7.350631,7.355307,448031.000000,1670926173.580252
1670926173.542050,,,,7.367099,7.369948,448032.000000,1670926173.581259
1670926173.542068,,,,7.367195,7.369515,448033.000000,1670926173.582267
1670926173.542278,,,,7.357795,7.360139,448034.000000,1670926173.583274
1670926173.542496,,,,7.362579,7.365572,448035.000000,1670926173.584281
1670926173.543028,,,,7.362218,7.365092,448036.000000,1670926173.585288
1670926173.543052,,,,7.355151,7.357303,448037.000000,1670926173.586295
1670926173.543803,,,,7.366065,7.367736,448038.000000,1670926173.587302
1670926173.544138,,,,7.375585,7.379925,448039.000000,1670926173.588309
1670926173.544307,,,,7.371210,7.373506,448040.000000,1670926173.589316
1670926173.544553,,,,7.366041,7.365981,448041.000000,1670926173.590323
1670926173.558162,,,,7.355824,7.357183,448042.000000,1670926173.591330
1670926173.558675,,,,7.344621,7.349297,448043.000000,1670926173.592337
1670926173.558743,,,,7.336856,7.340114,448044.000000,1670926173.593344
1670926173.558903,,,,7.343948,7.346100,448045.000000,1670926173.594352
1670926173.565728,,,,7.360656,7.362880,448046.000000,1670926173.595359
1670926173.566103,,,,7.352074,7.352735,448047.000000,1670926173.596366
1670926173.566281,,,,7.353107,7.356173,448048.000000,1670926173.597373
1670926173.572211,,,,7.365007,7.370068,448049.000000,1670926173.598380
1670926173.572234,,,,7.363300,7.367111,448050.000000,1670926173.599387
1670926173.572248,,,,7.360680,7.363289,448051.000000,1670926173.600394
1670926173.572265,,,,7.355511,7.356774,448052.000000,1670926173.601401
1670926173.573653,13.440110,952723.000000,1670926173.535983,,,,
1670926173.573668,13.657187,952724.000000,1670926173.536983,,,,
1670926173.573674,13.910451,952725.000000,1670926173.537983,,,,
1670926173.573754,14.073260,952726.000000,1670926173.538983,,,,
1670926173.573757,14.326524,952727.000000,1670926173.539983,,,,
1670926173.573765,14.525512,952728.000000,1670926173.540983,,,,
1670926173.573906,,,,7.358733,7.360909,448053.000000,1670926173.602408
1670926173.574019,14.688330,952729.000000,1670926173.541983,,,,
1670926173.574121,14.959674,952730.000000,1670926173.542983,,,,
1670926173.574133,15.176759,952731.000000,1670926173.543983,,,,
1670926173.574278,,,,7.348227,7.351942,448054.000000,1670926173.603415
1670926173.574291,,,,7.340702,7.343768,448055.000000,1670926173.604422
1670926173.574351,15.393844,952732.000000,1670926173.544983,,,,
1670926173.574406,,,,7.337457,7.342085,448056.000000,1670926173.605429
1670926173.574780,19.247036,952750.000000,1670926173.562983,,,,
1670926173.574792,19.500299,952751.000000,1670926173.563983,,,,
1670926173.574909,19.681198,952752.000000,1670926173.564983,,,,
1670926173.574918,19.898283,952753.000000,1670926173.565983,,,,
1670926173.574925,20.187725,952754.000000,1670926173.566983,,,,
1670926173.574933,20.332445,952755.000000,1670926173.567983,,,,
1670926173.574938,20.585709,952756.000000,1670926173.568983,,,,
1670926173.574942,20.802786,952757.000000,1670926173.569983,,,,
1670926173.574952,20.965595,952758.000000,1670926173.570983,,,,
1670926173.575005,21.164591,952759.000000,1670926173.571983,,,,
1670926173.579509,,,,7.335726,7.338768,448057.000000,1670926173.606436
1670926173.579597,,,,7.353612,7.358962,448058.000000,1670926173.607444
1670926173.579711,,,,7.366594,7.368361,448059.000000,1670926173.608451
1670926173.579722,,,,7.363180,7.364755,448060.000000,1670926173.609458
1670926173.579740,,,,7.367219,7.370813,448061.000000,1670926173.610465
1670926173.579745,,,,7.361641,7.364683,448062.000000,1670926173.611472
1670926173.581283,,,,7.346424,7.349465,448063.000000,1670926173.612479
1670926173.581445,,,,7.333250,7.336123,448064.000000,1670926173.613486
1670926173.581806,,,,7.328201,7.329872,448065.000000,1670926173.614493
1670926173.581884,,,,7.342144,7.345234,448066.000000,1670926173.615500
1670926173.586394,,,,7.367075,7.370044,448067.000000,1670926173.616507
1670926173.586662,,,,7.388086,7.389084,448068.000000,1670926173.617514
1670926173.587126,,,,7.391548,7.393459,448069.000000,1670926173.618521
1670926173.587166,,,,7.370176,7.372424,448070.000000,1670926173.619529
1670926173.589413,,,,7.352915,7.355908,448071.000000,1670926173.620536
1670926173.589434,,,,7.354429,7.356654,448072.000000,1670926173.621543
1670926173.589616,,,,7.350078,7.354298,448073.000000,1670926173.622550
1670926173.589929,,,,7.346688,7.350788,448074.000000,1670926173.623557
1670926173.590283,,,,7.351929,7.355860,448075.000000,1670926173.624564
1670926173.590373,,,,7.358757,7.360139,448076.000000,1670926173.625571
1670926173.590776,,,,7.354814,7.354153,448077.000000,1670926173.626578
1670926173.595660,,,,7.350703,7.351028,448078.000000,1670926173.627585
1670926173.595677,,,,7.331398,7.332517,448079.000000,1670926173.628592
1670926173.595693,,,,7.309017,7.315640,448080.000000,1670926173.629599
1670926173.595914,,,,7.303055,7.306409,448081.000000,1670926173.630606
1670926173.596506,,,,7.328273,7.329728,448082.000000,1670926173.631613
1670926173.596525,,,,7.351544,7.354225,448083.000000,1670926173.632621
1670926173.596636,,,,7.329451,7.331940,448084.000000,1670926173.633628
1670926173.596780,,,,7.323369,7.326242,448085.000000,1670926173.634635
1670926173.597188,,,,7.317287,7.323093,448086.000000,1670926173.635642
1670926173.597203,,,,7.338418,7.342878,448087.000000,1670926173.636649
1670926173.597231,,,,7.383927,7.387642,448088.000000,1670926173.637656
1670926173.597243,,,,7.422753,7.425385,448089.000000,1670926173.638663
1670926173.597405,,,,7.476315,7.478395,448090.000000,1670926173.639670
1670926173.598582,,,,7.529252,7.532269,448093.000000,1670926173.642691
1670926173.598602,,,,7.473190,7.475822,448094.000000,1670926173.643698
1670926173.598610,,,,7.356328,7.358144,448095.000000,1670926173.644706
1670926173.598625,,,,7.201051,7.202602,448096.000000,1670926173.645713
1670926173.598631,,,,7.141983,7.141322,448097.000000,1670926173.646720
1670926173.598636,,,,7.136382,7.138029,448098.000000,1670926173.647727
1670926173.598652,,,,7.175063,7.176806,448099.000000,1670926173.648734
1670926173.598692,,,,7.307358,7.312683,448100.000000,1670926173.649741
1670926173.598701,,,,7.361546,7.368193,448101.000000,1670926173.650748
1670926173.598709,,,,7.352362,7.355163,448102.000000,1670926173.651755
1670926173.601547,,,,7.319619,7.323525,448103.000000,1670926173.652762
1670926173.601844,,,,7.275216,7.277560,448104.000000,1670926173.653769
1670926173.601861,,,,7.245261,7.247437,448105.000000,1670926173.654776
1670926173.601887,,,,7.207878,7.211593,448106.000000,1670926173.655783
1670926173.617998,,,,7.214033,7.217819,448107.000000,1670926173.656790
1670926173.618007,,,,7.281202,7.284219,448108.000000,1670926173.657798
1670926173.625444,,,,7.343347,7.346845,448109.000000,1670926173.658805
1670926173.625521,,,,7.378518,7.379780,448110.000000,1670926173.659812
1670926173.625544,,,,7.383254,7.387089,448111.000000,1670926173.660819
1670926173.625679,,,,7.338298,7.341316,448112.000000,1670926173.661826
1670926173.627992,33.701050,952811.000000,1670926173.617305,,,,
1670926173.628009,34.008579,952812.000000,1670926173.618305,,,,
1670926173.628018,34.316113,952813.000000,1670926173.619305,,,,
1670926173.628056,34.605553,952814.000000,1670926173.620305,,,,
1670926173.628073,34.949261,952815.000000,1670926173.621305,,,,
1670926173.628080,35.292976,952816.000000,1670926173.622305,,,,
1670926173.628117,35.600510,952817.000000,1670926173.623305,,,,
1670926173.628130,35.871861,952818.000000,1670926173.624305,,,,
1670926173.628142,36.233665,952819.000000,1670926173.625305,,,,
1670926173.628150,36.486919,952820.000000,1670926173.626305,,,,
1670926173.631291,,,,7.291299,7.296841,448113.000000,1670926173.662833
1670926173.631437,,,,7.286755,7.292080,448114.000000,1670926173.663840
1670926173.631739,,,,7.290169,7.291576,448115.000000,1670926173.664847
1670926173.631861,,,,7.286323,7.287946,448116.000000,1670926173.665854
1670926173.633704,,,,7.284087,7.286599,448117.000000,1670926173.666861
1670926173.634024,,,,7.273149,7.275733,448118.000000,1670926173.667868
1670926173.634204,,,,7.255238,7.257222,448119.000000,1670926173.668875
1670926173.638888,,,,7.286731,7.290205,448120.000000,1670926173.669883
1670926173.639225,,,,7.337000,7.340619,448121.000000,1670926173.670890
1670926173.639427,,,,7.389721,7.392594,448122.000000,1670926173.671897
1670926173.639654,,,,7.422585,7.426828,448123.000000,1670926173.672904
1670926173.641271,,,,7.404482,7.406994,448124.000000,1670926173.673911
1670926173.641449,,,,7.393712,7.398220,448125.000000,1670926173.674918
1670926173.641650,,,,7.390130,7.394926,448126.000000,1670926173.675925
1670926173.641909,,,,7.358276,7.360909,448127.000000,1670926173.676932
1670926173.646778,,,,7.338226,7.343696,448128.000000,1670926173.677939
1670926173.647236,,,,7.321350,7.328454,448129.000000,1670926173.678946
1670926173.647702,,,,7.333803,7.338431,448130.000000,1670926173.679953
1670926173.647888,,,,7.346111,7.349946,448131.000000,1670926173.680960
1670926173.648275,,,,7.331158,7.336555,448132.000000,1670926173.681967
1670926173.648652,,,,7.308464,7.314078,448133.000000,1670926173.682975
1670926173.649096,,,,7.310147,7.315184,448134.000000,1670926173.683982
1670926173.649378,,,,7.313368,7.316289,448135.000000,1670926173.684989
1670926173.649505,,,,7.306396,7.306505,448136.000000,1670926173.685996
1670926173.649659,,,,7.313224,7.313933,448137.000000,1670926173.687003
1670926173.654361,,,,7.326855,7.329752,448138.000000,1670926173.688010
1670926173.655305,,,,7.336808,7.342085,448139.000000,1670926173.689017
1670926173.655339,,,,7.336952,7.340666,448140.000000,1670926173.690024
1670926173.655552,,,,7.331254,7.333671,448141.000000,1670926173.691031
1670926173.655581,,,,7.314786,7.318741,448142.000000,1670926173.692038
1670926173.655592,,,,7.295290,7.299341,448143.000000,1670926173.693045
1670926173.655602,,,,7.265960,7.269098,448144.000000,1670926173.694052
1670926173.656334,,,,7.272908,7.276839,448145.000000,1670926173.695060
1670926173.656858,,,,7.328754,7.332950,448146.000000,1670926173.696067
1670926173.656874,,,,7.348227,7.350571,448147.000000,1670926173.697074
1670926173.656976,,,,7.348467,7.348985,448148.000000,1670926173.698081
1670926173.662863,,,,7.337577,7.338791,448149.000000,1670926173.699088
1670926173.663102,,,,7.310411,7.312443,448150.000000,1670926173.700095
1670926173.663127,,,,7.302742,7.304293,448151.000000,1670926173.701102
1670926173.663206,,,,7.302718,7.304822,448152.000000,1670926173.702109
1670926173.663358,,,,7.318753,7.319679,448153.000000,1670926173.703116
1670926173.663630,,,,7.371643,7.372664,448154.000000,1670926173.704123
1670926173.663641,,,,7.395370,7.400239,448155.000000,1670926173.705130
1670926173.664024,,,,7.358973,7.362688,448156.000000,1670926173.706137
1670926173.664220,,,,7.321229,7.324511,448157.000000,1670926173.707144
1670926173.664459,,,,7.305771,7.307202,448158.000000,1670926173.708152
1670926173.664842,,,,7.297093,7.300903,448159.000000,1670926173.709159
1670926173.665036,,,,7.287669,7.289965,448160.000000,1670926173.710166
1670926173.665475,,,,7.285722,7.290710,448161.000000,1670926173.711173
1670926173.665755,,,,7.337745,7.341436,448162.000000,1670926173.712180
1670926173.666161,,,,7.346664,7.352470,448163.000000,1670926173.713187
1670926173.666447,,,,7.322552,7.324223,448164.000000,1670926173.714194
1670926173.666862,,,,7.316181,7.319848,448165.000000,1670926173.715201
1670926173.666884,,,,7.317984,7.321170,448166.000000,1670926173.716208
1670926173.667099,,,,7.331375,7.333815,448167.000000,1670926173.717215
1670926173.667237,,,,7.349790,7.352903,448168.000000,1670926173.718222
1670926173.667513,,,,7.343298,7.346220,448169.000000,1670926173.719229
1670926173.667858,,,,7.338947,7.339969,448170.000000,1670926173.720237
1670926173.667871,,,,7.318609,7.322107,448171.000000,1670926173.721244
1670926173.668058,,,,7.306949,7.309630,448172.000000,1670926173.722251
1670926173.668149,,,,7.290650,7.295975,448173.000000,1670926173.723258
1670926173.678412,,,,7.273365,7.277007,448174.000000,1670926173.724265
1670926173.678429,,,,7.253435,7.256453,448175.000000,1670926173.725272
1670926173.678745,,,,7.248435,7.250202,448176.000000,1670926173.726279
1670926173.678751,,,,7.278918,7.279748,448177.000000,1670926173.727286
1670926173.678886,,,,7.342698,7.344296,448178.000000,1670926173.728293
1670926173.678985,,,,7.349862,7.353047,448179.000000,1670926173.729300
1670926173.679081,,,,7.353107,7.357062,448180.000000,1670926173.730307
1670926173.679089,,,,7.341928,7.345162,448181.000000,1670926173.731314
1670926173.679368,,,,7.337770,7.340402,448182.000000,1670926173.732322
1670926173.679388,,,,7.322696,7.328887,448183.000000,1670926173.733329
1670926173.679568,,,,7.300915,7.305495,448184.000000,1670926173.734336
1670926173.685532,,,,7.277908,7.281262,448185.000000,1670926173.735343
1670926173.685716,,,,7.265480,7.266117,448186.000000,1670926173.736350
1670926173.686296,,,,7.273653,7.276286,448187.000000,1670926173.737357
1670926173.686313,,,,7.282164,7.284988,448188.000000,1670926173.738364
1670926173.686546,,,,7.300218,7.300423,448189.000000,1670926173.739371
1670926173.686754,,,,7.327096,7.327372,448190.000000,1670926173.740378
1670926173.691466,36.776371,952821.000000,1670926173.630354,,,,
1670926173.691782,,,,7.385971,7.388243,448191.000000,1670926173.741385
1670926173.691809,,,,7.388086,7.391728,448192.000000,1670926173.742392
1670926173.692050,,,,7.333947,7.335618,448193.000000,1670926173.743399
1670926173.692509,,,,7.311853,7.315664,448194.000000,1670926173.744406
1670926173.692642,37.083900,952822.000000,1670926173.631354,,,,
1670926173.692834,37.373344,952823.000000,1670926173.632354,,,,
1670926173.692964,37.662785,952824.000000,1670926173.633354,,,,
1670926173.693107,38.096947,952825.000000,1670926173.634354,,,,
1670926173.693312,38.404476,952826.000000,1670926173.635354,,,,
1670926173.693572,38.693916,952827.000000,1670926173.636354,,,,
1670926173.693946,48.571129,952862.000000,1670926173.671354,,,,
1670926173.694042,48.824390,952863.000000,1670926173.672354,,,,
1670926173.694207,,,,7.306540,7.310544,448195.000000,1670926173.745414
1670926173.694224,49.059559,952864.000000,1670926173.673354,,,,
1670926173.694642,,,,7.307599,7.312563,448196.000000,1670926173.746421
1670926173.694744,49.312820,952865.000000,1670926173.674354,,,,
1670926173.694766,49.493721,952866.000000,1670926173.675354,,,,
1670926173.694781,49.746983,952867.000000,1670926173.676354,,,,
1670926173.694855,49.982159,952868.000000,1670926173.677354,,,,
1670926173.694865,50.199242,952869.000000,1670926173.678354,,,,
1670926173.694888,50.452499,952870.000000,1670926173.679354,,,,
1670926173.694926,50.633404,952871.000000,1670926173.680354,,,,
1670926173.694934,50.814304,952872.000000,1670926173.681354,,,,
1670926173.694956,50.995201,952873.000000,1670926173.682354,,,,
1670926173.694968,51.284645,952874.000000,1670926173.683354,,,,
1670926173.694974,51.483639,952875.000000,1670926173.684354,,,,
1670926173.695027,51.700718,952876.000000,1670926173.685354,,,,
1670926173.695070,51.935890,952877.000000,1670926173.686354,,,,
1670926173.695079,52.134880,952878.000000,1670926173.687354,,,,
1670926173.695087,52.424320,952879.000000,1670926173.688354,,,,
1670926173.695100,52.623318,952880.000000,1670926173.689354,,,,
1670926173.695134,52.786125,952881.000000,1670926173.690354,,,,
1670926173.695443,,,,7.302790,7.304413,448197.000000,1670926173.747428
1670926173.695832,,,,7.299569,7.299028,448198.000000,1670926173.748435
1670926173.695929,,,,7.303872,7.305038,448199.000000,1670926173.749442
1670926173.695983,,,,7.307526,7.308020,448200.000000,1670926173.750449
1670926173.695991,,,,7.307574,7.309390,448201.000000,1670926173.751456
1670926173.699590,,,,7.348780,7.349850,448202.000000,1670926173.752463
1670926173.699749,,,,7.402318,7.402379,448203.000000,1670926173.753470
1670926173.699785,,,,7.384456,7.387257,448204.000000,1670926173.754477
1670926173.699950,,,,7.333586,7.338070,448205.000000,1670926173.755484
1670926173.700044,,,,7.287573,7.290085,448206.000000,1670926173.756491
1670926173.700177,,,,7.177010,7.180725,448207.000000,1670926173.757499
1670926173.700382,,,,7.158018,7.160987,448208.000000,1670926173.758506
1670926173.700627,,,,7.230548,7.231258,448209.000000,1670926173.759513
1670926173.700923,,,,7.273894,7.274988,448210.000000,1670926173.760520
1670926173.701149,,,,7.324018,7.323766,448211.000000,1670926173.761527
1670926173.701345,,,,7.333034,7.333622,448212.000000,1670926173.762534
1670926173.706906,,,,7.297261,7.300375,448213.000000,1670926173.763541
1670926173.707086,,,,7.270816,7.276358,448214.000000,1670926173.764548
1670926173.707418,,,,7.246247,7.248086,448215.000000,1670926173.765555
1670926173.707486,,,,7.272788,7.275252,448216.000000,1670926173.766562
1670926173.707496,,,,7.324956,7.326891,448217.000000,1670926173.767569
1670926173.707502,,,,7.318873,7.319439,448218.000000,1670926173.768576
1670926173.707547,,,,7.276418,7.278834,448219.000000,1670926173.769583
1670926173.709009,,,,7.255815,7.259481,448220.000000,1670926173.770591
1670926173.709201,,,,7.247569,7.250058,448221.000000,1670926173.771598
1670926173.709415,,,,7.262282,7.265636,448222.000000,1670926173.772605
1670926173.709505,,,,7.256993,7.260011,448223.000000,1670926173.773612
1670926173.709521,,,,7.239973,7.242966,448224.000000,1670926173.774619
1670926173.709777,,,,7.236558,7.240922,448225.000000,1670926173.775626
1670926173.709810,,,,7.279664,7.279892,448226.000000,1670926173.776633
1670926173.714246,,,,7.320773,7.323622,448227.000000,1670926173.777640
1670926173.714336,,,,7.308416,7.310760,448228.000000,1670926173.778647
1670926173.714512,,,,7.281947,7.286984,448229.000000,1670926173.779654
1670926173.714800,,,,7.280673,7.286912,448230.000000,1670926173.780661
1670926173.714924,,,,7.260407,7.264194,448231.000000,1670926173.781668
1670926173.714930,,,,7.232784,7.235610,448232.000000,1670926173.782676
1670926173.714947,,,,7.211677,7.214309,448233.000000,1670926173.783683
1670926173.714950,,,,7.198454,7.202529,448234.000000,1670926173.784690
1670926173.716209,,,,7.244804,7.246836,448235.000000,1670926173.785697
1670926173.716433,,,,7.290987,7.294677,448236.000000,1670926173.786704
1670926173.716438,,,,7.286731,7.290879,448237.000000,1670926173.787711
1670926173.721505,,,,7.282596,7.284772,448238.000000,1670926173.788718
1670926173.721669,,,,7.263052,7.265876,448239.000000,1670926173.789725
1670926173.721883,,,,7.265480,7.268040,448240.000000,1670926173.790732
1670926173.722052,,,,7.281971,7.284580,448241.000000,1670926173.791739
1670926173.723812,,,,7.283991,7.284941,448242.000000,1670926173.792746
1670926173.723822,,,,7.279159,7.281767,448243.000000,1670926173.793753
1670926173.723890,,,,7.283918,7.286912,448244.000000,1670926173.794760
1670926173.737840,,,,7.276826,7.278594,448245.000000,1670926173.795768
1670926173.738144,,,,7.263292,7.267655,448246.000000,1670926173.796775
1670926173.738426,,,,7.266201,7.267295,448247.000000,1670926173.797782
1670926173.745645,,,,7.271465,7.274603,448248.000000,1670926173.798789
1670926173.745912,,,,7.279976,7.283426,448249.000000,1670926173.799796
1670926173.746141,,,,7.270167,7.269843,448250.000000,1670926173.800803
1670926173.746333,,,,7.243290,7.246956,448251.000000,1670926173.801810
1670926173.750503,64.219078,952933.000000,1670926173.737966,,,,
1670926173.750532,64.544716,952934.000000,1670926173.738966,,,,
1670926173.750544,64.725601,952935.000000,1670926173.739966,,,,
1670926173.750555,64.924599,952936.000000,1670926173.740966,,,,
1670926173.750564,65.123596,952937.000000,1670926173.741966,,,,
1670926173.750573,65.358757,952938.000000,1670926173.742966,,,,
1670926173.750615,65.593925,952939.000000,1670926173.743966,,,,
1670926173.750674,65.829102,952940.000000,1670926173.744966,,,,
1670926173.750689,66.028099,952941.000000,1670926173.745966,,,,
1670926173.750695,66.281364,952942.000000,1670926173.746966,,,,
1670926173.751853,,,,7.225307,7.230561,448252.000000,1670926173.802817
1670926173.751860,,,,7.236511,7.241836,448253.000000,1670926173.803824
1670926173.751920,,,,7.278028,7.279507,448254.000000,1670926173.804831
1670926173.752289,,,,7.335293,7.335209,448255.000000,1670926173.805838
1670926173.752301,,,,7.351088,7.353192,448256.000000,1670926173.806845
1670926173.752306,,,,7.359286,7.362519,448257.000000,1670926173.807853
1670926173.752310,,,,7.351809,7.354225,448258.000000,1670926173.808860
1670926173.755751,,,,7.294665,7.295326,448259.000000,1670926173.809867
1670926173.755957,,,,7.224466,7.226762,448260.000000,1670926173.810874
1670926173.756096,,,,7.223288,7.228373,448261.000000,1670926173.811881
1670926173.756151,,,,7.246968,7.252654,448262.000000,1670926173.812888
1670926173.756667,,,,7.266201,7.268497,448263.000000,1670926173.813895
1670926173.756680,,,,7.277187,7.277199,448264.000000,1670926173.814902
1670926173.756706,,,,7.288054,7.290205,448265.000000,1670926173.815909
1670926173.756716,,,,7.304930,7.307395,448266.000000,1670926173.816916
1670926173.756722,,,,7.329860,7.332661,448267.000000,1670926173.817923
1670926173.756731,,,,7.301324,7.306938,448268.000000,1670926173.818930
1670926173.758933,,,,7.269759,7.275805,448269.000000,1670926173.819937
1670926173.759072,,,,7.284856,7.287633,448270.000000,1670926173.820945
1670926173.759155,,,,7.264854,7.268833,448271.000000,1670926173.821952
1670926173.759163,,,,7.264854,7.268329,448272.000000,1670926173.822959
1670926173.763429,,,,7.313512,7.316193,448273.000000,1670926173.823966
1670926173.763484,,,,7.315123,7.317395,448274.000000,1670926173.824973
1670926173.763607,,,,7.269422,7.272968,448275.000000,1670926173.825980
1670926173.763616,,,,7.241295,7.243999,448276.000000,1670926173.826987
1670926173.766363,,,,7.241487,7.243567,448277.000000,1670926173.827994
1670926173.766485,,,,7.241776,7.242485,448278.000000,1670926173.829001
1670926173.766627,,,,7.243073,7.244721,448279.000000,1670926173.830008
1670926173.770832,,,,7.249084,7.254914,448280.000000,1670926173.831015
1670926173.771065,,,,7.260912,7.265804,448281.000000,1670926173.832022
1670926173.771285,,,,7.270047,7.273737,448282.000000,1670926173.833030
1670926173.771460,,,,7.261970,7.264963,448283.000000,1670926173.834037
1670926173.774017,,,,7.234323,7.236331,448284.000000,1670926173.835044
1670926173.774331,,,,7.214489,7.216401,448285.000000,1670926173.836051
1670926173.774343,,,,7.208359,7.209309,448286.000000,1670926173.837058
1670926173.774355,,,,7.236414,7.238542,448287.000000,1670926173.838065
1670926173.776789,,,,7.281202,7.283979,448288.000000,1670926173.839072
1670926173.777039,,,,7.282236,7.282657,448289.000000,1670926173.840079
1670926173.777090,,,,7.268797,7.268833,448290.000000,1670926173.841086
1670926173.777185,,,,7.253075,7.253880,448291.000000,1670926173.842093
1670926173.777199,,,,7.238794,7.240682,448292.000000,1670926173.843100
1670926173.777246,,,,7.217086,7.219790,448293.000000,1670926173.844107
1670926173.781439,,,,7.204657,7.210295,448294.000000,1670926173.845114
1670926173.781992,,,,7.251464,7.253376,448295.000000,1670926173.846122
1670926173.782298,,,,7.297020,7.300567,448296.000000,1670926173.847129
1670926173.782413,,,,7.296251,7.298908,448297.000000,1670926173.848136
1670926173.784443,,,,7.244853,7.247990,448298.000000,1670926173.849143
1670926173.784458,,,,7.246992,7.248760,448299.000000,1670926173.850150
1670926173.784467,,,,7.230741,7.232941,448300.000000,1670926173.851157
1670926173.798425,,,,7.223745,7.227604,448301.000000,1670926173.852164
1670926173.798685,,,,7.235717,7.239287,448302.000000,1670926173.853171
1670926173.799203,,,,7.235188,7.235513,448303.000000,1670926173.854178
1670926173.799232,,,,7.207205,7.206016,448304.000000,1670926173.855185
1670926173.799562,,,,7.234323,7.236547,448305.000000,1670926173.856192
1670926173.800101,,,,7.273149,7.275108,448306.000000,1670926173.857199
1670926173.800520,,,,7.329163,7.330257,448307.000000,1670926173.858207
1670926173.800914,,,,7.335485,7.339080,448308.000000,1670926173.859214
1670926173.805228,,,,7.291539,7.296649,448309.000000,1670926173.860221
1670926173.805445,,,,7.247858,7.249577,448310.000000,1670926173.861228
1670926173.805620,,,,7.247065,7.249433,448311.000000,1670926173.862235
1670926173.805786,,,,7.264326,7.265804,448312.000000,1670926173.863242
1670926173.814134,,,,7.268773,7.268954,448313.000000,1670926173.864249
1670926173.814368,,,,7.275504,7.277055,448314.000000,1670926173.865256
1670926173.814531,66.498451,952943.000000,1670926173.753739,,,,
1670926173.814546,,,,7.262715,7.264290,448315.000000,1670926173.866263
1670926173.814775,,,,7.256464,7.260780,448316.000000,1670926173.867270
1670926173.815049,66.733604,952944.000000,1670926173.754739,,,,
1670926173.815067,66.968781,952945.000000,1670926173.755738,,,,
1670926173.815073,67.203957,952946.000000,1670926173.756739,,,,
1670926173.815079,67.294403,952947.000000,1670926173.757739,,,,
1670926173.815233,,,,7.255887,7.261909,448317.000000,1670926173.868277
1670926173.815253,,,,7.254108,7.257150,448318.000000,1670926173.869284
1670926173.815996,74.548538,952994.000000,1670926173.804739,,,,
1670926173.816006,74.747536,952995.000000,1670926173.805739,,,,
1670926173.816025,74.837982,952996.000000,1670926173.806739,,,,
1670926173.816033,74.964622,952997.000000,1670926173.807739,,,,
1670926173.816038,75.036980,952998.000000,1670926173.808738,,,,
1670926173.816048,75.145515,952999.000000,1670926173.809739,,,,
1670926173.816067,75.290237,953000.000000,1670926173.810739,,,,
1670926173.816076,75.380684,953001.000000,1670926173.811738,,,,
1670926173.816085,75.453056,953002.000000,1670926173.812739,,,,
1670926173.816090,75.543503,953003.000000,1670926173.813739,,,,
1670926173.818858,,,,7.280769,7.283041,448319.000000,1670926173.870291
1670926173.819102,,,,7.323706,7.324896,448320.000000,1670926173.871299
1670926173.819251,,,,7.354742,7.359586,448321.000000,1670926173.872306
1670926173.819390,,,,7.359959,7.362159,448322.000000,1670926173.873313
1670926173.819606,,,,7.346808,7.348985,448323.000000,1670926173.874320
1670926173.821398,,,,7.328754,7.331988,448324.000000,1670926173.875327
1670926173.821600,,,,7.286900,7.291888,448325.000000,1670926173.876334
1670926173.837134,,,,7.274591,7.277873,448326.000000,1670926173.877341
1670926173.837392,,,,7.243987,7.245346,448327.000000,1670926173.878348
1670926173.837610,,,,7.219562,7.224238,448328.000000,1670926173.879355
1670926173.838104,,,,7.229394,7.233422,448329.000000,1670926173.880362
1670926173.838382,,,,7.239443,7.241836,448330.000000,1670926173.881369
1670926173.838410,,,,7.239876,7.241715,448331.000000,1670926173.882376
1670926173.838434,,,,7.208912,7.212242,448332.000000,1670926173.883384
1670926173.838454,,,,7.179390,7.186038,448333.000000,1670926173.884391
1670926173.865543,,,,7.170616,7.173080,448334.000000,1670926173.885398
1670926173.865919,,,,7.187925,7.191591,448335.000000,1670926173.886405
1670926173.866043,,,,7.228457,7.229936,448336.000000,1670926173.887412
1670926173.869882,75.706306,953004.000000,1670926173.808829,,,,
1670926173.871313,75.832947,953005.000000,1670926173.809829,,,,
1670926173.871336,75.851036,953006.000000,1670926173.810829,,,,
1670926173.871578,76.068123,953007.000000,1670926173.811829,,,,
1670926173.871593,76.140472,953008.000000,1670926173.812829,,,,
1670926173.871599,76.303291,953009.000000,1670926173.813829,,,,
1670926173.871633,80.753464,953055.000000,1670926173.859829,,,,
1670926173.871655,80.807732,953056.000000,1670926173.860829,,,,
1670926173.871661,80.898178,953057.000000,1670926173.861829,,,,
1670926173.871752,80.952446,953058.000000,1670926173.862829,,,,
1670926173.871830,81.006714,953059.000000,1670926173.863829,,,,
1670926173.871846,81.169533,953060.000000,1670926173.864829,,,,
1670926173.871856,81.223801,953061.000000,1670926173.865829,,,,
1670926173.871872,81.241890,953062.000000,1670926173.866829,,,,
1670926173.871895,81.422791,953063.000000,1670926173.867829,,,,
1670926173.871908,81.513237,953064.000000,1670926173.868829,,,,
1670926173.872107,,,,7.276298,7.275853,448337.000000,1670926173.888419
1670926173.872242,,,,7.309041,7.310616,448338.000000,1670926173.889426
1670926173.872418,,,,7.331062,7.334993,448339.000000,1670926173.890433
1670926173.872434,,,,7.304233,7.309510,448340.000000,1670926173.891440
1670926173.873815,,,,7.282716,7.286695,448341.000000,1670926173.892447
1670926173.874168,,,,7.267138,7.269242,448342.000000,1670926173.893454
1670926173.874285,,,,7.232063,7.235561,448343.000000,1670926173.894461
1670926173.874341,,,,7.237833,7.240273,448344.000000,1670926173.895468
1670926173.879136,,,,7.229611,7.232268,448345.000000,1670926173.896476
1670926173.879283,,,,7.234323,7.237509,448346.000000,1670926173.897483
1670926173.879625,,,,7.290602,7.296072,448347.000000,1670926173.898490
1670926173.879642,,,,7.294569,7.299822,448348.000000,1670926173.899497
1670926173.879653,,,,7.254180,7.254409,448349.000000,1670926173.900504
1670926173.879819,,,,7.211917,7.211545,448350.000000,1670926173.901511
1670926173.881536,,,,7.205138,7.209910,448351.000000,1670926173.902518
1670926173.881742,,,,7.218264,7.222844,448352.000000,1670926173.903525
1670926173.881870,,,,7.215331,7.218204,448353.000000,1670926173.904532
1670926173.882030,,,,7.254950,7.257967,448354.000000,1670926173.905539
1670926173.882409,,,,7.288919,7.291912,448355.000000,1670926173.906546
1670926173.882429,,,,7.283197,7.285926,448356.000000,1670926173.907553
1670926173.882667,,,,7.299328,7.302346,448357.000000,1670926173.908561
1670926173.886481,,,,7.277788,7.281022,448358.000000,1670926173.909568
1670926173.886608,,,,7.256224,7.257174,448359.000000,1670926173.910575
1670926173.886706,,,,7.234107,7.239312,448360.000000,1670926173.911582
1670926173.886835,,,,7.235934,7.238542,448361.000000,1670926173.912589
1670926173.889030,,,,7.242256,7.243446,448362.000000,1670926173.913596
1670926173.889042,,,,7.290217,7.293764,448363.000000,1670926173.914603
1670926173.889058,,,,7.292741,7.298018,448364.000000,1670926173.915610
1670926173.889162,,,,7.293535,7.296432,448365.000000,1670926173.916617
1670926173.894217,,,,7.301756,7.304365,448366.000000,1670926173.917624
1670926173.894388,,,,7.312960,7.318164,448367.000000,1670926173.918631
1670926173.894552,,,,7.344621,7.348143,448368.000000,1670926173.919638
1670926173.894557,,,,7.362123,7.364034,448369.000000,1670926173.920645
1670926173.894775,,,,7.335774,7.337734,448370.000000,1670926173.921653
1670926173.894787,,,,7.253820,7.255322,448371.000000,1670926173.922660
1670926173.894830,,,,7.169317,7.169594,448372.000000,1670926173.923667
1670926173.896308,,,,7.167322,7.169113,448373.000000,1670926173.924674
1670926173.896318,,,,7.218216,7.220127,448374.000000,1670926173.925681
1670926173.896514,,,,7.229876,7.231859,448375.000000,1670926173.926688
1670926173.896636,,,,7.215884,7.218949,448376.000000,1670926173.927695
1670926173.901479,,,,7.195065,7.200246,448377.000000,1670926173.928702
1670926173.901745,,,,7.178092,7.181061,448378.000000,1670926173.929709
1670926173.902227,,,,7.178549,7.181927,448379.000000,1670926173.930716
1670926173.904108,,,,7.197565,7.201087,448380.000000,1670926173.931723
1670926173.904131,,,,7.246655,7.250538,448381.000000,1670926173.932730
1670926173.904564,,,,7.286443,7.292778,448382.000000,1670926173.933738
1670926173.917834,,,,7.272572,7.279291,448383.000000,1670926173.934745
1670926173.917848,,,,7.236391,7.240778,448384.000000,1670926173.935752
1670926173.918043,,,,7.215403,7.218469,448385.000000,1670926173.936759
1670926173.918217,,,,7.207157,7.208444,448386.000000,1670926173.937766
1670926173.924547,81.567505,953065.000000,1670926173.863845,,,,
1670926173.924564,81.639877,953066.000000,1670926173.864845,,,,
1670926173.924575,81.748413,953067.000000,1670926173.865845,,,,
1670926173.924582,81.820770,953068.000000,1670926173.866845,,,,
1670926173.925200,,,,7.230789,7.233638,448387.000000,1670926173.938773
1670926173.925270,,,,7.251031,7.255322,448388.000000,1670926173.939780
1670926173.925478,,,,7.259349,7.262391,448389.000000,1670926173.940787
1670926173.925617,,,,7.292934,7.296119,448390.000000,1670926173.941794
1670926173.926121,86.035767,953116.000000,1670926173.914845,,,,
1670926173.926131,86.071960,953117.000000,1670926173.915845,,,,
1670926173.926154,86.234764,953118.000000,1670926173.916845,,,,
1670926173.926160,86.325211,953119.000000,1670926173.917845,,,,
1670926173.926172,86.451851,953120.000000,1670926173.918845,,,,
1670926173.926188,86.524208,953121.000000,1670926173.919845,,,,
1670926173.926203,86.632759,953122.000000,1670926173.920845,,,,
1670926173.926211,86.650848,953123.000000,1670926173.921845,,,,
1670926173.926230,86.795555,953124.000000,1670926173.922845,,,,
1670926173.926236,86.831734,953125.000000,1670926173.923845,,,,
1670926173.931680,,,,7.323297,7.327517,448391.000000,1670926173.942801
1670926173.931846,,,,7.307238,7.311914,448392.000000,1670926173.943808
1670926173.931943,,,,7.276658,7.280734,448393.000000,1670926173.944815
1670926173.933817,,,,7.237472,7.239143,448394.000000,1670926173.945822
1670926173.934140,,,,7.200786,7.203780,448395.000000,1670926173.946830
1670926173.934158,,,,7.190954,7.196231,448396.000000,1670926173.947837
1670926173.939035,,,,7.194295,7.198924,448397.000000,1670926173.948844
1670926173.939190,,,,7.167683,7.172383,448398.000000,1670926173.949851
1670926173.939714,,,,7.123328,7.124590,448399.000000,1670926173.950858
1670926173.939823,,,,7.122727,7.124999,448400.000000,1670926173.951865
1670926173.939830,,,,7.168380,7.170556,448401.000000,1670926173.952872
1670926173.944620,,,,7.283101,7.285421,448402.000000,1670926173.953879
1670926173.944913,,,,7.328826,7.330810,448403.000000,1670926173.954886
1670926173.945195,,,,7.291323,7.292129,448404.000000,1670926173.955893
1670926173.945610,,,,7.272451,7.274964,448405.000000,1670926173.956900
1670926173.945698,,,,7.284808,7.284556,448406.000000,1670926173.957907
1670926173.945711,,,,7.260912,7.260876,448407.000000,1670926173.958915
1670926173.945860,,,,7.244853,7.246596,448408.000000,1670926173.959922
1670926173.945900,,,,7.240477,7.243014,448409.000000,1670926173.960929
1670926173.946129,,,,7.278798,7.280252,448410.000000,1670926173.961936
1670926173.946386,,,,7.311950,7.315689,448411.000000,1670926173.962943
1670926173.946755,,,,7.311758,7.317323,448412.000000,1670926173.963950
1670926173.946909,,,,7.292020,7.296937,448413.000000,1670926173.964957
1670926173.947189,,,,7.251247,7.254745,448414.000000,1670926173.965964
1670926173.947200,,,,7.208744,7.208059,448415.000000,1670926173.966971
1670926173.947785,,,,7.195810,7.195798,448416.000000,1670926173.967978
1670926173.947913,,,,7.223456,7.222964,448417.000000,1670926173.968985
1670926173.948486,,,,7.264638,7.264843,448418.000000,1670926173.969992
1670926173.948535,,,,7.296420,7.296696,448419.000000,1670926173.970999
1670926173.948594,,,,7.318609,7.320208,448420.000000,1670926173.972007
1670926173.948600,,,,7.320172,7.324367,448421.000000,1670926173.973014
1670926173.948624,,,,7.280865,7.286191,448422.000000,1670926173.974021
1670926173.948678,,,,7.256585,7.259361,448423.000000,1670926173.975028
1670926173.948858,,,,7.250983,7.254097,448424.000000,1670926173.976035
1670926173.948920,,,,7.287477,7.291311,448425.000000,1670926173.977042
1670926173.949031,,,,7.302886,7.305832,448426.000000,1670926173.978049
1670926173.949130,,,,7.304497,7.308380,448427.000000,1670926173.979056
1670926173.949224,,,,7.305194,7.310135,448428.000000,1670926173.980063
1670926173.949811,,,,7.248002,7.249529,448429.000000,1670926173.981070
1670926173.949936,,,,7.168596,7.168921,448430.000000,1670926173.982077
1670926173.950033,,,,7.120852,7.124374,448431.000000,1670926173.983084
1670926173.950042,,,,7.109504,7.111440,448432.000000,1670926173.984092
1670926173.950186,,,,7.173524,7.176927,448433.000000,1670926173.985099
1670926173.950377,,,,7.244540,7.247653,448434.000000,1670926173.986106
1670926173.950384,,,,7.278750,7.281479,448435.000000,1670926173.987113
1670926173.950387,,,,7.282236,7.284316,448436.000000,1670926173.988120
1670926173.950408,,,,7.245526,7.249240,448437.000000,1670926173.989127
1670926173.950412,,,,7.205859,7.206616,448438.000000,1670926173.990134
1670926173.950623,,,,7.239083,7.238518,448439.000000,1670926173.991141
1670926173.950851,,,,7.298271,7.300038,448440.000000,1670926173.992148
1670926173.951290,,,,7.328658,7.329800,448441.000000,1670926173.993155
1670926173.951295,,,,7.310075,7.309943,448442.000000,1670926173.994162
1670926173.951351,,,,7.301877,7.302009,448443.000000,1670926173.995169
1670926173.951526,,,,7.293006,7.294677,448444.000000,1670926173.996176
1670926173.951577,,,,7.289496,7.292417,448445.000000,1670926173.997184
1670926173.951796,,,,7.257162,7.258592,448446.000000,1670926173.998191
1670926173.951975,,,,7.231510,7.229695,448447.000000,1670926173.999198
1670926173.952411,,,,7.215355,7.216064,448448.000000,1670926174.000205
1670926173.952472,,,,7.177876,7.178994,448449.000000,1670926174.001212
1670926173.952479,,,,7.132535,7.137933,448450.000000,1670926174.002219
1670926173.954456,,,,7.158956,7.163512,448451.000000,1670926174.003226
1670926173.954872,,,,7.247016,7.247101,448452.000000,1670926174.004233
1670926173.955173,,,,7.333778,7.336483,448453.000000,1670926174.005240
1670926173.955290,,,,7.407126,7.411682,448454.000000,1670926174.006247
1670926173.955432,,,,7.302310,7.305808,448455.000000,1670926174.007254
1670926173.955606,,,,7.190665,7.193418,448456.000000,1670926174.008261
1670926173.955616,,,,7.141430,7.146034,448457.000000,1670926174.009269
1670926173.955621,,,,7.167899,7.170989,448458.000000,1670926174.010276
1670926173.955626,,,,7.246319,7.246933,448459.000000,1670926174.011283
1670926173.955646,,,,7.303079,7.306986,448460.000000,1670926174.012290
1670926173.955658,,,,7.293535,7.294653,448461.000000,1670926174.013297
1670926173.956145,,,,7.248339,7.253063,448462.000000,1670926174.014304
1670926173.956380,,,,7.216869,7.219767,448463.000000,1670926174.015311
1670926173.956418,,,,7.194319,7.197553,448464.000000,1670926174.016318
1670926173.961877,,,,7.201628,7.203660,448465.000000,1670926174.017325
1670926173.961880,,,,7.202974,7.202938,448466.000000,1670926174.018332
1670926173.961883,,,,7.223529,7.227099,448467.000000,1670926174.019339
1670926173.961891,,,,7.251993,7.254842,448468.000000,1670926174.020346
1670926173.963667,,,,7.228240,7.233662,448469.000000,1670926174.021353
1670926173.963864,,,,7.221581,7.225969,448470.000000,1670926174.022361
1670926173.963872,,,,7.258436,7.260635,448471.000000,1670926174.023368
1670926173.969249,,,,7.277980,7.280060,448472.000000,1670926174.024375
1670926173.969271,,,,7.284111,7.285950,448473.000000,1670926174.025382
1670926173.969315,,,,7.299328,7.301985,448474.000000,1670926174.026389
1670926173.969321,,,,7.280625,7.283113,448475.000000,1670926174.027396
1670926173.971391,,,,7.267523,7.267848,448476.000000,1670926174.028403
1670926173.971479,,,,7.240862,7.242485,448477.000000,1670926174.029410
1670926173.971493,,,,7.249228,7.250178,448478.000000,1670926174.030417
1670926173.971498,,,,7.232640,7.232700,448479.000000,1670926174.031424
1670926173.985445,,,,7.224250,7.224359,448480.000000,1670926174.032431
1670926173.985565,,,,7.239443,7.241836,448481.000000,1670926174.033438
1670926173.985981,,,,7.246199,7.249577,448482.000000,1670926174.034446
1670926173.992970,,,,7.248555,7.252966,448483.000000,1670926174.035453
1670926173.993219,,,,7.261513,7.263208,448484.000000,1670926174.036460
1670926173.993533,,,,7.318705,7.322083,448485.000000,1670926174.037467
1670926173.999504,86.886002,953126.000000,1670926173.938546,,,,
1670926173.999520,,,,7.353083,7.356942,448486.000000,1670926174.038474
1670926173.999652,87.012642,953127.000000,1670926173.939546,,,,
1670926173.999846,87.048820,953128.000000,1670926173.940546,,,,
1670926173.999948,87.121178,953129.000000,1670926173.941546,,,,
1670926173.999966,,,,7.349621,7.354538,448487.000000,1670926174.039481
1670926174.000117,87.247818,953130.000000,1670926173.942546,,,,
1670926174.000134,87.283997,953131.000000,1670926173.943546,,,,
1670926174.000387,87.428711,953132.000000,1670926173.944546,,,,
1670926174.000567,,,,7.334692,7.339609,448488.000000,1670926174.040488
1670926174.000592,,,,7.310579,7.316890,448489.000000,1670926174.041495
1670926174.000601,,,,7.295290,7.299389,448490.000000,1670926174.042502
1670926174.000750,87.663879,953135.000000,1670926173.947546,,,,
1670926174.001468,87.754341,953136.000000,1670926173.948546,,,,
1670926174.001482,,,,7.273798,7.277704,448491.000000,1670926174.043509
1670926174.001582,87.844788,953137.000000,1670926173.949546,,,,
1670926174.001678,87.989502,953138.000000,1670926173.950546,,,,
1670926174.001880,,,,7.222014,7.225873,448492.000000,1670926174.044516
1670926174.002524,88.043785,953139.000000,1670926173.951546,,,,
1670926174.002543,88.116142,953140.000000,1670926173.952546,,,,
1670926174.002833,88.206589,953141.000000,1670926173.953546,,,,
1670926174.002862,88.351318,953142.000000,1670926173.954546,,,,
1670926174.002869,88.459846,953143.000000,1670926173.955546,,,,
1670926174.002885,88.550293,953144.000000,1670926173.956546,,,,
1670926174.002895,92.041695,953177.000000,1670926173.989546,,,,
1670926174.002905,92.204498,953178.000000,1670926173.990546,,,,
1670926174.002913,92.258781,953179.000000,1670926173.991546,,,,
1670926174.002934,92.349228,953180.000000,1670926173.992546,,,,
1670926174.002944,92.403496,953181.000000,1670926173.993546,,,,
1670926174.002953,92.548225,953182.000000,1670926173.994546,,,,
1670926174.002960,92.674850,953183.000000,1670926173.995546,,,,
1670926174.002967,92.711029,953184.000000,1670926173.996546,,,,
1670926174.002980,92.783401,953185.000000,1670926173.997546,,,,
1670926174.003010,92.891930,953186.000000,1670926173.998546,,,,
1670926174.003464,,,,7.171649,7.172503,448493.000000,1670926174.045523
1670926174.003537,,,,7.145133,7.144904,448494.000000,1670926174.046530
1670926174.003720,,,,7.103086,7.108651,448495.000000,1670926174.047538
1670926174.003731,,,,7.092580,7.100718,448496.000000,1670926174.048545
1670926174.016529,,,,7.140397,7.141972,448497.000000,1670926174.049552
1670926174.016702,,,,7.204080,7.206737,448498.000000,1670926174.050559
1670926174.016868,,,,7.244901,7.251115,448499.000000,1670926174.051566
1670926174.017089,,,,7.203984,7.207747,448500.000000,1670926174.052573
1670926174.022724,,,,7.212254,7.212699,448501.000000,1670926174.053580
1670926174.022773,,,,7.238914,7.241812,448502.000000,1670926174.054587
1670926174.022800,,,,7.316974,7.321579,448503.000000,1670926174.055594
1670926174.022825,,,,7.314402,7.317420,448504.000000,1670926174.056601
1670926174.023542,,,,7.276538,7.281190,448505.000000,1670926174.057608
1670926174.023767,,,,7.235140,7.239720,448506.000000,1670926174.058615
1670926174.024010,,,,7.210931,7.215295,448507.000000,1670926174.059623
1670926174.024225,,,,7.204946,7.208780,448508.000000,1670926174.060630
1670926174.024430,,,,7.224418,7.227892,448509.000000,1670926174.061637
1670926174.024757,,,,7.223986,7.226642,448510.000000,1670926174.062644
1670926174.025148,,,,7.229851,7.232772,448511.000000,1670926174.063651
1670926174.025164,,,,7.217687,7.221354,448512.000000,1670926174.064658
1670926174.025622,,,,7.183116,7.185485,448513.000000,1670926174.065665
1670926174.025699,,,,7.176818,7.179955,448514.000000,1670926174.066672
1670926174.028789,,,,7.196483,7.198034,448515.000000,1670926174.067679
1670926174.028913,,,,7.242232,7.240971,448516.000000,1670926174.068686
1670926174.028929,,,,7.312863,7.315039,448517.000000,1670926174.069693
1670926174.031765,,,,7.313080,7.315712,448518.000000,1670926174.070700
1670926174.031775,,,,7.318104,7.319366,448519.000000,1670926174.071707
1670926174.031915,,,,7.288607,7.290398,448520.000000,1670926174.072715
1670926174.031976,,,,7.255334,7.257102,448521.000000,1670926174.073722
1670926174.032047,,,,7.237280,7.243543,448522.000000,1670926174.074729
1670926174.032139,,,,7.207446,7.212651,448523.000000,1670926174.075736
1670926174.032237,,,,7.225260,7.225200,448524.000000,1670926174.076743
1670926174.032403,,,,7.260239,7.262535,448525.000000,1670926174.077750
1670926174.045648,,,,7.261200,7.266333,448526.000000,1670926174.078757
1670926174.046051,,,,7.270408,7.272608,448527.000000,1670926174.079764
1670926174.046268,,,,7.273749,7.276358,448528.000000,1670926174.080771
1670926174.046545,,,,7.235381,7.234576,448529.000000,1670926174.081778
1670926174.046790,,,,7.200161,7.199116,448530.000000,1670926174.082785
1670926174.046890,,,,7.252834,7.253231,448531.000000,1670926174.083792
1670926174.047209,,,,7.242473,7.244216,448532.000000,1670926174.084800
1670926174.053122,,,,7.216485,7.220247,448533.000000,1670926174.085807
1670926174.053138,,,,7.200954,7.201327,448534.000000,1670926174.086814
1670926174.053215,,,,7.207998,7.208732,448535.000000,1670926174.087821
1670926174.053485,,,,7.246367,7.249817,448536.000000,1670926174.088828
1670926174.053597,,,,7.271441,7.271911,448537.000000,1670926174.089835
1670926174.053750,,,,7.263364,7.264242,448538.000000,1670926174.090842
1670926174.053759,,,,7.241367,7.245875,448539.000000,1670926174.091849
1670926174.055366,93.669815,953195.000000,1670926174.002358,,,,
1670926174.055382,93.724075,953196.000000,1670926174.003358,,,,
1670926174.055400,93.814522,953197.000000,1670926174.004358,,,,
1670926174.056675,93.904984,953198.000000,1670926174.005358,,,,
1670926174.056695,94.013519,953199.000000,1670926174.006358,,,,
1670926174.056705,94.122055,953200.000000,1670926174.007358,,,,
1670926174.056713,94.140144,953201.000000,1670926174.008358,,,,
1670926174.056721,94.284874,953202.000000,1670926174.009358,,,,
1670926174.056734,94.357231,953203.000000,1670926174.010358,,,,
1670926174.056878,94.447693,953204.000000,1670926174.011358,,,,
1670926174.056887,97.414459,953238.000000,1670926174.045358,,,,
1670926174.056904,97.577278,953239.000000,1670926174.046358,,,,
1670926174.056919,97.631546,953240.000000,1670926174.047358,,,,
1670926174.056928,97.721992,953241.000000,1670926174.048358,,,,
1670926174.056935,97.848633,953242.000000,1670926174.049358,,,,
1670926174.056971,97.902901,953243.000000,1670926174.050358,,,,
1670926174.056975,97.993340,953244.000000,1670926174.051358,,,,
1670926174.056996,98.047607,953245.000000,1670926174.052358,,,,
1670926174.057003,98.138069,953246.000000,1670926174.053358,,,,
1670926174.057011,98.210426,953247.000000,1670926174.054358,,,,
1670926174.058855,,,,7.263676,7.267535,448540.000000,1670926174.092856
1670926174.059309,,,,7.306324,7.308020,448541.000000,1670926174.093863
1670926174.059324,,,,7.303512,7.307563,448542.000000,1670926174.094870
1670926174.061447,,,,7.283750,7.288787,448543.000000,1670926174.095877
1670926174.061730,,,,7.236126,7.238518,448544.000000,1670926174.096884
1670926174.061742,,,,7.188670,7.189981,448545.000000,1670926174.097892
1670926174.061928,,,,7.199392,7.199789,448546.000000,1670926174.098899
1670926174.066483,,,,7.218697,7.217555,448547.000000,1670926174.099906
1670926174.066694,,,,7.241655,7.240033,448548.000000,1670926174.100913
1670926174.067034,,,,7.262282,7.263352,448549.000000,1670926174.101920
1670926174.067057,,,,7.273413,7.274868,448550.000000,1670926174.102927
1670926174.069508,,,,7.258123,7.258832,448551.000000,1670926174.103934
1670926174.069668,,,,7.231510,7.230200,448552.000000,1670926174.104941
1670926174.069681,,,,7.221148,7.224647,448553.000000,1670926174.105948
1670926174.069688,,,,7.255142,7.259265,448554.000000,1670926174.106955
1670926174.074102,,,,7.247137,7.251740,448555.000000,1670926174.107962
1670926174.074511,,,,7.197469,7.201616,448556.000000,1670926174.108969
1670926174.081583,,,,7.154893,7.157814,448557.000000,1670926174.109977
1670926174.081834,,,,7.163379,7.168681,448558.000000,1670926174.110984
1670926174.081844,,,,7.216533,7.215463,448559.000000,1670926174.111991
1670926174.081855,,,,7.266970,7.267319,448560.000000,1670926174.112998
1670926174.083775,,,,7.265864,7.269434,448561.000000,1670926174.114005
1670926174.083816,,,,7.222904,7.224334,448562.000000,1670926174.115012
1670926174.084013,,,,7.199512,7.202890,448563.000000,1670926174.116019
1670926174.084110,,,,7.212927,7.216088,448564.000000,1670926174.117026
1670926174.088947,,,,7.231198,7.237052,448565.000000,1670926174.118033
1670926174.088955,,,,7.255118,7.259890,448566.000000,1670926174.119040
1670926174.089072,,,,7.281154,7.283426,448567.000000,1670926174.120047
1670926174.091348,,,,7.285433,7.288595,448568.000000,1670926174.121054
1670926174.091389,,,,7.298751,7.300855,448569.000000,1670926174.122061
1670926174.091637,,,,7.295266,7.295975,448570.000000,1670926174.123069
1670926174.091643,,,,7.277187,7.277873,448571.000000,1670926174.124076
1670926174.096323,,,,7.258844,7.259073,448572.000000,1670926174.125083
1670926174.096493,,,,7.241174,7.241283,448573.000000,1670926174.126090
1670926174.096726,,,,7.235284,7.238494,448574.000000,1670926174.127097
1670926174.096732,,,,7.232832,7.238133,448575.000000,1670926174.128104
1670926174.102032,,,,7.223384,7.229383,448576.000000,1670926174.129111
1670926174.102337,,,,7.218336,7.223132,448577.000000,1670926174.130118
1670926174.102894,,,,7.232111,7.236090,448578.000000,1670926174.131125
1670926174.103498,,,,7.246103,7.250827,448579.000000,1670926174.132132
1670926174.103617,,,,7.239708,7.245009,448580.000000,1670926174.133139
1670926174.103918,,,,7.216076,7.219093,448581.000000,1670926174.134146
1670926174.104422,,,,7.221004,7.223228,448582.000000,1670926174.135154
1670926174.104666,,,,7.231582,7.235898,448583.000000,1670926174.136161
1670926174.104700,,,,7.219947,7.221762,448584.000000,1670926174.137168
1670926174.104718,,,,7.213576,7.216329,448585.000000,1670926174.138175
1670926174.105291,,,,7.206820,7.207193,448586.000000,1670926174.139182
1670926174.105639,,,,7.184919,7.188322,448587.000000,1670926174.140189
1670926174.106241,,,,7.226125,7.228734,448588.000000,1670926174.141196
1670926174.106265,,,,7.302286,7.305543,448589.000000,1670926174.142203
1670926174.106276,,,,7.399578,7.401946,448590.000000,1670926174.143210
1670926174.106467,,,,7.415973,7.416538,448591.000000,1670926174.144217
1670926174.106535,,,,7.333081,7.332589,448592.000000,1670926174.145224
1670926174.106829,,,,7.239491,7.241427,448593.000000,1670926174.146231
1670926174.107177,,,,7.192084,7.194260,448594.000000,1670926174.147238
1670926174.107346,,,,7.211004,7.216305,448595.000000,1670926174.148246
1670926174.107535,,,,7.254998,7.258712,448596.000000,1670926174.149253
1670926174.108383,,,,7.148114,7.148534,448601.000000,1670926174.154288
1670926174.108397,,,,7.088758,7.093458,448602.000000,1670926174.155295
1670926174.108453,,,,7.056663,7.059296,448603.000000,1670926174.156302
1670926174.108459,,,,7.074333,7.072759,448604.000000,1670926174.157309
1670926174.108471,,,,7.219899,7.221931,448605.000000,1670926174.158316
1670926174.108491,,,,7.363469,7.368722,448606.000000,1670926174.159323
1670926174.108555,,,,7.357362,7.358865,448607.000000,1670926174.160331
1670926174.108569,,,,7.356593,7.358480,448608.000000,1670926174.161338
1670926174.108575,,,,7.314378,7.316001,448609.000000,1670926174.162345
1670926174.108591,,,,7.259109,7.261020,448610.000000,1670926174.163352
1670926174.113053,,,,7.196411,7.199212,448611.000000,1670926174.164359
1670926174.113163,,,,7.140084,7.142669,448612.000000,1670926174.165366
1670926174.113345,,,,7.156456,7.160050,448613.000000,1670926174.166373
1670926174.113362,,,,7.226005,7.228830,448614.000000,1670926174.167380
1670926174.113478,,,,7.284832,7.286527,448615.000000,1670926174.168387
1670926174.113633,,,,7.273653,7.275396,448616.000000,1670926174.169394
1670926174.113817,,,,7.259277,7.262463,448617.000000,1670926174.170401
1670926174.120120,99.078751,953268.000000,1670926174.078364,,,,
1670926174.120676,,,,7.331543,7.334152,448618.000000,1670926174.171408
1670926174.120690,,,,7.377676,7.381536,448619.000000,1670926174.172415
1670926174.120718,,,,7.346472,7.350788,448620.000000,1670926174.173423
1670926174.120728,,,,7.300627,7.302851,448621.000000,1670926174.174430
1670926174.120912,99.078751,953269.000000,1670926174.079364,,,,
1670926174.120969,99.151108,953270.000000,1670926174.080364,,,,
1670926174.121515,99.151108,953271.000000,1670926174.081364,,,,
1670926174.121538,99.187286,953272.000000,1670926174.082364,,,,
1670926174.121550,99.169197,953273.000000,1670926174.083364,,,,
1670926174.121562,99.223480,953274.000000,1670926174.084364,,,,
1670926174.121568,99.205391,953275.000000,1670926174.085364,,,,
1670926174.121611,99.241570,953276.000000,1670926174.086364,,,,
1670926174.121616,99.241570,953277.000000,1670926174.087364,,,,
1670926174.121622,100.091805,953299.000000,1670926174.109364,,,,
1670926174.121632,100.182251,953300.000000,1670926174.110364,,,,
1670926174.121642,100.200340,953301.000000,1670926174.111364,,,,
1670926174.121650,100.290787,953302.000000,1670926174.112364,,,,
1670926174.121716,100.417427,953303.000000,1670926174.113364,,,,
1670926174.121727,100.417427,953304.000000,1670926174.114364,,,,
1670926174.121734,100.562141,953305.000000,1670926174.115364,,,,
1670926174.121749,100.616425,953306.000000,1670926174.116364,,,,
1670926174.121764,100.670692,953307.000000,1670926174.117364,,,,
1670926174.121774,100.761131,953308.000000,1670926174.118364,,,,
1670926174.127414,,,,7.243410,7.246981,448622.000000,1670926174.175437
1670926174.127468,,,,7.203503,7.207770,448623.000000,1670926174.176444
1670926174.127614,,,,7.196170,7.197890,448624.000000,1670926174.177451
1670926174.127625,,,,7.193262,7.198395,448625.000000,1670926174.178458
1670926174.127631,,,,7.225500,7.233518,448626.000000,1670926174.179465
1670926174.127645,,,,7.232015,7.237989,448627.000000,1670926174.180472
1670926174.127660,,,,7.223889,7.227364,448628.000000,1670926174.181479
1670926174.130562,,,,7.194344,7.195967,448633.000000,1670926174.186515
1670926174.130572,,,,7.217903,7.222243,448634.000000,1670926174.187522
1670926174.130737,,,,7.252618,7.256789,448635.000000,1670926174.188529
1670926174.130745,,,,7.273557,7.278690,448636.000000,1670926174.189536
1670926174.130749,,,,7.292044,7.296624,448637.000000,1670926174.190543
1670926174.130770,,,,7.283053,7.287994,448638.000000,1670926174.191550
1670926174.130794,,,,7.270167,7.275324,448639.000000,1670926174.192557
1670926174.130804,,,,7.261585,7.262439,448640.000000,1670926174.193564
1670926174.130809,,,,7.260816,7.260780,448641.000000,1670926174.194571
1670926174.130832,,,,7.221581,7.223998,448642.000000,1670926174.195578
1670926174.134476,,,,7.201868,7.204957,448643.000000,1670926174.196585
1670926174.134631,,,,7.215764,7.217627,448644.000000,1670926174.197592
1670926174.134968,,,,7.202541,7.203251,448645.000000,1670926174.198600
1670926174.135076,,,,7.180688,7.182095,448646.000000,1670926174.199607
1670926174.135377,,,,7.191988,7.195173,448647.000000,1670926174.200614
1670926174.135465,,,,7.208960,7.211593,448648.000000,1670926174.201621
1670926174.135474,,,,7.252546,7.256501,448649.000000,1670926174.202628
1670926174.136323,,,,7.245862,7.247894,448650.000000,1670926174.203635
1670926174.136333,,,,7.225332,7.225801,448651.000000,1670926174.204642
1670926174.136487,,,,7.206628,7.210103,448652.000000,1670926174.205649
1670926174.141436,,,,7.202493,7.207170,448653.000000,1670926174.206656
1670926174.141711,,,,7.219105,7.219430,448654.000000,1670926174.207663
1670926174.141978,,,,7.255022,7.256308,448655.000000,1670926174.208670
1670926174.142095,,,,7.319667,7.322035,448656.000000,1670926174.209677
1670926174.142186,,,,7.283630,7.287104,448657.000000,1670926174.210685
1670926174.148942,,,,7.248386,7.250418,448658.000000,1670926174.211692
1670926174.149147,,,,7.260767,7.260828,448659.000000,1670926174.212699
1670926174.149349,,,,7.260719,7.263063,448660.000000,1670926174.213706
1670926174.151196,,,,7.231150,7.234119,448661.000000,1670926174.214713
1670926174.151347,,,,7.221774,7.223902,448662.000000,1670926174.215720
1670926174.151473,,,,7.210763,7.214141,448663.000000,1670926174.216727
1670926174.167671,,,,7.254878,7.258616,448664.000000,1670926174.217734
1670926174.167711,,,,7.267210,7.271045,448665.000000,1670926174.218741
1670926174.167748,,,,7.278654,7.282224,448666.000000,1670926174.219748
1670926174.167905,,,,7.264133,7.267848,448667.000000,1670926174.220755
1670926174.171494,,,,7.211821,7.215343,448668.000000,1670926174.221762
1670926174.171884,,,,7.213648,7.215511,448669.000000,1670926174.222769
1670926174.172237,,,,7.216797,7.220416,448670.000000,1670926174.223777
1670926174.174019,,,,7.228553,7.232364,448671.000000,1670926174.224784
1670926174.174190,,,,7.286731,7.289557,448672.000000,1670926174.225791
1670926174.174409,,,,7.331375,7.335666,448673.000000,1670926174.226798
1670926174.174871,100.833488,953309.000000,1670926174.113341,,,,
1670926174.174890,,,,7.322672,7.328069,448674.000000,1670926174.227805
1670926174.176582,100.923950,953310.000000,1670926174.114341,,,,
1670926174.176604,101.086754,953311.000000,1670926174.115341,,,,
1670926174.176620,101.086754,953312.000000,1670926174.116341,,,,
1670926174.176660,101.213394,953313.000000,1670926174.117341,,,,
1670926174.176668,101.249573,953314.000000,1670926174.118341,,,,
1670926174.176697,101.340019,953315.000000,1670926174.119341,,,,
1670926174.176704,101.430466,953316.000000,1670926174.120341,,,,
1670926174.176750,101.502838,953317.000000,1670926174.121341,,,,
1670926174.176759,103.004311,953360.000000,1670926174.164341,,,,
1670926174.176772,102.986221,953361.000000,1670926174.165341,,,,
1670926174.176781,102.950043,953362.000000,1670926174.166341,,,,
1670926174.176796,102.931953,953363.000000,1670926174.167341,,,,
1670926174.176802,102.950043,953364.000000,1670926174.168341,,,,
1670926174.176809,102.859596,953365.000000,1670926174.169341,,,,
1670926174.176862,102.805313,953366.000000,1670926174.170341,,,,
1670926174.176875,102.841507,953367.000000,1670926174.171341,,,,
1670926174.176884,102.769135,953368.000000,1670926174.172341,,,,
1670926174.176894,102.805313,953369.000000,1670926174.173341,,,,
1670926174.179340,,,,7.274230,7.277801,448675.000000,1670926174.228812
1670926174.179739,,,,7.243314,7.246692,448676.000000,1670926174.229819
1670926174.179971,,,,7.239203,7.244432,448677.000000,1670926174.230826
1670926174.180128,,,,7.238554,7.241499,448678.000000,1670926174.231833
1670926174.180500,,,,7.208672,7.208035,448679.000000,1670926174.232840
1670926174.180506,,,,7.190713,7.193226,448680.000000,1670926174.233847
1670926174.180800,,,,7.204296,7.208588,448681.000000,1670926174.234854
1670926174.181297,,,,7.238049,7.240682,448682.000000,1670926174.235862
1670926174.181399,,,,7.255863,7.258255,448683.000000,1670926174.236869
1670926174.181605,,,,7.229515,7.230969,448684.000000,1670926174.237876
1670926174.187004,,,,7.148402,7.151347,448685.000000,1670926174.238883
1670926174.187266,,,,7.084622,7.087495,448686.000000,1670926174.239890
1670926174.187846,,,,7.097965,7.101511,448687.000000,1670926174.240897
1670926174.187890,,,,7.148041,7.153703,448688.000000,1670926174.241904
1670926174.188095,,,,7.227760,7.229984,448689.000000,1670926174.242911
1670926174.188263,,,,7.251921,7.252486,448690.000000,1670926174.243918
1670926174.188595,,,,7.180039,7.180244,448691.000000,1670926174.244925
1670926174.189258,,,,7.112221,7.111849,448692.000000,1670926174.245932
1670926174.189279,,,,7.129771,7.131418,448693.000000,1670926174.246939
1670926174.189285,,,,7.303535,7.302899,448694.000000,1670926174.247947
1670926174.189432,,,,7.333611,7.336507,448695.000000,1670926174.248954
1670926174.189582,,,,7.238049,7.241620,448696.000000,1670926174.249961
1670926174.189597,,,,7.208023,7.211040,448697.000000,1670926174.250968
1670926174.189626,,,,7.231775,7.234311,448698.000000,1670926174.251975
1670926174.189843,,,,7.235212,7.234888,448699.000000,1670926174.252982
1670926174.193961,,,,7.220379,7.219839,448700.000000,1670926174.253989
1670926174.194163,,,,7.243771,7.245202,448701.000000,1670926174.254996
1670926174.194235,,,,7.246078,7.247774,448702.000000,1670926174.256003
1670926174.194240,,,,7.256873,7.258496,448703.000000,1670926174.257010
1670926174.196514,,,,7.317936,7.321049,448704.000000,1670926174.258017
1670926174.196528,,,,7.352843,7.358673,448705.000000,1670926174.259024
1670926174.196532,,,,7.398159,7.402956,448706.000000,1670926174.260031
1670926174.201465,,,,7.416310,7.421755,448707.000000,1670926174.261039
1670926174.201829,,,,7.399866,7.404302,448708.000000,1670926174.262046
1670926174.201844,,,,7.347313,7.350571,448709.000000,1670926174.263053
1670926174.201920,,,,7.287332,7.291816,448710.000000,1670926174.264060
1670926174.203750,,,,7.241920,7.246644,448711.000000,1670926174.265067
1670926174.203956,,,,7.187492,7.192384,448712.000000,1670926174.266074
1670926174.204272,,,,7.104816,7.108891,448713.000000,1670926174.267081
1670926174.204284,,,,7.110178,7.114036,448714.000000,1670926174.268088
1670926174.208826,,,,7.171553,7.174811,448715.000000,1670926174.269095
1670926174.209078,,,,7.202397,7.202698,448716.000000,1670926174.270102
1670926174.209407,,,,7.219562,7.222147,448717.000000,1670926174.271109
1670926174.211290,,,,7.238410,7.240682,448718.000000,1670926174.272116
1670926174.211524,,,,7.249540,7.251452,448719.000000,1670926174.273124
1670926174.211783,,,,7.261609,7.263977,448720.000000,1670926174.274131
1670926174.225400,,,,7.272667,7.277031,448721.000000,1670926174.275138
1670926174.225548,,,,7.256464,7.258183,448722.000000,1670926174.276145
1670926174.226117,,,,7.227760,7.228854,448723.000000,1670926174.277152
1670926174.226141,,,,7.203310,7.204837,448724.000000,1670926174.278159
1670926174.232796,,,,7.190497,7.191447,448725.000000,1670926174.279166
1670926174.233335,,,,7.189247,7.192457,448726.000000,1670926174.280173
1670926174.233357,,,,7.206075,7.209309,448727.000000,1670926174.281180
1670926174.238863,,,,7.221942,7.225608,448728.000000,1670926174.282187
1670926174.239074,102.552048,953373.000000,1670926174.181189,,,,
1670926174.239225,,,,7.193862,7.197385,448729.000000,1670926174.283194
1670926174.239372,,,,7.183910,7.185870,448730.000000,1670926174.284201
1670926174.239381,,,,7.213889,7.215608,448731.000000,1670926174.285208
1670926174.240083,102.552048,953374.000000,1670926174.182189,,,,
1670926174.240101,102.515869,953375.000000,1670926174.183189,,,,
1670926174.240118,102.479691,953376.000000,1670926174.184189,,,,
1670926174.240129,102.425423,953377.000000,1670926174.185189,,,,
1670926174.240135,102.389252,953378.000000,1670926174.186189,,,,
1670926174.240144,102.353073,953379.000000,1670926174.187189,,,,
1670926174.240150,102.316895,953380.000000,1670926174.188189,,,,
1670926174.240155,102.280716,953381.000000,1670926174.189189,,,,
1670926174.240218,102.262611,953382.000000,1670926174.190189,,,,
1670926174.240224,102.515869,953421.000000,1670926174.229189,,,,
1670926174.240232,102.515869,953422.000000,1670926174.230189,,,,
1670926174.240236,102.533958,953423.000000,1670926174.231189,,,,
1670926174.240239,102.588242,953424.000000,1670926174.232189,,,,
1670926174.240243,102.642509,953425.000000,1670926174.233189,,,,
1670926174.240247,102.678688,953426.000000,1670926174.234189,,,,
1670926174.240254,102.714867,953427.000000,1670926174.235189,,,,
1670926174.240262,102.678688,953428.000000,1670926174.236189,,,,
1670926174.240267,102.696777,953429.000000,1670926174.237189,,,,
1670926174.240278,102.751045,953430.000000,1670926174.238189,,,,
1670926174.243539,,,,7.222952,7.227147,448732.000000,1670926174.286216
1670926174.243555,,,,7.268990,7.272007,448733.000000,1670926174.287223
1670926174.243584,,,,7.289400,7.294677,448734.000000,1670926174.288230
1670926174.243596,,,,7.284375,7.288114,448735.000000,1670926174.289237
1670926174.251296,,,,7.266609,7.270035,448736.000000,1670926174.290244
1670926174.251595,,,,7.291948,7.292850,448737.000000,1670926174.291251
1670926174.252092,,,,7.290361,7.291408,448738.000000,1670926174.292258
1670926174.252321,,,,7.253988,7.255899,448739.000000,1670926174.293265
1670926174.252630,,,,7.228145,7.230008,448740.000000,1670926174.294272
1670926174.252893,,,,7.201147,7.204813,448741.000000,1670926174.295279
1670926174.253140,,,,7.190329,7.193827,448742.000000,1670926174.296286
1670926174.253466,,,,7.191411,7.193442,448743.000000,1670926174.297293
1670926174.254041,,,,7.200377,7.204501,448744.000000,1670926174.298301
1670926174.254066,,,,7.270047,7.272175,448745.000000,1670926174.299308
1670926174.254076,,,,7.261200,7.260660,448746.000000,1670926174.300315
1670926174.254238,,,,7.223529,7.224839,448747.000000,1670926174.301322
1670926174.254258,,,,7.239227,7.240778,448748.000000,1670926174.302329
1670926174.258433,,,,7.252473,7.256741,448749.000000,1670926174.303336
1670926174.258784,,,,7.239227,7.242076,448750.000000,1670926174.304343
1670926174.258800,,,,7.186386,7.188322,448751.000000,1670926174.305350
1670926174.259002,,,,7.196315,7.195390,448752.000000,1670926174.306357
1670926174.259292,,,,7.267306,7.267752,448753.000000,1670926174.307364
1670926174.259461,,,,7.350631,7.350307,448754.000000,1670926174.308371
1670926174.259649,,,,7.314209,7.314607,448755.000000,1670926174.309378
1670926174.259769,,,,7.210907,7.214622,448756.000000,1670926174.310385
1670926174.261790,,,,7.184679,7.187865,448757.000000,1670926174.311393
1670926174.262111,,,,7.197300,7.200006,448758.000000,1670926174.312400
1670926174.262176,,,,7.276490,7.279339,448759.000000,1670926174.313407
1670926174.262361,,,,7.324355,7.328166,448760.000000,1670926174.314414
1670926174.262685,,,,7.281755,7.286383,448761.000000,1670926174.315421
1670926174.262872,,,,7.259157,7.263112,448762.000000,1670926174.316428
1670926174.263000,,,,7.262498,7.263063,448763.000000,1670926174.317435
1670926174.265758,,,,7.253459,7.256549,448764.000000,1670926174.318442
1670926174.266058,,,,7.246728,7.247630,448765.000000,1670926174.319449
1670926174.266284,,,,7.232231,7.235970,448766.000000,1670926174.320456
1670926174.268958,,,,7.220211,7.223493,448767.000000,1670926174.321463
1670926174.269320,,,,7.227423,7.230705,448768.000000,1670926174.322470
1670926174.269342,,,,7.218336,7.220632,448769.000000,1670926174.323478
1670926174.269631,,,,7.200931,7.203972,448770.000000,1670926174.324485
1670926174.269995,,,,7.176962,7.181542,448771.000000,1670926174.325492
1670926174.273483,,,,7.204681,7.208876,448772.000000,1670926174.326499
1670926174.273590,,,,7.268485,7.273065,448773.000000,1670926174.327506
1670926174.285134,,,,7.315820,7.317924,448774.000000,1670926174.328513
1670926174.285639,,,,7.322287,7.323453,448775.000000,1670926174.329520
1670926174.285651,,,,7.258483,7.261117,448776.000000,1670926174.330527
1670926174.285674,,,,7.215210,7.219743,448777.000000,1670926174.331534
1670926174.292905,,,,7.213239,7.216329,448778.000000,1670926174.332541
1670926174.292921,,,,7.195858,7.203227,448779.000000,1670926174.333548
1670926174.293002,,,,7.184270,7.188586,448780.000000,1670926174.334555
1670926174.293009,,,,7.186386,7.190822,448781.000000,1670926174.335562
1670926174.294334,102.389252,953482.000000,1670926174.282990,,,,
1670926174.294346,102.389252,953483.000000,1670926174.283990,,,,
1670926174.294363,102.298805,953484.000000,1670926174.284990,,,,
1670926174.294370,102.316895,953485.000000,1670926174.285990,,,,
1670926174.294378,102.226433,953486.000000,1670926174.286990,,,,
1670926174.294397,102.172165,953487.000000,1670926174.287990,,,,
1670926174.294410,102.099808,953488.000000,1670926174.288990,,,,
1670926174.294418,102.027451,953489.000000,1670926174.289990,,,,
1670926174.294423,102.045540,953490.000000,1670926174.290990,,,,
1670926174.294463,102.081718,953491.000000,1670926174.291990,,,,
1670926174.298907,,,,7.189151,7.192481,448782.000000,1670926174.336570
1670926174.299070,,,,7.225428,7.228157,448783.000000,1670926174.337577
1670926174.299572,,,,7.255983,7.259025,448784.000000,1670926174.338584
1670926174.301923,,,,7.274423,7.279700,448785.000000,1670926174.339591
1670926174.302030,,,,7.261441,7.266862,448786.000000,1670926174.340598
1670926174.302044,,,,7.243627,7.246139,448787.000000,1670926174.341605
1670926174.302078,,,,7.242016,7.241187,448788.000000,1670926174.342612
1670926174.309629,,,,7.227904,7.230537,448789.000000,1670926174.343619
1670926174.309645,,,,7.222062,7.227556,448790.000000,1670926174.344626
1670926174.311283,,,,7.235044,7.240922,448791.000000,1670926174.345633
1670926174.314387,,,,7.245983,7.249625,448792.000000,1670926174.346640
1670926174.314400,,,,7.216869,7.221738,448793.000000,1670926174.347647
1670926174.315012,,,,7.215667,7.219646,448794.000000,1670926174.348655
1670926174.315108,,,,7.231174,7.230729,448795.000000,1670926174.349662
1670926174.315130,,,,7.246343,7.245802,448796.000000,1670926174.350669
1670926174.315139,,,,7.227183,7.229070,448797.000000,1670926174.351676
1670926174.315320,,,,7.187949,7.191278,448798.000000,1670926174.352683
1670926174.316276,,,,7.208287,7.208949,448799.000000,1670926174.353690
1670926174.316513,,,,7.234707,7.235946,448800.000000,1670926174.354697
1670926174.316649,,,,7.279880,7.284436,448801.000000,1670926174.355704
1670926174.316942,,,,7.267643,7.271237,448802.000000,1670926174.356711
1670926174.321401,,,,7.251319,7.253953,448803.000000,1670926174.357718
1670926174.321727,,,,7.229707,7.231571,448804.000000,1670926174.358725
1670926174.321803,,,,7.214273,7.217675,448805.000000,1670926174.359732
1670926174.324090,,,,7.192396,7.195894,448806.000000,1670926174.360739
1670926174.324276,,,,7.250911,7.255154,448807.000000,1670926174.361747
1670926174.324420,,,,7.296852,7.300038,448808.000000,1670926174.362754
1670926174.324560,,,,7.291996,7.293139,448809.000000,1670926174.363761
1670926174.324758,,,,7.291419,7.293691,448810.000000,1670926174.364768
1670926174.324899,,,,7.254349,7.253904,448811.000000,1670926174.365775
1670926174.325126,,,,7.236823,7.238061,448812.000000,1670926174.366782
1670926174.325140,,,,7.221365,7.221594,448813.000000,1670926174.367789
1670926174.328915,,,,7.214658,7.216064,448814.000000,1670926174.368796
1670926174.329046,,,,7.261441,7.260804,448815.000000,1670926174.369803
1670926174.329253,,,,7.306300,7.308404,448816.000000,1670926174.370810
1670926174.329397,,,,7.260167,7.264266,448817.000000,1670926174.371817
1670926174.331467,,,,7.218120,7.223349,448818.000000,1670926174.372824
1670926174.331749,,,,7.213336,7.216690,448819.000000,1670926174.373832
1670926174.331870,,,,7.212687,7.219166,448820.000000,1670926174.374839
1670926174.331878,,,,7.211917,7.215103,448821.000000,1670926174.375846
1670926174.331979,,,,7.232929,7.234551,448822.000000,1670926174.376853
1670926174.332043,,,,7.236294,7.239672,448823.000000,1670926174.377860
1670926174.345874,,,,7.243891,7.249553,448824.000000,1670926174.378867
1670926174.345981,,,,7.237953,7.241548,448825.000000,1670926174.379874
1670926174.345992,,,,7.231270,7.232532,448826.000000,1670926174.380881
1670926174.345999,,,,7.221221,7.223517,448827.000000,1670926174.381888
1670926174.353484,,,,7.205354,7.207410,448828.000000,1670926174.382895
1670926174.353932,,,,7.201075,7.204285,448829.000000,1670926174.383902
1670926174.354073,,,,7.202181,7.202938,448830.000000,1670926174.384909
1670926174.358768,101.955078,953492.000000,1670926174.297364,,,,
1670926174.360452,101.936989,953493.000000,1670926174.298364,,,,
1670926174.360466,101.918900,953494.000000,1670926174.299364,,,,
1670926174.361138,101.900810,953495.000000,1670926174.300364,,,,
1670926174.361152,100.779221,953543.000000,1670926174.348364,,,,
1670926174.361158,100.688774,953544.000000,1670926174.349364,,,,
1670926174.361169,100.670692,953545.000000,1670926174.350364,,,,
1670926174.361200,100.598335,953546.000000,1670926174.351364,,,,
1670926174.361207,100.544052,953547.000000,1670926174.352364,,,,
1670926174.361214,100.544052,953548.000000,1670926174.353364,,,,
1670926174.361227,100.471695,953549.000000,1670926174.354364,,,,
1670926174.361232,100.399338,953550.000000,1670926174.355364,,,,
1670926174.361353,100.326981,953551.000000,1670926174.356364,,,,
1670926174.361359,100.326981,953552.000000,1670926174.357364,,,,
1670926174.361448,,,,7.251224,7.253784,448831.000000,1670926174.385916
1670926174.361551,,,,7.270119,7.274170,448832.000000,1670926174.386924
1670926174.361705,,,,7.274182,7.278786,448833.000000,1670926174.387931
1670926174.361795,,,,7.289640,7.295182,448834.000000,1670926174.388938
1670926174.366502,,,,7.280721,7.284027,448835.000000,1670926174.389945
1670926174.366682,,,,7.245358,7.246861,448836.000000,1670926174.390952
1670926174.366725,,,,7.211749,7.213300,448837.000000,1670926174.391959
1670926174.366817,,,,7.219538,7.220079,448838.000000,1670926174.392966
1670926174.374066,,,,7.257354,7.258376,448839.000000,1670926174.393973
1670926174.374211,,,,7.249781,7.252702,448840.000000,1670926174.394980
1670926174.374789,,,,7.227736,7.232821,448841.000000,1670926174.395987
1670926174.374815,,,,7.221725,7.227219,448842.000000,1670926174.396994
1670926174.376637,,,,7.228914,7.231979,448843.000000,1670926174.398001
1670926174.376659,,,,7.238434,7.240201,448844.000000,1670926174.399009
1670926174.381983,,,,7.221197,7.226233,448845.000000,1670926174.400016
1670926174.383292,,,,7.208359,7.212867,448846.000000,1670926174.401023
1670926174.383572,,,,7.194752,7.199284,448847.000000,1670926174.402030
1670926174.383589,,,,7.192252,7.198347,448848.000000,1670926174.403037
1670926174.383598,,,,7.214730,7.221233,448849.000000,1670926174.404044
1670926174.383725,,,,7.234635,7.239360,448850.000000,1670926174.405051
1670926174.383855,,,,7.233097,7.234359,448851.000000,1670926174.406058
1670926174.383878,,,,7.219995,7.224118,448852.000000,1670926174.407065
1670926174.384208,,,,7.222807,7.227075,448853.000000,1670926174.408072
1670926174.384578,,,,7.213312,7.218733,448854.000000,1670926174.409079
1670926174.384769,,,,7.237112,7.241283,448855.000000,1670926174.410086
1670926174.385070,,,,7.247401,7.250154,448856.000000,1670926174.411093
1670926174.385467,,,,7.210571,7.212963,448857.000000,1670926174.412101
1670926174.385713,,,,7.208431,7.211833,448858.000000,1670926174.413108
1670926174.385867,,,,7.220163,7.221858,448859.000000,1670926174.414115
1670926174.389051,,,,7.241247,7.244168,448860.000000,1670926174.415122
1670926174.389418,,,,7.224442,7.228253,448861.000000,1670926174.416129
1670926174.390118,,,,7.228120,7.232821,448862.000000,1670926174.417136
1670926174.390136,,,,7.241439,7.242677,448863.000000,1670926174.418143
1670926174.391564,,,,7.252113,7.253255,448864.000000,1670926174.419150
1670926174.391937,,,,7.263268,7.265371,448865.000000,1670926174.420157
1670926174.391985,,,,7.290530,7.290590,448866.000000,1670926174.421164
1670926174.392005,,,,7.311878,7.309919,448867.000000,1670926174.422171
1670926174.392616,,,,7.317744,7.320641,448868.000000,1670926174.423178
1670926174.392636,,,,7.308801,7.311169,448869.000000,1670926174.424186
1670926174.392651,,,,7.238674,7.241259,448870.000000,1670926174.425193
1670926174.406022,,,,7.217735,7.220488,448871.000000,1670926174.426200
1670926174.406118,,,,7.171457,7.173681,448872.000000,1670926174.427207
1670926174.406618,,,,7.113231,7.115767,448873.000000,1670926174.428214
1670926174.407087,,,,7.117149,7.120551,448874.000000,1670926174.429221
1670926174.407852,,,,7.182708,7.188178,448875.000000,1670926174.430228
1670926174.407963,,,,7.216846,7.222628,448876.000000,1670926174.431235
1670926174.413021,,,,7.190930,7.194740,448877.000000,1670926174.432242
1670926174.413028,,,,7.171193,7.172912,448878.000000,1670926174.433249
1670926174.413243,,,,7.205618,7.209237,448879.000000,1670926174.434256
1670926174.413485,,,,7.308031,7.312323,448880.000000,1670926174.435263
1670926174.413659,,,,7.372628,7.377256,448881.000000,1670926174.436270
1670926174.413673,,,,7.352818,7.357759,448882.000000,1670926174.437278
1670926174.413749,,,,7.302670,7.306938,448883.000000,1670926174.438285
1670926174.413759,,,,7.272451,7.274916,448884.000000,1670926174.439292
1670926174.413771,100.236519,953553.000000,1670926174.353127,,,,
1670926174.413974,100.182251,953554.000000,1670926174.354127,,,,
1670926174.414007,100.146072,953555.000000,1670926174.355127,,,,
1670926174.414151,100.055626,953556.000000,1670926174.356127,,,,
1670926174.414647,99.983253,953557.000000,1670926174.357127,,,,
1670926174.414654,99.910896,953558.000000,1670926174.358127,,,,
1670926174.414669,99.874718,953559.000000,1670926174.359127,,,,
1670926174.414672,95.931076,953604.000000,1670926174.404127,,,,
1670926174.414682,95.822525,953605.000000,1670926174.405127,,,,
1670926174.414692,95.713989,953606.000000,1670926174.406127,,,,
1670926174.414706,95.605453,953607.000000,1670926174.407127,,,,
1670926174.414709,95.605453,953608.000000,1670926174.408127,,,,
1670926174.414712,95.460724,953609.000000,1670926174.409127,,,,
1670926174.414721,95.406456,953610.000000,1670926174.410127,,,,
1670926174.414735,95.334106,953611.000000,1670926174.411127,,,,
1670926174.414738,95.261734,953612.000000,1670926174.412127,,,,
1670926174.414741,95.243645,953613.000000,1670926174.413127,,,,
1670926174.418923,,,,7.248675,7.251548,448885.000000,1670926174.440299
1670926174.418992,,,,7.217326,7.218925,448886.000000,1670926174.441306
1670926174.419231,,,,7.196555,7.195534,448887.000000,1670926174.442313
1670926174.419240,,,,7.202710,7.204789,448888.000000,1670926174.443320
1670926174.421350,,,,7.198118,7.199236,448889.000000,1670926174.444327
1670926174.421367,,,,7.219442,7.221401,448890.000000,1670926174.445334
1670926174.421435,,,,7.242881,7.242990,448891.000000,1670926174.446341
1670926174.426670,,,,7.212350,7.216569,448892.000000,1670926174.447348
1670926174.426829,,,,7.215307,7.217194,448893.000000,1670926174.448355
1670926174.426839,,,,7.232015,7.233325,448894.000000,1670926174.449363
1670926174.426851,,,,7.219177,7.220440,448895.000000,1670926174.450370
1670926174.432606,,,,7.193502,7.194260,448896.000000,1670926174.451377
