__time,/gdx/grip_force_stream/grip_force,/gdx/grip_force_stream/header/seq,/gdx/grip_force_stream/header/stamp,/shimmer0/emg_stream/emg_ch1,/shimmer0/emg_stream/emg_ch2,/shimmer0/emg_stream/header/seq,/shimmer0/emg_stream/header/stamp
1670925209.186908,,,,3.457826,3.458456,34587.000000,1670925209.146756
1670925209.186929,,,,3.451984,3.453071,34588.000000,1670925209.147763
1670925209.186935,,,,3.453330,3.455908,34589.000000,1670925209.148770
1670925209.186970,,,,3.464437,3.467664,34590.000000,1670925209.149777
1670925209.187276,,,,3.478092,3.483483,34591.000000,1670925209.150784
1670925209.187761,,,,3.495810,3.497498,34592.000000,1670925209.151792
1670925209.187957,,,,3.516725,3.517308,34593.000000,1670925209.152799
1670925209.188251,,,,3.533818,3.533006,34594.000000,1670925209.153806
1670925209.188262,,,,3.543002,3.543344,34595.000000,1670925209.154813
1670925209.188292,,,,3.556224,3.557287,34596.000000,1670925209.155820
1670925209.195850,-0.959628,524187.000000,1670925209.146174,,,,
1670925209.195862,-1.050082,524188.000000,1670925209.147174,,,,
1670925209.195868,-1.068171,524189.000000,1670925209.148174,,,,
1670925209.195872,-1.068171,524190.000000,1670925209.149174,,,,
1670925209.195911,-1.068171,524191.000000,1670925209.150174,,,,
1670925209.195920,-1.068171,524192.000000,1670925209.151174,,,,
1670925209.196099,-1.122446,524193.000000,1670925209.152174,,,,
1670925209.196109,-1.068171,524194.000000,1670925209.153174,,,,
1670925209.196125,-1.068171,524195.000000,1670925209.154174,,,,
1670925209.196130,-0.995815,524225.000000,1670925209.184174,,,,
1670925209.196172,-0.977726,524226.000000,1670925209.185174,,,,
1670925209.196184,-1.013904,524227.000000,1670925209.186174,,,,
1670925209.196337,-1.050082,524228.000000,1670925209.187174,,,,
1670925209.196352,-1.068171,524229.000000,1670925209.188174,,,,
1670925209.196373,-1.013904,524230.000000,1670925209.189174,,,,
1670925209.196377,-1.013904,524231.000000,1670925209.190174,,,,
1670925209.196385,-1.013904,524232.000000,1670925209.191174,,,,
1670925209.196429,-1.104349,524233.000000,1670925209.192174,,,,
1670925209.196475,-1.068171,524234.000000,1670925209.193174,,,,
1670925209.196507,,,,3.563677,3.567865,34597.000000,1670925209.156827
1670925209.196668,,,,3.563556,3.566903,34598.000000,1670925209.157834
1670925209.196679,,,,3.556440,3.560028,34599.000000,1670925209.158841
1670925209.196731,,,,3.543699,3.546060,34600.000000,1670925209.159848
1670925209.196764,,,,3.534299,3.535049,34601.000000,1670925209.160855
1670925209.196772,,,,3.521942,3.522404,34602.000000,1670925209.161862
1670925209.196777,,,,3.503984,3.505744,34603.000000,1670925209.162869
1670925209.199174,,,,3.484463,3.485646,34604.000000,1670925209.163877
1670925209.199512,,,,3.473236,3.473001,34605.000000,1670925209.164884
1670925209.199662,,,,3.462923,3.462351,34606.000000,1670925209.165891
1670925209.199678,,,,3.454581,3.458168,34607.000000,1670925209.166898
1670925209.199688,,,,3.454051,3.455860,34608.000000,1670925209.167905
1670925209.199693,,,,3.458355,3.458961,34609.000000,1670925209.168912
1670925209.203199,,,,3.468885,3.469731,34610.000000,1670925209.169919
1670925209.203436,,,,3.482876,3.484805,34611.000000,1670925209.170926
1670925209.203443,,,,3.497228,3.500215,34612.000000,1670925209.171933
1670925209.203528,,,,3.519153,3.518582,34613.000000,1670925209.172940
1670925209.210614,,,,3.536992,3.537381,34614.000000,1670925209.173947
1670925209.210623,,,,3.547906,3.548632,34615.000000,1670925209.174954
1670925209.210635,,,,3.556224,3.557984,34616.000000,1670925209.175961
1670925209.210818,,,,3.561753,3.563009,34617.000000,1670925209.176969
1670925209.210837,,,,3.561801,3.563538,34618.000000,1670925209.177976
1670925209.210841,,,,3.557690,3.561037,34619.000000,1670925209.178983
1670925209.210847,,,,3.545526,3.548104,34620.000000,1670925209.179990
1670925209.210974,,,,3.534059,3.536324,34621.000000,1670925209.180997
1670925209.210993,,,,3.520452,3.521154,34622.000000,1670925209.182004
1670925209.211000,,,,3.504970,3.505864,34623.000000,1670925209.183011
1670925209.211004,,,,3.489247,3.489733,34624.000000,1670925209.184018
1670925209.218245,,,,3.473693,3.474010,34625.000000,1670925209.185025
1670925209.218346,,,,3.464149,3.463625,34626.000000,1670925209.186032
1670925209.218501,,,,3.458283,3.458769,34627.000000,1670925209.187039
1670925209.218601,,,,3.451407,3.454105,34628.000000,1670925209.188046
1670925209.223897,,,,3.454797,3.457278,34629.000000,1670925209.189054
1670925209.224478,,,,3.462394,3.464779,34630.000000,1670925209.190061
1670925209.224645,,,,3.477323,3.478723,34631.000000,1670925209.191068
1670925209.224661,,,,3.497132,3.499133,34632.000000,1670925209.192075
1670925209.225270,,,,3.515403,3.516779,34633.000000,1670925209.193082
1670925209.225377,,,,3.532232,3.533535,34634.000000,1670925209.194089
1670925209.225413,,,,3.545935,3.546829,34635.000000,1670925209.195096
1670925209.228771,,,,3.557786,3.560773,34636.000000,1670925209.196103
1670925209.229399,,,,3.563436,3.566278,34637.000000,1670925209.197110
1670925209.229424,,,,3.563172,3.562961,34638.000000,1670925209.198117
1670925209.229740,,,,3.558316,3.560076,34639.000000,1670925209.199124
1670925209.231391,,,,3.547642,3.549642,34640.000000,1670925209.200131
1670925209.231710,,,,3.534780,3.537333,34641.000000,1670925209.201138
1670925209.232228,,,,3.518625,3.519231,34642.000000,1670925209.202146
1670925209.232251,,,,3.485905,3.485935,34643.000000,1670925209.203153
1670925209.232511,,,,3.473212,3.471703,34644.000000,1670925209.204160
1670925209.232718,,,,3.461071,3.460235,34645.000000,1670925209.205167
1670925209.245843,,,,3.453258,3.454514,34646.000000,1670925209.206174
1670925209.246095,,,,3.451503,3.452999,34647.000000,1670925209.207181
1670925209.246322,,,,3.457417,3.458552,34648.000000,1670925209.208188
1670925209.246755,,,,3.470183,3.470308,34649.000000,1670925209.209195
1670925209.247524,,,,3.483141,3.485045,34650.000000,1670925209.210202
1670925209.247725,,,,3.495882,3.499518,34651.000000,1670925209.211209
1670925209.247739,,,,3.511148,3.515408,34652.000000,1670925209.212216
1670925209.247750,,,,3.528746,3.531251,34653.000000,1670925209.213223
1670925209.252298,,,,3.542521,3.543680,34654.000000,1670925209.214231
1670925209.252599,,,,3.557594,3.558321,34655.000000,1670925209.215238
1670925209.252605,,,,3.562162,3.566903,34656.000000,1670925209.216245
1670925209.258401,-1.068171,524235.000000,1670925209.197872,,,,
1670925209.259634,-1.013904,524236.000000,1670925209.198872,,,,
1670925209.259660,-1.086260,524237.000000,1670925209.199872,,,,
1670925209.259669,-0.977726,524286.000000,1670925209.248872,,,,
1670925209.259680,-0.941539,524287.000000,1670925209.249872,,,,
1670925209.259854,-0.941539,524288.000000,1670925209.250872,,,,
1670925209.259894,-1.013904,524289.000000,1670925209.251872,,,,
1670925209.259912,-0.995815,524290.000000,1670925209.252872,,,,
1670925209.259924,-0.977726,524291.000000,1670925209.253872,,,,
1670925209.259932,-1.013904,524292.000000,1670925209.254872,,,,
1670925209.259938,-1.013904,524293.000000,1670925209.255872,,,,
1670925209.259947,-0.959628,524294.000000,1670925209.256872,,,,
1670925209.259967,-1.013904,524295.000000,1670925209.257872,,,,
1670925209.261487,,,,3.561873,3.565773,34657.000000,1670925209.217252
1670925209.261504,,,,3.555695,3.559162,34658.000000,1670925209.218259
1670925209.261870,,,,3.544708,3.546829,34659.000000,1670925209.219266
1670925209.261894,,,,3.532424,3.534160,34660.000000,1670925209.220273
1670925209.266491,,,,3.517086,3.517115,34661.000000,1670925209.221280
1670925209.266881,,,,3.496724,3.500623,34662.000000,1670925209.222287
1670925209.266913,,,,3.479655,3.483506,34663.000000,1670925209.223294
1670925209.267184,,,,3.470880,3.470020,34664.000000,1670925209.224301
1670925209.267430,,,,3.458331,3.458288,34665.000000,1670925209.225308
1670925209.267615,,,,3.451912,3.451605,34666.000000,1670925209.226315
1670925209.268613,,,,3.451335,3.453648,34667.000000,1670925209.227323
1670925209.268932,,,,3.455686,3.458913,34668.000000,1670925209.228330
1670925209.269210,,,,3.468019,3.469563,34669.000000,1670925209.229337
1670925209.269425,,,,3.480304,3.481992,34670.000000,1670925209.230344
1670925209.269441,,,,3.497950,3.499253,34671.000000,1670925209.231351
1670925209.274154,,,,3.516557,3.519063,34672.000000,1670925209.232358
1670925209.274322,,,,3.532255,3.533655,34673.000000,1670925209.233365
1670925209.274883,,,,3.542473,3.542334,34674.000000,1670925209.234372
1670925209.274913,,,,3.555070,3.555123,34675.000000,1670925209.235379
1670925209.274924,,,,3.560599,3.560701,34676.000000,1670925209.236386
1670925209.275046,,,,3.560984,3.560989,34677.000000,1670925209.237393
1670925209.276226,,,,3.556705,3.560172,34678.000000,1670925209.238400
1670925209.276535,,,,3.545478,3.548224,34679.000000,1670925209.239408
1670925209.276766,,,,3.531029,3.535578,34680.000000,1670925209.240415
1670925209.277101,,,,3.518793,3.520241,34681.000000,1670925209.241422
1670925209.281422,,,,3.501556,3.506225,34682.000000,1670925209.242429
1670925209.281703,,,,3.484271,3.485598,34683.000000,1670925209.243436
1670925209.282089,,,,3.471962,3.470741,34684.000000,1670925209.244443
1670925209.282110,,,,3.460134,3.460957,34685.000000,1670925209.245450
1670925209.284205,,,,3.453042,3.456004,34686.000000,1670925209.246457
1670925209.284264,,,,3.450758,3.454754,34687.000000,1670925209.247464
1670925209.284320,,,,3.453210,3.456148,34688.000000,1670925209.248471
1670925209.284366,,,,3.464557,3.467856,34689.000000,1670925209.249478
1670925209.288849,,,,3.481145,3.481631,34690.000000,1670925209.250485
1670925209.289064,,,,3.497421,3.497522,34691.000000,1670925209.251493
1670925209.291607,,,,3.515163,3.516178,34692.000000,1670925209.252500
1670925209.291837,,,,3.531174,3.534016,34693.000000,1670925209.253507
1670925209.292109,,,,3.544011,3.546180,34694.000000,1670925209.254514
1670925209.292724,,,,3.554589,3.556734,34695.000000,1670925209.255521
1670925209.293257,,,,3.564181,3.565269,34696.000000,1670925209.256528
1670925209.293316,,,,3.562523,3.562119,34697.000000,1670925209.257535
1670925209.293487,,,,3.557186,3.556638,34698.000000,1670925209.258542
1670925209.293600,,,,3.548531,3.550363,34699.000000,1670925209.259549
1670925209.305381,,,,3.536102,3.536925,34700.000000,1670925209.260556
1670925209.306054,,,,3.517639,3.518918,34701.000000,1670925209.261563
1670925209.306085,,,,3.501243,3.500479,34702.000000,1670925209.262570
1670925209.306184,,,,3.485857,3.486680,34703.000000,1670925209.263577
1670925209.306675,,,,3.473669,3.476583,34704.000000,1670925209.264585
1670925209.307147,,,,3.460639,3.463144,34705.000000,1670925209.265592
1670925209.307164,,,,3.456215,3.456389,34706.000000,1670925209.266599
1670925209.312439,,,,3.453403,3.454994,34707.000000,1670925209.267606
1670925209.312573,,,,3.452369,3.454634,34708.000000,1670925209.268613
1670925209.312783,,,,3.466793,3.466245,34709.000000,1670925209.269620
1670925209.312895,,,,3.478261,3.480670,34710.000000,1670925209.270627
1670925209.318850,,,,3.492685,3.497474,34711.000000,1670925209.271634
1670925209.318861,,,,3.513600,3.515048,34712.000000,1670925209.272641
1670925209.318869,,,,3.533313,3.534881,34713.000000,1670925209.273648
1670925209.322296,-0.977726,524296.000000,1670925209.261765,,,,
1670925209.322743,-0.959628,524297.000000,1670925209.262765,,,,
1670925209.323343,-1.068171,524298.000000,1670925209.263765,,,,
1670925209.323360,-0.977726,524299.000000,1670925209.264765,,,,
1670925209.323823,-0.977726,524300.000000,1670925209.265765,,,,
1670925209.323833,-0.995815,524301.000000,1670925209.266765,,,,
1670925209.323838,-0.977726,524347.000000,1670925209.312765,,,,
1670925209.323885,-0.977726,524348.000000,1670925209.313765,,,,
1670925209.323898,-1.013904,524349.000000,1670925209.314765,,,,
1670925209.323906,-1.031993,524350.000000,1670925209.315765,,,,
1670925209.323921,-0.977726,524351.000000,1670925209.316765,,,,
1670925209.323939,-0.977726,524352.000000,1670925209.317765,,,,
1670925209.323989,-0.977726,524353.000000,1670925209.318765,,,,
1670925209.324038,-1.013904,524354.000000,1670925209.319765,,,,
1670925209.324051,-0.977726,524355.000000,1670925209.320765,,,,
1670925209.324077,-0.995815,524356.000000,1670925209.321765,,,,
1670925209.326444,,,,3.546968,3.547430,34714.000000,1670925209.274655
1670925209.326459,,,,3.556104,3.559162,34715.000000,1670925209.275662
1670925209.326471,,,,3.563725,3.563538,34716.000000,1670925209.276670
1670925209.328677,,,,3.564301,3.564716,34717.000000,1670925209.277677
1670925209.328902,,,,3.562619,3.561157,34718.000000,1670925209.278684
1670925209.329132,,,,3.550887,3.552431,34719.000000,1670925209.279691
1670925209.329291,,,,3.535357,3.539377,34720.000000,1670925209.280698
1670925209.329522,,,,3.517951,3.520649,34721.000000,1670925209.281705
1670925209.334162,,,,3.499777,3.502619,34722.000000,1670925209.282712
1670925209.334503,,,,3.482035,3.486151,34723.000000,1670925209.283719
1670925209.334525,,,,3.472779,3.475405,34724.000000,1670925209.284726
1670925209.334715,,,,3.461480,3.462856,34725.000000,1670925209.285733
1670925209.334732,,,,3.453451,3.454682,34726.000000,1670925209.286740
1670925209.334783,,,,3.453931,3.454586,34727.000000,1670925209.287747
1670925209.336242,,,,3.459052,3.459129,34728.000000,1670925209.288754
1670925209.336254,,,,3.467634,3.470164,34729.000000,1670925209.289762
1670925209.336276,,,,3.479823,3.482665,34730.000000,1670925209.290769
1670925209.341825,,,,3.497781,3.501417,34731.000000,1670925209.291776
1670925209.342225,,,,3.514441,3.518461,34732.000000,1670925209.292783
1670925209.342752,,,,3.531943,3.532333,34733.000000,1670925209.293790
1670925209.342917,,,,3.545165,3.545748,34734.000000,1670925209.294797
1670925209.343711,,,,3.552402,3.556277,34735.000000,1670925209.295804
1670925209.343820,,,,3.559638,3.562937,34736.000000,1670925209.296811
1670925209.343943,,,,3.562835,3.563874,34737.000000,1670925209.297818
1670925209.343975,,,,3.557258,3.559090,34738.000000,1670925209.298825
1670925209.344522,,,,3.546319,3.549738,34739.000000,1670925209.299832
1670925209.344722,,,,3.534179,3.535915,34740.000000,1670925209.300839
1670925209.344896,,,,3.518600,3.519856,34741.000000,1670925209.301847
1670925209.345294,,,,3.498983,3.502234,34742.000000,1670925209.302854
1670925209.345706,,,,3.482948,3.485165,34743.000000,1670925209.303861
1670925209.345735,,,,3.467274,3.469972,34744.000000,1670925209.304868
1670925209.345752,,,,3.456648,3.459202,34745.000000,1670925209.305875
1670925209.348996,,,,3.451623,3.454153,34746.000000,1670925209.306882
1670925209.349009,,,,3.451840,3.453312,34747.000000,1670925209.307889
1670925209.349018,,,,3.455831,3.458576,34748.000000,1670925209.308896
1670925209.351151,,,,3.466625,3.468361,34749.000000,1670925209.309903
1670925209.351276,,,,3.478092,3.481391,34750.000000,1670925209.310910
1670925209.351448,,,,3.495594,3.496536,34751.000000,1670925209.311917
1670925209.351534,,,,3.515956,3.513173,34752.000000,1670925209.312924
1670925209.357845,,,,3.531823,3.532694,34753.000000,1670925209.313931
1670925209.357862,,,,3.544396,3.544786,34754.000000,1670925209.314939
1670925209.358092,,,,3.557113,3.555292,34755.000000,1670925209.315946
1670925209.358592,,,,3.567090,3.565942,34756.000000,1670925209.316953
1670925209.358803,,,,3.567235,3.568153,34757.000000,1670925209.317960
1670925209.358814,,,,3.558964,3.562792,34758.000000,1670925209.318967
1670925209.359145,,,,3.544612,3.546300,34759.000000,1670925209.319974
1670925209.373573,,,,3.532255,3.530602,34760.000000,1670925209.320981
1670925209.374480,,,,3.514874,3.518991,34761.000000,1670925209.321988
1670925209.374658,,,,3.498358,3.502643,34762.000000,1670925209.322995
1670925209.374743,,,,3.479102,3.482785,34763.000000,1670925209.324002
1670925209.374750,,,,3.470880,3.469491,34764.000000,1670925209.325009
1670925209.374753,,,,3.458138,3.458529,34765.000000,1670925209.326016
1670925209.374765,,,,3.450806,3.454946,34766.000000,1670925209.327024
1670925209.374772,,,,3.452801,3.453456,34767.000000,1670925209.328031
1670925209.374775,,,,3.455446,3.457206,34768.000000,1670925209.329038
1670925209.374793,,,,3.464557,3.467255,34769.000000,1670925209.330045
1670925209.374907,,,,3.481073,3.482280,34770.000000,1670925209.331052
1670925209.375082,,,,3.497156,3.498388,34771.000000,1670925209.332059
1670925209.375150,,,,3.513552,3.515769,34772.000000,1670925209.333066
1670925209.375303,,,,3.529058,3.531419,34773.000000,1670925209.334073
1670925209.379440,,,,3.543651,3.544978,34774.000000,1670925209.335080
1670925209.379453,,,,3.554854,3.555364,34775.000000,1670925209.336087
1670925209.379480,,,,3.562546,3.563730,34776.000000,1670925209.337094
1670925209.379688,,,,3.563821,3.564259,34777.000000,1670925209.338101
1670925209.381844,,,,3.557835,3.560580,34778.000000,1670925209.339108
1670925209.382447,,,,3.548843,3.552166,34779.000000,1670925209.340116
1670925209.382469,,,,3.533962,3.534256,34780.000000,1670925209.341123
1670925209.382494,,,,3.518120,3.518029,34781.000000,1670925209.342130
1670925209.382773,,,,3.498767,3.498316,34782.000000,1670925209.343137
1670925209.382954,,,,3.481939,3.482329,34783.000000,1670925209.344144
1670925209.383163,,,,3.469462,3.469154,34784.000000,1670925209.345151
1670925209.386644,,,,3.458018,3.460836,34785.000000,1670925209.346158
1670925209.386985,,,,3.449388,3.452134,34786.000000,1670925209.347165
1670925209.387306,,,,3.451359,3.453143,34787.000000,1670925209.348172
1670925209.387589,,,,3.455302,3.457639,34788.000000,1670925209.349179
1670925209.388010,,,,3.464293,3.466341,34789.000000,1670925209.350186
1670925209.388116,,,,3.480785,3.480742,34790.000000,1670925209.351193
1670925209.388127,,,,3.516821,3.515144,34791.000000,1670925209.352201
1670925209.388616,,,,3.531631,3.532621,34792.000000,1670925209.353208
1670925209.388847,,,,3.542352,3.543391,34793.000000,1670925209.354215
1670925209.389111,,,,3.552426,3.552815,34794.000000,1670925209.355222
1670925209.391034,-0.959628,524408.000000,1670925209.379056,,,,
1670925209.391047,-0.977726,524409.000000,1670925209.380056,,,,
1670925209.391054,-0.941539,524410.000000,1670925209.381056,,,,
1670925209.391105,-0.959628,524411.000000,1670925209.382056,,,,
1670925209.391114,-0.995815,524412.000000,1670925209.383055,,,,
1670925209.391122,-0.959628,524413.000000,1670925209.384056,,,,
1670925209.391133,-0.959628,524414.000000,1670925209.385056,,,,
1670925209.391175,-1.031993,524415.000000,1670925209.386055,,,,
1670925209.391192,-0.959628,524416.000000,1670925209.387056,,,,
1670925209.391219,-1.031993,524417.000000,1670925209.388056,,,,
1670925209.394658,,,,3.556849,3.556590,34795.000000,1670925209.356229
1670925209.394810,,,,3.559373,3.559619,34796.000000,1670925209.357236
1670925209.395065,,,,3.557739,3.557167,34797.000000,1670925209.358243
1670925209.395074,,,,3.548435,3.548079,34798.000000,1670925209.359250
1670925209.395175,,,,3.532881,3.533198,34799.000000,1670925209.360257
1670925209.395191,,,,3.518961,3.520048,34800.000000,1670925209.361264
1670925209.395240,,,,3.499536,3.501489,34801.000000,1670925209.362271
1670925209.395284,,,,3.483982,3.481752,34802.000000,1670925209.363278
1670925209.396150,,,,3.472226,3.470837,34803.000000,1670925209.364285
1670925209.396158,,,,3.458163,3.459514,34804.000000,1670925209.365293
1670925209.396290,,,,3.450806,3.452615,34805.000000,1670925209.366300
1670925209.401467,,,,3.449772,3.451268,34806.000000,1670925209.367307
1670925209.401855,,,,3.455470,3.457230,34807.000000,1670925209.368314
1670925209.401978,,,,3.464942,3.468289,34808.000000,1670925209.369321
1670925209.402052,,,,3.475135,3.478626,34809.000000,1670925209.370328
1670925209.402067,,,,3.493165,3.496104,34810.000000,1670925209.371335
1670925209.402264,,,,3.513119,3.516610,34811.000000,1670925209.372342
1670925209.402344,,,,3.533698,3.534977,34812.000000,1670925209.373349
1670925209.402494,,,,3.546367,3.546637,34813.000000,1670925209.374356
1670925209.403743,,,,3.557786,3.556926,34814.000000,1670925209.375363
1670925209.403942,,,,3.561417,3.562143,34815.000000,1670925209.376370
1670925209.404255,,,,3.557354,3.561518,34816.000000,1670925209.377378
1670925209.408756,,,,3.550310,3.553465,34817.000000,1670925209.378385
1670925209.409369,,,,3.542521,3.542911,34818.000000,1670925209.379392
1670925209.409389,,,,3.533433,3.532140,34819.000000,1670925209.380399
1670925209.411834,,,,3.517471,3.514495,34820.000000,1670925209.381406
1670925209.412021,,,,3.497565,3.496344,34821.000000,1670925209.382413
1670925209.412046,,,,3.479102,3.479852,34822.000000,1670925209.383420
1670925209.412055,,,,3.467226,3.466967,34823.000000,1670925209.384427
1670925209.412061,,,,3.456383,3.457110,34824.000000,1670925209.385434
1670925209.425496,,,,3.449532,3.451773,34825.000000,1670925209.386441
1670925209.425564,,,,3.451527,3.453192,34826.000000,1670925209.387448
1670925209.425611,,,,3.456888,3.459057,34827.000000,1670925209.388455
1670925209.425693,,,,3.467010,3.469082,34828.000000,1670925209.389462
1670925209.425761,,,,3.478284,3.479347,34829.000000,1670925209.390470
1670925209.425769,,,,3.491555,3.494541,34830.000000,1670925209.391477
1670925209.432666,,,,3.511388,3.512932,34831.000000,1670925209.392484
1670925209.433187,,,,3.531054,3.532525,34832.000000,1670925209.393491
1670925209.433206,,,,3.541583,3.543704,34833.000000,1670925209.394498
1670925209.433212,,,,3.552906,3.554474,34834.000000,1670925209.395505
1670925209.433633,-0.995815,524418.000000,1670925209.372360,,,,
1670925209.434027,,,,3.559157,3.560004,34835.000000,1670925209.396512
1670925209.434050,,,,3.559181,3.559883,34836.000000,1670925209.397519
1670925209.434059,,,,3.552762,3.554498,34837.000000,1670925209.398526
1670925209.435426,-0.959628,524419.000000,1670925209.373360,,,,
1670925209.435442,-1.068171,524420.000000,1670925209.374360,,,,
1670925209.435493,-1.013904,524421.000000,1670925209.375360,,,,
1670925209.435507,-1.031993,524422.000000,1670925209.376360,,,,
1670925209.435540,-1.031993,524423.000000,1670925209.377360,,,,
1670925209.435550,-0.977726,524424.000000,1670925209.378360,,,,
1670925209.435572,-0.995815,524425.000000,1670925209.379360,,,,
1670925209.435580,-0.941539,524426.000000,1670925209.380360,,,,
1670925209.435609,-1.013904,524427.000000,1670925209.381360,,,,
1670925209.435616,-0.995815,524469.000000,1670925209.423360,,,,
1670925209.435694,-0.995815,524470.000000,1670925209.424360,,,,
1670925209.435709,-0.995815,524471.000000,1670925209.425360,,,,
1670925209.435725,-0.995815,524472.000000,1670925209.426360,,,,
1670925209.435734,-1.031993,524473.000000,1670925209.427360,,,,
1670925209.435740,-1.050082,524474.000000,1670925209.428360,,,,
1670925209.435760,-1.050082,524475.000000,1670925209.429360,,,,
1670925209.435775,-1.031993,524476.000000,1670925209.430360,,,,
1670925209.435788,-0.995815,524477.000000,1670925209.431360,,,,
1670925209.435796,-0.995815,524478.000000,1670925209.432360,,,,
1670925209.438703,,,,3.542088,3.544978,34838.000000,1670925209.399533
1670925209.438951,,,,3.532568,3.535410,34839.000000,1670925209.400540
1670925209.439317,,,,3.516798,3.518582,34840.000000,1670925209.401547
1670925209.439502,,,,3.497349,3.498508,34841.000000,1670925209.402555
1670925209.441177,,,,3.481867,3.481607,34842.000000,1670925209.403562
1670925209.441670,,,,3.469462,3.470212,34843.000000,1670925209.404569
1670925209.441706,,,,3.460422,3.460428,34844.000000,1670925209.405576
1670925209.441715,,,,3.453018,3.454249,34845.000000,1670925209.406583
1670925209.446326,,,,3.448739,3.450403,34846.000000,1670925209.407590
1670925209.446506,,,,3.452008,3.454009,34847.000000,1670925209.408597
1670925209.446754,,,,3.466937,3.467183,34848.000000,1670925209.409604
1670925209.446947,,,,3.478669,3.479516,34849.000000,1670925209.410611
1670925209.453969,,,,3.495401,3.496921,34850.000000,1670925209.411618
1670925209.454549,,,,3.512374,3.515817,34851.000000,1670925209.412625
1670925209.454560,,,,3.531871,3.531443,34852.000000,1670925209.413632
1670925209.454625,,,,3.543002,3.541805,34853.000000,1670925209.414639
1670925209.455017,,,,3.553988,3.553561,34854.000000,1670925209.415647
1670925209.455347,,,,3.562210,3.562624,34855.000000,1670925209.416654
1670925209.456366,,,,3.560623,3.562167,34856.000000,1670925209.417661
1670925209.456696,,,,3.557666,3.560004,34857.000000,1670925209.418668
1670925209.456709,,,,3.548627,3.551253,34858.000000,1670925209.419675
1670925209.456836,,,,3.532135,3.535530,34859.000000,1670925209.420682
1670925209.456852,,,,3.514057,3.512908,34860.000000,1670925209.421689
1670925209.457170,,,,3.499993,3.497113,34861.000000,1670925209.422696
1670925209.457180,,,,3.484727,3.483963,34862.000000,1670925209.423703
1670925209.461883,,,,3.470327,3.472304,34863.000000,1670925209.424710
1670925209.462006,,,,3.460975,3.462183,34864.000000,1670925209.425717
1670925209.462012,,,,3.452513,3.454369,34865.000000,1670925209.426724
1670925209.462017,,,,3.453451,3.455571,34866.000000,1670925209.427732
1670925209.462072,,,,3.457345,3.458721,34867.000000,1670925209.428739
1670925209.462196,,,,3.462273,3.465212,34868.000000,1670925209.429746
1670925209.462304,,,,3.474318,3.475621,34869.000000,1670925209.430753
1670925209.462435,,,,3.492685,3.492666,34870.000000,1670925209.431760
1670925209.463423,,,,3.510835,3.511802,34871.000000,1670925209.432767
1670925209.463562,,,,3.529948,3.531972,34872.000000,1670925209.433774
1670925209.463701,,,,3.542929,3.546613,34873.000000,1670925209.434781
1670925209.468747,,,,3.554926,3.558561,34874.000000,1670925209.435788
1670925209.468845,,,,3.564109,3.566663,34875.000000,1670925209.436795
1670925209.468992,,,,3.563821,3.564932,34876.000000,1670925209.437802
1670925209.471289,,,,3.555599,3.557119,34877.000000,1670925209.438809
1670925209.471636,,,,3.544708,3.545387,34878.000000,1670925209.439816
1670925209.472106,,,,3.532472,3.533174,34879.000000,1670925209.440824
1670925209.472123,,,,3.516004,3.516947,34880.000000,1670925209.441831
1670925209.472135,,,,3.497709,3.498989,34881.000000,1670925209.442838
1670925209.472420,,,,3.479751,3.480237,34882.000000,1670925209.443845
1670925209.472634,,,,3.466312,3.468505,34883.000000,1670925209.444852
1670925209.472856,,,,3.455542,3.457230,34884.000000,1670925209.445859
1670925209.485582,,,,3.450734,3.450980,34885.000000,1670925209.446866
1670925209.485775,,,,3.451143,3.454514,34886.000000,1670925209.447873
1670925209.486178,,,,3.457850,3.458408,34887.000000,1670925209.448880
1670925209.486291,,,,3.471169,3.469178,34888.000000,1670925209.449887
1670925209.487195,,,,3.476578,3.478362,34889.000000,1670925209.450894
1670925209.487211,,,,3.490713,3.491776,34890.000000,1670925209.451901
1670925209.487231,,,,3.510811,3.513461,34891.000000,1670925209.452909
1670925209.487275,,,,3.534347,3.535602,34892.000000,1670925209.453916
1670925209.487400,,,,3.548579,3.545796,34893.000000,1670925209.454923
1670925209.487413,,,,3.555310,3.553032,34894.000000,1670925209.455930
1670925209.493139,,,,3.552498,3.556998,34895.000000,1670925209.456937
1670925209.493639,,,,3.554830,3.558008,34896.000000,1670925209.457944
1670925209.493667,,,,3.550863,3.554570,34897.000000,1670925209.458951
1670925209.493916,,,,3.539131,3.545146,34898.000000,1670925209.459958
1670925209.494269,,,,3.530020,3.533727,34899.000000,1670925209.460965
1670925209.495071,,,,3.518961,3.520072,34900.000000,1670925209.461972
1670925209.495149,,,,3.495594,3.495767,34901.000000,1670925209.462979
1670925209.495171,,,,3.477876,3.478001,34902.000000,1670925209.463986
1670925209.495181,,,,3.468308,3.466606,34903.000000,1670925209.464993
1670925209.495332,,,,3.458090,3.456341,34904.000000,1670925209.466001
1670925209.495483,,,,3.450902,3.451316,34905.000000,1670925209.467008
1670925209.498829,,,,3.450349,3.451653,34906.000000,1670925209.468015
1670925209.499114,,,,3.454220,3.454562,34907.000000,1670925209.469022
1670925209.499672,,,,3.463812,3.464659,34908.000000,1670925209.470029
1670925209.500802,-0.995815,524530.000000,1670925209.489128,,,,
1670925209.500822,-0.977726,524531.000000,1670925209.490129,,,,
1670925209.500836,-0.959628,524532.000000,1670925209.491128,,,,
1670925209.500843,-0.977726,524533.000000,1670925209.492128,,,,
1670925209.500850,-0.977726,524534.000000,1670925209.493128,,,,
1670925209.500893,-0.959628,524535.000000,1670925209.494128,,,,
1670925209.500909,-0.941539,524536.000000,1670925209.495128,,,,
1670925209.500923,-0.995815,524537.000000,1670925209.496128,,,,
1670925209.500939,-0.923450,524538.000000,1670925209.497128,,,,
1670925209.500950,-0.923450,524539.000000,1670925209.498128,,,,
1670925209.501589,,,,3.478573,3.480910,34909.000000,1670925209.471036
1670925209.501768,,,,3.499777,3.502667,34910.000000,1670925209.472043
1670925209.501827,,,,3.517855,3.520265,34911.000000,1670925209.473050
1670925209.501850,,,,3.532977,3.532213,34912.000000,1670925209.474057
1670925209.507060,,,,3.542473,3.543752,34913.000000,1670925209.475064
1670925209.507073,,,,3.553652,3.554883,34914.000000,1670925209.476071
1670925209.508087,,,,3.557835,3.559066,34915.000000,1670925209.477078
1670925209.508102,,,,3.557186,3.558080,34916.000000,1670925209.478086
1670925209.508110,,,,3.551728,3.553080,34917.000000,1670925209.479093
1670925209.508117,,,,3.543410,3.543295,34918.000000,1670925209.480100
1670925209.508288,,,,3.530332,3.531756,34919.000000,1670925209.481107
1670925209.508515,,,,3.511220,3.515264,34920.000000,1670925209.482114
1670925209.508952,,,,3.489776,3.491825,34921.000000,1670925209.483121
1670925209.509596,,,,3.474799,3.476799,34922.000000,1670925209.484128
1670925209.509613,,,,3.463475,3.467255,34923.000000,1670925209.485135
1670925209.517157,,,,3.454989,3.456629,34924.000000,1670925209.486142
1670925209.517238,,,,3.451095,3.451316,34925.000000,1670925209.487149
1670925209.517248,,,,3.449099,3.449297,34926.000000,1670925209.488156
1670925209.517358,,,,3.453210,3.451220,34927.000000,1670925209.489163
1670925209.517562,,,,3.463764,3.462519,34928.000000,1670925209.490170
1670925209.517975,,,,3.477731,3.479708,34929.000000,1670925209.491178
1670925209.517983,,,,3.491555,3.494541,34930.000000,1670925209.492185
1670925209.517997,,,,3.508936,3.510985,34931.000000,1670925209.493192
1670925209.518103,,,,3.527664,3.527092,34932.000000,1670925209.494199
1670925209.518111,,,,3.539035,3.538007,34933.000000,1670925209.495206
1670925209.518115,,,,3.549565,3.549786,34934.000000,1670925209.496213
1670925209.518118,,,,3.558340,3.557984,34935.000000,1670925209.497220
1670925209.518139,,,,3.559710,3.560004,34936.000000,1670925209.498227
1670925209.518144,,,,3.550190,3.551325,34937.000000,1670925209.499234
1670925209.521529,,,,3.539516,3.541997,34938.000000,1670925209.500241
1670925209.521773,,,,3.525500,3.526082,34939.000000,1670925209.501248
1670925209.521935,,,,3.493093,3.497402,34940.000000,1670925209.502255
1670925209.522042,,,,3.477780,3.479516,34941.000000,1670925209.503263
1670925209.522244,,,,3.467154,3.469611,34942.000000,1670925209.504270
1670925209.522468,,,,3.456047,3.457639,34943.000000,1670925209.505277
1670925209.522483,,,,3.445950,3.449032,34944.000000,1670925209.506284
1670925209.524551,,,,3.443762,3.446412,34945.000000,1670925209.507291
1670925209.524570,,,,3.451744,3.452783,34946.000000,1670925209.508298
1670925209.524579,,,,3.464485,3.464971,34947.000000,1670925209.509305
1670925209.524585,,,,3.478405,3.477424,34948.000000,1670925209.510312
1670925209.524596,,,,3.494079,3.491488,34949.000000,1670925209.511319
1670925209.524601,,,,3.509946,3.512019,34950.000000,1670925209.512326
1670925209.524618,,,,3.525692,3.530217,34951.000000,1670925209.513333
1670925209.529001,,,,3.538650,3.539882,34952.000000,1670925209.514340
1670925209.529336,,,,3.547209,3.549882,34953.000000,1670925209.515347
1670925209.529702,,,,3.554517,3.555893,34954.000000,1670925209.516355
1670925209.529717,,,,3.555310,3.556205,34955.000000,1670925209.517362
1670925209.529878,,,,3.552690,3.555532,34956.000000,1670925209.518369
1670925209.530136,,,,3.542881,3.545820,34957.000000,1670925209.519376
1670925209.530334,,,,3.533554,3.533535,34958.000000,1670925209.520383
1670925209.531313,,,,3.513768,3.516538,34959.000000,1670925209.521390
1670925209.531360,,,,3.492252,3.495791,34960.000000,1670925209.522397
1670925209.531549,,,,3.477443,3.479612,34961.000000,1670925209.523404
1670925209.531566,,,,3.467370,3.467664,34962.000000,1670925209.524411
1670925209.545726,,,,3.450445,3.451437,34963.000000,1670925209.525418
1670925209.546035,,,,3.442176,3.443623,34964.000000,1670925209.526425
1670925209.546058,,,,3.441815,3.441484,34965.000000,1670925209.527432
1670925209.552642,,,,3.449604,3.450619,34966.000000,1670925209.528440
1670925209.553093,,,,3.460374,3.464803,34967.000000,1670925209.529447
1670925209.553286,,,,3.470327,3.474035,34968.000000,1670925209.530454
1670925209.553620,,,,3.487396,3.490839,34969.000000,1670925209.531461
1670925209.556828,-1.031993,524591.000000,1670925209.544807,,,,
1670925209.556853,-1.013904,524592.000000,1670925209.545808,,,,
1670925209.556864,-1.013904,524593.000000,1670925209.546808,,,,
1670925209.556870,-1.050082,524594.000000,1670925209.547807,,,,
1670925209.556910,-1.068171,524595.000000,1670925209.548807,,,,
1670925209.556917,-1.013904,524596.000000,1670925209.549808,,,,
1670925209.557022,-1.031993,524597.000000,1670925209.550807,,,,
1670925209.557050,-1.031993,524598.000000,1670925209.551807,,,,
1670925209.557062,-1.086260,524599.000000,1670925209.552808,,,,
1670925209.557076,-1.068171,524600.000000,1670925209.553807,,,,
1670925209.559321,,,,3.507325,3.507763,34970.000000,1670925209.532468
1670925209.559337,,,,3.522158,3.522933,34971.000000,1670925209.533475
1670925209.559613,,,,3.537064,3.537646,34972.000000,1670925209.534482
1670925209.560014,,,,3.550574,3.553032,34973.000000,1670925209.535489
1670925209.560115,,,,3.551945,3.553152,34974.000000,1670925209.536496
1670925209.560125,,,,3.550430,3.550988,34975.000000,1670925209.537503
1670925209.560168,,,,3.545189,3.549041,34976.000000,1670925209.538510
1670925209.561541,,,,3.537015,3.539569,34977.000000,1670925209.539517
1670925209.561549,,,,3.527928,3.529833,34978.000000,1670925209.540524
1670925209.561745,,,,3.509153,3.512596,34979.000000,1670925209.541532
1670925209.561873,,,,3.488382,3.489877,34980.000000,1670925209.542539
1670925209.561885,,,,3.472106,3.471871,34981.000000,1670925209.543546
1670925209.562059,,,,3.460230,3.460356,34982.000000,1670925209.544553
1670925209.562068,,,,3.446839,3.448528,34983.000000,1670925209.545560
1670925209.562226,,,,3.437007,3.441291,34984.000000,1670925209.546567
1670925209.566116,,,,3.434747,3.438238,34985.000000,1670925209.547574
1670925209.566247,,,,3.443402,3.442397,34986.000000,1670925209.548581
1670925209.568552,,,,3.456383,3.456244,34987.000000,1670925209.549588
1670925209.568929,,,,3.468981,3.471703,34988.000000,1670925209.550595
1670925209.568939,,,,3.484367,3.484925,34989.000000,1670925209.551602
1670925209.568945,,,,3.499969,3.502186,34990.000000,1670925209.552609
1670925209.574028,,,,3.519682,3.521226,34991.000000,1670925209.553617
1670925209.574112,,,,3.532400,3.536540,34992.000000,1670925209.554624
1670925209.574332,,,,3.544805,3.546276,34993.000000,1670925209.555631
1670925209.574343,,,,3.553411,3.555532,34994.000000,1670925209.556638
1670925209.574448,,,,3.551416,3.554835,34995.000000,1670925209.557645
1670925209.574457,,,,3.548531,3.551758,34996.000000,1670925209.558652
1670925209.574574,,,,3.538939,3.544305,34997.000000,1670925209.559659
1670925209.576269,,,,3.526053,3.531011,34998.000000,1670925209.560666
1670925209.576418,,,,3.508888,3.511057,34999.000000,1670925209.561673
1670925209.576503,,,,3.489992,3.492666,35000.000000,1670925209.562680
1670925209.576597,,,,3.475520,3.476078,35001.000000,1670925209.563687
1670925209.576734,,,,3.464798,3.465380,35002.000000,1670925209.564694
1670925209.576877,,,,3.453523,3.454321,35003.000000,1670925209.565701
1670925209.576888,,,,3.446912,3.449730,35004.000000,1670925209.566709
1670925209.577085,,,,3.443810,3.446580,35005.000000,1670925209.567716
1670925209.583753,,,,3.448282,3.449008,35006.000000,1670925209.568723
1670925209.584480,,,,3.460735,3.461245,35007.000000,1670925209.569730
1670925209.584493,,,,3.472851,3.473746,35008.000000,1670925209.570737
1670925209.584827,,,,3.483141,3.483915,35009.000000,1670925209.571744
1670925209.588724,,,,3.499873,3.500479,35010.000000,1670925209.572751
1670925209.588945,,,,3.520884,3.523678,35011.000000,1670925209.573758
1670925209.591953,,,,3.538578,3.537910,35012.000000,1670925209.574765
1670925209.592050,,,,3.545670,3.547382,35013.000000,1670925209.575772
1670925209.592067,,,,3.550430,3.553681,35014.000000,1670925209.576779
1670925209.592085,,,,3.552377,3.552984,35015.000000,1670925209.577786
1670925209.605188,,,,3.545502,3.547022,35016.000000,1670925209.578794
1670925209.606067,,,,3.535429,3.537742,35017.000000,1670925209.579801
1670925209.606085,,,,3.523649,3.525385,35018.000000,1670925209.580808
1670925209.613019,,,,3.504416,3.502907,35019.000000,1670925209.581815
1670925209.613053,,,,3.474294,3.474996,35020.000000,1670925209.582822
1670925209.613143,,,,3.463788,3.464563,35021.000000,1670925209.583829
1670925209.613163,,,,3.462418,3.464034,35022.000000,1670925209.584836
1670925209.613297,,,,3.450494,3.452110,35023.000000,1670925209.585843
1670925209.613443,,,,3.437271,3.438094,35024.000000,1670925209.586850
1670925209.613537,,,,3.438040,3.439056,35025.000000,1670925209.587857
1670925209.613693,,,,3.441526,3.440258,35026.000000,1670925209.588864
1670925209.619479,-1.031993,524601.000000,1670925209.558803,,,,
1670925209.619497,,,,3.447008,3.448023,35027.000000,1670925209.589871
1670925209.619653,,,,3.460374,3.464346,35028.000000,1670925209.590878
1670925209.619726,-1.031993,524602.000000,1670925209.559803,,,,
1670925209.619734,,,,3.486026,3.490310,35029.000000,1670925209.591886
1670925209.619820,-1.122446,524603.000000,1670925209.560803,,,,
1670925209.620872,-1.013904,524604.000000,1670925209.561803,,,,
1670925209.620886,-1.086260,524605.000000,1670925209.562803,,,,
1670925209.620895,-1.086260,524606.000000,1670925209.563803,,,,
1670925209.620946,-1.104349,524607.000000,1670925209.564803,,,,
1670925209.620958,-1.031993,524652.000000,1670925209.609803,,,,
1670925209.620967,-1.068171,524653.000000,1670925209.610803,,,,
1670925209.620976,-1.086260,524654.000000,1670925209.611803,,,,
1670925209.621005,-1.031993,524655.000000,1670925209.612803,,,,
1670925209.621010,-1.086260,524656.000000,1670925209.613803,,,,
1670925209.621060,-0.995815,524657.000000,1670925209.614803,,,,
1670925209.621069,-1.013904,524658.000000,1670925209.615803,,,,
1670925209.621079,-1.031993,524659.000000,1670925209.616803,,,,
1670925209.621089,-1.013904,524660.000000,1670925209.617803,,,,
1670925209.621098,-1.031993,524661.000000,1670925209.618803,,,,
1670925209.621118,,,,3.507061,3.509374,35030.000000,1670925209.592893
1670925209.621437,,,,3.519274,3.520457,35031.000000,1670925209.593900
1670925209.621450,,,,3.531823,3.534785,35032.000000,1670925209.594907
1670925209.621458,,,,3.542232,3.544978,35033.000000,1670925209.595914
1670925209.621467,,,,3.543747,3.543536,35034.000000,1670925209.596921
1670925209.621663,,,,3.542064,3.543151,35035.000000,1670925209.597928
1670925209.621669,,,,3.543074,3.543464,35036.000000,1670925209.598935
1670925209.621802,,,,3.540622,3.539353,35037.000000,1670925209.599942
1670925209.621933,,,,3.528529,3.528270,35038.000000,1670925209.600949
1670925209.622238,,,,3.510066,3.511081,35039.000000,1670925209.601956
1670925209.622410,,,,3.488478,3.492426,35040.000000,1670925209.602963
1670925209.622421,,,,3.472971,3.474900,35041.000000,1670925209.603971
1670925209.626053,,,,3.460470,3.461437,35042.000000,1670925209.604978
1670925209.626309,,,,3.445998,3.449898,35043.000000,1670925209.605985
1670925209.628634,,,,3.448282,3.448624,35044.000000,1670925209.606992
1670925209.628887,,,,3.449412,3.448840,35045.000000,1670925209.607999
1670925209.629103,,,,3.449724,3.451172,35046.000000,1670925209.609006
1670925209.629365,,,,3.457994,3.457398,35047.000000,1670925209.610013
1670925209.633712,,,,3.471024,3.469563,35048.000000,1670925209.611020
1670925209.634060,,,,3.485953,3.485214,35049.000000,1670925209.612027
1670925209.634263,,,,3.502614,3.502378,35050.000000,1670925209.613034
1670925209.634276,,,,3.519394,3.520986,35051.000000,1670925209.614041
1670925209.636438,,,,3.534611,3.536396,35052.000000,1670925209.615048
1670925209.636741,,,,3.545574,3.543584,35053.000000,1670925209.616055
1670925209.636820,,,,3.546608,3.546950,35054.000000,1670925209.617063
1670925209.637062,,,,3.547281,3.547382,35055.000000,1670925209.618070
1670925209.637480,,,,3.540934,3.541324,35056.000000,1670925209.619077
1670925209.637531,,,,3.529082,3.531636,35057.000000,1670925209.620084
1670925209.641796,,,,3.520067,3.521563,35058.000000,1670925209.621091
1670925209.641816,,,,3.508263,3.509951,35059.000000,1670925209.622098
1670925209.642265,,,,3.490233,3.490695,35060.000000,1670925209.623105
1670925209.642594,,,,3.468284,3.468000,35061.000000,1670925209.624112
1670925209.642790,,,,3.458499,3.456990,35062.000000,1670925209.625119
1670925209.643121,,,,3.449412,3.447422,35063.000000,1670925209.626126
1670925209.643533,,,,3.440517,3.444393,35064.000000,1670925209.627133
1670925209.643811,,,,3.434939,3.441123,35065.000000,1670925209.628140
1670925209.644079,,,,3.443570,3.443695,35066.000000,1670925209.629148
1670925209.644399,,,,3.455037,3.454826,35067.000000,1670925209.630155
1670925209.644677,,,,3.465038,3.465212,35068.000000,1670925209.631162
1670925209.648925,,,,3.474726,3.473818,35069.000000,1670925209.632169
1670925209.649087,,,,3.490713,3.492570,35070.000000,1670925209.633176
1670925209.649185,,,,3.516798,3.517163,35071.000000,1670925209.634183
1670925209.649675,,,,3.538434,3.538631,35072.000000,1670925209.635190
1670925209.651349,,,,3.546007,3.547022,35073.000000,1670925209.636197
1670925209.651607,,,,3.540766,3.542694,35074.000000,1670925209.637204
1670925209.651894,,,,3.534299,3.534953,35075.000000,1670925209.638211
1670925209.651905,,,,3.529250,3.530145,35076.000000,1670925209.639218
1670925209.656649,,,,3.509417,3.510336,35077.000000,1670925209.640225
1670925209.657211,,,,3.484102,3.485814,35078.000000,1670925209.641232
1670925209.657234,,,,3.472971,3.476030,35079.000000,1670925209.642240
1670925209.657584,,,,3.455903,3.459033,35080.000000,1670925209.643247
1670925209.657950,,,,3.443426,3.443263,35081.000000,1670925209.644254
1670925209.658182,,,,3.464293,3.466774,35082.000000,1670925209.645261
1670925209.659305,,,,3.473476,3.473794,35083.000000,1670925209.646268
1670925209.659515,,,,3.453354,3.456485,35084.000000,1670925209.647275
1670925209.659900,,,,3.436382,3.439416,35085.000000,1670925209.648282
1670925209.660150,,,,3.435853,3.437036,35086.000000,1670925209.649289
1670925209.660166,,,,3.443882,3.445066,35087.000000,1670925209.650296
1670925209.660528,,,,3.488309,3.491512,35088.000000,1670925209.651303
1670925209.660824,,,,3.514538,3.515264,35089.000000,1670925209.652310
1670925209.661186,,,,3.529851,3.529616,35090.000000,1670925209.653317
1670925209.661492,,,,3.539636,3.540411,35091.000000,1670925209.654325
1670925209.661666,,,,3.550598,3.553416,35092.000000,1670925209.655332
1670925209.661828,,,,3.552618,3.556566,35093.000000,1670925209.656339
1670925209.672854,,,,3.554301,3.558802,35094.000000,1670925209.657346
1670925209.672875,,,,3.544156,3.548777,35095.000000,1670925209.658353
1670925209.672934,,,,3.522327,3.523678,35096.000000,1670925209.659360
1670925209.672950,,,,3.506027,3.508364,35097.000000,1670925209.660367
1670925209.685091,-0.814908,524713.000000,1670925209.674629,,,,
1670925209.685100,-0.869183,524714.000000,1670925209.675629,,,,
1670925209.685103,-0.833005,524715.000000,1670925209.676629,,,,
1670925209.685106,-0.814908,524716.000000,1670925209.677629,,,,
1670925209.685119,-0.833005,524717.000000,1670925209.678629,,,,
1670925209.685138,-0.833005,524718.000000,1670925209.679629,,,,
1670925209.685143,-0.851094,524719.000000,1670925209.680629,,,,
1670925209.685148,-0.814908,524720.000000,1670925209.681629,,,,
1670925209.685161,-0.905361,524721.000000,1670925209.682629,,,,
1670925209.685177,-0.851094,524722.000000,1670925209.683629,,,,
1670925209.686502,,,,3.497733,3.501465,35098.000000,1670925209.661374
1670925209.686645,,,,3.489415,3.490743,35099.000000,1670925209.662381
1670925209.686831,,,,3.470543,3.472832,35100.000000,1670925209.663388
1670925209.686935,,,,3.453258,3.452783,35101.000000,1670925209.664395
1670925209.687310,,,,3.441286,3.442157,35102.000000,1670925209.665402
1670925209.687349,,,,3.437752,3.437998,35103.000000,1670925209.666409
1670925209.687394,,,,3.443257,3.443311,35104.000000,1670925209.667417
1670925209.692043,,,,3.447849,3.447157,35105.000000,1670925209.668424
1670925209.692047,,,,3.447513,3.447662,35106.000000,1670925209.669431
1670925209.692050,,,,3.450686,3.450234,35107.000000,1670925209.670438
1670925209.692062,,,,3.464702,3.464539,35108.000000,1670925209.671445
1670925209.693895,,,,3.490040,3.490815,35109.000000,1670925209.672452
1670925209.694011,,,,3.519322,3.518798,35110.000000,1670925209.673459
1670925209.694113,,,,3.531222,3.533030,35111.000000,1670925209.674466
1670925209.694289,,,,3.545406,3.549426,35112.000000,1670925209.675473
1670925209.694320,,,,3.551656,3.553849,35113.000000,1670925209.676480
1670925209.694360,,,,3.549709,3.551181,35114.000000,1670925209.677487
1670925209.696117,,,,3.538121,3.539665,35115.000000,1670925209.678494
1670925209.696203,,,,3.530380,3.530626,35116.000000,1670925209.679502
1670925209.696214,,,,3.521654,3.523053,35117.000000,1670925209.680509
1670925209.696217,,,,3.506147,3.505576,35118.000000,1670925209.681516
1670925209.701076,,,,3.486170,3.486560,35119.000000,1670925209.682523
1670925209.701403,,,,3.455470,3.457952,35120.000000,1670925209.683530
1670925209.701410,,,,3.407461,3.408404,35121.000000,1670925209.684537
1670925209.701606,,,,3.363779,3.363905,35122.000000,1670925209.685544
1670925209.703765,,,,3.360606,3.362318,35123.000000,1670925209.686551
1670925209.704024,,,,3.377603,3.378978,35124.000000,1670925209.687558
1670925209.704107,,,,3.421044,3.423573,35125.000000,1670925209.688565
1670925209.709303,,,,3.499825,3.502258,35126.000000,1670925209.689572
1670925209.709647,,,,3.532640,3.533871,35127.000000,1670925209.690579
1670925209.709905,,,,3.526053,3.526395,35128.000000,1670925209.691586
1670925209.710138,,,,3.525091,3.526395,35129.000000,1670925209.692594
1670925209.711948,,,,3.527375,3.528847,35130.000000,1670925209.693601
1670925209.712485,,,,3.535693,3.538608,35131.000000,1670925209.694608
1670925209.712786,,,,3.542785,3.545267,35132.000000,1670925209.695615
1670925209.713160,,,,3.550142,3.553128,35133.000000,1670925209.696622
1670925209.713833,,,,3.549469,3.551205,35134.000000,1670925209.697629
1670925209.714304,,,,3.538434,3.537790,35135.000000,1670925209.698636
1670925209.714325,,,,3.522014,3.521346,35136.000000,1670925209.699643
1670925209.714341,,,,3.515018,3.514014,35137.000000,1670925209.700650
1670925209.714789,,,,3.503142,3.502523,35138.000000,1670925209.701657
1670925209.714971,,,,3.479799,3.481559,35139.000000,1670925209.702664
1670925209.715357,,,,3.462730,3.462639,35140.000000,1670925209.703671
1670925209.716722,,,,3.454076,3.451941,35141.000000,1670925209.704679
1670925209.716890,,,,3.442729,3.441772,35142.000000,1670925209.705686
1670925209.717260,,,,3.441623,3.442253,35143.000000,1670925209.706693
1670925209.717271,,,,3.440757,3.443864,35144.000000,1670925209.707700
1670925209.717276,,,,3.445902,3.449153,35145.000000,1670925209.708707
1670925209.717308,,,,3.460903,3.460572,35146.000000,1670925209.709714
1670925209.717312,,,,3.459172,3.458336,35147.000000,1670925209.710721
1670925209.718843,,,,3.467442,3.466486,35148.000000,1670925209.711728
1670925209.719088,,,,3.483814,3.484156,35149.000000,1670925209.712735
1670925209.719221,,,,3.506244,3.507018,35150.000000,1670925209.713742
1670925209.719232,,,,3.547810,3.550147,35151.000000,1670925209.714749
1670925209.719280,,,,3.576298,3.575366,35152.000000,1670925209.715756
1670925209.719453,,,,3.567980,3.567817,35153.000000,1670925209.716763
1670925209.719462,,,,3.548699,3.548007,35154.000000,1670925209.717771
1670925209.739981,,,,3.534587,3.534761,35155.000000,1670925209.718778
1670925209.739995,,,,3.524250,3.524712,35156.000000,1670925209.719785
1670925209.740003,,,,3.512182,3.513221,35157.000000,1670925209.720792
1670925209.740079,,,,3.497661,3.499397,35158.000000,1670925209.721799
1670925209.740302,,,,3.480063,3.478843,35159.000000,1670925209.722806
1670925209.740517,,,,3.467514,3.469539,35160.000000,1670925209.723813
1670925209.740625,-0.670187,524755.000000,1670925209.709602,,,,
1670925209.740710,-0.597831,524756.000000,1670925209.710602,,,,
1670925209.740719,,,,3.460302,3.465933,35161.000000,1670925209.724820
1670925209.740842,-0.652098,524757.000000,1670925209.711602,,,,
1670925209.740978,-0.634009,524758.000000,1670925209.712602,,,,
1670925209.741292,,,,3.450445,3.454297,35162.000000,1670925209.725827
1670925209.741377,,,,3.440853,3.445811,35163.000000,1670925209.726834
1670925209.741426,,,,3.442753,3.447470,35164.000000,1670925209.727841
1670925209.741586,-0.634009,524759.000000,1670925209.713602,,,,
1670925209.741606,-0.615920,524760.000000,1670925209.714602,,,,
1670925209.741631,-0.615920,524761.000000,1670925209.715602,,,,
1670925209.741640,-0.615920,524762.000000,1670925209.716602,,,,
1670925209.741722,-0.670187,524763.000000,1670925209.717602,,,,
1670925209.741728,-0.652098,524764.000000,1670925209.718602,,,,
1670925209.741733,-0.597831,524774.000000,1670925209.728602,,,,
1670925209.741751,-0.652098,524775.000000,1670925209.729602,,,,
1670925209.741764,-0.615920,524776.000000,1670925209.730602,,,,
1670925209.741810,-0.634009,524777.000000,1670925209.731602,,,,
1670925209.741821,-0.652098,524778.000000,1670925209.732602,,,,
1670925209.741829,-0.652098,524779.000000,1670925209.733602,,,,
1670925209.741845,-0.579742,524780.000000,1670925209.734602,,,,
1670925209.741853,-0.652098,524781.000000,1670925209.735602,,,,
1670925209.741866,-0.634009,524782.000000,1670925209.736602,,,,
1670925209.741872,-0.615920,524783.000000,1670925209.737602,,,,
1670925209.746465,,,,3.446046,3.446893,35165.000000,1670925209.728848
1670925209.746771,,,,3.450926,3.451316,35166.000000,1670925209.729856
1670925209.747167,,,,3.464413,3.466149,35167.000000,1670925209.730863
1670925209.747179,,,,3.485689,3.486175,35168.000000,1670925209.731870
1670925209.747198,,,,3.500714,3.504422,35169.000000,1670925209.732877
1670925209.747203,,,,3.515812,3.519976,35170.000000,1670925209.733884
1670925209.747230,,,,3.529323,3.528871,35171.000000,1670925209.734891
1670925209.748538,,,,3.540309,3.542670,35172.000000,1670925209.735898
1670925209.748741,,,,3.542929,3.545026,35173.000000,1670925209.736905
1670925209.749009,,,,3.541126,3.541060,35174.000000,1670925209.737912
1670925209.749262,,,,3.532832,3.534088,35175.000000,1670925209.738919
1670925209.754039,,,,3.523000,3.523077,35176.000000,1670925209.739926
1670925209.754056,,,,3.506340,3.509879,35177.000000,1670925209.740933
1670925209.754071,,,,3.495161,3.497643,35178.000000,1670925209.741940
1670925209.754074,,,,3.482083,3.480453,35179.000000,1670925209.742948
1670925209.756407,,,,3.470303,3.472111,35180.000000,1670925209.743955
1670925209.756536,,,,3.466192,3.468169,35181.000000,1670925209.744962
1670925209.756551,,,,3.449364,3.451100,35182.000000,1670925209.745969
1670925209.761209,,,,3.440757,3.438647,35183.000000,1670925209.746976
1670925209.761428,,,,3.436550,3.437565,35184.000000,1670925209.747983
1670925209.761627,,,,3.435516,3.439104,35185.000000,1670925209.748990
1670925209.763857,,,,3.443377,3.445354,35186.000000,1670925209.749997
1670925209.764060,,,,3.459509,3.459226,35187.000000,1670925209.751004
1670925209.764069,,,,3.483670,3.484276,35188.000000,1670925209.752011
1670925209.764238,,,,3.501219,3.501705,35189.000000,1670925209.753018
1670925209.764332,,,,3.515716,3.518558,35190.000000,1670925209.754025
1670925209.764388,,,,3.530212,3.531083,35191.000000,1670925209.755033
1670925209.764571,,,,3.541872,3.542863,35192.000000,1670925209.756040
1670925209.764648,,,,3.544564,3.544786,35193.000000,1670925209.757047
1670925209.769179,,,,3.544781,3.546349,35194.000000,1670925209.758054
1670925209.769189,,,,3.541535,3.544305,35195.000000,1670925209.759061
1670925209.769193,,,,3.534323,3.534232,35196.000000,1670925209.760068
1670925209.769330,,,,3.525933,3.526563,35197.000000,1670925209.761075
1670925209.769416,,,,3.513215,3.515625,35198.000000,1670925209.762082
1670925209.769509,,,,3.488309,3.489613,35199.000000,1670925209.763089
1670925209.769601,,,,3.459942,3.462014,35200.000000,1670925209.764096
1670925209.771153,,,,3.446262,3.448383,35201.000000,1670925209.765103
1670925209.771160,,,,3.434050,3.434247,35202.000000,1670925209.766110
1670925209.771219,,,,3.427727,3.429343,35203.000000,1670925209.767118
1670925209.771229,,,,3.427030,3.427781,35204.000000,1670925209.768125
1670925209.776632,,,,3.436213,3.436916,35205.000000,1670925209.769132
1670925209.776846,,,,3.450277,3.451076,35206.000000,1670925209.770139
1670925209.776977,,,,3.461817,3.462447,35207.000000,1670925209.771146
1670925209.779152,,,,3.485737,3.488820,35208.000000,1670925209.772153
1670925209.779654,,,,3.518456,3.520361,35209.000000,1670925209.773160
1670925209.779778,,,,3.539444,3.538968,35210.000000,1670925209.774167
1670925209.779968,,,,3.548555,3.550748,35211.000000,1670925209.775174
1670925209.780072,,,,3.556633,3.556854,35212.000000,1670925209.776181
1670925209.780293,,,,3.555190,3.556686,35213.000000,1670925209.777188
1670925209.780586,,,,3.549901,3.552094,35214.000000,1670925209.778195
1670925209.780735,,,,3.544204,3.544786,35215.000000,1670925209.779202
1670925209.793690,,,,3.530092,3.528558,35216.000000,1670925209.780210
1670925209.793728,,,,3.513624,3.516706,35217.000000,1670925209.781217
1670925209.793768,,,,3.497373,3.499277,35218.000000,1670925209.782224
1670925209.794471,,,,3.471313,3.472857,35219.000000,1670925209.783231
1670925209.794498,,,,3.454051,3.454562,35220.000000,1670925209.784238
1670925209.794854,,,,3.443354,3.442614,35221.000000,1670925209.785245
1670925209.795208,,,,3.433906,3.434247,35222.000000,1670925209.786252
1670925209.800224,,,,3.429097,3.430665,35223.000000,1670925209.787259
1670925209.800535,,,,3.430516,3.432084,35224.000000,1670925209.788266
1670925209.800962,,,,3.440348,3.444873,35225.000000,1670925209.789273
1670925209.804972,-0.615920,524784.000000,1670925209.744022,,,,
1670925209.804989,-0.652098,524785.000000,1670925209.745022,,,,
1670925209.805209,-0.597831,524786.000000,1670925209.746022,,,,
1670925209.805301,-0.543555,524787.000000,1670925209.747022,,,,
1670925209.806337,,,,3.471505,3.475621,35226.000000,1670925209.790280
1670925209.806667,,,,3.489271,3.489709,35227.000000,1670925209.791287
1670925209.806748,,,,3.491122,3.490094,35228.000000,1670925209.792295
1670925209.806765,,,,3.500185,3.499782,35229.000000,1670925209.793302
1670925209.807337,-0.634009,524788.000000,1670925209.748022,,,,
1670925209.807354,-0.181758,524835.000000,1670925209.795022,,,,
1670925209.807364,-0.199847,524836.000000,1670925209.796022,,,,
1670925209.807378,-0.163669,524837.000000,1670925209.797022,,,,
1670925209.807387,-0.181758,524838.000000,1670925209.798022,,,,
1670925209.807396,-0.091304,524839.000000,1670925209.799022,,,,
1670925209.807419,-0.127482,524840.000000,1670925209.800022,,,,
1670925209.807425,-0.127482,524841.000000,1670925209.801022,,,,
1670925209.807437,-0.127482,524842.000000,1670925209.802022,,,,
1670925209.807496,-0.109393,524843.000000,1670925209.803022,,,,
1670925209.807503,-0.127482,524844.000000,1670925209.804022,,,,
1670925209.808572,,,,3.505450,3.508533,35230.000000,1670925209.794309
1670925209.808769,,,,3.514273,3.518534,35231.000000,1670925209.795316
1670925209.808914,,,,3.531222,3.531636,35232.000000,1670925209.796323
1670925209.813766,,,,3.540165,3.543055,35233.000000,1670925209.797330
1670925209.813777,,,,3.548843,3.550483,35234.000000,1670925209.798337
1670925209.813985,,,,3.555334,3.556614,35235.000000,1670925209.799344
1670925209.814147,,,,3.538362,3.539425,35236.000000,1670925209.800351
1670925209.816591,,,,3.496050,3.498099,35237.000000,1670925209.801358
1670925209.816744,,,,3.473861,3.476198,35238.000000,1670925209.802365
1670925209.816929,,,,3.461961,3.462303,35239.000000,1670925209.803372
1670925209.817134,,,,3.456576,3.457735,35240.000000,1670925209.804379
1670925209.817211,,,,3.451960,3.454129,35241.000000,1670925209.805387
1670925209.817561,,,,3.441695,3.446244,35242.000000,1670925209.806394
1670925209.817575,,,,3.432800,3.436123,35243.000000,1670925209.807401
1670925209.817584,,,,3.436430,3.439440,35244.000000,1670925209.808408
1670925209.817588,,,,3.451167,3.451749,35245.000000,1670925209.809415
1670925209.817683,,,,3.485184,3.485093,35246.000000,1670925209.810422
1670925209.821666,,,,3.526294,3.523943,35247.000000,1670925209.811429
1670925209.821896,,,,3.544035,3.545988,35248.000000,1670925209.812436
1670925209.822408,,,,3.551320,3.552888,35249.000000,1670925209.813443
1670925209.822647,,,,3.548940,3.551349,35250.000000,1670925209.814450
1670925209.822903,,,,3.550598,3.551926,35251.000000,1670925209.815457
1670925209.823493,,,,3.548435,3.551517,35252.000000,1670925209.816464
1670925209.823601,,,,3.546247,3.546757,35253.000000,1670925209.817472
1670925209.823767,,,,3.552618,3.553008,35254.000000,1670925209.818479
1670925209.824167,,,,3.546199,3.546950,35255.000000,1670925209.819486
1670925209.824562,,,,3.519538,3.519255,35256.000000,1670925209.820493
1670925209.824589,,,,3.495930,3.498267,35257.000000,1670925209.821500
1670925209.829074,,,,3.474823,3.478434,35258.000000,1670925209.822507
1670925209.829210,,,,3.456071,3.456990,35259.000000,1670925209.823514
1670925209.829587,,,,3.441406,3.443503,35260.000000,1670925209.824521
1670925209.829783,,,,3.432127,3.433358,35261.000000,1670925209.825528
1670925209.830322,,,,3.426357,3.430185,35262.000000,1670925209.826535
1670925209.830336,,,,3.430300,3.432805,35263.000000,1670925209.827542
1670925209.830342,,,,3.436911,3.435882,35264.000000,1670925209.828549
1670925209.836723,,,,3.447969,3.448864,35265.000000,1670925209.829556
1670925209.836744,,,,3.469606,3.472352,35266.000000,1670925209.830564
1670925209.836761,,,,3.494824,3.497138,35267.000000,1670925209.831571
1670925209.838775,,,,3.509465,3.514134,35268.000000,1670925209.832578
1670925209.839139,,,,3.523360,3.524688,35269.000000,1670925209.833585
1670925209.839295,,,,3.535116,3.535074,35270.000000,1670925209.834592
1670925209.839713,,,,3.546535,3.548392,35271.000000,1670925209.835599
1670925209.839989,,,,3.558051,3.559859,35272.000000,1670925209.836606
1670925209.853007,,,,3.548194,3.550916,35273.000000,1670925209.837613
1670925209.854032,,,,3.530501,3.531996,35274.000000,1670925209.838620
1670925209.854864,,,,3.516124,3.516466,35275.000000,1670925209.839627
1670925209.854964,,,,3.513191,3.513221,35276.000000,1670925209.840634
1670925209.854984,,,,3.526221,3.525457,35277.000000,1670925209.841641
1670925209.855016,,,,3.538482,3.539257,35278.000000,1670925209.842649
1670925209.860131,,,,3.527904,3.528030,35279.000000,1670925209.843656
1670925209.860140,,,,3.527183,3.530145,35280.000000,1670925209.844663
1670925209.860144,,,,3.539323,3.542021,35281.000000,1670925209.845670
1670925209.860260,-0.073215,524845.000000,1670925209.799644,,,,
1670925209.860358,-0.037037,524846.000000,1670925209.800643,,,,
1670925209.861292,-0.055126,524847.000000,1670925209.801643,,,,
1670925209.861300,-0.055126,524848.000000,1670925209.802644,,,,
1670925209.861322,-0.000859,524849.000000,1670925209.803643,,,,
1670925209.861327,0.831287,524896.000000,1670925209.850643,,,,
1670925209.861333,0.795109,524897.000000,1670925209.851644,,,,
1670925209.861346,0.813198,524898.000000,1670925209.852643,,,,
1670925209.861353,0.885563,524899.000000,1670925209.853643,,,,
1670925209.861385,0.867474,524900.000000,1670925209.854643,,,,
1670925209.861412,0.903652,524901.000000,1670925209.855644,,,,
1670925209.861421,0.921741,524902.000000,1670925209.856643,,,,
1670925209.861427,0.994105,524903.000000,1670925209.857643,,,,
1670925209.861434,0.939830,524904.000000,1670925209.858644,,,,
1670925209.861441,0.976008,524905.000000,1670925209.859643,,,,
1670925209.866849,,,,3.513432,3.514663,35282.000000,1670925209.846677
1670925209.867153,,,,3.476289,3.480766,35283.000000,1670925209.847684
1670925209.867217,,,,3.460831,3.464611,35284.000000,1670925209.848691
1670925209.867304,,,,3.463091,3.463913,35285.000000,1670925209.849698
1670925209.867450,,,,3.476457,3.478073,35286.000000,1670925209.850705
1670925209.867459,,,,3.490810,3.490959,35287.000000,1670925209.851712
1670925209.867480,,,,3.489031,3.486728,35288.000000,1670925209.852719
1670925209.867507,,,,3.493069,3.492089,35289.000000,1670925209.853726
1670925209.874041,,,,3.508023,3.510023,35290.000000,1670925209.854733
1670925209.874147,,,,3.511989,3.514158,35291.000000,1670925209.855741
1670925209.874271,,,,3.532183,3.533367,35292.000000,1670925209.856748
1670925209.874639,,,,3.547377,3.549570,35293.000000,1670925209.857755
1670925209.874650,,,,3.536919,3.538968,35294.000000,1670925209.858762
1670925209.874708,,,,3.516533,3.516586,35295.000000,1670925209.859769
1670925209.874716,,,,3.501724,3.505455,35296.000000,1670925209.860776
1670925209.874721,,,,3.491435,3.497066,35297.000000,1670925209.861783
1670925209.878393,,,,3.471938,3.472785,35298.000000,1670925209.862790
1670925209.878634,,,,3.453282,3.453384,35299.000000,1670925209.863797
1670925209.881800,,,,3.444652,3.445210,35300.000000,1670925209.864804
1670925209.881826,,,,3.422486,3.425881,35301.000000,1670925209.865811
1670925209.881867,,,,3.418375,3.419535,35302.000000,1670925209.866818
1670925209.881979,,,,3.428737,3.431507,35303.000000,1670925209.867826
1670925209.885856,,,,3.438906,3.439584,35304.000000,1670925209.868833
1670925209.886204,,,,3.462706,3.465332,35305.000000,1670925209.869840
1670925209.886213,,,,3.494392,3.496633,35306.000000,1670925209.870847
1670925209.886662,,,,3.499897,3.501585,35307.000000,1670925209.871854
1670925209.886915,,,,3.505570,3.507908,35308.000000,1670925209.872861
1670925209.887331,,,,3.520355,3.523342,35309.000000,1670925209.873868
1670925209.887596,,,,3.547377,3.551229,35310.000000,1670925209.874875
1670925209.889148,,,,3.598343,3.599550,35311.000000,1670925209.875882
1670925209.889401,,,,3.657459,3.658930,35312.000000,1670925209.876889
1670925209.889422,,,,3.704963,3.705088,35313.000000,1670925209.877896
1670925209.889434,,,,3.689264,3.692852,35314.000000,1670925209.878903
1670925209.893373,,,,3.663517,3.666022,35315.000000,1670925209.879910
1670925209.893873,,,,3.624042,3.624841,35316.000000,1670925209.880918
1670925209.894088,,,,3.548892,3.547551,35317.000000,1670925209.881925
1670925209.894114,,,,3.472707,3.473313,35318.000000,1670925209.882932
1670925209.896687,,,,3.426934,3.426891,35319.000000,1670925209.883939
1670925209.896773,,,,3.406548,3.408765,35320.000000,1670925209.884946
1670925209.896822,,,,3.385224,3.386239,35321.000000,1670925209.885953
1670925209.899029,,,,3.383613,3.382224,35322.000000,1670925209.886960
1670925209.899218,,,,3.398662,3.397778,35323.000000,1670925209.887967
1670925209.899406,,,,3.422655,3.426146,35324.000000,1670925209.888974
1670925209.899882,,,,3.446984,3.449513,35325.000000,1670925209.889981
1670925209.900012,,,,3.453499,3.455307,35326.000000,1670925209.890988
1670925209.900085,,,,3.470712,3.474203,35327.000000,1670925209.891995
1670925209.900123,,,,3.491988,3.494854,35328.000000,1670925209.893003
1670925209.906621,,,,3.505859,3.506586,35329.000000,1670925209.894010
1670925209.907066,,,,3.518721,3.519664,35330.000000,1670925209.895017
1670925209.907454,,,,3.535886,3.537886,35331.000000,1670925209.896024
1670925209.907473,,,,3.542208,3.544425,35332.000000,1670925209.897031
1670925209.907610,,,,3.554565,3.556109,35333.000000,1670925209.898038
1670925209.907880,,,,3.552498,3.552888,35334.000000,1670925209.899045
1670925209.908088,,,,3.536799,3.537910,35335.000000,1670925209.900052
1670925209.919970,,,,3.517471,3.518534,35336.000000,1670925209.901059
1670925209.920111,,,,3.508624,3.509494,35337.000000,1670925209.902066
1670925209.920369,,,,3.496748,3.498460,35338.000000,1670925209.903073
1670925209.920380,,,,3.476409,3.477641,35339.000000,1670925209.904080
1670925209.926380,,,,3.460422,3.462135,35340.000000,1670925209.905087
1670925209.926518,,,,3.427174,3.431459,35341.000000,1670925209.906095
1670925209.926717,,,,3.418159,3.420328,35342.000000,1670925209.907102
1670925209.926915,,,,3.424025,3.426074,35343.000000,1670925209.908109
1670925209.929257,,,,3.434266,3.436700,35344.000000,1670925209.909116
1670925209.929302,,,,3.449484,3.449874,35345.000000,1670925209.910123
1670925209.929309,,,,3.465399,3.465572,35346.000000,1670925209.911130
1670925209.929335,,,,3.488382,3.490767,35347.000000,1670925209.912137
1670925209.929571,,,,3.511557,3.514759,35348.000000,1670925209.913144
1670925209.929583,,,,3.529707,3.531948,35349.000000,1670925209.914151
1670925209.934169,,,,3.540598,3.541228,35350.000000,1670925209.915158
1670925209.934420,,,,3.550598,3.553248,35351.000000,1670925209.916165
1670925209.934636,,,,3.557763,3.559643,35352.000000,1670925209.917172
1670925209.935319,,,,3.556993,3.557023,35353.000000,1670925209.918180
1670925209.935342,,,,3.547353,3.547839,35354.000000,1670925209.919187
1670925209.935356,,,,3.530428,3.534256,35355.000000,1670925209.920194
1670925209.935366,,,,3.512398,3.514495,35356.000000,1670925209.921201
1670925209.936679,,,,3.493190,3.492738,35357.000000,1670925209.922208
1670925209.936803,,,,3.472539,3.473193,35358.000000,1670925209.923215
1670925209.936815,0.994105,524906.000000,1670925209.875546,,,,
1670925209.938859,,,,3.458980,3.459923,35359.000000,1670925209.924222
1670925209.938885,1.066461,524907.000000,1670925209.876545,,,,
1670925209.939095,1.102640,524908.000000,1670925209.877545,,,,
1670925209.939118,1.102640,524909.000000,1670925209.878546,,,,
1670925209.939134,1.066461,524910.000000,1670925209.879545,,,,
1670925209.939145,1.138826,524911.000000,1670925209.880545,,,,
1670925209.939153,1.175004,524912.000000,1670925209.881546,,,,
1670925209.939182,2.694576,524957.000000,1670925209.926545,,,,
1670925209.939201,2.712665,524958.000000,1670925209.927546,,,,
1670925209.939216,2.785021,524959.000000,1670925209.928545,,,,
1670925209.939227,2.893564,524960.000000,1670925209.929545,,,,
1670925209.939265,2.929742,524961.000000,1670925209.930545,,,,
1670925209.939285,3.038284,524962.000000,1670925209.931545,,,,
1670925209.939293,3.074462,524963.000000,1670925209.932545,,,,
1670925209.939322,3.146827,524964.000000,1670925209.933545,,,,
1670925209.939354,3.183005,524965.000000,1670925209.934546,,,,
1670925209.939363,3.219183,524966.000000,1670925209.935545,,,,
1670925209.939402,,,,3.456071,3.454994,35360.000000,1670925209.925229
1670925209.941340,,,,3.438762,3.440498,35361.000000,1670925209.926236
1670925209.941721,,,,3.439507,3.441748,35362.000000,1670925209.927243
1670925209.942030,,,,3.446094,3.447542,35363.000000,1670925209.928250
1670925209.942042,,,,3.446599,3.447951,35364.000000,1670925209.929257
1670925209.943478,,,,3.463475,3.465452,35365.000000,1670925209.930264
1670925209.943687,,,,3.484559,3.486560,35366.000000,1670925209.931272
1670925209.943794,,,,3.498238,3.499229,35367.000000,1670925209.932279
1670925209.949220,,,,3.514922,3.515168,35368.000000,1670925209.933286
1670925209.949311,,,,3.526991,3.528486,35369.000000,1670925209.934293
1670925209.949325,,,,3.538674,3.540435,35370.000000,1670925209.935300
1670925209.949435,,,,3.550142,3.552551,35371.000000,1670925209.936307
1670925209.949609,,,,3.547257,3.548464,35372.000000,1670925209.937314
1670925209.949709,,,,3.536511,3.537886,35373.000000,1670925209.938321
1670925209.949717,,,,3.528241,3.531756,35374.000000,1670925209.939328
1670925209.949849,,,,3.528289,3.531179,35375.000000,1670925209.940335
1670925209.950968,,,,3.519923,3.520577,35376.000000,1670925209.941342
1670925209.951237,,,,3.493310,3.492690,35377.000000,1670925209.942349
1670925209.951537,,,,3.468404,3.470212,35378.000000,1670925209.943357
1670925209.956971,,,,3.453979,3.455067,35379.000000,1670925209.944364
1670925209.957179,,,,3.444964,3.444921,35380.000000,1670925209.945371
1670925209.957266,,,,3.431478,3.434464,35381.000000,1670925209.946378
1670925209.957790,,,,3.437416,3.441892,35382.000000,1670925209.947385
1670925209.957807,,,,3.465783,3.469683,35383.000000,1670925209.948392
1670925209.958096,,,,3.498046,3.498700,35384.000000,1670925209.949399
1670925209.958294,,,,3.519706,3.521298,35385.000000,1670925209.950406
1670925209.959017,,,,3.563845,3.560941,35386.000000,1670925209.951413
1670925209.959348,,,,3.605699,3.606522,35387.000000,1670925209.952420
1670925209.959499,,,,3.647169,3.649482,35388.000000,1670925209.953427
1670925209.959643,,,,3.660320,3.661815,35389.000000,1670925209.954434
1670925209.959801,,,,3.624187,3.625899,35390.000000,1670925209.955441
1670925209.959987,,,,3.575144,3.575510,35391.000000,1670925209.956449
1670925209.960021,,,,3.532664,3.533078,35392.000000,1670925209.957456
1670925209.973367,,,,3.511653,3.512500,35393.000000,1670925209.958463
1670925209.973808,,,,3.514682,3.516466,35394.000000,1670925209.959470
1670925209.974089,,,,3.496627,3.497835,35395.000000,1670925209.960477
1670925209.974276,,,,3.464966,3.464779,35396.000000,1670925209.961484
1670925209.974479,,,,3.431117,3.431242,35397.000000,1670925209.962491
1670925209.974646,,,,3.418640,3.421626,35398.000000,1670925209.963498
1670925209.974945,,,,3.422102,3.422828,35399.000000,1670925209.964505
1670925209.975501,,,,3.422751,3.423910,35400.000000,1670925209.965512
1670925209.975516,,,,3.406860,3.407659,35401.000000,1670925209.966519
1670925209.975582,,,,3.394744,3.397297,35402.000000,1670925209.967526
1670925209.975595,,,,3.395272,3.397177,35403.000000,1670925209.968534
1670925209.981127,,,,3.423640,3.427300,35404.000000,1670925209.969541
1670925209.981252,,,,3.456095,3.460331,35405.000000,1670925209.970548
1670925209.981265,,,,3.481506,3.481078,35406.000000,1670925209.971555
1670925209.981555,,,,3.482347,3.480694,35407.000000,1670925209.972562
1670925209.981728,,,,3.493887,3.490214,35408.000000,1670925209.973569
1670925209.982122,,,,3.513889,3.514904,35409.000000,1670925209.974576
1670925209.982159,,,,3.519971,3.524328,35410.000000,1670925209.975583
1670925209.982401,,,,3.518913,3.519904,35411.000000,1670925209.976590
1670925209.982430,,,,3.537641,3.538800,35412.000000,1670925209.977597
1670925209.982584,4.575945,524985.000000,1670925209.938372,,,,
1670925209.982624,,,,3.608200,3.612821,35413.000000,1670925209.978604
1670925209.982697,,,,3.611830,3.613830,35414.000000,1670925209.979611
1670925209.983555,4.666398,524986.000000,1670925209.939372,,,,
1670925209.983565,4.702576,524987.000000,1670925209.940372,,,,
1670925209.983583,4.811119,524988.000000,1670925209.941372,,,,
1670925209.983589,4.829208,524989.000000,1670925209.942372,,,,
1670925209.983599,4.955840,524990.000000,1670925209.943372,,,,
1670925209.983626,5.082471,524991.000000,1670925209.944372,,,,
1670925209.983655,5.064382,524992.000000,1670925209.945372,,,,
1670925209.983663,5.209103,524993.000000,1670925209.946372,,,,
1670925209.983668,5.263370,524994.000000,1670925209.947372,,,,
1670925209.983676,6.909573,525018.000000,1670925209.971372,,,,
1670925209.983691,6.963840,525019.000000,1670925209.972372,,,,
1670925209.983699,7.054294,525020.000000,1670925209.973372,,,,
1670925209.983716,7.090472,525021.000000,1670925209.974372,,,,
1670925209.983722,7.162837,525022.000000,1670925209.975372,,,,
1670925209.983737,7.217103,525023.000000,1670925209.976372,,,,
1670925209.983744,7.325646,525024.000000,1670925209.977372,,,,
1670925209.983751,7.379913,525025.000000,1670925209.978372,,,,
1670925209.983760,7.452278,525026.000000,1670925209.979372,,,,
1670925209.983765,7.506545,525027.000000,1670925209.980372,,,,
1670925210.001694,,,,3.573485,3.571784,35415.000000,1670925209.980618
1670925210.001917,,,,3.515379,3.513269,35416.000000,1670925209.981626
1670925210.002209,,,,3.436478,3.437805,35417.000000,1670925209.982633
1670925210.002460,,,,3.394888,3.397994,35418.000000,1670925209.983640
1670925210.003055,,,,3.431622,3.433959,35419.000000,1670925209.984647
1670925210.003125,,,,3.427896,3.429872,35420.000000,1670925209.985654
1670925210.003141,,,,3.396547,3.398379,35421.000000,1670925209.986661
1670925210.004109,,,,3.390753,3.390758,35422.000000,1670925209.987668
1670925210.004117,,,,3.416789,3.416554,35423.000000,1670925209.988675
1670925210.004229,,,,3.441671,3.443094,35424.000000,1670925209.989682
1670925210.004241,,,,3.466721,3.468649,35425.000000,1670925209.990689
1670925210.004247,,,,3.494079,3.495623,35426.000000,1670925209.991696
1670925210.004252,,,,3.502638,3.504302,35427.000000,1670925209.992703
1670925210.011200,,,,3.502806,3.504157,35428.000000,1670925209.993711
1670925210.011304,,,,3.495954,3.496585,35429.000000,1670925209.994718
1670925210.011514,,,,3.510884,3.512163,35430.000000,1670925209.995725
1670925210.011959,,,,3.521293,3.522765,35431.000000,1670925209.996732
1670925210.012091,,,,3.517230,3.523101,35432.000000,1670925209.997739
1670925210.012111,,,,3.523481,3.527188,35433.000000,1670925209.998746
1670925210.012125,,,,3.524899,3.526659,35434.000000,1670925209.999753
1670925210.012167,,,,3.510379,3.511586,35435.000000,1670925210.000760
1670925210.012174,,,,3.490113,3.489324,35436.000000,1670925210.001767
1670925210.012235,,,,3.456336,3.456990,35437.000000,1670925210.002774
1670925210.012505,,,,3.453547,3.455523,35438.000000,1670925210.003781
1670925210.012513,,,,3.493719,3.495046,35439.000000,1670925210.004788
1670925210.012648,,,,3.502205,3.502667,35440.000000,1670925210.005795
1670925210.012723,,,,3.508792,3.507884,35441.000000,1670925210.006803
1670925210.013063,,,,3.516677,3.516106,35442.000000,1670925210.007810
1670925210.013072,,,,3.470231,3.469587,35443.000000,1670925210.008817
1670925210.013076,,,,3.442200,3.442493,35444.000000,1670925210.009824
1670925210.013093,,,,3.467346,3.465933,35445.000000,1670925210.010831
1670925210.013160,,,,3.472971,3.474155,35446.000000,1670925210.011838
1670925210.016643,,,,3.473765,3.475573,35447.000000,1670925210.012845
1670925210.016678,,,,3.480304,3.484252,35448.000000,1670925210.013852
1670925210.016814,,,,3.492492,3.495888,35449.000000,1670925210.014859
1670925210.016968,,,,3.508023,3.511297,35450.000000,1670925210.015866
1670925210.017057,,,,3.520452,3.524568,35451.000000,1670925210.016873
1670925210.017081,,,,3.522952,3.525866,35452.000000,1670925210.017880
1670925210.019102,,,,3.514153,3.516394,35453.000000,1670925210.018888
1670925210.019112,,,,3.508624,3.509807,35454.000000,1670925210.019895
1670925210.019116,,,,3.499440,3.498652,35455.000000,1670925210.020902
1670925210.019138,,,,3.474871,3.473626,35456.000000,1670925210.021909
1670925210.019183,,,,3.449195,3.448768,35457.000000,1670925210.022916
1670925210.019213,,,,3.435661,3.438911,35458.000000,1670925210.023923
1670925210.019360,,,,3.431309,3.433406,35459.000000,1670925210.024930
1670925210.032861,,,,3.417318,3.419126,35460.000000,1670925210.025937
1670925210.032964,,,,3.415755,3.415520,35461.000000,1670925210.026944
1670925210.033177,,,,3.422991,3.424222,35462.000000,1670925210.027951
1670925210.033434,,,,3.420828,3.423910,35463.000000,1670925210.028958
1670925210.040649,,,,3.438570,3.438431,35464.000000,1670925210.029965
1670925210.040673,,,,3.459220,3.459851,35465.000000,1670925210.030972
1670925210.040682,,,,3.484343,3.486680,35466.000000,1670925210.031980
1670925210.040710,,,,3.524779,3.525986,35467.000000,1670925210.032987
1670925210.046594,7.560821,525028.000000,1670925209.985449,,,,
1670925210.046824,7.669355,525029.000000,1670925209.986449,,,,
1670925210.046836,7.705541,525030.000000,1670925209.987449,,,,
1670925210.046843,7.886440,525031.000000,1670925209.988449,,,,
1670925210.047154,,,,3.553051,3.554955,35468.000000,1670925210.033994
1670925210.047191,,,,3.571490,3.574404,35469.000000,1670925210.035001
1670925210.047204,,,,3.584207,3.586905,35470.000000,1670925210.036008
1670925210.047268,7.886440,525032.000000,1670925209.989449,,,,
1670925210.047325,,,,3.572067,3.573226,35471.000000,1670925210.037015
1670925210.047787,7.976893,525033.000000,1670925209.990449,,,,
1670925210.047802,8.067339,525034.000000,1670925209.991449,,,,
1670925210.047810,8.103517,525035.000000,1670925209.992449,,,,
1670925210.047815,8.266335,525036.000000,1670925209.993449,,,,
1670925210.048895,,,,3.539347,3.538079,35472.000000,1670925210.038022
1670925210.049060,8.302513,525037.000000,1670925209.994449,,,,
1670925210.049079,8.374869,525038.000000,1670925209.995449,,,,
1670925210.049087,14.561698,525079.000000,1670925210.036449,,,,
1670925210.049094,14.652143,525080.000000,1670925210.037449,,,,
1670925210.049161,14.833050,525081.000000,1670925210.038449,,,,
1670925210.049166,14.995860,525082.000000,1670925210.039449,,,,
1670925210.049171,15.176759,525083.000000,1670925210.040449,,,,
1670925210.049176,15.375747,525084.000000,1670925210.041449,,,,
1670925210.049202,15.502378,525085.000000,1670925210.042449,,,,
1670925210.049218,15.665196,525086.000000,1670925210.043449,,,,
1670925210.049225,15.791820,525087.000000,1670925210.044449,,,,
1670925210.049244,15.990816,525088.000000,1670925210.045449,,,,
1670925210.049277,,,,3.521774,3.521587,35473.000000,1670925210.039029
1670925210.049432,,,,3.512326,3.513485,35474.000000,1670925210.040036
1670925210.049634,,,,3.500330,3.502258,35475.000000,1670925210.041043
1670925210.049826,,,,3.486771,3.488122,35476.000000,1670925210.042050
1670925210.050076,,,,3.460831,3.462279,35477.000000,1670925210.043057
1670925210.050093,,,,3.451239,3.448672,35478.000000,1670925210.044065
1670925210.053962,,,,3.441310,3.441532,35479.000000,1670925210.045072
1670925210.054221,,,,3.433449,3.436940,35480.000000,1670925210.046079
1670925210.054229,,,,3.430155,3.433815,35481.000000,1670925210.047086
1670925210.054410,,,,3.432535,3.434031,35482.000000,1670925210.048093
1670925210.054584,,,,3.440781,3.443022,35483.000000,1670925210.049100
1670925210.054715,,,,3.471289,3.473578,35484.000000,1670925210.050107
1670925210.056111,,,,3.517326,3.520793,35485.000000,1670925210.051114
1670925210.056448,,,,3.559253,3.562408,35486.000000,1670925210.052121
1670925210.056589,,,,3.604065,3.605224,35487.000000,1670925210.053128
1670925210.056601,,,,3.632913,3.635587,35488.000000,1670925210.054135
1670925210.063997,,,,3.623634,3.626981,35489.000000,1670925210.055142
1670925210.064120,,,,3.588270,3.592506,35490.000000,1670925210.056149
1670925210.064464,,,,3.546704,3.549089,35491.000000,1670925210.057157
1670925210.064487,,,,3.503407,3.503917,35492.000000,1670925210.058164
1670925210.064492,,,,3.476217,3.480189,35493.000000,1670925210.059171
1670925210.064509,,,,3.469173,3.474347,35494.000000,1670925210.060178
1670925210.064522,,,,3.475183,3.473650,35495.000000,1670925210.061185
1670925210.068768,,,,3.438305,3.439849,35496.000000,1670925210.062192
1670925210.069070,,,,3.404961,3.409342,35497.000000,1670925210.063199
1670925210.069607,,,,3.397316,3.398307,35498.000000,1670925210.064206
1670925210.069622,,,,3.396763,3.399245,35499.000000,1670925210.065213
1670925210.071465,,,,3.389262,3.391311,35500.000000,1670925210.066220
1670925210.071855,,,,3.376064,3.380060,35501.000000,1670925210.067227
1670925210.071868,,,,3.390777,3.392104,35502.000000,1670925210.068234
1670925210.072373,,,,3.425323,3.425112,35503.000000,1670925210.069242
1670925210.072582,,,,3.462177,3.466294,35504.000000,1670925210.070249
1670925210.072646,,,,3.468644,3.470525,35505.000000,1670925210.071256
1670925210.072850,,,,3.464702,3.466294,35506.000000,1670925210.072263
1670925210.076387,,,,3.479414,3.480622,35507.000000,1670925210.073270
1670925210.076628,,,,3.503359,3.503292,35508.000000,1670925210.074277
1670925210.076991,,,,3.502565,3.506153,35509.000000,1670925210.075284
1670925210.078905,,,,3.548940,3.549594,35510.000000,1670925210.076291
1670925210.079110,,,,3.616806,3.619480,35511.000000,1670925210.077298
1670925210.079724,,,,3.687389,3.691000,35512.000000,1670925210.078305
1670925210.079740,,,,3.678230,3.679677,35513.000000,1670925210.079312
1670925210.084007,,,,3.610387,3.610825,35514.000000,1670925210.080319
1670925210.084146,,,,3.524058,3.523029,35515.000000,1670925210.081326
1670925210.084264,,,,3.455302,3.456749,35516.000000,1670925210.082334
1670925210.084533,,,,3.428280,3.428502,35517.000000,1670925210.083341
1670925210.084717,,,,3.412846,3.413717,35518.000000,1670925210.084348
1670925210.084728,,,,3.376497,3.376142,35519.000000,1670925210.085355
1670925210.084734,,,,3.324930,3.326209,35520.000000,1670925210.086362
1670925210.086349,,,,3.308654,3.311088,35521.000000,1670925210.087369
1670925210.086359,,,,3.297019,3.299813,35522.000000,1670925210.088376
1670925210.086365,,,,3.325146,3.326906,35523.000000,1670925210.089383
1670925210.086386,,,,3.396643,3.396360,35524.000000,1670925210.090390
1670925210.100997,,,,3.401956,3.401552,35525.000000,1670925210.091397
1670925210.102313,,,,3.369164,3.370468,35526.000000,1670925210.092404
1670925210.102584,,,,3.378059,3.381286,35527.000000,1670925210.093411
1670925210.103014,,,,3.382242,3.385421,35528.000000,1670925210.094419
1670925210.103050,,,,3.380440,3.382152,35529.000000,1670925210.095426
1670925210.103504,,,,3.447489,3.447422,35530.000000,1670925210.096433
1670925210.107624,,,,3.503647,3.505455,35531.000000,1670925210.097440
1670925210.108212,,,,3.510138,3.514399,35532.000000,1670925210.098447
1670925210.108248,,,,3.515018,3.517452,35533.000000,1670925210.099454
1670925210.108473,,,,3.477731,3.479323,35534.000000,1670925210.100461
1670925210.108489,,,,3.460591,3.462086,35535.000000,1670925210.101468
1670925210.112301,16.117447,525089.000000,1670925210.051773,,,,
1670925210.113422,16.298346,525090.000000,1670925210.052773,,,,
1670925210.113430,16.515432,525091.000000,1670925210.053773,,,,
1670925210.113482,22.720341,525140.000000,1670925210.102773,,,,
1670925210.113498,22.883150,525141.000000,1670925210.103773,,,,
1670925210.113525,22.973604,525142.000000,1670925210.104773,,,,
1670925210.113531,23.064049,525143.000000,1670925210.105773,,,,
1670925210.113533,23.190681,525144.000000,1670925210.106773,,,,
1670925210.113535,23.317312,525145.000000,1670925210.107773,,,,
1670925210.113608,23.462034,525146.000000,1670925210.108773,,,,
1670925210.113641,23.516310,525147.000000,1670925210.109773,,,,
1670925210.113646,23.624844,525148.000000,1670925210.110773,,,,
1670925210.113658,23.715296,525149.000000,1670925210.111773,,,,
1670925210.113748,,,,3.447128,3.446532,35536.000000,1670925210.102475
1670925210.113757,,,,3.446046,3.445619,35537.000000,1670925210.103482
1670925210.116061,,,,3.432247,3.434969,35538.000000,1670925210.104489
1670925210.116267,,,,3.412894,3.416073,35539.000000,1670925210.105496
1670925210.116276,,,,3.404240,3.406745,35540.000000,1670925210.106503
1670925210.116452,,,,3.403134,3.401576,35541.000000,1670925210.107511
1670925210.121675,,,,3.406018,3.406625,35542.000000,1670925210.108518
1670925210.122201,,,,3.435540,3.437373,35543.000000,1670925210.109525
1670925210.122386,,,,3.472394,3.472039,35544.000000,1670925210.110532
1670925210.122408,,,,3.487732,3.487161,35545.000000,1670925210.111539
1670925210.122662,,,,3.511461,3.511369,35546.000000,1670925210.112546
1670925210.123180,,,,3.529731,3.530338,35547.000000,1670925210.113553
1670925210.123196,,,,3.513023,3.512644,35548.000000,1670925210.114560
1670925210.123436,,,,3.510018,3.512283,35549.000000,1670925210.115567
1670925210.124025,,,,3.511100,3.512379,35550.000000,1670925210.116574
1670925210.124227,,,,3.505114,3.505960,35551.000000,1670925210.117581
1670925210.124999,,,,3.503046,3.505408,35552.000000,1670925210.118588
1670925210.125275,,,,3.497397,3.499614,35553.000000,1670925210.119596
1670925210.125295,,,,3.481554,3.482305,35554.000000,1670925210.120603
1670925210.125330,,,,3.457850,3.461004,35555.000000,1670925210.121610
1670925210.125650,,,,3.446863,3.448023,35556.000000,1670925210.122617
1670925210.129307,,,,3.444123,3.450330,35557.000000,1670925210.123624
1670925210.129319,,,,3.439723,3.443816,35558.000000,1670925210.124631
1670925210.129349,,,,3.432055,3.431026,35559.000000,1670925210.125638
1670925210.129766,,,,3.425203,3.426627,35560.000000,1670925210.126645
1670925210.129845,,,,3.412870,3.415856,35561.000000,1670925210.127652
1670925210.130008,,,,3.399480,3.398331,35562.000000,1670925210.128659
1670925210.131087,,,,3.408447,3.408572,35563.000000,1670925210.129666
1670925210.131302,,,,3.425275,3.426338,35564.000000,1670925210.130673
1670925210.131421,,,,3.438666,3.438551,35565.000000,1670925210.131680
1670925210.131655,,,,3.466793,3.468241,35566.000000,1670925210.132688
1670925210.136577,,,,3.506268,3.507451,35567.000000,1670925210.133695
1670925210.136631,,,,3.513744,3.514543,35568.000000,1670925210.134702
1670925210.136639,,,,3.492757,3.493387,35569.000000,1670925210.135709
1670925210.136652,,,,3.498190,3.499830,35570.000000,1670925210.136716
1670925210.146669,,,,3.507951,3.511177,35571.000000,1670925210.137723
1670925210.147158,,,,3.506268,3.508581,35572.000000,1670925210.138730
1670925210.147501,,,,3.499392,3.500792,35573.000000,1670925210.139737
1670925210.147778,,,,3.477804,3.478891,35574.000000,1670925210.140744
1670925210.160509,,,,3.450926,3.454033,35575.000000,1670925210.141751
1670925210.160786,,,,3.436622,3.441243,35576.000000,1670925210.142758
1670925210.160795,,,,3.461096,3.466341,35577.000000,1670925210.143765
1670925210.160896,,,,3.485713,3.486127,35578.000000,1670925210.144773
1670925210.160933,,,,3.464101,3.468577,35579.000000,1670925210.145780
1670925210.161109,,,,3.429410,3.432517,35580.000000,1670925210.146787
1670925210.161280,,,,3.385247,3.386527,35581.000000,1670925210.147794
1670925210.166546,23.823839,525150.000000,1670925210.105586,,,,
1670925210.168343,24.004738,525151.000000,1670925210.106586,,,,
1670925210.168364,24.059013,525152.000000,1670925210.107586,,,,
1670925210.168371,24.149458,525153.000000,1670925210.108586,,,,
1670925210.168391,31.421688,525201.000000,1670925210.156586,,,,
1670925210.168401,31.566410,525202.000000,1670925210.157586,,,,
1670925210.168461,31.747316,525203.000000,1670925210.158586,,,,
1670925210.168471,31.837761,525204.000000,1670925210.159586,,,,
1670925210.168482,31.982483,525205.000000,1670925210.160586,,,,
1670925210.168490,32.091026,525206.000000,1670925210.161586,,,,
1670925210.168506,32.235744,525207.000000,1670925210.162586,,,,
1670925210.168513,32.344288,525208.000000,1670925210.163586,,,,
1670925210.168590,32.398556,525209.000000,1670925210.164586,,,,
1670925210.168595,32.561363,525210.000000,1670925210.165586,,,,
1670925210.170646,,,,3.364380,3.365948,35582.000000,1670925210.148801
1670925210.171229,,,,3.378829,3.378521,35583.000000,1670925210.149808
1670925210.171255,,,,3.394960,3.396143,35584.000000,1670925210.150815
1670925210.173581,,,,3.435901,3.437493,35585.000000,1670925210.151822
1670925210.173854,,,,3.486554,3.489180,35586.000000,1670925210.152829
1670925210.173891,,,,3.539756,3.538920,35587.000000,1670925210.153836
1670925210.178428,,,,3.559421,3.558225,35588.000000,1670925210.154843
1670925210.178705,,,,3.596684,3.598060,35589.000000,1670925210.155850
1670925210.178721,,,,3.622504,3.626932,35590.000000,1670925210.156857
1670925210.178729,,,,3.586467,3.588540,35591.000000,1670925210.157865
1670925210.179026,,,,3.526053,3.525001,35592.000000,1670925210.158872
1670925210.179165,,,,3.491940,3.492185,35593.000000,1670925210.159879
1670925210.179173,,,,3.456311,3.454009,35594.000000,1670925210.160886
1670925210.182270,,,,3.404600,3.402346,35595.000000,1670925210.161893
1670925210.182402,,,,3.374573,3.374170,35596.000000,1670925210.162900
1670925210.182571,,,,3.368732,3.369843,35597.000000,1670925210.163907
1670925210.182877,,,,3.382555,3.382224,35598.000000,1670925210.164914
1670925210.183447,,,,3.375487,3.376478,35599.000000,1670925210.165921
1670925210.183470,,,,3.365053,3.367535,35600.000000,1670925210.166928
1670925210.183483,,,,3.359740,3.363448,35601.000000,1670925210.167935
1670925210.183494,,,,3.363371,3.365059,35602.000000,1670925210.168942
1670925210.185728,,,,3.380584,3.380060,35603.000000,1670925210.169950
1670925210.185999,,,,3.389911,3.390277,35604.000000,1670925210.170957
1670925210.186292,,,,3.445782,3.447350,35605.000000,1670925210.171964
1670925210.186642,,,,3.486939,3.490406,35606.000000,1670925210.172971
1670925210.187075,,,,3.513143,3.514375,35607.000000,1670925210.173978
1670925210.187101,,,,3.541006,3.541661,35608.000000,1670925210.174985
1670925210.187113,,,,3.548098,3.549185,35609.000000,1670925210.175992
1670925210.188802,,,,3.525236,3.525049,35610.000000,1670925210.176999
1670925210.189078,,,,3.508503,3.507619,35611.000000,1670925210.178006
1670925210.189386,,,,3.503864,3.502378,35612.000000,1670925210.179013
1670925210.193220,,,,3.504056,3.506345,35613.000000,1670925210.180020
1670925210.193369,,,,3.524298,3.525722,35614.000000,1670925210.181027
1670925210.193814,,,,3.489583,3.488603,35615.000000,1670925210.182034
1670925210.193825,,,,3.420347,3.422251,35616.000000,1670925210.183042
1670925210.194114,,,,3.387555,3.389195,35617.000000,1670925210.184049
1670925210.194216,,,,3.383372,3.387873,35618.000000,1670925210.185056
1670925210.194226,,,,3.390873,3.394532,35619.000000,1670925210.186063
1670925210.196136,,,,3.371208,3.373040,35620.000000,1670925210.187070
1670925210.196249,,,,3.361856,3.361356,35621.000000,1670925210.188077
1670925210.196703,,,,3.421909,3.421314,35622.000000,1670925210.189084
1670925210.196716,,,,3.443305,3.444801,35623.000000,1670925210.190091
1670925210.199144,,,,3.414433,3.417179,35624.000000,1670925210.191098
1670925210.203529,,,,3.431862,3.432108,35625.000000,1670925210.192105
1670925210.203534,,,,3.459942,3.460716,35626.000000,1670925210.193112
1670925210.203683,,,,3.481794,3.483795,35627.000000,1670925210.194119
1670925210.203832,,,,3.556368,3.557960,35628.000000,1670925210.195127
1670925210.203985,,,,3.573197,3.576087,35629.000000,1670925210.196134
1670925210.204021,,,,3.534804,3.535049,35630.000000,1670925210.197141
1670925210.204045,,,,3.544877,3.547671,35631.000000,1670925210.198148
1670925210.204050,,,,3.550574,3.553056,35632.000000,1670925210.199155
1670925210.204060,,,,3.526053,3.527333,35633.000000,1670925210.200162
1670925210.206329,,,,3.507061,3.508533,35634.000000,1670925210.201169
1670925210.206777,,,,3.463884,3.466462,35635.000000,1670925210.202176
1670925210.206898,,,,3.467274,3.468601,35636.000000,1670925210.203183
1670925210.206910,,,,3.557618,3.555219,35637.000000,1670925210.204190
1670925210.207008,,,,3.605819,3.607892,35638.000000,1670925210.205197
1670925210.207021,,,,3.525260,3.526467,35639.000000,1670925210.206204
1670925210.207025,,,,3.437680,3.440570,35640.000000,1670925210.207211
1670925210.207105,,,,3.345436,3.345898,35641.000000,1670925210.208219
1670925210.220229,,,,3.345845,3.345802,35642.000000,1670925210.209226
1670925210.220608,,,,3.409721,3.409269,35643.000000,1670925210.210233
1670925210.220637,,,,3.409432,3.410952,35644.000000,1670925210.211240
1670925210.228106,,,,3.402364,3.404461,35645.000000,1670925210.212247
1670925210.228338,,,,3.433785,3.433310,35646.000000,1670925210.213254
1670925210.228718,,,,3.455734,3.454802,35647.000000,1670925210.214261
1670925210.228961,,,,3.483910,3.482593,35648.000000,1670925210.215268
1670925210.228974,,,,3.506027,3.507355,35649.000000,1670925210.216275
1670925210.229110,,,,3.506412,3.507547,35650.000000,1670925210.217282
1670925210.229119,,,,3.491964,3.492594,35651.000000,1670925210.218289
1670925210.231526,32.651817,525211.000000,1670925210.170783,,,,
1670925210.231541,32.724182,525212.000000,1670925210.171783,,,,
1670925210.231563,32.832718,525213.000000,1670925210.172783,,,,
1670925210.231588,32.995525,525214.000000,1670925210.173783,,,,
1670925210.233155,33.140255,525215.000000,1670925210.174783,,,,
1670925210.233172,38.440655,525262.000000,1670925210.221783,,,,
1670925210.233179,38.567287,525263.000000,1670925210.222783,,,,
1670925210.233198,38.657742,525264.000000,1670925210.223783,,,,
1670925210.233239,38.911003,525265.000000,1670925210.224783,,,,
1670925210.233302,38.983360,525266.000000,1670925210.225783,,,,
1670925210.233312,39.128078,525267.000000,1670925210.226783,,,,
1670925210.233325,39.290890,525268.000000,1670925210.227783,,,,
1670925210.233361,39.435619,525269.000000,1670925210.228783,,,,
1670925210.233372,39.526066,525270.000000,1670925210.229783,,,,
1670925210.233380,39.833595,525271.000000,1670925210.230783,,,,
1670925210.233830,,,,3.470159,3.467327,35652.000000,1670925210.219296
1670925210.234092,,,,3.446166,3.445570,35653.000000,1670925210.220304
1670925210.234311,,,,3.425564,3.428838,35654.000000,1670925210.221311
1670925210.234677,,,,3.449821,3.450787,35655.000000,1670925210.222318
1670925210.236503,,,,3.488117,3.489180,35656.000000,1670925210.223325
1670925210.236634,,,,3.505258,3.506129,35657.000000,1670925210.224332
1670925210.236879,,,,3.494055,3.497282,35658.000000,1670925210.225339
1670925210.237033,,,,3.463115,3.466918,35659.000000,1670925210.226346
1670925210.237263,,,,3.429121,3.433358,35660.000000,1670925210.227353
1670925210.237482,,,,3.413135,3.416698,35661.000000,1670925210.228360
1670925210.237494,,,,3.432872,3.432685,35662.000000,1670925210.229367
1670925210.237577,,,,3.434266,3.434344,35663.000000,1670925210.230374
1670925210.241393,,,,3.422991,3.424655,35664.000000,1670925210.231381
1670925210.241466,,,,3.445517,3.447133,35665.000000,1670925210.232388
1670925210.243633,,,,3.479991,3.482377,35666.000000,1670925210.233396
1670925210.243790,,,,3.515283,3.518558,35667.000000,1670925210.234403
1670925210.243980,,,,3.526750,3.529232,35668.000000,1670925210.235410
1670925210.244178,,,,3.522038,3.524039,35669.000000,1670925210.236417
1670925210.248774,,,,3.510811,3.511442,35670.000000,1670925210.237424
1670925210.248994,,,,3.497445,3.500311,35671.000000,1670925210.238431
1670925210.249401,,,,3.480592,3.480646,35672.000000,1670925210.239438
1670925210.249414,,,,3.469365,3.470140,35673.000000,1670925210.240445
1670925210.251401,,,,3.468428,3.470549,35674.000000,1670925210.241452
1670925210.251568,,,,3.471529,3.471150,35675.000000,1670925210.242459
1670925210.251971,,,,3.473236,3.471005,35676.000000,1670925210.243466
1670925210.252027,,,,3.445469,3.444657,35677.000000,1670925210.244473
1670925210.252093,,,,3.427607,3.427901,35678.000000,1670925210.245481
1670925210.252113,,,,3.406812,3.407707,35679.000000,1670925210.246488
1670925210.252116,,,,3.392869,3.393763,35680.000000,1670925210.247495
1670925210.258676,,,,3.394263,3.395542,35681.000000,1670925210.248502
1670925210.258794,,,,3.408206,3.409077,35682.000000,1670925210.249509
1670925210.258804,,,,3.459100,3.461726,35683.000000,1670925210.250516
1670925210.258807,,,,3.496315,3.497210,35684.000000,1670925210.251523
1670925210.264195,,,,3.495161,3.498099,35685.000000,1670925210.252530
1670925210.264527,,,,3.493983,3.496056,35686.000000,1670925210.253537
1670925210.264811,,,,3.480448,3.480838,35687.000000,1670925210.254544
1670925210.265052,,,,3.454124,3.456389,35688.000000,1670925210.255551
1670925210.265465,,,,3.459942,3.462423,35689.000000,1670925210.256558
1670925210.265558,,,,3.476169,3.477400,35690.000000,1670925210.257565
1670925210.266692,,,,3.487252,3.486848,35691.000000,1670925210.258573
1670925210.266714,,,,3.500594,3.501008,35692.000000,1670925210.259580
1670925210.266828,,,,3.482540,3.483963,35693.000000,1670925210.260587
1670925210.266870,,,,3.445205,3.445955,35694.000000,1670925210.261594
1670925210.267155,,,,3.426597,3.429103,35695.000000,1670925210.262601
1670925210.267416,,,,3.426116,3.430497,35696.000000,1670925210.263608
1670925210.267806,,,,3.464509,3.466366,35697.000000,1670925210.264615
1670925210.267822,,,,3.468957,3.471727,35698.000000,1670925210.265622
1670925210.280942,,,,3.521317,3.521996,35699.000000,1670925210.266629
1670925210.281126,,,,3.545502,3.544666,35700.000000,1670925210.267636
1670925210.281149,,,,3.479871,3.481728,35701.000000,1670925210.268643
1670925210.288559,,,,3.418544,3.420448,35702.000000,1670925210.269650
1670925210.288939,,,,3.378276,3.380349,35703.000000,1670925210.270658
1670925210.288964,,,,3.407966,3.408476,35704.000000,1670925210.271665
1670925210.289074,,,,3.538025,3.540122,35705.000000,1670925210.272672
1670925210.294425,,,,3.627744,3.630851,35706.000000,1670925210.273679
1670925210.294789,,,,3.609041,3.612003,35707.000000,1670925210.274686
1670925210.294803,,,,3.558796,3.562672,35708.000000,1670925210.275693
1670925210.294876,,,,3.512662,3.516755,35709.000000,1670925210.276700
1670925210.296383,,,,3.498286,3.497450,35710.000000,1670925210.277707
1670925210.296690,,,,3.489680,3.487497,35711.000000,1670925210.278714
1670925210.296763,,,,3.438137,3.437805,35712.000000,1670925210.279721
1670925210.297213,,,,3.421837,3.424583,35713.000000,1670925210.280728
1670925210.297229,,,,3.402485,3.405495,35714.000000,1670925210.281735
1670925210.297235,,,,3.355702,3.357750,35715.000000,1670925210.282743
1670925210.297371,40.412487,525275.000000,1670925210.239243,,,,
1670925210.298307,40.521019,525276.000000,1670925210.240243,,,,
1670925210.298345,40.720016,525277.000000,1670925210.241243,,,,
1670925210.298353,40.828552,525278.000000,1670925210.242243,,,,
1670925210.298373,41.027546,525279.000000,1670925210.243243,,,,
1670925210.298408,41.190357,525280.000000,1670925210.244243,,,,
1670925210.298457,41.316990,525281.000000,1670925210.245243,,,,
1670925210.298464,41.534073,525282.000000,1670925210.246243,,,,
1670925210.298468,41.642609,525283.000000,1670925210.247243,,,,
1670925210.298493,41.787327,525284.000000,1670925210.248243,,,,
1670925210.298500,48.227413,525323.000000,1670925210.287243,,,,
1670925210.298504,48.335953,525324.000000,1670925210.288243,,,,
1670925210.298589,48.480675,525325.000000,1670925210.289243,,,,
1670925210.298600,48.661583,525326.000000,1670925210.290243,,,,
1670925210.298624,48.733940,525327.000000,1670925210.291243,,,,
1670925210.298628,48.932926,525328.000000,1670925210.292243,,,,
1670925210.298644,49.005291,525329.000000,1670925210.293243,,,,
1670925210.298653,49.168102,525330.000000,1670925210.294243,,,,
1670925210.298660,49.240463,525331.000000,1670925210.295243,,,,
1670925210.298675,49.385185,525332.000000,1670925210.296243,,,,
1670925210.301994,,,,3.318415,3.322651,35716.000000,1670925210.283750
1670925210.302009,,,,3.363972,3.366573,35717.000000,1670925210.284757
1670925210.302022,,,,3.418351,3.419487,35718.000000,1670925210.285764
1670925210.302032,,,,3.445397,3.445787,35719.000000,1670925210.286771
1670925210.302039,,,,3.459388,3.460884,35720.000000,1670925210.287778
1670925210.302122,,,,3.436863,3.435305,35721.000000,1670925210.288785
1670925210.302129,,,,3.389743,3.391335,35722.000000,1670925210.289792
1670925210.302138,,,,3.356110,3.358231,35723.000000,1670925210.290799
1670925210.303881,,,,3.357072,3.359722,35724.000000,1670925210.291806
1670925210.303899,,,,3.396595,3.400230,35725.000000,1670925210.292813
1670925210.303911,,,,3.453306,3.455547,35726.000000,1670925210.293820
1670925210.308628,,,,3.489704,3.494373,35727.000000,1670925210.294827
1670925210.308801,,,,3.497156,3.499373,35728.000000,1670925210.295835
1670925210.308932,,,,3.507542,3.511273,35729.000000,1670925210.296842
1670925210.308942,,,,3.502974,3.505696,35730.000000,1670925210.297849
1670925210.311211,,,,3.520139,3.521106,35731.000000,1670925210.298856
1670925210.311446,,,,3.525115,3.527140,35732.000000,1670925210.299863
1670925210.311595,,,,3.508143,3.511346,35733.000000,1670925210.300870
1670925210.311918,,,,3.485641,3.485334,35734.000000,1670925210.301877
1670925210.316983,,,,3.445709,3.446701,35735.000000,1670925210.302884
1670925210.317189,,,,3.406331,3.405735,35736.000000,1670925210.303891
1670925210.317636,,,,3.397027,3.397562,35737.000000,1670925210.304898
1670925210.317655,,,,3.393229,3.392393,35738.000000,1670925210.305905
1670925210.317995,,,,3.402605,3.401937,35739.000000,1670925210.306912
1670925210.318406,,,,3.406139,3.407683,35740.000000,1670925210.307920
1670925210.318432,,,,3.398326,3.398932,35741.000000,1670925210.308927
1670925210.319038,,,,3.407894,3.410688,35742.000000,1670925210.309934
1670925210.319240,,,,3.449796,3.452975,35743.000000,1670925210.310941
1670925210.319467,,,,3.464221,3.467279,35744.000000,1670925210.311948
1670925210.319634,,,,3.475039,3.478674,35745.000000,1670925210.312955
1670925210.319885,,,,3.489151,3.491464,35746.000000,1670925210.313962
1670925210.320147,,,,3.486771,3.487137,35747.000000,1670925210.314969
1670925210.320165,,,,3.497132,3.497643,35748.000000,1670925210.315976
1670925210.340611,,,,3.499248,3.499902,35749.000000,1670925210.316983
1670925210.341608,,,,3.503215,3.501873,35750.000000,1670925210.317990
1670925210.341633,,,,3.508503,3.507932,35751.000000,1670925210.318997
1670925210.341643,,,,3.561922,3.563129,35752.000000,1670925210.320004
1670925210.341656,,,,3.625557,3.629697,35753.000000,1670925210.321012
1670925210.341808,,,,3.617768,3.620466,35754.000000,1670925210.322019
1670925210.341873,,,,3.581515,3.583203,35755.000000,1670925210.323026
1670925210.347414,,,,3.502445,3.500768,35756.000000,1670925210.324033
1670925210.347738,,,,3.420227,3.417371,35757.000000,1670925210.325040
1670925210.347789,,,,3.412990,3.412683,35758.000000,1670925210.326047
1670925210.351547,49.439453,525333.000000,1670925210.291045,,,,
1670925210.352760,55.770992,525384.000000,1670925210.342045,,,,
1670925210.352776,55.879536,525385.000000,1670925210.343045,,,,
1670925210.352781,56.006168,525386.000000,1670925210.344045,,,,
1670925210.352802,56.132801,525387.000000,1670925210.345045,,,,
1670925210.352857,56.223255,525388.000000,1670925210.346045,,,,
1670925210.352862,56.367973,525389.000000,1670925210.347045,,,,
1670925210.352900,56.494606,525390.000000,1670925210.348045,,,,
1670925210.352908,56.621227,525391.000000,1670925210.349045,,,,
1670925210.352919,56.747860,525392.000000,1670925210.350045,,,,
1670925210.352930,56.856403,525393.000000,1670925210.351045,,,,
1670925210.353835,,,,3.402268,3.403908,35759.000000,1670925210.327054
1670925210.353847,,,,3.335267,3.339576,35760.000000,1670925210.328061
1670925210.354095,,,,3.310962,3.312338,35761.000000,1670925210.329068
1670925210.361964,,,,3.349283,3.349504,35762.000000,1670925210.330075
1670925210.362201,,,,3.396715,3.397201,35763.000000,1670925210.331082
1670925210.362294,,,,3.435348,3.438527,35764.000000,1670925210.332089
1670925210.362310,,,,3.466264,3.467399,35765.000000,1670925210.333097
1670925210.362776,,,,3.491170,3.493147,35766.000000,1670925210.334104
1670925210.363218,,,,3.485641,3.488459,35767.000000,1670925210.335111
1670925210.363370,,,,3.489439,3.492089,35768.000000,1670925210.336118
1670925210.363379,,,,3.501820,3.506826,35769.000000,1670925210.337125
1670925210.364554,,,,3.504032,3.506273,35770.000000,1670925210.338132
1670925210.364574,,,,3.488910,3.489781,35771.000000,1670925210.339139
1670925210.364585,,,,3.473044,3.476559,35772.000000,1670925210.340146
1670925210.364593,,,,3.467514,3.471943,35773.000000,1670925210.341153
1670925210.364613,,,,3.451503,3.454586,35774.000000,1670925210.342160
1670925210.364647,,,,3.427607,3.428237,35775.000000,1670925210.343167
1670925210.364655,,,,3.405201,3.406841,35776.000000,1670925210.344174
1670925210.369056,,,,3.382603,3.381839,35777.000000,1670925210.345181
1670925210.369072,,,,3.392869,3.391720,35778.000000,1670925210.346189
1670925210.369326,,,,3.431694,3.433406,35779.000000,1670925210.347196
1670925210.369344,,,,3.471433,3.471342,35780.000000,1670925210.348203
1670925210.371123,,,,3.539997,3.539689,35781.000000,1670925210.349210
1670925210.371323,,,,3.575000,3.574740,35782.000000,1670925210.350217
1670925210.371521,,,,3.604137,3.607315,35783.000000,1670925210.351224
1670925210.376184,,,,3.590554,3.593564,35784.000000,1670925210.352231
1670925210.376689,,,,3.522447,3.525722,35785.000000,1670925210.353238
1670925210.376873,,,,3.437728,3.441219,35786.000000,1670925210.354245
1670925210.376883,,,,3.350605,3.355322,35787.000000,1670925210.355252
1670925210.384536,,,,3.337455,3.338253,35788.000000,1670925210.356259
1670925210.384640,,,,3.411500,3.412683,35789.000000,1670925210.357266
1670925210.385097,,,,3.496627,3.497426,35790.000000,1670925210.358274
1670925210.385111,,,,3.500402,3.502426,35791.000000,1670925210.359281
1670925210.385492,,,,3.473861,3.475597,35792.000000,1670925210.360288
1670925210.385768,,,,3.434555,3.436676,35793.000000,1670925210.361295
1670925210.385995,,,,3.418063,3.418885,35794.000000,1670925210.362302
1670925210.386231,,,,3.441935,3.441676,35795.000000,1670925210.363309
1670925210.386502,,,,3.412173,3.408765,35796.000000,1670925210.364316
1670925210.386891,,,,3.375920,3.375733,35797.000000,1670925210.365323
1670925210.400460,,,,3.361808,3.363063,35798.000000,1670925210.366330
1670925210.400586,,,,3.358779,3.359241,35799.000000,1670925210.367337
1670925210.400707,,,,3.417414,3.419943,35800.000000,1670925210.368344
1670925210.400950,,,,3.458812,3.461437,35801.000000,1670925210.369351
1670925210.400958,,,,3.447849,3.448600,35802.000000,1670925210.370358
1670925210.400967,,,,3.435228,3.437397,35803.000000,1670925210.371366
1670925210.400977,,,,3.426621,3.429391,35804.000000,1670925210.372373
1670925210.407878,,,,3.581226,3.583443,35805.000000,1670925210.373380
1670925210.407903,,,,3.823675,3.825868,35806.000000,1670925210.374387
1670925210.408350,,,,3.832738,3.832167,35807.000000,1670925210.375394
1670925210.408746,,,,3.707727,3.709440,35808.000000,1670925210.376401
1670925210.414324,,,,3.541319,3.544353,35809.000000,1670925210.377408
1670925210.415021,,,,3.310049,3.310679,35810.000000,1670925210.378415
1670925210.415037,,,,3.189317,3.191967,35811.000000,1670925210.379422
1670925210.415054,,,,3.236942,3.239303,35812.000000,1670925210.380429
1670925210.415112,,,,3.223407,3.224638,35813.000000,1670925210.381436
1670925210.415188,,,,3.280912,3.283081,35814.000000,1670925210.382443
1670925210.415200,,,,3.433064,3.434632,35815.000000,1670925210.383451
1670925210.418952,60.673424,525433.000000,1670925210.395344,,,,
1670925210.418975,60.781960,525434.000000,1670925210.396344,,,,
1670925210.419577,60.836227,525435.000000,1670925210.397344,,,,
1670925210.419594,60.872406,525436.000000,1670925210.398344,,,,
1670925210.419600,61.017136,525437.000000,1670925210.399344,,,,
1670925210.419613,61.143757,525438.000000,1670925210.400344,,,,
1670925210.419623,61.179951,525439.000000,1670925210.401344,,,,
1670925210.419691,61.252308,525440.000000,1670925210.402344,,,,
1670925210.419698,61.324665,525441.000000,1670925210.403344,,,,
1670925210.419704,61.469395,525442.000000,1670925210.404344,,,,
1670925210.419710,61.722641,525445.000000,1670925210.407344,,,,
1670925210.419718,61.831192,525446.000000,1670925210.408344,,,,
1670925210.419728,61.939724,525447.000000,1670925210.409344,,,,
1670925210.419760,61.993992,525448.000000,1670925210.410344,,,,
1670925210.419766,62.084454,525449.000000,1670925210.411344,,,,
1670925210.419771,62.174900,525450.000000,1670925210.412344,,,,
1670925210.419782,62.301540,525451.000000,1670925210.413344,,,,
1670925210.419846,62.373894,525452.000000,1670925210.414344,,,,
1670925210.419855,62.482430,525453.000000,1670925210.415344,,,,
1670925210.419872,62.590981,525454.000000,1670925210.416344,,,,
1670925210.421640,,,,3.514610,3.517740,35816.000000,1670925210.384458
1670925210.421817,,,,3.493262,3.494854,35817.000000,1670925210.385465
1670925210.421965,,,,3.422006,3.424968,35818.000000,1670925210.386472
1670925210.422135,,,,3.387748,3.389244,35819.000000,1670925210.387479
1670925210.422319,,,,3.380848,3.380517,35820.000000,1670925210.388486
1670925210.422531,,,,3.401090,3.404750,35821.000000,1670925210.389493
1670925210.422729,,,,3.424410,3.429824,35822.000000,1670925210.390500
1670925210.422771,,,,3.439219,3.443743,35823.000000,1670925210.391507
1670925210.423529,,,,3.452585,3.454297,35824.000000,1670925210.392514
1670925210.423612,,,,3.469317,3.470140,35825.000000,1670925210.393521
1670925210.429691,,,,3.491363,3.492450,35826.000000,1670925210.394528
1670925210.429718,,,,3.498166,3.497835,35827.000000,1670925210.395535
1670925210.429798,,,,3.505378,3.507836,35828.000000,1670925210.396543
1670925210.429806,,,,3.517543,3.520457,35829.000000,1670925210.397550
1670925210.429818,,,,3.508672,3.510288,35830.000000,1670925210.398557
1670925210.429833,,,,3.517543,3.520457,35831.000000,1670925210.399564
1670925210.429845,,,,3.512711,3.513966,35832.000000,1670925210.400571
1670925210.429855,,,,3.465279,3.464154,35833.000000,1670925210.401578
1670925210.432305,,,,3.434338,3.434584,35834.000000,1670925210.402585
1670925210.432319,,,,3.417462,3.417251,35835.000000,1670925210.403592
1670925210.432325,,,,3.410226,3.408524,35836.000000,1670925210.404599
1670925210.432363,,,,3.400321,3.400615,35837.000000,1670925210.405606
1670925210.432768,,,,3.412389,3.411096,35838.000000,1670925210.406613
1670925210.433022,,,,3.410827,3.411601,35839.000000,1670925210.407620
1670925210.433038,,,,3.395753,3.394605,35840.000000,1670925210.408628
1670925210.433265,,,,3.403518,3.404317,35841.000000,1670925210.409635
1670925210.433342,,,,3.430852,3.431964,35842.000000,1670925210.410642
1670925210.433552,,,,3.458812,3.460644,35843.000000,1670925210.411649
1670925210.439205,,,,3.488910,3.491031,35844.000000,1670925210.412656
1670925210.439446,,,,3.527664,3.530722,35845.000000,1670925210.413663
1670925210.439455,,,,3.553099,3.555820,35846.000000,1670925210.414670
1670925210.439578,,,,3.556296,3.558753,35847.000000,1670925210.415677
1670925210.439691,,,,3.532183,3.534184,35848.000000,1670925210.416684
1670925210.439813,,,,3.507782,3.509446,35849.000000,1670925210.417691
1670925210.440017,,,,3.492997,3.494253,35850.000000,1670925210.418698
1670925210.440022,,,,3.446503,3.447422,35851.000000,1670925210.419705
1670925210.440188,,,,3.383324,3.385157,35852.000000,1670925210.420712
1670925210.440404,,,,3.353899,3.354625,35853.000000,1670925210.421720
1670925210.440411,,,,3.357192,3.355635,35854.000000,1670925210.422727
1670925210.444256,,,,3.385103,3.382392,35855.000000,1670925210.423734
1670925210.444271,,,,3.445734,3.446388,35856.000000,1670925210.424741
1670925210.444287,,,,3.469438,3.472183,35857.000000,1670925210.425748
1670925210.444303,,,,3.472370,3.475044,35858.000000,1670925210.426755
1670925210.461959,,,,3.446383,3.450787,35859.000000,1670925210.427762
1670925210.462283,,,,3.429530,3.433646,35860.000000,1670925210.428769
1670925210.462802,,,,3.428881,3.429824,35861.000000,1670925210.429776
1670925210.462832,,,,3.445517,3.445042,35862.000000,1670925210.430783
1670925210.462859,,,,3.478068,3.480670,35863.000000,1670925210.431790
1670925210.462902,,,,3.499945,3.499229,35864.000000,1670925210.432797
1670925210.462926,,,,3.525764,3.526563,35865.000000,1670925210.433805
1670925210.467432,,,,3.537472,3.539858,35866.000000,1670925210.434812
1670925210.467829,,,,3.529010,3.530842,35867.000000,1670925210.435819
1670925210.468113,,,,3.509513,3.513654,35868.000000,1670925210.436826
1670925210.468126,,,,3.482131,3.484973,35869.000000,1670925210.437833
1670925210.472421,62.663338,525455.000000,1670925210.411808,,,,
1670925210.473814,67.601929,525506.000000,1670925210.462808,,,,
1670925210.473830,67.674301,525507.000000,1670925210.463808,,,,
1670925210.473838,67.746658,525508.000000,1670925210.464808,,,,
1670925210.473879,67.837105,525509.000000,1670925210.465808,,,,
1670925210.473891,67.873283,525510.000000,1670925210.466808,,,,
1670925210.473908,67.855194,525511.000000,1670925210.467808,,,,
1670925210.473918,67.927567,525512.000000,1670925210.468808,,,,
1670925210.473922,67.945656,525513.000000,1670925210.469808,,,,
1670925210.473927,68.018013,525514.000000,1670925210.470808,,,,
1670925210.473946,68.090370,525515.000000,1670925210.471808,,,,
1670925210.474599,,,,3.464533,3.464659,35870.000000,1670925210.438840
1670925210.475210,,,,3.448426,3.447734,35871.000000,1670925210.439847
1670925210.475222,,,,3.446046,3.445570,35872.000000,1670925210.440854
1670925210.475268,,,,3.474606,3.474756,35873.000000,1670925210.441861
1670925210.475511,,,,3.501099,3.502210,35874.000000,1670925210.442868
1670925210.475525,,,,3.484343,3.485574,35875.000000,1670925210.443875
1670925210.475540,,,,3.449412,3.452518,35876.000000,1670925210.444882
1670925210.475602,,,,3.372025,3.372872,35877.000000,1670925210.445889
1670925210.475613,,,,3.331277,3.330488,35878.000000,1670925210.446897
1670925210.475621,,,,3.339186,3.338903,35879.000000,1670925210.447904
1670925210.476764,,,,3.370799,3.370708,35880.000000,1670925210.448911
1670925210.476945,,,,3.400658,3.401793,35881.000000,1670925210.449918
1670925210.477917,,,,3.450734,3.451196,35882.000000,1670925210.450925
1670925210.477933,,,,3.487828,3.490310,35883.000000,1670925210.451932
1670925210.477969,,,,3.501436,3.503580,35884.000000,1670925210.452939
1670925210.477980,,,,3.560191,3.563417,35885.000000,1670925210.453946
1670925210.477995,,,,3.589039,3.590030,35886.000000,1670925210.454953
1670925210.478014,,,,3.645006,3.644987,35887.000000,1670925210.455960
1670925210.478223,,,,3.664695,3.666623,35888.000000,1670925210.456967
1670925210.478256,,,,3.574735,3.576207,35889.000000,1670925210.457974
1670925210.478264,,,,3.518023,3.518894,35890.000000,1670925210.458982
1670925210.481479,,,,3.473933,3.473866,35891.000000,1670925210.459989
1670925210.481606,,,,3.409432,3.410952,35892.000000,1670925210.460996
1670925210.481885,,,,3.354933,3.355250,35893.000000,1670925210.462003
1670925210.482072,,,,3.333176,3.333109,35894.000000,1670925210.463010
1670925210.482090,,,,3.338537,3.340634,35895.000000,1670925210.464017
1670925210.482461,,,,3.378444,3.379507,35896.000000,1670925210.465024
1670925210.482475,,,,3.494920,3.496512,35897.000000,1670925210.466031
1670925210.483674,,,,3.601132,3.602098,35898.000000,1670925210.467038
1670925210.483996,,,,3.608272,3.611907,35899.000000,1670925210.468045
1670925210.484012,,,,3.500426,3.502162,35900.000000,1670925210.469052
1670925210.489016,,,,3.382723,3.383546,35901.000000,1670925210.470059
1670925210.489091,,,,3.330002,3.335441,35902.000000,1670925210.471066
1670925210.489102,,,,3.395513,3.400374,35903.000000,1670925210.472074
1670925210.489113,,,,3.450974,3.453215,35904.000000,1670925210.473081
1670925210.491084,,,,3.471553,3.472183,35905.000000,1670925210.474088
1670925210.491304,,,,3.477780,3.479949,35906.000000,1670925210.475095
1670925210.491637,,,,3.486458,3.488411,35907.000000,1670925210.476102
1670925210.496648,,,,3.483141,3.482112,35908.000000,1670925210.477109
1670925210.496664,,,,3.481386,3.479828,35909.000000,1670925210.478116
1670925210.496683,,,,3.484607,3.480862,35910.000000,1670925210.479123
1670925210.496712,,,,3.465735,3.464490,35911.000000,1670925210.480130
1670925210.499132,,,,3.430660,3.429463,35912.000000,1670925210.481137
1670925210.499145,,,,3.395898,3.398187,35913.000000,1670925210.482144
1670925210.499232,,,,3.391666,3.394028,35914.000000,1670925210.483151
1670925210.499310,,,,3.404071,3.405471,35915.000000,1670925210.484159
1670925210.499317,,,,3.410105,3.411914,35916.000000,1670925210.485166
1670925210.499368,,,,3.406499,3.406769,35917.000000,1670925210.486173
1670925210.499376,,,,3.428641,3.430161,35918.000000,1670925210.487180
1670925210.499381,,,,3.435612,3.436435,35919.000000,1670925210.488187
1670925210.503808,,,,3.428617,3.431170,35920.000000,1670925210.489194
1670925210.504216,,,,3.420948,3.425905,35921.000000,1670925210.490201
1670925210.504345,,,,3.422270,3.422780,35922.000000,1670925210.491208
1670925210.504884,,,,3.435276,3.436604,35923.000000,1670925210.492215
1670925210.505053,,,,3.451696,3.455499,35924.000000,1670925210.493222
1670925210.505222,,,,3.469678,3.473986,35925.000000,1670925210.494229
1670925210.507108,,,,3.471890,3.475958,35926.000000,1670925210.495236
1670925210.507418,,,,3.515379,3.517524,35927.000000,1670925210.496243
1670925210.507947,,,,3.588919,3.591761,35928.000000,1670925210.497251
1670925210.508183,,,,3.615123,3.619384,35929.000000,1670925210.498258
1670925210.508554,,,,3.609281,3.611619,35930.000000,1670925210.499265
1670925210.508582,,,,3.580745,3.586496,35931.000000,1670925210.500272
1670925210.508591,,,,3.532255,3.536324,35932.000000,1670925210.501279
1670925210.508851,,,,3.480448,3.484516,35933.000000,1670925210.502286
1670925210.509359,,,,3.436959,3.438695,35934.000000,1670925210.503293
1670925210.509381,,,,3.397196,3.395903,35935.000000,1670925210.504300
1670925210.509683,,,,3.363178,3.365443,35936.000000,1670925210.505307
1670925210.509951,,,,3.353851,3.357053,35937.000000,1670925210.506314
1670925210.510707,,,,3.380079,3.378978,35938.000000,1670925210.507321
1670925210.510737,,,,3.384935,3.386719,35939.000000,1670925210.508328
1670925210.510750,,,,3.390729,3.395614,35940.000000,1670925210.509336
1670925210.526941,68.036102,525516.000000,1670925210.465933,,,,
1670925210.527175,68.126549,525517.000000,1670925210.466933,,,,
1670925210.527447,68.072281,525518.000000,1670925210.467933,,,,
1670925210.527965,68.741623,525532.000000,1670925210.481933,,,,
1670925210.528198,,,,3.416308,3.417611,35941.000000,1670925210.510343
1670925210.528294,68.813980,525533.000000,1670925210.482933,,,,
1670925210.528548,,,,3.423809,3.424535,35942.000000,1670925210.511350
1670925210.528565,68.850159,525534.000000,1670925210.483933,,,,
1670925210.528994,68.922516,525535.000000,1670925210.484933,,,,
1670925210.529481,68.958694,525536.000000,1670925210.485933,,,,
1670925210.529498,69.031067,525537.000000,1670925210.486933,,,,
1670925210.529537,69.139595,525538.000000,1670925210.487933,,,,
1670925210.529555,69.230042,525539.000000,1670925210.488933,,,,
1670925210.529563,69.320503,525540.000000,1670925210.489933,,,,
1670925210.529573,69.320503,525541.000000,1670925210.490933,,,,
1670925210.529582,72.522453,525567.000000,1670925210.516933,,,,
1670925210.529608,72.630981,525568.000000,1670925210.517933,,,,
1670925210.529645,72.757622,525569.000000,1670925210.518933,,,,
1670925210.529669,72.866158,525570.000000,1670925210.519933,,,,
1670925210.529697,73.028976,525571.000000,1670925210.520933,,,,
1670925210.529704,73.155602,525572.000000,1670925210.521933,,,,
1670925210.529717,73.246063,525573.000000,1670925210.522933,,,,
1670925210.529726,73.372688,525574.000000,1670925210.523933,,,,
1670925210.529770,73.553589,525575.000000,1670925210.524933,,,,
1670925210.529777,73.607857,525576.000000,1670925210.525933,,,,
1670925210.529817,,,,3.428208,3.428021,35943.000000,1670925210.512357
1670925210.529821,,,,3.455782,3.456028,35944.000000,1670925210.513364
1670925210.529836,,,,3.504705,3.505888,35945.000000,1670925210.514371
1670925210.530398,,,,3.551175,3.551349,35946.000000,1670925210.515378
1670925210.530618,,,,3.561489,3.560773,35947.000000,1670925210.516385
1670925210.533757,,,,3.544949,3.545459,35948.000000,1670925210.517392
1670925210.533967,,,,3.512614,3.512139,35949.000000,1670925210.518399
1670925210.534104,,,,3.479342,3.479035,35950.000000,1670925210.519406
1670925210.534343,,,,3.485617,3.484276,35951.000000,1670925210.520413
1670925210.536000,,,,3.473885,3.473674,35952.000000,1670925210.521420
1670925210.536212,,,,3.412221,3.412154,35953.000000,1670925210.522428
1670925210.541251,,,,3.367097,3.366766,35954.000000,1670925210.523435
1670925210.541394,,,,3.331277,3.332316,35955.000000,1670925210.524442
1670925210.541584,,,,3.300865,3.301544,35956.000000,1670925210.525449
1670925210.541632,,,,3.309135,3.308299,35957.000000,1670925210.526456
1670925210.543625,,,,3.320122,3.320680,35958.000000,1670925210.527463
1670925210.543984,,,,3.330411,3.328637,35959.000000,1670925210.528470
1670925210.544429,,,,3.396258,3.396648,35960.000000,1670925210.529477
1670925210.544508,,,,3.393710,3.394893,35961.000000,1670925210.530484
1670925210.549227,,,,3.455927,3.458288,35962.000000,1670925210.531491
1670925210.549963,,,,3.585962,3.586208,35963.000000,1670925210.532498
1670925210.550120,,,,3.600242,3.599454,35964.000000,1670925210.533505
1670925210.550517,,,,3.577043,3.577914,35965.000000,1670925210.534513
1670925210.550537,,,,3.581346,3.582217,35966.000000,1670925210.535520
1670925210.550564,,,,3.618056,3.617581,35967.000000,1670925210.536527
1670925210.550576,,,,3.645102,3.647992,35968.000000,1670925210.537534
