__time,/gdx/grip_force_stream/grip_force,/gdx/grip_force_stream/header/seq,/gdx/grip_force_stream/header/stamp,/shimmer0/emg_stream/emg_ch1,/shimmer0/emg_stream/emg_ch2,/shimmer0/emg_stream/header/seq,/shimmer0/emg_stream/header/stamp
1670927975.360837,,,,26.571022,26.579741,264613.000000,1670927975.282655
1670927975.361049,,,,26.573547,26.580223,264614.000000,1670927975.283662
1670927975.361328,,,,26.571239,26.580343,264615.000000,1670927975.284669
1670927975.361499,,,,26.571503,26.581665,264616.000000,1670927975.285676
1670927975.362035,,,,26.573355,26.583925,264617.000000,1670927975.286684
1670927975.362082,,,,26.571430,26.582218,264618.000000,1670927975.287691
1670927975.362087,,,,26.573257,26.581833,264619.000000,1670927975.288698
1670927975.362299,,,,26.577080,26.586882,264620.000000,1670927975.289705
1670927975.362513,,,,26.576166,26.585535,264621.000000,1670927975.290712
1670927975.397216,,,,26.575590,26.581545,264622.000000,1670927975.291719
1670927975.399194,,,,26.570181,26.578756,264623.000000,1670927975.292726
1670927975.399225,,,,26.565903,26.575991,264624.000000,1670927975.293733
1670927975.399457,,,,26.554939,26.563755,264625.000000,1670927975.294740
1670927975.399690,,,,26.549650,26.558609,264626.000000,1670927975.295747
1670927975.399872,,,,26.561190,26.569597,264627.000000,1670927975.296754
1670927975.399887,,,,26.568041,26.578178,264628.000000,1670927975.297761
1670927975.399901,,,,26.566984,26.576616,264629.000000,1670927975.298769
1670927975.400046,,,,26.562897,26.569908,264630.000000,1670927975.299776
1670927975.400064,,,,26.559122,26.566879,264631.000000,1670927975.300783
1670927975.400285,,,,26.558088,26.567553,264632.000000,1670927975.301790
1670927975.400433,,,,26.553881,26.565605,264633.000000,1670927975.302797
1670927975.400505,,,,26.557199,26.567337,264634.000000,1670927975.303804
1670927975.400600,,,,26.562729,26.571928,264635.000000,1670927975.304811
1670927975.400614,,,,26.563570,26.573635,264636.000000,1670927975.305818
1670927975.400794,,,,26.553930,26.561783,264637.000000,1670927975.306825
1670927975.400803,,,,26.541067,26.549763,264638.000000,1670927975.307832
1670927975.400965,,,,26.537365,26.544498,264639.000000,1670927975.308839
1670927975.400992,,,,26.543808,26.554283,264640.000000,1670927975.309846
1670927975.401262,,,,26.558281,26.569212,264641.000000,1670927975.310853
1670927975.401405,,,,26.561550,26.570318,264642.000000,1670927975.311861
1670927975.401490,,,,26.552679,26.561375,264643.000000,1670927975.312868
1670927975.401506,,,,26.535370,26.545195,264644.000000,1670927975.313875
1670927975.401712,,,,26.530706,26.538656,264645.000000,1670927975.314882
1670927975.401829,,,,26.530972,26.541084,264646.000000,1670927975.315889
1670927975.401839,,,,26.529818,26.539137,264647.000000,1670927975.316896
1670927975.401856,,,,26.554171,26.562143,264648.000000,1670927975.317903
1670927975.402009,,,,26.593260,26.602989,264649.000000,1670927975.318910
1670927975.402208,,,,26.626797,26.637197,264650.000000,1670927975.319917
1670927975.402395,,,,26.639633,26.651575,264651.000000,1670927975.320924
1670927975.402646,,,,26.621723,26.631117,264652.000000,1670927975.321931
1670927975.402953,,,,26.603790,26.613710,264653.000000,1670927975.322938
1670927975.402962,,,,26.580061,26.589598,264654.000000,1670927975.323946
1670927975.403120,,,,26.565470,26.574404,264655.000000,1670927975.324953
1670927975.403191,,,,26.574965,26.583588,264656.000000,1670927975.325960
1670927975.406968,-1.075823,264031.000000,1670927975.367679,,,,
1670927975.406983,-1.039645,264032.000000,1670927975.368679,,,,
1670927975.407015,-1.075823,264033.000000,1670927975.369679,,,,
1670927975.407058,-1.075823,264034.000000,1670927975.370679,,,,
1670927975.407175,,,,26.574196,26.582434,264657.000000,1670927975.326967
1670927975.407229,,,,26.567657,26.577890,264658.000000,1670927975.327974
1670927975.407322,,,,26.566143,26.578058,264659.000000,1670927975.328981
1670927975.407332,,,,26.565830,26.574429,264660.000000,1670927975.329988
1670927975.407427,-1.130099,264035.000000,1670927975.371679,,,,
1670927975.407905,-1.093921,264036.000000,1670927975.372679,,,,
1670927975.407913,-1.148188,264037.000000,1670927975.373679,,,,
1670927975.407929,-1.130099,264038.000000,1670927975.374679,,,,
1670927975.407936,-1.130099,264039.000000,1670927975.375679,,,,
1670927975.407947,-1.166277,264040.000000,1670927975.376679,,,,
1670927975.407952,-1.130099,264060.000000,1670927975.396679,,,,
1670927975.407975,-1.112010,264061.000000,1670927975.397679,,,,
1670927975.407980,-1.148188,264062.000000,1670927975.398679,,,,
1670927975.408023,-1.130099,264063.000000,1670927975.399679,,,,
1670927975.408026,-1.166277,264064.000000,1670927975.400679,,,,
1670927975.408028,-1.184366,264065.000000,1670927975.401679,,,,
1670927975.408039,-1.148188,264066.000000,1670927975.402679,,,,
1670927975.408044,-1.130099,264067.000000,1670927975.403679,,,,
1670927975.408067,-1.166277,264068.000000,1670927975.404679,,,,
1670927975.408073,-1.112010,264069.000000,1670927975.405679,,,,
1670927975.409196,,,,26.568954,26.577242,264661.000000,1670927975.330995
1670927975.409346,,,,26.571695,26.580944,264662.000000,1670927975.332002
1670927975.409493,,,,26.564266,26.572794,264663.000000,1670927975.333009
1670927975.409500,,,,26.565300,26.575270,264664.000000,1670927975.334016
1670927975.416996,,,,26.571190,26.581257,264665.000000,1670927975.335023
1670927975.417038,,,,26.569099,26.579117,264666.000000,1670927975.336030
1670927975.422409,,,,26.567152,26.579212,264667.000000,1670927975.337038
1670927975.422426,,,,26.569267,26.579790,264668.000000,1670927975.338045
1670927975.422437,,,,26.569147,26.580006,264669.000000,1670927975.339052
1670927975.422493,,,,26.571480,26.580824,264670.000000,1670927975.340059
1670927975.429798,,,,26.572874,26.584188,264671.000000,1670927975.341066
1670927975.429949,,,,26.572994,26.583202,264672.000000,1670927975.342073
1670927975.430196,,,,26.570206,26.577866,264673.000000,1670927975.343080
1670927975.430347,,,,26.564051,26.572914,264674.000000,1670927975.344087
1670927975.444902,,,,26.565493,26.576088,264675.000000,1670927975.345094
1670927975.445405,,,,26.571960,26.584045,264676.000000,1670927975.346101
1670927975.445426,,,,26.572609,26.580534,264677.000000,1670927975.347108
1670927975.445571,,,,26.568691,26.578684,264678.000000,1670927975.348115
1670927975.445674,,,,26.567705,26.576496,264679.000000,1670927975.349123
1670927975.445942,,,,26.569675,26.578852,264680.000000,1670927975.350130
1670927975.446134,,,,26.567177,26.578611,264681.000000,1670927975.351137
1670927975.446973,,,,26.565805,26.575005,264682.000000,1670927975.352144
1670927975.447102,,,,26.556501,26.571112,264683.000000,1670927975.353151
1670927975.447708,,,,26.554291,26.570438,264684.000000,1670927975.354158
1670927975.447724,,,,26.557175,26.568346,264685.000000,1670927975.355165
1670927975.447876,,,,26.561094,26.570799,264686.000000,1670927975.356172
1670927975.447896,,,,26.572994,26.581978,264687.000000,1670927975.357179
1670927975.447905,,,,26.579437,26.588924,264688.000000,1670927975.358186
1670927975.447916,,,,26.573523,26.585270,264689.000000,1670927975.359193
1670927975.461628,,,,26.574316,26.585342,264690.000000,1670927975.360200
1670927975.461639,,,,26.570349,26.581207,264691.000000,1670927975.361207
1670927975.461977,,,,26.567297,26.577482,264692.000000,1670927975.362215
1670927975.461999,,,,26.574123,26.584261,264693.000000,1670927975.363222
1670927975.462318,,,,26.570229,26.579693,264694.000000,1670927975.364229
1670927975.462740,,,,26.558161,26.569115,264695.000000,1670927975.365236
1670927975.462760,,,,26.551237,26.561855,264696.000000,1670927975.366243
1670927975.462777,,,,26.550636,26.560894,264697.000000,1670927975.367250
1670927975.463129,,,,26.561743,26.572361,264698.000000,1670927975.368257
1670927975.463291,,,,26.565132,26.577938,264699.000000,1670927975.369264
1670927975.463307,,,,26.561069,26.569525,264700.000000,1670927975.370271
1670927975.463320,,,,26.555445,26.563202,264701.000000,1670927975.371278
1670927975.463532,,,,26.557199,26.566376,264702.000000,1670927975.372285
1670927975.468591,,,,26.564724,26.574188,264703.000000,1670927975.373292
1670927975.468600,,,,26.572947,26.583780,264704.000000,1670927975.374300
1670927975.468786,,,,26.579966,26.590319,264705.000000,1670927975.375307
1670927975.469027,,,,26.577009,26.589165,264706.000000,1670927975.376314
1670927975.469245,,,,26.572897,26.580534,264707.000000,1670927975.377321
1670927975.469669,,,,26.568859,26.578011,264708.000000,1670927975.378328
1670927975.469684,,,,26.565733,26.575943,264709.000000,1670927975.379335
1670927975.469690,,,,26.562511,26.574596,264710.000000,1670927975.380342
1670927975.471335,-1.112010,264087.000000,1670927975.427066,,,,
1670927975.472253,-1.093921,264088.000000,1670927975.428066,,,,
1670927975.472275,-1.112010,264089.000000,1670927975.429066,,,,
1670927975.472285,-1.148188,264090.000000,1670927975.430066,,,,
1670927975.472291,-1.130099,264091.000000,1670927975.431066,,,,
1670927975.472311,-1.093921,264092.000000,1670927975.432066,,,,
1670927975.472320,-1.112010,264093.000000,1670927975.433066,,,,
1670927975.472330,-1.130099,264094.000000,1670927975.434066,,,,
1670927975.472354,-1.130099,264095.000000,1670927975.435066,,,,
1670927975.472364,-1.075823,264096.000000,1670927975.436066,,,,
1670927975.472380,-1.021556,264121.000000,1670927975.461066,,,,
1670927975.472406,-0.985378,264122.000000,1670927975.462066,,,,
1670927975.472479,-0.985378,264123.000000,1670927975.463066,,,,
1670927975.472489,-0.967289,264124.000000,1670927975.464066,,,,
1670927975.472496,-1.003467,264125.000000,1670927975.465066,,,,
1670927975.472507,-0.967289,264126.000000,1670927975.466066,,,,
1670927975.472517,-0.985378,264127.000000,1670927975.467066,,,,
1670927975.472521,-0.949200,264128.000000,1670927975.468066,,,,
1670927975.472529,-0.931103,264129.000000,1670927975.469066,,,,
1670927975.472547,-0.931103,264130.000000,1670927975.470066,,,,
1670927975.474661,,,,26.561863,26.572937,264711.000000,1670927975.381349
1670927975.474857,,,,26.562897,26.571039,264712.000000,1670927975.382356
1670927975.474872,,,,26.563810,26.571880,264713.000000,1670927975.383363
1670927975.475101,,,,26.568233,26.576784,264714.000000,1670927975.384370
1670927975.475226,,,,26.562656,26.574524,264715.000000,1670927975.385377
1670927975.475361,,,,26.561935,26.572842,264716.000000,1670927975.386384
1670927975.475508,,,,26.561768,26.571495,264717.000000,1670927975.387392
1670927975.477137,,,,26.561165,26.568466,264718.000000,1670927975.388399
1670927975.477351,,,,26.560396,26.571880,264719.000000,1670927975.389406
1670927975.477494,,,,26.568811,26.579260,264720.000000,1670927975.390413
1670927975.477544,,,,26.569220,26.580654,264721.000000,1670927975.391420
1670927975.477700,,,,26.568882,26.579693,264722.000000,1670927975.392427
1670927975.477717,,,,26.572393,26.582361,264723.000000,1670927975.393434
1670927975.482130,,,,26.568521,26.579212,264724.000000,1670927975.394441
1670927975.482352,,,,26.566214,26.577337,264725.000000,1670927975.395448
1670927975.482882,,,,26.576937,26.584356,264726.000000,1670927975.396455
1670927975.483100,,,,26.582947,26.593493,264727.000000,1670927975.397462
1670927975.483394,,,,26.586168,26.596474,264728.000000,1670927975.398469
1670927975.483595,,,,26.587778,26.598566,264729.000000,1670927975.399477
1670927975.483830,,,,26.588091,26.598661,264730.000000,1670927975.400484
1670927975.483931,,,,26.588043,26.601330,264731.000000,1670927975.401491
1670927975.484530,,,,26.595448,26.607628,264732.000000,1670927975.402498
1670927975.484939,,,,26.596987,26.605705,264733.000000,1670927975.403505
1670927975.485162,,,,26.596457,26.604719,264734.000000,1670927975.404512
1670927975.485417,,,,26.596626,26.607868,264735.000000,1670927975.405519
1670927975.485743,,,,26.589605,26.603397,264736.000000,1670927975.406526
1670927975.485781,,,,26.586624,26.599190,264737.000000,1670927975.407533
1670927975.497273,,,,26.581167,26.593540,264738.000000,1670927975.408540
1670927975.497693,,,,26.565229,26.577890,264739.000000,1670927975.409547
1670927975.498313,,,,26.562511,26.571182,264740.000000,1670927975.410554
1670927975.498424,,,,26.565132,26.573299,264741.000000,1670927975.411561
1670927975.498458,,,,26.572634,26.583132,264742.000000,1670927975.412569
1670927975.503575,,,,26.580446,26.590824,264743.000000,1670927975.413576
1670927975.503587,,,,26.577562,26.588276,264744.000000,1670927975.414583
1670927975.503606,,,,26.572273,26.583853,264745.000000,1670927975.415590
1670927975.504044,,,,26.569267,26.579813,264746.000000,1670927975.416597
1670927975.504199,,,,26.564844,26.574957,264747.000000,1670927975.417604
1670927975.504265,,,,26.551477,26.560509,264748.000000,1670927975.418611
1670927975.504285,,,,26.540876,26.551109,264749.000000,1670927975.419618
1670927975.504341,,,,26.539843,26.551662,264750.000000,1670927975.420625
1670927975.504513,,,,26.542414,26.552166,264751.000000,1670927975.421632
1670927975.504915,,,,26.556093,26.567432,264752.000000,1670927975.422639
1670927975.505081,,,,26.577633,26.588228,264753.000000,1670927975.423646
1670927975.505204,,,,26.582609,26.591570,264754.000000,1670927975.424654
1670927975.505215,,,,26.578957,26.590919,264755.000000,1670927975.425661
1670927975.505314,,,,26.579773,26.591522,264756.000000,1670927975.426668
1670927975.505325,,,,26.583187,26.592531,264757.000000,1670927975.427675
1670927975.505488,,,,26.579798,26.589502,264758.000000,1670927975.428682
1670927975.505502,,,,26.568306,26.578732,264759.000000,1670927975.429689
1670927975.505594,,,,26.570229,26.581665,264760.000000,1670927975.430696
1670927975.505691,,,,26.576744,26.586063,264761.000000,1670927975.431703
1670927975.505894,,,,26.579941,26.590631,264762.000000,1670927975.432710
1670927975.505909,,,,26.574629,26.584213,264763.000000,1670927975.433717
1670927975.505916,,,,26.560516,26.571352,264764.000000,1670927975.434724
1670927975.506173,,,,26.548401,26.561928,264765.000000,1670927975.435731
1670927975.506562,,,,26.548424,26.561277,264766.000000,1670927975.436738
1670927975.506766,,,,26.548641,26.560028,264767.000000,1670927975.437746
1670927975.506843,,,,26.553497,26.561447,264768.000000,1670927975.438753
1670927975.506852,,,,26.560108,26.568106,264769.000000,1670927975.439760
1670927975.506941,,,,26.574100,26.583132,264770.000000,1670927975.440767
1670927975.507081,,,,26.581888,26.591785,264771.000000,1670927975.441774
1670927975.507373,,,,26.583523,26.595800,264772.000000,1670927975.442781
1670927975.507519,,,,26.588669,26.600080,264773.000000,1670927975.443788
1670927975.507683,,,,26.590111,26.598204,264774.000000,1670927975.444795
1670927975.507853,,,,26.587778,26.596834,264775.000000,1670927975.445802
1670927975.508036,,,,26.576191,26.588781,264776.000000,1670927975.446809
1670927975.508097,,,,26.556646,26.567720,264777.000000,1670927975.447816
1670927975.508521,,,,26.565252,26.576159,264778.000000,1670927975.448823
1670927975.508539,,,,26.577152,26.588636,264779.000000,1670927975.449831
1670927975.508548,,,,26.576984,26.586834,264780.000000,1670927975.450838
1670927975.508722,,,,26.570902,26.582338,264781.000000,1670927975.451845
1670927975.509120,,,,26.558569,26.570871,264782.000000,1670927975.452852
1670927975.509128,,,,26.552824,26.564476,264783.000000,1670927975.453859
1670927975.509229,,,,26.554987,26.565630,264784.000000,1670927975.454866
1670927975.520622,,,,26.554121,26.563105,264785.000000,1670927975.455873
1670927975.520756,,,,26.556982,26.564909,264786.000000,1670927975.456880
1670927975.520761,,,,26.559460,26.569693,264787.000000,1670927975.457887
1670927975.521035,,,,26.569675,26.577312,264788.000000,1670927975.458894
1670927975.528545,,,,26.572874,26.581953,264789.000000,1670927975.459901
1670927975.528876,,,,26.565540,26.576038,264790.000000,1670927975.460908
1670927975.529275,,,,26.574436,26.581881,264791.000000,1670927975.461915
1670927975.535061,,,,26.563498,26.571905,264792.000000,1670927975.462923
1670927975.535082,,,,26.548161,26.556686,264793.000000,1670927975.463930
1670927975.535326,,,,26.550156,26.559980,264794.000000,1670927975.464937
1670927975.536567,-0.913014,264131.000000,1670927975.475337,,,,
1670927975.536594,-0.894925,264132.000000,1670927975.476337,,,,
1670927975.536626,-0.876835,264133.000000,1670927975.477337,,,,
1670927975.536759,-0.858746,264134.000000,1670927975.478337,,,,
1670927975.536772,-0.804479,264135.000000,1670927975.479337,,,,
1670927975.536784,-0.750204,264136.000000,1670927975.480337,,,,
1670927975.536848,-0.695937,264137.000000,1670927975.481337,,,,
1670927975.536904,-0.768293,264138.000000,1670927975.482337,,,,
1670927975.537194,-0.732115,264139.000000,1670927975.483337,,,,
1670927975.537274,,,,26.574268,26.586136,264795.000000,1670927975.465944
1670927975.537908,,,,26.579966,26.592003,264796.000000,1670927975.466951
1670927975.538131,,,,26.574604,26.586737,264797.000000,1670927975.467958
1670927975.538243,,,,26.563690,26.573803,264798.000000,1670927975.468965
1670927975.538452,,,,26.577393,26.586714,264799.000000,1670927975.469972
1670927975.538484,,,,26.586697,26.596689,264800.000000,1670927975.470979
1670927975.538526,,,,26.578644,26.588348,264801.000000,1670927975.471986
1670927975.538586,-0.080867,264167.000000,1670927975.511337,,,,
1670927975.538598,-0.135143,264168.000000,1670927975.512337,,,,
1670927975.538607,-0.008511,264169.000000,1670927975.513337,,,,
1670927975.538616,-0.044689,264170.000000,1670927975.514337,,,,
1670927975.538654,0.009578,264171.000000,1670927975.515337,,,,
1670927975.538662,0.027667,264172.000000,1670927975.516337,,,,
1670927975.539433,0.063853,264173.000000,1670927975.517337,,,,
1670927975.539443,0.063853,264174.000000,1670927975.518337,,,,
1670927975.539453,0.118120,264175.000000,1670927975.519337,,,,
1670927975.539466,0.136209,264176.000000,1670927975.520337,,,,
1670927975.539477,0.389473,264182.000000,1670927975.526337,,,,
1670927975.539483,0.425651,264183.000000,1670927975.527337,,,,
1670927975.539488,0.516104,264184.000000,1670927975.528337,,,,
1670927975.539508,0.498015,264185.000000,1670927975.529337,,,,
1670927975.539515,0.588461,264186.000000,1670927975.530337,,,,
1670927975.539522,0.570372,264187.000000,1670927975.531337,,,,
1670927975.539547,0.606558,264188.000000,1670927975.532337,,,,
1670927975.539553,0.624647,264189.000000,1670927975.533337,,,,
1670927975.539560,0.660825,264190.000000,1670927975.534337,,,,
1670927975.539584,0.751279,264191.000000,1670927975.535337,,,,
1670927975.542713,,,,26.585135,26.594767,264802.000000,1670927975.472993
1670927975.543143,,,,26.594679,26.602892,264803.000000,1670927975.474000
1670927975.543157,,,,26.592634,26.605080,264804.000000,1670927975.475008
1670927975.543171,,,,26.589317,26.602098,264805.000000,1670927975.476015
1670927975.543180,,,,26.589029,26.601042,264806.000000,1670927975.477022
1670927975.543410,,,,26.570999,26.583492,264807.000000,1670927975.478029
1670927975.543720,,,,26.554987,26.564909,264808.000000,1670927975.479036
1670927975.543841,,,,26.552006,26.561495,264809.000000,1670927975.480043
1670927975.543971,,,,26.552992,26.561663,264810.000000,1670927975.481050
1670927975.544128,,,,26.559820,26.570366,264811.000000,1670927975.482057
1670927975.544251,,,,26.572634,26.583612,264812.000000,1670927975.483064
1670927975.544263,,,,26.576551,26.587315,264813.000000,1670927975.484071
1670927975.544465,,,,26.558882,26.568321,264814.000000,1670927975.485078
1670927975.544664,,,,26.499454,26.510504,264815.000000,1670927975.486085
1670927975.544674,,,,26.418486,26.429920,264816.000000,1670927975.487092
1670927975.544988,,,,26.383387,26.393187,264817.000000,1670927975.488100
1670927975.545126,,,,26.391968,26.401552,264818.000000,1670927975.489107
1670927975.546143,,,,26.474379,26.486897,264821.000000,1670927975.492128
1670927975.546214,,,,26.520706,26.531565,264822.000000,1670927975.493135
1670927975.546223,,,,26.555275,26.562984,264823.000000,1670927975.494142
1670927975.546245,,,,26.579485,26.591160,264824.000000,1670927975.495149
1670927975.546251,,,,26.602299,26.612749,264825.000000,1670927975.496156
1670927975.546261,,,,26.619488,26.631788,264826.000000,1670927975.497163
1670927975.546312,,,,26.632301,26.646214,264827.000000,1670927975.498170
1670927975.546319,,,,26.644466,26.653545,264828.000000,1670927975.499177
1670927975.546324,,,,26.668121,26.676096,264829.000000,1670927975.500185
1670927975.546375,,,,26.691538,26.699896,264830.000000,1670927975.501192
1670927975.549767,,,,26.706612,26.715570,264831.000000,1670927975.502199
1670927975.550334,,,,26.693388,26.701868,264832.000000,1670927975.503206
1670927975.550353,,,,26.653217,26.665085,264833.000000,1670927975.504213
1670927975.550363,,,,26.643312,26.654219,264834.000000,1670927975.505220
1670927975.550537,,,,26.636990,26.646166,264835.000000,1670927975.506227
1670927975.550549,,,,26.624224,26.632414,264836.000000,1670927975.507234
1670927975.550564,,,,26.618141,26.625851,264837.000000,1670927975.508241
1670927975.551636,,,,26.614056,26.624889,264838.000000,1670927975.509248
1670927975.551807,,,,26.611458,26.620081,264839.000000,1670927975.510255
1670927975.552055,,,,26.604319,26.616547,264840.000000,1670927975.511262
1670927975.552313,,,,26.595953,26.608374,264841.000000,1670927975.512269
1670927975.557479,,,,26.557680,26.568514,264842.000000,1670927975.513277
1670927975.557619,,,,26.491207,26.501490,264843.000000,1670927975.514284
1670927975.557863,,,,26.468128,26.478073,264844.000000,1670927975.515291
1670927975.558631,,,,26.481327,26.493027,264845.000000,1670927975.516298
1670927975.558647,,,,26.493372,26.501392,264846.000000,1670927975.517305
1670927975.558843,,,,26.508156,26.516899,264847.000000,1670927975.518312
1670927975.558862,,,,26.527725,26.536781,264848.000000,1670927975.519319
1670927975.558884,,,,26.562056,26.572266,264849.000000,1670927975.520326
1670927975.558895,,,,26.597202,26.608326,264850.000000,1670927975.521333
1670927975.558907,,,,26.614536,26.625227,264851.000000,1670927975.522340
1670927975.559190,,,,26.624922,26.636597,264852.000000,1670927975.523347
1670927975.559461,,,,26.639585,26.647415,264853.000000,1670927975.524354
1670927975.559740,,,,26.644299,26.652031,264854.000000,1670927975.525362
1670927975.560075,,,,26.642664,26.653618,264855.000000,1670927975.526369
1670927975.591484,,,,26.644995,26.655685,264856.000000,1670927975.527376
1670927975.592034,,,,26.631124,26.642992,264857.000000,1670927975.528383
1670927975.592322,,,,26.620041,26.632126,264858.000000,1670927975.529390
1670927975.592511,,,,26.618862,26.629240,264859.000000,1670927975.530397
1670927975.592749,,,,26.617085,26.628136,264860.000000,1670927975.531404
1670927975.592870,0.787457,264192.000000,1670927975.531833,,,,
1670927975.593273,,,,26.610041,26.619913,264861.000000,1670927975.532411
1670927975.593286,0.841724,264193.000000,1670927975.532833,,,,
1670927975.593499,,,,26.607805,26.617052,264862.000000,1670927975.533418
1670927975.593517,,,,26.604534,26.616236,264863.000000,1670927975.534425
1670927975.593524,,,,26.603910,26.614912,264864.000000,1670927975.535432
1670927975.593532,,,,26.602539,26.612869,264865.000000,1670927975.536439
1670927975.593586,0.823635,264194.000000,1670927975.533833,,,,
1670927975.593626,,,,26.603430,26.615826,264866.000000,1670927975.537446
1670927975.594066,,,,26.605185,26.614962,264867.000000,1670927975.538454
1670927975.594432,,,,26.600449,26.611187,264868.000000,1670927975.539461
1670927975.594604,0.805546,264195.000000,1670927975.534833,,,,
1670927975.594901,,,,26.596914,26.608253,264869.000000,1670927975.540468
1670927975.595158,2.180397,264227.000000,1670927975.566833,,,,
1670927975.595488,,,,26.596241,26.607485,264870.000000,1670927975.541475
1670927975.595997,,,,26.586864,26.596233,264871.000000,1670927975.542482
1670927975.596017,,,,26.582729,26.593468,264872.000000,1670927975.543489
1670927975.596035,,,,26.582394,26.594191,264873.000000,1670927975.544496
1670927975.596151,2.162308,264228.000000,1670927975.567833,,,,
1670927975.596172,2.270842,264229.000000,1670927975.568833,,,,
1670927975.596180,2.288939,264230.000000,1670927975.569833,,,,
1670927975.596191,2.343206,264231.000000,1670927975.570833,,,,
1670927975.596202,2.433660,264232.000000,1670927975.571833,,,,
1670927975.596214,2.506016,264233.000000,1670927975.572833,,,,
1670927975.596497,2.524105,264234.000000,1670927975.573833,,,,
1670927975.596512,2.578381,264235.000000,1670927975.574833,,,,
1670927975.596519,2.632648,264236.000000,1670927975.575833,,,,
1670927975.596603,3.048721,264243.000000,1670927975.582833,,,,
1670927975.596615,3.066810,264244.000000,1670927975.583833,,,,
1670927975.596624,3.229620,264245.000000,1670927975.584833,,,,
1670927975.596642,3.229620,264246.000000,1670927975.585833,,,,
1670927975.596651,3.283895,264247.000000,1670927975.586833,,,,
1670927975.596683,3.392429,264248.000000,1670927975.587833,,,,
1670927975.596691,3.464794,264249.000000,1670927975.588833,,,,
1670927975.596740,3.519061,264250.000000,1670927975.589833,,,,
1670927975.596748,3.555247,264251.000000,1670927975.590833,,,,
1670927975.596788,3.663782,264252.000000,1670927975.591833,,,,
1670927975.596815,,,,26.579437,26.588469,264874.000000,1670927975.545503
1670927975.596982,,,,26.580494,26.587795,264875.000000,1670927975.546510
1670927975.597234,,,,26.581385,26.591545,264876.000000,1670927975.547517
1670927975.597461,,,,26.584822,26.592218,264877.000000,1670927975.548524
1670927975.597830,,,,26.584894,26.593950,264878.000000,1670927975.549531
1670927975.598138,,,,26.584990,26.592676,264879.000000,1670927975.550539
1670927975.598370,,,,26.593813,26.601810,264880.000000,1670927975.551546
1670927975.598697,,,,26.597107,26.604624,264881.000000,1670927975.552553
1670927975.598810,,,,26.602877,26.614071,264882.000000,1670927975.553560
1670927975.599442,,,,26.608429,26.620346,264883.000000,1670927975.554567
1670927975.599563,,,,26.604919,26.617125,264884.000000,1670927975.555574
1670927975.599572,,,,26.594629,26.608133,264885.000000,1670927975.556581
1670927975.599788,,,,26.582249,26.594791,264886.000000,1670927975.557588
1670927975.599797,,,,26.547560,26.556952,264887.000000,1670927975.558595
1670927975.599802,,,,26.525177,26.532406,264888.000000,1670927975.559602
1670927975.599844,,,,26.525370,26.532093,264889.000000,1670927975.560609
1670927975.599958,,,,26.536692,26.546541,264890.000000,1670927975.561616
1670927975.599972,,,,26.552919,26.564043,264891.000000,1670927975.562624
1670927975.599978,,,,26.574100,26.581617,264892.000000,1670927975.563631
1670927975.600012,,,,26.572536,26.580631,264893.000000,1670927975.564638
1670927975.600017,,,,26.566792,26.574091,264894.000000,1670927975.565645
1670927975.600026,,,,26.565878,26.574909,264895.000000,1670927975.566652
1670927975.601692,,,,26.555758,26.564259,264896.000000,1670927975.567659
1670927975.601880,,,,26.557295,26.566111,264897.000000,1670927975.568666
1670927975.609382,,,,26.541573,26.553200,264898.000000,1670927975.569673
1670927975.609685,,,,26.528734,26.539715,264899.000000,1670927975.570680
1670927975.609884,,,,26.525272,26.536228,264900.000000,1670927975.571687
1670927975.610015,,,,26.487312,26.499397,264901.000000,1670927975.572694
1670927975.611831,,,,26.467575,26.477617,264902.000000,1670927975.573701
1670927975.612218,,,,26.442165,26.450283,264903.000000,1670927975.574708
1670927975.612240,,,,26.439280,26.448240,264904.000000,1670927975.575716
1670927975.612375,,,,26.494982,26.503870,264905.000000,1670927975.576723
1670927975.616816,,,,26.573835,26.584549,264906.000000,1670927975.577730
1670927975.617000,,,,26.613045,26.624649,264907.000000,1670927975.578737
1670927975.617082,,,,26.621773,26.635588,264908.000000,1670927975.579744
1670927975.619067,,,,26.615618,26.625107,264909.000000,1670927975.580751
1670927975.619173,,,,26.603260,26.610922,264910.000000,1670927975.581758
1670927975.619274,,,,26.574509,26.584934,264911.000000,1670927975.582765
1670927975.619380,,,,26.534361,26.544210,264912.000000,1670927975.583772
1670927975.648612,,,,26.554531,26.562096,264913.000000,1670927975.584779
1670927975.648913,,,,26.598524,26.607292,264914.000000,1670927975.585786
1670927975.648935,,,,26.641726,26.653090,264915.000000,1670927975.586793
1670927975.648976,,,,26.669613,26.680544,264916.000000,1670927975.587801
1670927975.651281,10.357128,264304.000000,1670927975.638912,,,,
1670927975.651303,10.574214,264305.000000,1670927975.639912,,,,
1670927975.651326,10.737023,264306.000000,1670927975.640912,,,,
1670927975.651338,10.845566,264307.000000,1670927975.641912,,,,
1670927975.651346,11.044554,264308.000000,1670927975.642912,,,,
1670927975.651378,11.189275,264309.000000,1670927975.643912,,,,
1670927975.651470,11.352084,264310.000000,1670927975.644912,,,,
1670927975.651477,11.532991,264311.000000,1670927975.645912,,,,
1670927975.651483,11.731979,264312.000000,1670927975.646912,,,,
1670927975.651488,11.840522,264313.000000,1670927975.647912,,,,
1670927975.654224,,,,26.680384,26.690231,264917.000000,1670927975.588808
1670927975.654581,,,,26.671440,26.682804,264918.000000,1670927975.589815
1670927975.654596,,,,26.660982,26.670206,264919.000000,1670927975.590822
1670927975.654602,,,,26.673122,26.684799,264920.000000,1670927975.591829
1670927975.656569,,,,26.667280,26.678116,264921.000000,1670927975.592836
1670927975.656792,,,,26.651052,26.658594,264922.000000,1670927975.593843
1670927975.662237,,,,26.643818,26.651382,264923.000000,1670927975.594850
1670927975.662362,,,,26.640476,26.647200,264924.000000,1670927975.595857
1670927975.662547,,,,26.635571,26.642199,264925.000000,1670927975.596864
1670927975.662722,,,,26.628239,26.636429,264926.000000,1670927975.597871
1670927975.662773,,,,26.608887,26.619480,264927.000000,1670927975.598878
1670927975.664404,,,,26.573307,26.583900,264928.000000,1670927975.599885
1670927975.664832,,,,26.553593,26.561014,264929.000000,1670927975.600893
1670927975.669689,,,,26.550491,26.559332,264930.000000,1670927975.601900
1670927975.670075,,,,26.536596,26.544691,264931.000000,1670927975.602907
1670927975.670366,,,,26.522413,26.531395,264932.000000,1670927975.603914
1670927975.670596,,,,26.540852,26.547768,264933.000000,1670927975.604921
1670927975.671767,,,,26.554604,26.562624,264934.000000,1670927975.605928
1670927975.671865,,,,26.558929,26.568346,264935.000000,1670927975.606935
1670927975.671896,,,,26.560061,26.568707,264936.000000,1670927975.607942
1670927975.671919,,,,26.558882,26.569765,264937.000000,1670927975.608949
1670927975.676875,,,,26.563112,26.574814,264938.000000,1670927975.609956
1670927975.676916,,,,26.561214,26.570654,264939.000000,1670927975.610963
1670927975.677042,,,,26.578451,26.587578,264940.000000,1670927975.611970
1670927975.677157,,,,26.604799,26.613928,264941.000000,1670927975.612978
1670927975.702652,,,,26.615160,26.624481,264942.000000,1670927975.613985
1670927975.702668,,,,26.614416,26.624456,264943.000000,1670927975.614992
1670927975.702783,,,,26.625858,26.636116,264944.000000,1670927975.615999
1670927975.702879,,,,26.629560,26.641237,264945.000000,1670927975.617006
1670927975.703926,,,,26.630812,26.639315,264954.000000,1670927975.626070
1670927975.703978,,,,26.627302,26.637608,264955.000000,1670927975.627077
1670927975.703984,,,,26.628599,26.638834,264956.000000,1670927975.628084
1670927975.704059,,,,26.621628,26.629120,264957.000000,1670927975.629091
1670927975.704072,,,,26.603453,26.612316,264958.000000,1670927975.630098
1670927975.704076,,,,26.599415,26.607220,264959.000000,1670927975.631105
1670927975.704098,,,,26.596361,26.606594,264960.000000,1670927975.632112
1670927975.704146,,,,26.588596,26.598734,264961.000000,1670927975.633119
1670927975.704151,,,,26.595255,26.603302,264962.000000,1670927975.634126
1670927975.704209,,,,26.591385,26.600681,264963.000000,1670927975.635133
1670927975.704220,,,,26.584846,26.598083,264964.000000,1670927975.636140
1670927975.704425,,,,26.586336,26.599094,264965.000000,1670927975.637147
1670927975.708203,,,,26.554411,26.564138,264966.000000,1670927975.638155
1670927975.708219,,,,26.516691,26.525675,264967.000000,1670927975.639162
1670927975.708230,,,,26.494333,26.502163,264968.000000,1670927975.640169
1670927975.708234,,,,26.466566,26.479059,264969.000000,1670927975.641176
1670927975.715256,23.508648,264365.000000,1670927975.704072,,,,
1670927975.715270,23.834276,264366.000000,1670927975.705073,,,,
1670927975.715282,24.159895,264367.000000,1670927975.706073,,,,
1670927975.715291,24.449337,264368.000000,1670927975.707072,,,,
1670927975.715300,24.756866,264369.000000,1670927975.708072,,,,
1670927975.715360,25.046309,264370.000000,1670927975.709073,,,,
1670927975.715400,25.335751,264371.000000,1670927975.710073,,,,
1670927975.715405,25.661377,264372.000000,1670927975.711072,,,,
1670927975.715407,25.950819,264373.000000,1670927975.712073,,,,
1670927975.715428,26.294527,264374.000000,1670927975.713073,,,,
1670927975.722069,,,,26.480774,26.492691,264970.000000,1670927975.642183
1670927975.722408,,,,26.488997,26.499807,264971.000000,1670927975.643190
1670927975.722429,,,,26.484621,26.495888,264972.000000,1670927975.644197
1670927975.726444,,,,26.504093,26.512741,264973.000000,1670927975.645204
1670927975.726760,,,,26.532701,26.542143,264974.000000,1670927975.646211
1670927975.727111,,,,26.575951,26.585896,264975.000000,1670927975.647218
1670927975.727363,,,,26.552704,26.561975,264976.000000,1670927975.648225
1670927975.727665,,,,26.446756,26.457855,264977.000000,1670927975.649232
1670927975.728066,,,,26.363432,26.373522,264978.000000,1670927975.650239
1670927975.728466,,,,26.345474,26.355179,264979.000000,1670927975.651247
1670927975.728773,,,,26.382496,26.393379,264980.000000,1670927975.652254
1670927975.729587,,,,26.443102,26.454611,264981.000000,1670927975.653261
1670927975.729608,,,,26.512459,26.524015,264982.000000,1670927975.654268
1670927975.729906,,,,26.609127,26.617966,264983.000000,1670927975.655275
1670927975.733845,,,,26.698654,26.706940,264984.000000,1670927975.656282
1670927975.734580,,,,26.764524,26.771175,264985.000000,1670927975.657289
1670927975.734639,,,,26.755125,26.763123,264986.000000,1670927975.658296
1670927975.734650,,,,26.729425,26.740429,264987.000000,1670927975.659303
1670927975.737252,,,,26.720482,26.730043,264988.000000,1670927975.660310
1670927975.737623,,,,26.673410,26.685087,264989.000000,1670927975.661317
1670927975.737927,,,,26.580519,26.590391,264990.000000,1670927975.662324
1670927975.738099,,,,26.512964,26.523920,264991.000000,1670927975.663332
1670927975.738159,,,,26.498156,26.505817,264992.000000,1670927975.664339
1670927975.738404,,,,26.498035,26.504639,264993.000000,1670927975.665346
1670927975.738643,,,,26.505848,26.514591,264994.000000,1670927975.666353
1670927975.760780,,,,26.563257,26.570534,264995.000000,1670927975.667360
1670927975.760804,,,,26.599775,26.606667,264996.000000,1670927975.668367
1670927975.761204,,,,26.625235,26.635275,264997.000000,1670927975.669374
1670927975.761223,,,,26.651365,26.661310,264998.000000,1670927975.670381
1670927975.767914,26.638245,264375.000000,1670927975.707280,,,,
1670927975.768001,26.927687,264376.000000,1670927975.708280,,,,
1670927975.768202,27.235216,264377.000000,1670927975.709280,,,,
1670927975.768384,27.633200,264378.000000,1670927975.710280,,,,
1670927975.769206,27.922642,264379.000000,1670927975.711280,,,,
1670927975.769223,28.212084,264380.000000,1670927975.712280,,,,
1670927975.769234,28.519613,264381.000000,1670927975.713280,,,,
1670927975.769240,28.863331,264382.000000,1670927975.714280,,,,
1670927975.769245,29.152773,264383.000000,1670927975.715280,,,,
1670927975.769272,29.478392,264384.000000,1670927975.716280,,,,
1670927975.769278,29.822109,264385.000000,1670927975.717280,,,,
1670927975.769284,43.082161,264426.000000,1670927975.758280,,,,
1670927975.769288,43.443970,264427.000000,1670927975.759280,,,,
1670927975.769312,43.841953,264428.000000,1670927975.760280,,,,
1670927975.769321,44.077126,264429.000000,1670927975.761280,,,,
1670927975.769329,44.384655,264430.000000,1670927975.762280,,,,
1670927975.769360,44.692188,264431.000000,1670927975.763280,,,,
1670927975.769370,44.927361,264432.000000,1670927975.764280,,,,
1670927975.769377,45.271069,264433.000000,1670927975.765280,,,,
1670927975.769384,45.578602,264434.000000,1670927975.766280,,,,
1670927975.769401,45.868042,264435.000000,1670927975.767280,,,,
1670927975.770272,,,,26.665525,26.676624,264999.000000,1670927975.671388
1670927975.770407,,,,26.668219,26.677898,265000.000000,1670927975.672395
1670927975.770418,,,,26.665430,26.677010,265001.000000,1670927975.673402
1670927975.770535,,,,26.650284,26.663643,265002.000000,1670927975.674409
1670927975.770697,,,,26.618551,26.627750,265003.000000,1670927975.675416
1670927975.770825,,,,26.569653,26.578226,265004.000000,1670927975.676424
1670927975.770991,,,,26.524191,26.535460,265005.000000,1670927975.677431
1670927975.771133,,,,26.456253,26.464275,265006.000000,1670927975.678438
1670927975.771239,,,,26.415527,26.425642,265007.000000,1670927975.679445
1670927975.771430,,,,26.444979,26.455812,265008.000000,1670927975.680452
1670927975.771581,,,,26.492025,26.502451,265009.000000,1670927975.681459
1670927975.772787,,,,26.676176,26.686434,265017.000000,1670927975.689516
1670927975.772840,,,,26.643553,26.653112,265018.000000,1670927975.690523
1670927975.772982,,,,26.622997,26.634794,265019.000000,1670927975.691530
1670927975.772991,,,,26.620474,26.633448,265020.000000,1670927975.692537
1670927975.773254,,,,26.604895,26.617317,265021.000000,1670927975.693544
1670927975.773268,,,,26.585928,26.597002,265022.000000,1670927975.694551
1670927975.773273,,,,26.582081,26.593588,265023.000000,1670927975.695558
1670927975.773284,,,,26.575085,26.585535,265024.000000,1670927975.696565
1670927975.773304,,,,26.554844,26.563705,265025.000000,1670927975.697572
1670927975.773311,,,,26.531885,26.541109,265026.000000,1670927975.698579
1670927975.773320,,,,26.541670,26.550388,265027.000000,1670927975.699586
1670927975.774538,,,,26.540178,26.551422,265028.000000,1670927975.700593
1670927975.774548,,,,26.497074,26.508461,265029.000000,1670927975.701601
1670927975.774728,,,,26.465460,26.476463,265030.000000,1670927975.702608
1670927975.774917,,,,26.450556,26.458769,265031.000000,1670927975.703615
1670927975.775131,,,,26.406176,26.416122,265032.000000,1670927975.704622
1670927975.775325,,,,26.339464,26.346741,265033.000000,1670927975.705629
1670927975.776748,,,,26.284050,26.293058,265034.000000,1670927975.706636
1670927975.777195,,,,26.302225,26.310848,265035.000000,1670927975.707643
1670927975.777205,,,,26.386608,26.394318,265036.000000,1670927975.708650
1670927975.777269,,,,26.480631,26.489590,265037.000000,1670927975.709657
1670927975.790059,,,,26.566023,26.574644,265038.000000,1670927975.710664
1670927975.790328,,,,26.607082,26.618639,265039.000000,1670927975.711671
1670927975.790348,,,,26.633768,26.643185,265040.000000,1670927975.712678
1670927975.790355,,,,26.658554,26.668474,265041.000000,1670927975.713686
1670927975.790748,,,,26.683821,26.693285,265042.000000,1670927975.714693
1670927975.791174,,,,26.689182,26.699223,265043.000000,1670927975.715700
1670927975.791439,,,,26.703533,26.713335,265044.000000,1670927975.716707
1670927975.791815,,,,26.699375,26.708021,265045.000000,1670927975.717714
1670927975.792241,,,,26.685961,26.696892,265046.000000,1670927975.718721
1670927975.792502,,,,26.685455,26.696651,265047.000000,1670927975.719728
1670927975.796940,,,,26.689999,26.698982,265048.000000,1670927975.720735
1670927975.797197,,,,26.687618,26.696169,265049.000000,1670927975.721742
1670927975.797561,,,,26.668386,26.678789,265050.000000,1670927975.722749
1670927975.797933,,,,26.640139,26.648809,265051.000000,1670927975.723756
1670927975.800157,,,,26.606361,26.612221,265052.000000,1670927975.724763
1670927975.800527,,,,26.547295,26.553080,265053.000000,1670927975.725770
1670927975.800835,,,,26.517941,26.528584,265054.000000,1670927975.726778
1670927975.801156,,,,26.514719,26.526588,265055.000000,1670927975.727785
1670927975.801442,,,,26.486689,26.495119,265056.000000,1670927975.728792
1670927975.801645,,,,26.396704,26.407154,265057.000000,1670927975.729799
1670927975.802311,,,,26.342228,26.355274,265058.000000,1670927975.730806
1670927975.802862,,,,26.366293,26.378113,265059.000000,1670927975.731813
1670927975.803119,,,,26.401537,26.410328,265060.000000,1670927975.732820
1670927975.803144,,,,26.453873,26.465670,265061.000000,1670927975.733827
1670927975.803163,,,,26.526957,26.538584,265062.000000,1670927975.734834
1670927975.803422,,,,26.567778,26.577482,265063.000000,1670927975.735841
1670927975.803437,,,,26.642326,26.651407,265064.000000,1670927975.736848
1670927975.803456,,,,26.728079,26.735836,265065.000000,1670927975.737855
1670927975.816555,,,,26.743465,26.754349,265066.000000,1670927975.738863
1670927975.816617,,,,26.723969,26.735043,265067.000000,1670927975.739870
1670927975.816671,,,,26.728344,26.736341,265068.000000,1670927975.740877
1670927975.816799,,,,26.725676,26.734081,265069.000000,1670927975.741884
1670927975.816838,,,,26.712284,26.722759,265070.000000,1670927975.742891
1670927975.816998,,,,26.682186,26.693165,265071.000000,1670927975.743898
1670927975.817116,,,,26.647303,26.656143,265072.000000,1670927975.744905
1670927975.817233,,,,26.632086,26.643593,265073.000000,1670927975.745912
1670927975.817540,,,,26.628456,26.642126,265074.000000,1670927975.746919
1670927975.817554,,,,26.609703,26.619841,265075.000000,1670927975.747926
1670927975.817559,,,,26.570927,26.579309,265076.000000,1670927975.748933
1670927975.817840,,,,26.466085,26.474876,265077.000000,1670927975.749940
1670927975.817912,,,,26.342325,26.353664,265078.000000,1670927975.750947
1670927975.818114,,,,26.243158,26.252645,265079.000000,1670927975.751955
1670927975.818212,,,,26.230776,26.240313,265080.000000,1670927975.752962
1670927975.818325,,,,26.262030,26.274450,265081.000000,1670927975.753969
1670927975.818431,,,,26.352783,26.368137,265082.000000,1670927975.754976
1670927975.818566,,,,26.496304,26.510746,265083.000000,1670927975.755983
1670927975.818726,,,,26.628456,26.638161,265084.000000,1670927975.756990
1670927975.819422,,,,26.684975,26.695208,265092.000000,1670927975.765047
1670927975.819434,,,,26.673243,26.683981,265093.000000,1670927975.766054
1670927975.819442,,,,26.676970,26.688404,265094.000000,1670927975.767061
1670927975.819630,,,,26.666512,26.676384,265095.000000,1670927975.768068
1670927975.819637,,,,26.648769,26.658186,265096.000000,1670927975.769075
1670927975.819660,,,,26.636003,26.645613,265097.000000,1670927975.770082
1670927975.819669,,,,26.630161,26.640709,265098.000000,1670927975.771089
1670927975.819674,,,,26.624561,26.635756,265099.000000,1670927975.772096
1670927975.819682,,,,26.617708,26.628712,265100.000000,1670927975.773103
1670927975.819689,,,,26.601097,26.611307,265101.000000,1670927975.774110
1670927975.828177,,,,26.578716,26.586496,265102.000000,1670927975.775117
1670927975.828403,,,,26.532413,26.541492,265103.000000,1670927975.776124
1670927975.828649,,,,26.483370,26.493965,265104.000000,1670927975.777132
1670927975.828797,,,,26.474068,26.481319,265105.000000,1670927975.778139
1670927975.829070,,,,26.480726,26.487185,265106.000000,1670927975.779146
1670927975.829131,,,,26.469379,26.478193,265107.000000,1670927975.780153
1670927975.837840,,,,26.471640,26.483652,265108.000000,1670927975.781160
1670927975.837842,,,,26.496161,26.507692,265109.000000,1670927975.782167
1670927975.837844,,,,26.539793,26.550100,265110.000000,1670927975.783174
1670927975.837852,,,,26.618359,26.628256,265111.000000,1670927975.784181
1670927975.837856,,,,26.665310,26.674053,265112.000000,1670927975.785188
1670927975.837860,,,,26.678411,26.687756,265113.000000,1670927975.786195
1670927975.837871,,,,26.692163,26.702541,265114.000000,1670927975.787202
1670927975.841668,,,,26.694111,26.703791,265115.000000,1670927975.788209
1670927975.841880,,,,26.674011,26.682972,265116.000000,1670927975.789217
1670927975.841949,,,,26.648769,26.660542,265117.000000,1670927975.790224
1670927975.842053,,,,26.629778,26.641645,265118.000000,1670927975.791231
1670927975.844131,,,,26.628311,26.638762,265119.000000,1670927975.792238
1670927975.844173,,,,26.638023,26.648594,265120.000000,1670927975.793245
1670927975.844387,55.510078,264487.000000,1670927975.833948,,,,
1670927975.844394,55.582443,264488.000000,1670927975.834948,,,,
1670927975.844397,55.636711,264489.000000,1670927975.835948,,,,
1670927975.844399,55.690987,264490.000000,1670927975.836948,,,,
1670927975.844410,55.745251,264491.000000,1670927975.837948,,,,
1670927975.844419,55.763340,264492.000000,1670927975.838948,,,,
1670927975.844424,55.853794,264493.000000,1670927975.839948,,,,
1670927975.844427,55.944241,264494.000000,1670927975.840948,,,,
1670927975.844460,55.980427,264495.000000,1670927975.841948,,,,
1670927975.844468,55.998516,264496.000000,1670927975.842948,,,,
1670927975.844490,,,,26.632854,26.644171,265121.000000,1670927975.794252
1670927975.844504,,,,26.611458,26.624842,265122.000000,1670927975.795259
1670927975.849676,,,,26.573835,26.585655,265123.000000,1670927975.796266
1670927975.849723,,,,26.547871,26.560966,265124.000000,1670927975.797273
1670927975.849736,,,,26.546862,26.556519,265125.000000,1670927975.798280
1670927975.849770,,,,26.549314,26.561182,265126.000000,1670927975.799287
1670927975.853102,,,,26.550804,26.560606,265127.000000,1670927975.800294
1670927975.853838,,,,26.561647,26.570028,265128.000000,1670927975.801301
1670927975.853852,,,,26.573931,26.582098,265129.000000,1670927975.802309
1670927975.853858,,,,26.600183,26.609095,265130.000000,1670927975.803316
1670927975.854107,,,,26.598284,26.609575,265131.000000,1670927975.804323
1670927975.854278,,,,26.558233,26.569765,265132.000000,1670927975.805330
1670927975.854447,,,,26.520176,26.527525,265133.000000,1670927975.806337
1670927975.854827,,,,26.515345,26.526659,265134.000000,1670927975.807344
1670927975.855332,,,,26.519312,26.529737,265135.000000,1670927975.808351
1670927975.855352,,,,26.501810,26.509928,265136.000000,1670927975.809358
1670927975.855573,,,,26.496136,26.507620,265137.000000,1670927975.810365
1670927975.856284,,,,26.545803,26.554956,265138.000000,1670927975.811372
1670927975.856339,,,,26.570036,26.580486,265139.000000,1670927975.812379
1670927975.856540,,,,26.600592,26.610947,265140.000000,1670927975.813386
1670927975.856558,,,,26.641678,26.650131,265141.000000,1670927975.814394
1670927975.856614,,,,26.661776,26.672226,265142.000000,1670927975.815401
1670927975.856798,,,,26.668964,26.677971,265143.000000,1670927975.816408
1670927975.856964,,,,26.660717,26.671600,265144.000000,1670927975.817415
1670927975.857130,,,,26.659468,26.668354,265145.000000,1670927975.818422
1670927975.857147,,,,26.654131,26.663618,265146.000000,1670927975.819429
1670927975.857475,,,,26.645115,26.655926,265147.000000,1670927975.820436
1670927975.864602,,,,26.634754,26.644194,265148.000000,1670927975.821443
1670927975.864876,,,,26.616554,26.625370,265149.000000,1670927975.822450
1670927975.864894,,,,26.599678,26.607580,265150.000000,1670927975.823457
1670927975.866747,,,,26.576096,26.583805,265151.000000,1670927975.824464
1670927975.866990,,,,26.547583,26.559643,265152.000000,1670927975.825471
1670927975.867136,,,,26.511377,26.521587,265153.000000,1670927975.826478
1670927975.867340,,,,26.492506,26.502090,265154.000000,1670927975.827486
1670927975.889020,,,,26.494789,26.504038,265155.000000,1670927975.828493
1670927975.889040,,,,26.512699,26.524040,265156.000000,1670927975.829500
1670927975.889329,,,,26.552366,26.562962,265157.000000,1670927975.830507
1670927975.889875,,,,26.591698,26.599190,265158.000000,1670927975.831514
1670927975.889889,,,,26.604414,26.613758,265159.000000,1670927975.832521
1670927975.889902,,,,26.647711,26.656984,265160.000000,1670927975.833528
1670927975.890171,,,,26.655428,26.664341,265161.000000,1670927975.834535
1670927975.896397,,,,26.588163,26.600416,265162.000000,1670927975.835542
1670927975.896420,,,,26.503780,26.511875,265163.000000,1670927975.836549
1670927975.896439,,,,26.486977,26.493748,265164.000000,1670927975.837556
1670927975.899558,57.644711,264548.000000,1670927975.888085,,,,
1670927975.899587,57.717083,264549.000000,1670927975.889086,,,,
1670927975.899610,57.753262,264550.000000,1670927975.890085,,,,
1670927975.899672,57.753262,264551.000000,1670927975.891085,,,,
1670927975.899839,57.753262,264552.000000,1670927975.892085,,,,
1670927975.899929,57.807529,264553.000000,1670927975.893085,,,,
1670927975.899949,57.825619,264554.000000,1670927975.894085,,,,
1670927975.899962,57.861797,264555.000000,1670927975.895085,,,,
1670927975.899976,57.861797,264556.000000,1670927975.896086,,,,
1670927975.899993,57.861797,264557.000000,1670927975.897085,,,,
1670927975.902194,,,,26.486376,26.496441,265165.000000,1670927975.838563
1670927975.902220,,,,26.483635,26.494638,265166.000000,1670927975.839571
1670927975.902558,,,,26.507723,26.520361,265167.000000,1670927975.840578
1670927975.903055,,,,26.500319,26.509254,265168.000000,1670927975.841585
1670927975.911632,,,,26.466759,26.473362,265169.000000,1670927975.842592
1670927975.911747,,,,26.457672,26.466150,265170.000000,1670927975.843599
1670927975.911941,,,,26.474451,26.484686,265171.000000,1670927975.844606
1670927975.912042,,,,26.511402,26.522429,265172.000000,1670927975.845613
1670927975.912189,,,,26.582346,26.590246,265173.000000,1670927975.846620
1670927975.912462,,,,26.610954,26.619265,265174.000000,1670927975.847627
1670927975.912635,,,,26.646606,26.656887,265175.000000,1670927975.848634
1670927975.912643,,,,26.655741,26.665878,265176.000000,1670927975.849641
1670927975.912656,,,,26.688099,26.701675,265177.000000,1670927975.850648
1670927975.912896,,,,26.725410,26.737207,265178.000000,1670927975.851655
1670927975.912905,,,,26.723728,26.735716,265179.000000,1670927975.852663
1670927975.913112,,,,26.700697,26.710234,265180.000000,1670927975.853670
1670927975.913126,,,,26.667833,26.676865,265181.000000,1670927975.854677
1670927975.913254,,,,26.639538,26.648977,265182.000000,1670927975.855684
1670927975.914071,,,,26.615425,26.621981,265187.000000,1670927975.860719
1670927975.914080,,,,26.613575,26.622967,265188.000000,1670927975.861726
1670927975.914107,,,,26.586191,26.596354,265189.000000,1670927975.862733
1670927975.914111,,,,26.531042,26.541277,265190.000000,1670927975.863740
1670927975.914216,,,,26.497097,26.507956,265191.000000,1670927975.864748
1670927975.914225,,,,26.496424,26.506874,265192.000000,1670927975.865755
1670927975.914340,,,,26.501064,26.510674,265193.000000,1670927975.866762
1670927975.914347,,,,26.496376,26.505119,265194.000000,1670927975.867769
1670927975.914376,,,,26.553497,26.563105,265195.000000,1670927975.868776
1670927975.914383,,,,26.502123,26.510263,265196.000000,1670927975.869783
1670927975.919395,,,,26.428823,26.437181,265197.000000,1670927975.870790
1670927975.919558,,,,26.432285,26.441267,265198.000000,1670927975.871797
1670927975.919773,,,,26.488178,26.501272,265199.000000,1670927975.872804
1670927975.920029,,,,26.547318,26.560894,265200.000000,1670927975.873811
1670927975.924520,,,,26.532438,26.542023,265201.000000,1670927975.874818
1670927975.924844,,,,26.506258,26.516298,265202.000000,1670927975.875825
1670927975.924965,,,,26.529192,26.539162,265203.000000,1670927975.876832
1670927975.927011,,,,26.571575,26.579983,265204.000000,1670927975.877840
1670927975.927298,,,,26.598429,26.608446,265205.000000,1670927975.878847
1670927975.927463,,,,26.604607,26.614384,265206.000000,1670927975.879854
1670927975.927699,,,,26.641100,26.651262,265207.000000,1670927975.880861
1670927975.927912,,,,26.656174,26.667633,265208.000000,1670927975.881868
1670927975.927986,,,,26.646389,26.657633,265209.000000,1670927975.882875
1670927975.928403,,,,26.639465,26.651382,265210.000000,1670927975.883882
1670927975.928419,,,,26.680887,26.692827,265211.000000,1670927975.884889
1670927975.932273,,,,26.708342,26.720522,265212.000000,1670927975.885896
1670927975.932528,,,,26.691778,26.702229,265213.000000,1670927975.886903
1670927975.932537,,,,26.650524,26.662128,265214.000000,1670927975.887910
1670927975.932549,,,,26.623671,26.633232,265215.000000,1670927975.888917
1670927975.934727,,,,26.610785,26.619818,265216.000000,1670927975.889925
1670927975.934742,,,,26.602203,26.612051,265217.000000,1670927975.890932
1670927975.934931,,,,26.599535,26.610634,265218.000000,1670927975.891939
1670927975.935099,,,,26.616074,26.626764,265219.000000,1670927975.892946
1670927975.935276,,,,26.613935,26.624817,265220.000000,1670927975.893953
1670927975.935283,,,,26.599102,26.610176,265221.000000,1670927975.894960
1670927975.962112,,,,26.593115,26.603903,265222.000000,1670927975.895967
1670927975.962247,,,,26.588188,26.597483,265223.000000,1670927975.896974
1670927975.962497,,,,26.534529,26.545507,265224.000000,1670927975.897981
1670927975.962671,,,,26.428799,26.438238,265225.000000,1670927975.898988
1670927975.963023,57.897972,264558.000000,1670927975.901876,,,,
1670927975.963124,57.952240,264559.000000,1670927975.902876,,,,
1670927975.963258,58.042702,264560.000000,1670927975.903876,,,,
1670927975.963454,58.006523,264561.000000,1670927975.904876,,,,
1670927975.965904,58.078880,264562.000000,1670927975.905876,,,,
1670927975.965943,58.096970,264563.000000,1670927975.906876,,,,
1670927975.965987,58.115059,264564.000000,1670927975.907876,,,,
1670927975.966012,58.151237,264565.000000,1670927975.908876,,,,
1670927975.966037,61.823532,264609.000000,1670927975.952876,,,,
1670927975.966086,61.986347,264610.000000,1670927975.953876,,,,
1670927975.966105,62.112972,264611.000000,1670927975.954876,,,,
1670927975.966121,62.275791,264612.000000,1670927975.955876,,,,
1670927975.966132,62.438591,264613.000000,1670927975.956876,,,,
1670927975.966147,62.619499,264614.000000,1670927975.957876,,,,
1670927975.966187,62.746140,264615.000000,1670927975.958876,,,,
1670927975.966210,62.908939,264616.000000,1670927975.959876,,,,
1670927975.966219,63.035580,264617.000000,1670927975.960876,,,,
1670927975.966289,63.180290,264618.000000,1670927975.961876,,,,
1670927975.969925,,,,26.364418,26.376022,265226.000000,1670927975.899995
1670927975.969950,,,,26.348696,26.361164,265227.000000,1670927975.901002
1670927975.969960,,,,26.352180,26.365492,265228.000000,1670927975.902009
1670927975.969966,,,,26.402426,26.413477,265229.000000,1670927975.903017
1670927975.972160,,,,26.501642,26.514856,265230.000000,1670927975.904024
1670927975.972287,,,,26.579653,26.590559,265231.000000,1670927975.905031
1670927975.972514,,,,26.617661,26.628304,265232.000000,1670927975.906038
1670927975.972573,,,,26.651125,26.660397,265233.000000,1670927975.907045
1670927975.972738,,,,26.716444,26.726076,265234.000000,1670927975.908052
1670927975.972855,,,,26.746279,26.758867,265235.000000,1670927975.909059
1670927975.972992,,,,26.744619,26.753675,265236.000000,1670927975.910066
1670927975.976776,,,,26.712765,26.723143,265237.000000,1670927975.911073
1670927975.976920,,,,26.639057,26.650494,265238.000000,1670927975.912080
1670927975.977167,,,,26.603645,26.615057,265239.000000,1670927975.913087
1670927975.977182,,,,26.579365,26.588877,265240.000000,1670927975.914094
1670927975.979296,,,,26.571983,26.579380,265241.000000,1670927975.915102
1670927975.979329,,,,26.590807,26.597532,265242.000000,1670927975.916109
1670927975.984626,,,,26.580086,26.589983,265243.000000,1670927975.917116
1670927975.985093,,,,26.545683,26.557047,265244.000000,1670927975.918123
1670927975.985629,,,,26.531595,26.540386,265245.000000,1670927975.919130
1670927975.985968,,,,26.532366,26.541157,265246.000000,1670927975.920137
1670927975.985991,,,,26.515753,26.524664,265247.000000,1670927975.921144
1670927975.986017,,,,26.440001,26.450499,265248.000000,1670927975.922151
1670927975.986631,,,,26.394133,26.405134,265249.000000,1670927975.923158
1670927975.986790,,,,26.420000,26.428598,265250.000000,1670927975.924165
1670927975.987031,,,,26.463825,26.475430,265251.000000,1670927975.925172
1670927975.987492,,,,26.547150,26.555244,265252.000000,1670927975.926179
1670927975.987829,,,,26.622686,26.633713,265253.000000,1670927975.927186
1670927975.992278,,,,26.673122,26.682539,265254.000000,1670927975.928194
1670927975.992812,,,,26.678171,26.687275,265255.000000,1670927975.929201
1670927975.992825,,,,26.673002,26.681313,265256.000000,1670927975.930208
1670927975.993592,,,,26.710697,26.720932,265257.000000,1670927975.931215
1670927975.993615,,,,26.724545,26.736486,265258.000000,1670927975.932222
1670927975.993626,,,,26.661270,26.670662,265259.000000,1670927975.933229
1670927975.993672,,,,26.616819,26.626141,265260.000000,1670927975.934236
1670927975.993790,,,,26.613550,26.624481,265261.000000,1670927975.935243
1670927975.994491,,,,26.585110,26.596113,265262.000000,1670927975.936250
1670927975.994733,,,,26.542534,26.554211,265263.000000,1670927975.937257
1670927975.994943,,,,26.543304,26.553898,265264.000000,1670927975.938264
1670927975.995395,,,,26.569365,26.578587,265265.000000,1670927975.939271
1670927975.995496,,,,26.581095,26.590969,265266.000000,1670927975.940279
1670927975.995668,,,,26.603765,26.614697,265267.000000,1670927975.941286
1670927975.995684,,,,26.643265,26.652344,265268.000000,1670927975.942293
1670927976.008030,,,,26.683796,26.692539,265269.000000,1670927975.943300
1670927976.008696,,,,26.655308,26.665565,265270.000000,1670927975.944307
1670927976.008713,,,,26.618141,26.632294,265271.000000,1670927975.945314
1670927976.018084,63.288826,264619.000000,1670927975.957529,,,,
1670927976.018097,63.451645,264620.000000,1670927975.958529,,,,
1670927976.018209,63.704906,264621.000000,1670927975.959528,,,,
1670927976.018262,63.903904,264622.000000,1670927975.960529,,,,
1670927976.019000,64.048615,264623.000000,1670927975.961529,,,,
1670927976.019012,64.211433,264624.000000,1670927975.962528,,,,
1670927976.019018,73.129868,264670.000000,1670927976.008528,,,,
1670927976.019037,73.328850,264671.000000,1670927976.009529,,,,
1670927976.019041,73.545929,264672.000000,1670927976.010529,,,,
1670927976.019050,73.690659,264673.000000,1670927976.011528,,,,
1670927976.019093,73.853462,264674.000000,1670927976.012528,,,,
1670927976.019100,74.016281,264675.000000,1670927976.013529,,,,
1670927976.019109,74.197174,264676.000000,1670927976.014529,,,,
1670927976.019115,74.396164,264677.000000,1670927976.015528,,,,
1670927976.019120,74.613251,264678.000000,1670927976.016529,,,,
1670927976.019125,74.739876,264679.000000,1670927976.017529,,,,
1670927976.025525,,,,26.580446,26.590246,265272.000000,1670927975.946321
1670927976.026072,,,,26.435169,26.443672,265273.000000,1670927975.947328
1670927976.026557,,,,26.300423,26.312458,265274.000000,1670927975.948335
1670927976.026850,,,,26.305014,26.314550,265275.000000,1670927975.949342
1670927976.026876,,,,26.312250,26.322315,265276.000000,1670927975.950349
1670927976.026888,,,,26.343479,26.354218,265277.000000,1670927975.951356
1670927976.027140,,,,26.389179,26.399364,265278.000000,1670927975.952363
1670927976.027164,,,,26.470148,26.480261,265279.000000,1670927975.953371
1670927976.027596,,,,26.580927,26.591618,265280.000000,1670927975.954378
1670927976.027933,,,,26.569195,26.579933,265281.000000,1670927975.955385
1670927976.028682,,,,26.494719,26.504807,265282.000000,1670927975.956392
1670927976.029105,,,,26.444714,26.454105,265283.000000,1670927975.957399
1670927976.029145,,,,26.479837,26.489782,265284.000000,1670927975.958406
1670927976.029378,,,,26.589125,26.597170,265285.000000,1670927975.959413
1670927976.029615,,,,26.674349,26.681746,265286.000000,1670927975.960420
1670927976.029924,,,,26.750029,26.758602,265287.000000,1670927975.961427
1670927976.030469,,,,26.802389,26.811974,265288.000000,1670927975.962434
1670927976.030495,,,,26.826429,26.834932,265289.000000,1670927975.963441
1670927976.030950,,,,26.773996,26.783077,265290.000000,1670927975.964448
1670927976.031482,,,,26.728752,26.740356,265291.000000,1670927975.965456
1670927976.031707,,,,26.699471,26.709993,265292.000000,1670927975.966463
1670927976.031971,,,,26.629971,26.637583,265293.000000,1670927975.967470
1670927976.032182,,,,26.603477,26.612894,265294.000000,1670927975.968477
1670927976.032470,,,,26.632494,26.641813,265295.000000,1670927975.969484
1670927976.032634,,,,26.618141,26.629385,265296.000000,1670927975.970491
1670927976.032813,,,,26.639130,26.649099,265297.000000,1670927975.971498
1670927976.033161,,,,26.654612,26.665302,265298.000000,1670927975.972505
1670927976.033280,,,,26.635860,26.645565,265299.000000,1670927975.973512
1670927976.033396,,,,26.675768,26.686289,265300.000000,1670927975.974519
1670927976.033747,,,,26.712934,26.723600,265301.000000,1670927975.975526
1670927976.033762,,,,26.670189,26.680496,265302.000000,1670927975.976533
1670927976.033887,,,,26.558641,26.568514,265303.000000,1670927975.977540
1670927976.034444,,,,26.496664,26.507139,265304.000000,1670927975.978548
1670927976.034629,,,,26.472095,26.484348,265305.000000,1670927975.979555
1670927976.034639,,,,26.475798,26.484541,265306.000000,1670927975.980562
1670927976.034883,,,,26.525970,26.536564,265307.000000,1670927975.981569
1670927976.035070,,,,26.563282,26.574043,265308.000000,1670927975.982576
1670927976.035083,,,,26.600471,26.611067,265309.000000,1670927975.983583
1670927976.035303,,,,26.641893,26.651215,265310.000000,1670927975.984590
1670927976.035318,,,,26.671921,26.679893,265311.000000,1670927975.985597
1670927976.035326,,,,26.684494,26.690809,265312.000000,1670927975.986604
1670927976.035332,,,,26.637951,26.646334,265313.000000,1670927975.987611
1670927976.035590,,,,26.578474,26.589958,265314.000000,1670927975.988618
1670927976.035735,,,,26.552319,26.563948,265315.000000,1670927975.989625
1670927976.035878,,,,26.543978,26.554764,265316.000000,1670927975.990633
1670927976.036120,,,,26.548594,26.556831,265317.000000,1670927975.991640
1670927976.036273,,,,26.543545,26.553177,265318.000000,1670927975.992647
1670927976.036678,,,,26.565012,26.573610,265319.000000,1670927975.993654
1670927976.036845,,,,26.592346,26.601618,265320.000000,1670927975.994661
1670927976.036931,,,,26.624754,26.636501,265321.000000,1670927975.995668
1670927976.039205,,,,26.632469,26.642078,265322.000000,1670927975.996675
1670927976.039219,,,,26.646173,26.653498,265323.000000,1670927975.997682
1670927976.039300,,,,26.585760,26.595968,265324.000000,1670927975.998689
1670927976.044346,,,,26.500055,26.512571,265325.000000,1670927975.999696
1670927976.044637,,,,26.430433,26.440739,265326.000000,1670927976.000703
1670927976.044888,,,,26.433702,26.443960,265327.000000,1670927976.001710
1670927976.045184,,,,26.471134,26.481560,265328.000000,1670927976.002717
1670927976.046685,,,,26.511475,26.521202,265329.000000,1670927976.003725
1670927976.047138,,,,26.537823,26.547720,265330.000000,1670927976.004732
1670927976.047151,,,,26.583452,26.593830,265331.000000,1670927976.005739
1670927976.055109,,,,26.647230,26.657488,265332.000000,1670927976.006746
1670927976.055513,,,,26.689037,26.700424,265333.000000,1670927976.007753
1670927976.056114,,,,26.710867,26.721125,265334.000000,1670927976.008760
1670927976.056176,,,,26.728680,26.737711,265335.000000,1670927976.009767
1670927976.056408,,,,26.709856,26.716940,265336.000000,1670927976.010774
1670927976.056674,,,,26.673676,26.680952,265337.000000,1670927976.011781
1670927976.056691,,,,26.663843,26.672539,265338.000000,1670927976.012788
1670927976.056710,,,,26.647928,26.656624,265339.000000,1670927976.013795
1670927976.057247,,,,26.623840,26.633207,265340.000000,1670927976.014802
1670927976.057447,,,,26.625185,26.633160,265341.000000,1670927976.015810
1670927976.057510,,,,26.618959,26.631573,265342.000000,1670927976.016817
1670927976.057600,,,,26.600592,26.612989,265343.000000,1670927976.017824
1670927976.057692,,,,26.551189,26.561951,265344.000000,1670927976.018831
1670927976.057772,,,,26.486279,26.497402,265345.000000,1670927976.019838
1670927976.068383,,,,26.469547,26.478218,265346.000000,1670927976.020845
1670927976.068491,,,,26.440964,26.451389,265347.000000,1670927976.021852
1670927976.068548,,,,26.445820,26.456198,265348.000000,1670927976.022859
1670927976.068683,,,,26.466013,26.474228,265349.000000,1670927976.023866
1670927976.075649,,,,26.523710,26.529377,265350.000000,1670927976.024873
1670927976.075754,,,,26.594582,26.605417,265351.000000,1670927976.025880
1670927976.075765,,,,26.464233,26.476728,265352.000000,1670927976.026887
1670927976.075805,,,,26.281214,26.290894,265353.000000,1670927976.027894
1670927976.081624,74.866516,264680.000000,1670927976.021124,,,,
1670927976.081899,75.047424,264681.000000,1670927976.022124,,,,
1670927976.084309,75.192139,264682.000000,1670927976.023124,,,,
1670927976.084341,82.247276,264731.000000,1670927976.072124,,,,
1670927976.084349,82.410095,264732.000000,1670927976.073124,,,,
1670927976.084361,82.590988,264733.000000,1670927976.074124,,,,
1670927976.084370,82.699539,264734.000000,1670927976.075124,,,,
1670927976.084651,82.844254,264735.000000,1670927976.076124,,,,
1670927976.084665,82.916626,264736.000000,1670927976.077124,,,,
1670927976.084675,83.007072,264737.000000,1670927976.078124,,,,
1670927976.084750,83.097511,264738.000000,1670927976.079124,,,,
1670927976.084766,83.260330,264739.000000,1670927976.080124,,,,
1670927976.084775,83.332687,264740.000000,1670927976.081124,,,,
1670927976.085025,,,,26.215151,26.224976,265354.000000,1670927976.028902
1670927976.085312,,,,26.288162,26.296616,265355.000000,1670927976.029909
1670927976.085961,,,,26.471230,26.483099,265356.000000,1670927976.030916
1670927976.085978,,,,26.547943,26.557985,265357.000000,1670927976.031923
1670927976.086459,,,,26.591673,26.602459,265358.000000,1670927976.032930
1670927976.086476,,,,26.686657,26.695520,265359.000000,1670927976.033937
1670927976.086859,,,,26.701250,26.709225,265360.000000,1670927976.034944
1670927976.087179,,,,26.725531,26.734442,265361.000000,1670927976.035951
1670927976.087474,,,,26.757433,26.766872,265362.000000,1670927976.036958
1670927976.087653,,,,26.720842,26.728577,265363.000000,1670927976.037965
1670927976.087783,,,,26.651197,26.662682,265364.000000,1670927976.038972
1670927976.111910,,,,26.618574,26.628448,265365.000000,1670927976.039979
1670927976.112143,,,,26.621916,26.632799,265366.000000,1670927976.040987
1670927976.112172,,,,26.670094,26.682587,265367.000000,1670927976.041994
1670927976.112292,,,,26.706875,26.716940,265368.000000,1670927976.043001
1670927976.129069,,,,26.704617,26.714056,265369.000000,1670927976.044008
1670927976.129621,,,,26.708942,26.717806,265370.000000,1670927976.045015
1670927976.130526,,,,26.747168,26.757881,265371.000000,1670927976.046022
1670927976.130561,,,,26.770054,26.780024,265372.000000,1670927976.047029
1670927976.130928,,,,26.720289,26.729876,265373.000000,1670927976.048036
1670927976.131433,,,,26.666271,26.676409,265374.000000,1670927976.049043
1670927976.137281,83.459328,264741.000000,1670927976.076661,,,,
1670927976.137626,83.531685,264742.000000,1670927976.077661,,,,
1670927976.137646,83.658310,264743.000000,1670927976.078661,,,,
1670927976.137655,84.074387,264750.000000,1670927976.085661,,,,
1670927976.137662,84.128654,264751.000000,1670927976.086661,,,,
1670927976.138508,84.201012,264752.000000,1670927976.087661,,,,
1670927976.138521,84.219101,264753.000000,1670927976.088661,,,,
1670927976.138527,84.255280,264754.000000,1670927976.089661,,,,
1670927976.138541,84.291473,264755.000000,1670927976.090661,,,,
1670927976.138622,84.291473,264756.000000,1670927976.091661,,,,
1670927976.138630,84.345741,264757.000000,1670927976.092661,,,,
1670927976.138646,84.381920,264758.000000,1670927976.093661,,,,
1670927976.138663,84.418098,264759.000000,1670927976.094661,,,,
1670927976.138774,83.622131,264792.000000,1670927976.127661,,,,
1670927976.138788,83.585953,264793.000000,1670927976.128661,,,,
1670927976.138797,83.567863,264794.000000,1670927976.129661,,,,
1670927976.138802,83.531685,264795.000000,1670927976.130661,,,,
1670927976.138810,83.459328,264796.000000,1670927976.131661,,,,
1670927976.138824,83.441238,264797.000000,1670927976.132661,,,,
1670927976.138837,83.459328,264798.000000,1670927976.133661,,,,
1670927976.138864,83.423134,264799.000000,1670927976.134661,,,,
1670927976.138873,83.405045,264800.000000,1670927976.135661,,,,
1670927976.138885,83.350777,264801.000000,1670927976.136661,,,,
1670927976.142088,,,,26.617901,26.628136,265375.000000,1670927976.050050
1670927976.142100,,,,26.616676,26.627245,265376.000000,1670927976.051057
1670927976.142109,,,,26.615643,26.626188,265377.000000,1670927976.052064
1670927976.145479,,,,26.631052,26.642103,265378.000000,1670927976.053071
1670927976.145656,,,,26.653290,26.662754,265379.000000,1670927976.054079
1670927976.146324,,,,26.656246,26.666672,265380.000000,1670927976.055086
1670927976.146495,,,,26.660021,26.672129,265381.000000,1670927976.056093
1670927976.146519,,,,26.660669,26.670254,265382.000000,1670927976.057100
1670927976.146682,,,,26.650043,26.660639,265383.000000,1670927976.058107
1670927976.146931,,,,26.640139,26.650541,265384.000000,1670927976.059114
1670927976.147329,,,,26.617540,26.627775,265385.000000,1670927976.060121
1670927976.147553,,,,26.580519,26.589695,265386.000000,1670927976.061128
1670927976.147925,,,,26.552896,26.561640,265387.000000,1670927976.062135
1670927976.148118,,,,26.561647,26.570246,265388.000000,1670927976.063142
1670927976.148219,,,,26.556358,26.567024,265389.000000,1670927976.064149
1670927976.148514,,,,26.539482,26.550341,265390.000000,1670927976.065156
1670927976.148986,,,,26.534361,26.545940,265391.000000,1670927976.066164
1670927976.149381,,,,26.589437,26.600849,265392.000000,1670927976.067171
1670927976.149691,,,,26.631172,26.637800,265393.000000,1670927976.068178
1670927976.149811,,,,26.632542,26.641766,265394.000000,1670927976.069185
1670927976.149826,,,,26.626339,26.638256,265395.000000,1670927976.070192
1670927976.150195,,,,26.612757,26.621765,265396.000000,1670927976.071199
1670927976.150541,,,,26.568258,26.575775,265397.000000,1670927976.072206
1670927976.151321,,,,26.490534,26.500696,265398.000000,1670927976.073213
1670927976.151347,,,,26.438799,26.447302,265399.000000,1670927976.074220
1670927976.151468,,,,26.430674,26.441004,265400.000000,1670927976.075227
1670927976.152173,,,,26.452599,26.464779,265401.000000,1670927976.076234
1670927976.152194,,,,26.479019,26.488388,265402.000000,1670927976.077241
1670927976.152272,,,,26.552992,26.561350,265403.000000,1670927976.078249
1670927976.152742,,,,26.654058,26.663548,265404.000000,1670927976.079256
1670927976.152767,,,,26.724257,26.734201,265405.000000,1670927976.080263
1670927976.152776,,,,26.740437,26.751728,265406.000000,1670927976.081270
1670927976.153174,,,,26.717310,26.727135,265407.000000,1670927976.082277
1670927976.153550,,,,26.699327,26.710955,265408.000000,1670927976.083284
1670927976.153564,,,,26.689302,26.702421,265409.000000,1670927976.084291
1670927976.153831,,,,26.666945,26.677418,265410.000000,1670927976.085298
1670927976.153932,,,,26.649418,26.660133,265411.000000,1670927976.086305
1670927976.153943,,,,26.630331,26.638544,265412.000000,1670927976.087312
1670927976.153983,,,,26.604919,26.615032,265413.000000,1670927976.088319
1670927976.153991,,,,26.595881,26.602940,265414.000000,1670927976.089326
1670927976.156691,,,,26.527052,26.539450,265415.000000,1670927976.090333
1670927976.156933,,,,26.455364,26.467279,265416.000000,1670927976.091341
1670927976.156981,,,,26.420576,26.429728,265417.000000,1670927976.092348
1670927976.160439,,,,26.438896,26.448408,265418.000000,1670927976.093355
1670927976.160706,,,,26.482794,26.493940,265419.000000,1670927976.094362
1670927976.160764,,,,26.504261,26.514616,265420.000000,1670927976.095369
1670927976.160888,,,,26.516258,26.524569,265421.000000,1670927976.096376
1670927976.160971,,,,26.555275,26.565390,265422.000000,1670927976.097383
1670927976.161199,,,,26.635260,26.644627,265423.000000,1670927976.098390
1670927976.161406,,,,26.701250,26.712782,265424.000000,1670927976.099397
1670927976.161419,,,,26.687090,26.698526,265425.000000,1670927976.100404
1670927976.161426,,,,26.644634,26.654099,265426.000000,1670927976.101411
1670927976.161892,,,,26.606386,26.617004,265427.000000,1670927976.102418
1670927976.161900,,,,26.611458,26.620466,265428.000000,1670927976.103426
1670927976.161903,,,,26.611771,26.619865,265429.000000,1670927976.104433
1670927976.161935,,,,26.514336,26.523991,265430.000000,1670927976.105440
1670927976.161944,,,,26.491713,26.503172,265431.000000,1670927976.106447
1670927976.162202,,,,26.492146,26.501272,265432.000000,1670927976.107454
1670927976.162211,,,,26.461182,26.470478,265433.000000,1670927976.108461
1670927976.162445,,,,26.495800,26.505527,265434.000000,1670927976.109468
1670927976.162851,,,,26.538952,26.546228,265435.000000,1670927976.110475
1670927976.189029,,,,26.599318,26.610273,265436.000000,1670927976.111482
1670927976.189049,,,,26.643265,26.654459,265437.000000,1670927976.112489
1670927976.190013,,,,26.674685,26.683788,265438.000000,1670927976.113496
1670927976.190026,,,,26.687042,26.695353,265439.000000,1670927976.114503
1670927976.190053,,,,26.723270,26.729538,265440.000000,1670927976.115510
1670927976.190060,,,,26.732382,26.741535,265441.000000,1670927976.116518
1670927976.190083,,,,26.684662,26.695738,265442.000000,1670927976.117525
1670927976.190140,,,,26.632614,26.641525,265443.000000,1670927976.118532
1670927976.190267,,,,26.585928,26.595896,265444.000000,1670927976.119539
1670927976.190275,,,,26.547342,26.556831,265445.000000,1670927976.120546
1670927976.190290,,,,26.535563,26.544018,265446.000000,1670927976.121553
1670927976.196129,,,,26.547462,26.555605,265447.000000,1670927976.122560
1670927976.196662,,,,26.566719,26.577362,265448.000000,1670927976.123567
1670927976.196676,,,,26.606987,26.616116,265449.000000,1670927976.124574
1670927976.196969,,,,26.650837,26.659052,265450.000000,1670927976.125581
1670927976.197256,,,,26.683220,26.690519,265451.000000,1670927976.126588
1670927976.197475,,,,26.663771,26.675182,265452.000000,1670927976.127595
1670927976.197615,,,,26.577585,26.588997,265453.000000,1670927976.128603
1670927976.197801,,,,26.441444,26.450188,265454.000000,1670927976.129610
1670927976.198067,,,,26.374828,26.383642,265455.000000,1670927976.130617
1670927976.198082,,,,26.381752,26.392538,265456.000000,1670927976.131624
1670927976.201968,,,,26.390934,26.399797,265457.000000,1670927976.132631
1670927976.202149,,,,26.471590,26.482281,265458.000000,1670927976.133638
1670927976.202239,,,,26.585087,26.596426,265459.000000,1670927976.134645
1670927976.203461,82.844254,264853.000000,1670927976.191851,,,,
1670927976.203483,82.880447,264854.000000,1670927976.192852,,,,
1670927976.203495,82.934715,264855.000000,1670927976.193851,,,,
1670927976.203502,82.934715,264856.000000,1670927976.194851,,,,
1670927976.203508,82.934715,264857.000000,1670927976.195851,,,,
1670927976.203567,82.988983,264858.000000,1670927976.196851,,,,
1670927976.203580,82.988983,264859.000000,1670927976.197851,,,,
1670927976.203692,83.025162,264860.000000,1670927976.198851,,,,
1670927976.203706,83.007072,264861.000000,1670927976.199852,,,,
1670927976.203723,83.043251,264862.000000,1670927976.200851,,,,
1670927976.204685,,,,26.682306,26.691122,265460.000000,1670927976.135652
1670927976.204701,,,,26.699688,26.707180,265461.000000,1670927976.136659
1670927976.205106,,,,26.695095,26.704752,265462.000000,1670927976.137666
1670927976.205231,,,,26.679180,26.688477,265463.000000,1670927976.138673
1670927976.205440,,,,26.601963,26.612293,265464.000000,1670927976.139680
1670927976.205452,,,,26.540033,26.548441,265465.000000,1670927976.140687
1670927976.205497,,,,26.525923,26.534786,265466.000000,1670927976.141695
1670927976.205530,,,,26.594629,26.602579,265467.000000,1670927976.142702
1670927976.209466,,,,26.665743,26.672850,265468.000000,1670927976.143709
1670927976.209484,,,,26.669012,26.677082,265469.000000,1670927976.144716
1670927976.209597,,,,26.656006,26.664124,265470.000000,1670927976.145723
1670927976.209669,,,,26.577080,26.586016,265471.000000,1670927976.146730
1670927976.211681,,,,26.582634,26.588949,265472.000000,1670927976.147737
1670927976.211720,,,,26.671776,26.678429,265473.000000,1670927976.148744
1670927976.219227,,,,26.709953,26.718672,265474.000000,1670927976.149751
1670927976.219467,,,,26.682571,26.691603,265475.000000,1670927976.150758
1670927976.219586,,,,26.653481,26.662825,265476.000000,1670927976.151765
1670927976.219752,,,,26.611338,26.620371,265477.000000,1670927976.152772
1670927976.233495,,,,26.558088,26.567024,265478.000000,1670927976.153780
1670927976.233643,,,,26.579678,26.593227,265479.000000,1670927976.154787
1670927976.233921,,,,26.608767,26.620491,265480.000000,1670927976.155794
1670927976.234158,,,,26.615618,26.623880,265481.000000,1670927976.156801
1670927976.234666,,,,26.584846,26.593565,265482.000000,1670927976.157808
1670927976.234843,,,,26.592875,26.602003,265483.000000,1670927976.158815
1670927976.235215,,,,26.610256,26.621235,265484.000000,1670927976.159822
1670927976.235507,,,,26.607901,26.620033,265485.000000,1670927976.160829
1670927976.235604,,,,26.582779,26.595392,265486.000000,1670927976.161836
1670927976.236426,,,,26.569868,26.577482,265487.000000,1670927976.162843
1670927976.237082,,,,26.561045,26.571592,265488.000000,1670927976.163850
1670927976.237303,,,,26.541332,26.552166,265489.000000,1670927976.164857
1670927976.237314,,,,26.469620,26.482113,265490.000000,1670927976.165864
1670927976.237329,,,,26.383722,26.393234,265491.000000,1670927976.166872
1670927976.237512,,,,26.312538,26.321257,265492.000000,1670927976.167879
1670927976.237616,,,,26.306625,26.318541,265493.000000,1670927976.168886
1670927976.237759,,,,26.346363,26.357920,265494.000000,1670927976.169893
1670927976.238252,,,,26.414831,26.425232,265495.000000,1670927976.170900
1670927976.238428,,,,26.547318,26.555220,265496.000000,1670927976.171907
1670927976.238440,,,,26.658529,26.667225,265497.000000,1670927976.172914
1670927976.238451,,,,26.702957,26.713984,265498.000000,1670927976.173921
1670927976.238463,,,,26.739090,26.748987,265499.000000,1670927976.174928
1670927976.249000,,,,26.763058,26.771946,265500.000000,1670927976.175935
1670927976.249250,,,,26.753082,26.762762,265501.000000,1670927976.176942
1670927976.249265,,,,26.710674,26.721245,265502.000000,1670927976.177949
1670927976.249283,,,,26.709929,26.718864,265503.000000,1670927976.178957
1670927976.249378,,,,26.734955,26.744492,265504.000000,1670927976.179964
1670927976.249421,,,,26.733633,26.743553,265505.000000,1670927976.180971
1670927976.257516,83.079422,264863.000000,1670927976.196348,,,,
1670927976.257543,83.097511,264864.000000,1670927976.197348,,,,
1670927976.257557,83.133690,264865.000000,1670927976.198348,,,,
1670927976.257679,83.133690,264866.000000,1670927976.199348,,,,
1670927976.257818,83.206062,264867.000000,1670927976.200348,,,,
1670927976.258075,83.151779,264868.000000,1670927976.201348,,,,
1670927976.258259,,,,26.704807,26.717758,265506.000000,1670927976.181978
1670927976.258281,,,,26.659973,26.669580,265507.000000,1670927976.182985
1670927976.258574,,,,26.639345,26.647007,265508.000000,1670927976.183992
1670927976.258986,,,,26.631485,26.638592,265509.000000,1670927976.184999
1670927976.259096,83.242241,264869.000000,1670927976.202348,,,,
1670927976.259283,,,,26.633863,26.642439,265510.000000,1670927976.186006
1670927976.259870,83.567863,264896.000000,1670927976.229348,,,,
1670927976.260135,,,,26.633696,26.643520,265511.000000,1670927976.187013
1670927976.260148,83.567863,264897.000000,1670927976.230348,,,,
1670927976.260620,83.640221,264898.000000,1670927976.231348,,,,
1670927976.260630,83.676399,264899.000000,1670927976.232348,,,,
1670927976.260665,83.640221,264900.000000,1670927976.233348,,,,
1670927976.260672,,,,26.638912,26.649290,265512.000000,1670927976.188020
1670927976.260863,,,,26.640547,26.652752,265513.000000,1670927976.189027
1670927976.260871,83.694489,264901.000000,1670927976.234348,,,,
1670927976.260875,83.748772,264902.000000,1670927976.235348,,,,
1670927976.260885,83.784950,264903.000000,1670927976.236348,,,,
1670927976.260921,83.766861,264904.000000,1670927976.237348,,,,
1670927976.260929,83.839218,264905.000000,1670927976.238348,,,,
1670927976.260935,84.291473,264914.000000,1670927976.247348,,,,
1670927976.260940,84.345741,264915.000000,1670927976.248348,,,,
1670927976.260955,84.508545,264916.000000,1670927976.249348,,,,
1670927976.260964,84.653275,264917.000000,1670927976.250348,,,,
1670927976.260972,84.689453,264918.000000,1670927976.251348,,,,
1670927976.261048,84.761810,264919.000000,1670927976.252348,,,,
1670927976.261066,84.870361,264920.000000,1670927976.253348,,,,
1670927976.261070,84.924622,264921.000000,1670927976.254348,,,,
1670927976.261100,85.015068,264922.000000,1670927976.255348,,,,
1670927976.261104,85.069336,264923.000000,1670927976.256348,,,,
1670927976.261347,,,,26.632181,26.640516,265514.000000,1670927976.190034
1670927976.261357,,,,26.626940,26.637318,265515.000000,1670927976.191041
1670927976.261368,,,,26.560829,26.569933,265516.000000,1670927976.192049
1670927976.261376,,,,26.543545,26.554644,265517.000000,1670927976.193056
1670927976.261392,,,,26.539410,26.550531,265518.000000,1670927976.194063
1670927976.261397,,,,26.520657,26.532286,265519.000000,1670927976.195070
1670927976.261404,,,,26.520105,26.530098,265520.000000,1670927976.196077
1670927976.261416,,,,26.528278,26.534328,265521.000000,1670927976.197084
1670927976.261438,,,,26.568787,26.575727,265522.000000,1670927976.198091
1670927976.261442,,,,26.566383,26.578131,265523.000000,1670927976.199098
1670927976.261452,,,,26.569941,26.582048,265524.000000,1670927976.200105
1670927976.261480,,,,26.620186,26.631668,265525.000000,1670927976.201112
1670927976.261485,,,,26.656246,26.665926,265526.000000,1670927976.202119
1670927976.261633,,,,26.649948,26.658281,265527.000000,1670927976.203126
1670927976.261863,,,,26.650717,26.659220,265528.000000,1670927976.204134
1670927976.261877,,,,26.644922,26.654266,265529.000000,1670927976.205141
1670927976.262036,,,,26.605257,26.617197,265530.000000,1670927976.206148
1670927976.262139,,,,26.553953,26.564379,265531.000000,1670927976.207155
1670927976.262293,,,,26.461517,26.471680,265532.000000,1670927976.208162
1670927976.262492,,,,26.405985,26.416578,265533.000000,1670927976.209169
1670927976.262640,,,,26.412836,26.423502,265534.000000,1670927976.210176
1670927976.262745,,,,26.453199,26.462929,265535.000000,1670927976.211183
1670927976.263027,,,,26.497915,26.505938,265536.000000,1670927976.212190
1670927976.263051,,,,26.517292,26.524593,265537.000000,1670927976.213197
1670927976.263203,,,,26.616724,26.625057,265538.000000,1670927976.214204
1670927976.264298,,,,26.691345,26.697565,265539.000000,1670927976.215211
1670927976.264311,,,,26.727816,26.736101,265540.000000,1670927976.216218
1670927976.264451,,,,26.667185,26.676914,265541.000000,1670927976.217226
1670927976.269374,,,,26.637568,26.646862,265542.000000,1670927976.218233
1670927976.269386,,,,26.653530,26.661407,265543.000000,1670927976.219240
1670927976.269420,,,,26.667618,26.675207,265544.000000,1670927976.220247
1670927976.269530,,,,26.643600,26.655325,265545.000000,1670927976.221254
1670927976.271640,,,,26.617950,26.631380,265546.000000,1670927976.222261
1670927976.271775,,,,26.584124,26.593998,265547.000000,1670927976.223268
1670927976.271784,,,,26.557440,26.567793,265548.000000,1670927976.224275
1670927976.271788,,,,26.553761,26.564283,265549.000000,1670927976.225282
1670927976.277171,,,,26.549265,26.561951,265550.000000,1670927976.226289
1670927976.277288,,,,26.503588,26.512932,265551.000000,1670927976.227296
1670927976.277363,,,,26.442308,26.451509,265552.000000,1670927976.228303
1670927976.277611,,,,26.486856,26.497427,265553.000000,1670927976.229311
1670927976.279195,,,,26.495174,26.505960,265554.000000,1670927976.230318
1670927976.279500,,,,26.483082,26.494638,265555.000000,1670927976.231325
1670927976.285538,,,,26.422428,26.431147,265556.000000,1670927976.232332
1670927976.285559,,,,26.342926,26.352365,265557.000000,1670927976.233339
1670927976.285574,,,,26.370596,26.382273,265558.000000,1670927976.234346
1670927976.285783,,,,26.390718,26.400398,265559.000000,1670927976.235353
1670927976.285965,,,,26.389156,26.397755,265560.000000,1670927976.236360
1670927976.286104,,,,26.464884,26.476248,265561.000000,1670927976.237367
1670927976.286310,,,,26.522173,26.531900,265562.000000,1670927976.238374
1670927976.286795,,,,26.519865,26.529570,265563.000000,1670927976.239381
1670927976.287379,,,,26.550323,26.559500,265564.000000,1670927976.240388
1670927976.287568,,,,26.626436,26.635828,265565.000000,1670927976.241395
1670927976.287983,,,,26.725651,26.735403,265566.000000,1670927976.242403
1670927976.288013,,,,26.774742,26.785000,265567.000000,1670927976.243410
1670927976.288029,,,,26.827415,26.840845,265568.000000,1670927976.244417
1670927976.288108,,,,26.813351,26.824955,265569.000000,1670927976.245424
1670927976.288145,,,,26.779261,26.789808,265570.000000,1670927976.246431
1670927976.288157,,,,26.744091,26.751247,265571.000000,1670927976.247438
1670927976.288164,,,,26.671513,26.679823,265572.000000,1670927976.248445
1670927976.288193,,,,26.481472,26.491177,265573.000000,1670927976.249452
1670927976.291928,,,,26.323141,26.333447,265574.000000,1670927976.250459
1670927976.292217,,,,26.287128,26.297529,265575.000000,1670927976.251466
1670927976.292607,,,,26.309750,26.321955,265576.000000,1670927976.252473
1670927976.292653,,,,26.383915,26.392418,265577.000000,1670927976.253480
1670927976.294198,,,,26.509888,26.517933,265578.000000,1670927976.254488
1670927976.294583,,,,26.637302,26.648041,265579.000000,1670927976.255495
1670927976.294600,,,,26.707355,26.719873,265580.000000,1670927976.256502
1670927976.294896,,,,26.675743,26.686842,265581.000000,1670927976.257509
1670927976.308180,,,,26.716299,26.729298,265582.000000,1670927976.258516
1670927976.308493,,,,26.787844,26.797646,265583.000000,1670927976.259523
1670927976.308763,,,,26.810947,26.819305,265584.000000,1670927976.260530
1670927976.308915,,,,26.825491,26.834595,265585.000000,1670927976.261537
1670927976.314313,,,,26.776712,26.785168,265586.000000,1670927976.262544
1670927976.314417,,,,26.683002,26.692732,265587.000000,1670927976.263551
1670927976.317283,,,,26.608236,26.616932,265588.000000,1670927976.264558
1670927976.317416,,,,26.577009,26.587627,265589.000000,1670927976.265565
1670927976.317594,,,,26.573883,26.586473,265590.000000,1670927976.266572
1670927976.317714,,,,26.462288,26.474564,265591.000000,1670927976.267580
1670927976.317880,,,,26.252365,26.263248,265592.000000,1670927976.268587
1670927976.318030,,,,26.055593,26.065538,265593.000000,1670927976.269594
1670927976.318141,,,,26.000540,26.007746,265594.000000,1670927976.270601
1670927976.318269,,,,26.023546,26.032049,265595.000000,1670927976.271608
1670927976.318412,,,,26.095428,26.107826,265596.000000,1670927976.272615
1670927976.318623,,,,26.390694,26.402563,265597.000000,1670927976.273622
1670927976.318679,,,,26.705650,26.716124,265598.000000,1670927976.274629
1670927976.324063,,,,26.875111,26.884815,265599.000000,1670927976.275636
1670927976.325467,,,,26.924971,26.934605,265600.000000,1670927976.276643
1670927976.325614,87.203979,264943.000000,1670927976.282639,,,,
1670927976.325763,,,,26.992863,27.004322,265601.000000,1670927976.277650
1670927976.325784,,,,26.993343,27.002638,265602.000000,1670927976.278657
1670927976.325916,87.402977,264944.000000,1670927976.283639,,,,
1670927976.326073,,,,26.916653,26.924963,265603.000000,1670927976.279665
1670927976.326169,87.475334,264945.000000,1670927976.284639,,,,
1670927976.326339,,,,26.861313,26.871931,265604.000000,1670927976.280672
1670927976.326516,,,,26.825348,26.835556,265605.000000,1670927976.281679
1670927976.326727,,,,26.782845,26.791826,265606.000000,1670927976.282686
1670927976.326884,,,,26.758274,26.768459,265607.000000,1670927976.283693
1670927976.326904,,,,26.721996,26.732038,265608.000000,1670927976.284700
1670927976.326960,,,,26.695192,26.707108,265609.000000,1670927976.285707
1670927976.326971,,,,26.693508,26.703863,265610.000000,1670927976.286714
1670927976.326996,,,,26.708630,26.718599,265611.000000,1670927976.287721
1670927976.327045,,,,26.715578,26.725740,265612.000000,1670927976.288728
1670927976.327342,87.601952,264946.000000,1670927976.285639,,,,
1670927976.327363,87.692413,264947.000000,1670927976.286639,,,,
1670927976.327372,87.764771,264948.000000,1670927976.287639,,,,
1670927976.328046,87.963768,264949.000000,1670927976.288639,,,,
1670927976.328059,88.054214,264950.000000,1670927976.289639,,,,
1670927976.328064,88.217033,264951.000000,1670927976.290639,,,,
1670927976.328098,88.271301,264952.000000,1670927976.291639,,,,
1670927976.328110,90.134567,264975.000000,1670927976.314639,,,,
1670927976.328126,90.279297,264976.000000,1670927976.315639,,,,
1670927976.328142,90.297386,264977.000000,1670927976.316639,,,,
1670927976.328149,90.369743,264978.000000,1670927976.317639,,,,
1670927976.328154,90.442116,264979.000000,1670927976.318639,,,,
1670927976.328166,90.478294,264980.000000,1670927976.319639,,,,
1670927976.328173,90.496384,264981.000000,1670927976.320639,,,,
1670927976.328201,90.532562,264982.000000,1670927976.321639,,,,
1670927976.328211,90.550652,264983.000000,1670927976.322639,,,,
1670927976.328223,90.568741,264984.000000,1670927976.323639,,,,
1670927976.330046,,,,26.691393,26.703022,265613.000000,1670927976.289735
1670927976.330241,,,,26.632710,26.644218,265614.000000,1670927976.290742
1670927976.330688,,,,26.582922,26.595032,265615.000000,1670927976.291749
1670927976.330817,,,,26.580446,26.590824,265616.000000,1670927976.292757
1670927976.330836,,,,26.582561,26.594431,265617.000000,1670927976.293764
1670927976.330956,,,,26.566647,26.577866,265618.000000,1670927976.294771
1670927976.330975,,,,26.523085,26.531347,265619.000000,1670927976.295778
1670927976.337489,,,,26.486761,26.497980,265620.000000,1670927976.296785
1670927976.337558,,,,26.427092,26.438648,265621.000000,1670927976.297792
1670927976.337715,,,,26.389732,26.403019,265622.000000,1670927976.298799
1670927976.337776,,,,26.388578,26.398331,265623.000000,1670927976.299806
1670927976.337951,,,,26.400143,26.409126,265624.000000,1670927976.300813
1670927976.338028,,,,26.481039,26.492907,265625.000000,1670927976.301820
1670927976.338036,,,,26.580904,26.591425,265626.000000,1670927976.302827
1670927976.338040,,,,26.668121,26.677130,265627.000000,1670927976.303834
1670927976.339734,,,,26.725771,26.738890,265628.000000,1670927976.304842
1670927976.339792,,,,26.733633,26.745598,265629.000000,1670927976.305849
1670927976.339806,,,,26.735147,26.746943,265630.000000,1670927976.306856
1670927976.339817,,,,26.744642,26.752304,265631.000000,1670927976.307863
1670927976.339822,,,,26.722815,26.732183,265632.000000,1670927976.308870
1670927976.339829,,,,26.693798,26.703262,265633.000000,1670927976.309877
1670927976.344758,,,,26.655237,26.664724,265634.000000,1670927976.310884
1670927976.344769,,,,26.604053,26.615322,265635.000000,1670927976.311891
1670927976.344773,,,,26.610977,26.621740,265636.000000,1670927976.312898
1670927976.344789,,,,26.623117,26.633615,265637.000000,1670927976.313905
1670927976.346941,,,,26.591047,26.600151,265638.000000,1670927976.314912
1670927976.347035,,,,26.533543,26.544306,265639.000000,1670927976.315919
1670927976.347042,,,,26.494959,26.506298,265640.000000,1670927976.316926
1670927976.347207,,,,26.416899,26.426483,265641.000000,1670927976.317934
1670927976.347398,,,,26.371414,26.382368,265642.000000,1670927976.318941
1670927976.347583,,,,26.365379,26.376984,265643.000000,1670927976.319948
1670927976.347595,,,,26.353817,26.364073,265644.000000,1670927976.320955
1670927976.351761,,,,26.420528,26.429920,265645.000000,1670927976.321962
1670927976.351917,,,,26.519503,26.528536,265646.000000,1670927976.322969
1670927976.352134,,,,26.573883,26.584839,265647.000000,1670927976.323976
1670927976.352143,,,,26.616507,26.629265,265648.000000,1670927976.324983
1670927976.354638,,,,26.640284,26.649460,265649.000000,1670927976.325990
1670927976.354650,,,,26.665237,26.674774,265650.000000,1670927976.326997
1670927976.354655,,,,26.661871,26.669941,265651.000000,1670927976.328004
1670927976.354665,,,,26.670359,26.680326,265652.000000,1670927976.329011
1670927976.354760,,,,26.690384,26.699535,265653.000000,1670927976.330019
1670927976.355079,,,,26.685310,26.696602,265654.000000,1670927976.331026
1670927976.355091,,,,26.710577,26.722013,265655.000000,1670927976.332033
1670927976.359954,,,,26.742985,26.753098,265656.000000,1670927976.333040
1670927976.360237,,,,26.688557,26.700136,265657.000000,1670927976.334047
1670927976.360306,,,,26.655766,26.670374,265658.000000,1670927976.335054
1670927976.360433,,,,26.610737,26.623976,265659.000000,1670927976.336061
1670927976.360443,,,,26.530033,26.540627,265660.000000,1670927976.337068
1670927976.360520,,,,26.409494,26.419199,265661.000000,1670927976.338075
1670927976.360621,,,,26.334560,26.344625,265662.000000,1670927976.339082
1670927976.360664,,,,26.292801,26.303324,265663.000000,1670927976.340089
1670927976.360705,,,,26.289507,26.301208,265664.000000,1670927976.341096
1670927976.360803,,,,26.322996,26.333879,265665.000000,1670927976.342103
1670927976.360926,,,,26.390934,26.400639,265666.000000,1670927976.343111
1670927976.369934,,,,26.543953,26.553417,265667.000000,1670927976.344118
1670927976.370615,,,,26.590591,26.598974,265668.000000,1670927976.345125
1670927976.370644,,,,26.514936,26.522717,265669.000000,1670927976.346132
1670927976.370895,,,,26.559963,26.568684,265670.000000,1670927976.347139
1670927976.371453,,,,26.589245,26.598854,265671.000000,1670927976.348146
1670927976.371801,,,,26.593307,26.603205,265672.000000,1670927976.349153
1670927976.371959,,,,26.583115,26.591953,265673.000000,1670927976.350160
1670927976.372346,,,,26.560661,26.571905,265674.000000,1670927976.351167
1670927976.372371,,,,26.550396,26.561157,265675.000000,1670927976.352174
1670927976.372406,,,,26.616194,26.626692,265676.000000,1670927976.353181
1670927976.372417,,,,26.688629,26.697733,265677.000000,1670927976.354188
1670927976.383629,,,,26.743273,26.755623,265678.000000,1670927976.355196
1670927976.384157,,,,26.764236,26.775431,265679.000000,1670927976.356203
1670927976.384512,,,,26.692572,26.700954,265680.000000,1670927976.357210
1670927976.384877,,,,26.649323,26.657368,265681.000000,1670927976.358217
1670927976.385522,,,,26.682980,26.695761,265682.000000,1670927976.359224
1670927976.385765,,,,26.681608,26.694584,265683.000000,1670927976.360231
1670927976.385899,,,,26.638649,26.645781,265684.000000,1670927976.361238
1670927976.390708,90.604919,264985.000000,1670927976.329927,,,,
1670927976.390786,,,,26.634609,26.643810,265685.000000,1670927976.362245
1670927976.391388,,,,26.676992,26.688068,265686.000000,1670927976.363252
1670927976.391840,,,,26.706491,26.718840,265687.000000,1670927976.364259
1670927976.391857,,,,26.652592,26.663979,265688.000000,1670927976.365266
1670927976.391863,,,,26.599655,26.606571,265689.000000,1670927976.366273
1670927976.391869,,,,26.577393,26.586737,265690.000000,1670927976.367280
1670927976.391904,,,,26.615858,26.624289,265691.000000,1670927976.368288
1670927976.392790,90.586830,264986.000000,1670927976.330927,,,,
1670927976.392805,90.659187,264987.000000,1670927976.331927,,,,
1670927976.392820,90.785828,265036.000000,1670927976.380927,,,,
1670927976.392830,90.858185,265037.000000,1670927976.381927,,,,
1670927976.392836,90.822006,265038.000000,1670927976.382927,,,,
1670927976.392861,90.894363,265039.000000,1670927976.383927,,,,
1670927976.392877,90.966713,265040.000000,1670927976.384927,,,,
1670927976.392886,90.930534,265041.000000,1670927976.385927,,,,
1670927976.392891,91.002914,265042.000000,1670927976.386927,,,,
1670927976.392897,91.002914,265043.000000,1670927976.387927,,,,
1670927976.392926,91.002914,265044.000000,1670927976.388927,,,,
1670927976.393020,91.039085,265045.000000,1670927976.389927,,,,
1670927976.397140,,,,26.689423,26.699944,265692.000000,1670927976.369295
1670927976.397401,,,,26.739355,26.750381,265693.000000,1670927976.370302
1670927976.397704,,,,26.719400,26.729057,265694.000000,1670927976.371309
1670927976.397826,,,,26.657160,26.667562,265695.000000,1670927976.372316
1670927976.398078,,,,26.585037,26.594358,265696.000000,1670927976.373323
1670927976.398172,,,,26.608719,26.618807,265697.000000,1670927976.374330
1670927976.398237,,,,26.636101,26.647272,265698.000000,1670927976.375337
1670927976.401369,,,,26.601337,26.611139,265699.000000,1670927976.376344
1670927976.401983,,,,26.561695,26.572842,265700.000000,1670927976.377351
1670927976.401995,,,,26.537222,26.547430,265701.000000,1670927976.378358
1670927976.402001,,,,26.536211,26.544113,265702.000000,1670927976.379365
1670927976.402133,,,,26.552776,26.560293,265703.000000,1670927976.380373
1670927976.402212,,,,26.541140,26.550316,265704.000000,1670927976.381380
1670927976.402223,,,,26.533928,26.542959,265705.000000,1670927976.382387
1670927976.402235,,,,26.510561,26.520000,265706.000000,1670927976.383394
1670927976.404887,,,,26.496304,26.507524,265707.000000,1670927976.384401
1670927976.405102,,,,26.538904,26.551134,265708.000000,1670927976.385408
1670927976.405120,,,,26.606049,26.617750,265709.000000,1670927976.386415
1670927976.405127,,,,26.647711,26.655998,265710.000000,1670927976.387422
1670927976.405505,,,,26.673916,26.683620,265711.000000,1670927976.388429
1670927976.405573,,,,26.686489,26.698597,265712.000000,1670927976.389436
1670927976.405933,,,,26.706972,26.718094,265713.000000,1670927976.390443
1670927976.408859,,,,26.686008,26.698141,265714.000000,1670927976.391450
1670927976.409442,,,,26.655140,26.664869,265715.000000,1670927976.392457
1670927976.409529,,,,26.637495,26.646381,265716.000000,1670927976.393465
1670927976.409767,,,,26.622927,26.633568,265717.000000,1670927976.394472
1670927976.410403,,,,26.590591,26.603783,265718.000000,1670927976.395479
1670927976.410697,,,,26.541117,26.551470,265719.000000,1670927976.396486
1670927976.410922,,,,26.529961,26.539473,265720.000000,1670927976.397493
1670927976.411029,,,,26.553450,26.564356,265721.000000,1670927976.398500
1670927976.411070,,,,26.585375,26.597603,265722.000000,1670927976.399507
1670927976.411082,,,,26.620979,26.631140,265723.000000,1670927976.400514
1670927976.411877,,,,26.646509,26.656118,265724.000000,1670927976.401521
1670927976.412026,,,,26.663698,26.674004,265725.000000,1670927976.402528
1670927976.412439,,,,26.642471,26.653137,265726.000000,1670927976.403535
1670927976.416406,,,,26.614223,26.626188,265727.000000,1670927976.404542
1670927976.416684,,,,26.577417,26.589478,265728.000000,1670927976.405550
1670927976.416939,,,,26.566912,26.577265,265729.000000,1670927976.406557
1670927976.417407,,,,26.562176,26.571062,265730.000000,1670927976.407564
1670927976.417419,,,,26.581335,26.587795,265731.000000,1670927976.408571
1670927976.417790,,,,26.601866,26.610273,265732.000000,1670927976.409578
1670927976.418104,,,,26.565180,26.576111,265733.000000,1670927976.410585
1670927976.418378,,,,26.570759,26.579550,265734.000000,1670927976.411592
1670927976.419308,,,,26.536884,26.547480,265735.000000,1670927976.412599
1670927976.419561,,,,26.508686,26.516298,265736.000000,1670927976.413606
1670927976.419679,,,,26.489790,26.502596,265737.000000,1670927976.414613
1670927976.423956,,,,26.470701,26.483892,265738.000000,1670927976.415620
1670927976.424229,,,,26.508974,26.518679,265739.000000,1670927976.416627
1670927976.424602,,,,26.564075,26.573227,265740.000000,1670927976.417634
1670927976.437701,,,,26.587635,26.598013,265741.000000,1670927976.418642
1670927976.437738,,,,26.632710,26.642559,265742.000000,1670927976.419649
1670927976.437908,,,,26.666054,26.676552,265743.000000,1670927976.420656
1670927976.438112,,,,26.667521,26.676216,265744.000000,1670927976.421663
1670927976.438459,,,,26.618959,26.628784,265745.000000,1670927976.422670
1670927976.438468,,,,26.610256,26.617460,265746.000000,1670927976.423677
1670927976.438472,,,,26.584846,26.592484,265747.000000,1670927976.424684
1670927976.442921,,,,26.598789,26.609432,265748.000000,1670927976.425691
1670927976.443253,,,,26.588116,26.601185,265749.000000,1670927976.426698
1670927976.443266,,,,26.505825,26.517139,265750.000000,1670927976.427705
1670927976.443406,,,,26.484283,26.494181,265751.000000,1670927976.428712
1670927976.446275,90.007950,265097.000000,1670927976.435843,,,,
1670927976.446291,89.935593,265098.000000,1670927976.436843,,,,
1670927976.446298,89.881325,265099.000000,1670927976.437843,,,,
1670927976.446301,89.808952,265100.000000,1670927976.438843,,,,
1670927976.446403,89.718506,265101.000000,1670927976.439842,,,,
1670927976.446410,89.682327,265102.000000,1670927976.440843,,,,
1670927976.446413,89.664238,265103.000000,1670927976.441843,,,,
1670927976.446416,89.537598,265104.000000,1670927976.442842,,,,
1670927976.446429,89.501419,265105.000000,1670927976.443843,,,,
1670927976.446468,89.465240,265106.000000,1670927976.444843,,,,
1670927976.449314,,,,26.543688,26.555052,265752.000000,1670927976.429719
1670927976.449672,,,,26.586216,26.595753,265753.000000,1670927976.430727
1670927976.449715,,,,26.595592,26.600922,265754.000000,1670927976.431734
1670927976.449724,,,,26.582899,26.590559,265755.000000,1670927976.432741
1670927976.457215,,,,26.635307,26.644554,265756.000000,1670927976.433748
1670927976.457441,,,,26.675863,26.686193,265757.000000,1670927976.434755
1670927976.457452,,,,26.667713,26.678019,265758.000000,1670927976.435762
1670927976.457820,,,,26.516787,26.527237,265759.000000,1670927976.436769
1670927976.458156,,,,26.405840,26.414175,265760.000000,1670927976.437776
1670927976.458179,,,,26.379467,26.389389,265761.000000,1670927976.438783
1670927976.465761,,,,26.367472,26.375372,265762.000000,1670927976.439790
1670927976.466121,,,,26.441853,26.449490,265763.000000,1670927976.440797
1670927976.466498,,,,26.523808,26.532021,265764.000000,1670927976.441804
1670927976.466520,,,,26.571913,26.583035,265765.000000,1670927976.442811
1670927976.471845,,,,26.589077,26.599670,265766.000000,1670927976.443819
1670927976.471993,,,,26.637856,26.644386,265767.000000,1670927976.444826
1670927976.472167,,,,26.673651,26.681961,265768.000000,1670927976.445833
1670927976.472505,,,,26.656221,26.664892,265769.000000,1670927976.446840
1670927976.475273,,,,26.587658,26.595535,265770.000000,1670927976.447847
1670927976.475295,,,,26.576479,26.585175,265771.000000,1670927976.448854
1670927976.475623,,,,26.633986,26.643665,265772.000000,1670927976.449861
1670927976.475852,,,,26.601072,26.613157,265773.000000,1670927976.450868
1670927976.476128,,,,26.635307,26.646381,265774.000000,1670927976.451875
1670927976.476154,,,,26.677065,26.686434,265775.000000,1670927976.452882
1670927976.476165,,,,26.724209,26.733025,265776.000000,1670927976.453889
1670927976.479570,,,,26.748922,26.758820,265777.000000,1670927976.454896
1670927976.479808,,,,26.732071,26.741293,265778.000000,1670927976.455904
1670927976.479823,,,,26.688917,26.696962,265779.000000,1670927976.456911
1670927976.480022,,,,26.615978,26.625490,265780.000000,1670927976.457918
1670927976.482121,,,,26.599295,26.608541,265781.000000,1670927976.458925
1670927976.482589,,,,26.619728,26.628471,265782.000000,1670927976.459932
1670927976.482608,,,,26.632181,26.642199,265783.000000,1670927976.460939
1670927976.510080,,,,26.656221,26.666166,265784.000000,1670927976.461946
1670927976.510243,89.248154,265108.000000,1670927976.449452,,,,
1670927976.510645,,,,26.650429,26.659916,265785.000000,1670927976.462953
1670927976.511091,,,,26.640547,26.652681,265786.000000,1670927976.463960
1670927976.511667,,,,26.598742,26.611307,265787.000000,1670927976.464967
1670927976.511680,,,,26.532486,26.543777,265788.000000,1670927976.465974
1670927976.511725,,,,26.462095,26.474974,265789.000000,1670927976.466981
1670927976.511736,89.248154,265109.000000,1670927976.450452,,,,
1670927976.511866,89.266243,265110.000000,1670927976.451452,,,,
1670927976.511888,89.193893,265111.000000,1670927976.452452,,,,
1670927976.511900,89.175804,265112.000000,1670927976.453452,,,,
1670927976.511912,89.085358,265113.000000,1670927976.454452,,,,
1670927976.511926,89.085358,265114.000000,1670927976.455452,,,,
1670927976.511960,89.012985,265115.000000,1670927976.456452,,,,
1670927976.512254,,,,26.245176,26.254906,265790.000000,1670927976.467988
1670927976.512439,,,,26.146322,26.156147,265791.000000,1670927976.468996
1670927976.512581,,,,26.180700,26.190453,265792.000000,1670927976.470003
1670927976.512594,,,,26.239479,26.249424,265793.000000,1670927976.471010
1670927976.513212,88.958717,265116.000000,1670927976.457452,,,,
1670927976.513232,88.976807,265117.000000,1670927976.458452,,,,
1670927976.513305,88.687363,265158.000000,1670927976.499452,,,,
1670927976.513317,88.705452,265159.000000,1670927976.500452,,,,
1670927976.513326,88.741631,265160.000000,1670927976.501452,,,,
1670927976.513335,88.687363,265161.000000,1670927976.502452,,,,
1670927976.513342,88.705452,265162.000000,1670927976.503452,,,,
1670927976.513348,88.687363,265163.000000,1670927976.504452,,,,
1670927976.513449,88.705452,265164.000000,1670927976.505452,,,,
1670927976.513467,88.723541,265165.000000,1670927976.506452,,,,
1670927976.513476,88.687363,265166.000000,1670927976.507452,,,,
1670927976.513484,88.705452,265167.000000,1670927976.508452,,,,
1670927976.517022,,,,26.373745,26.383955,265794.000000,1670927976.472017
1670927976.517115,,,,26.540924,26.549690,265795.000000,1670927976.473024
1670927976.517149,,,,26.675045,26.684967,265796.000000,1670927976.474031
1670927976.517414,,,,26.730820,26.740477,265797.000000,1670927976.475038
1670927976.519962,,,,26.753298,26.762955,265798.000000,1670927976.476045
1670927976.519977,,,,26.812004,26.822119,265799.000000,1670927976.477052
1670927976.519985,,,,26.861649,26.872314,265800.000000,1670927976.478059
1670927976.520108,,,,26.849749,26.860607,265801.000000,1670927976.479066
1670927976.520218,,,,26.831141,26.838249,265802.000000,1670927976.480073
1670927976.520233,,,,26.793158,26.802670,265803.000000,1670927976.481081
1670927976.520239,,,,26.753923,26.762281,265804.000000,1670927976.482088
1670927976.520245,,,,26.690912,26.699656,265805.000000,1670927976.483095
1670927976.524295,,,,26.651463,26.662874,265806.000000,1670927976.484102
1670927976.524644,,,,26.649250,26.661480,265807.000000,1670927976.485109
1670927976.524698,,,,26.657640,26.669966,265808.000000,1670927976.486116
1670927976.526821,,,,26.660189,26.673403,265809.000000,1670927976.487123
1670927976.527292,,,,26.650597,26.663475,265810.000000,1670927976.488130
1670927976.527373,,,,26.626268,26.637751,265811.000000,1670927976.489137
1670927976.532599,,,,26.614632,26.626308,265812.000000,1670927976.490144
1670927976.532957,,,,26.583282,26.593805,265813.000000,1670927976.491151
1670927976.533557,,,,26.562681,26.573154,265814.000000,1670927976.492158
1670927976.533757,,,,26.570662,26.581137,265815.000000,1670927976.493165
1670927976.534216,,,,26.550203,26.561520,265816.000000,1670927976.494173
1670927976.534303,,,,26.524937,26.535700,265817.000000,1670927976.495180
1670927976.534734,,,,26.538086,26.549042,265818.000000,1670927976.496187
1670927976.534929,,,,26.557560,26.569405,265819.000000,1670927976.497194
1670927976.535320,,,,26.570181,26.581738,265820.000000,1670927976.498201
1670927976.535450,,,,26.605400,26.616909,265821.000000,1670927976.499208
1670927976.535463,,,,26.623287,26.633736,265822.000000,1670927976.500215
1670927976.539320,,,,26.617493,26.623808,265823.000000,1670927976.501222
1670927976.539596,,,,26.634249,26.639963,265824.000000,1670927976.502229
1670927976.539889,,,,26.643961,26.653425,265825.000000,1670927976.503236
1670927976.542001,,,,26.647182,26.655781,265826.000000,1670927976.504243
1670927976.542143,,,,26.649298,26.658907,265827.000000,1670927976.505250
1670927976.542188,,,,26.637903,26.647488,265828.000000,1670927976.506258
1670927976.542229,,,,26.629105,26.636356,265829.000000,1670927976.507265
1670927976.549736,,,,26.604271,26.613085,265830.000000,1670927976.508272
1670927976.550073,,,,26.584822,26.595633,265831.000000,1670927976.509279
1670927976.550347,,,,26.598213,26.608446,265832.000000,1670927976.510286
1670927976.550782,,,,26.639826,26.648113,265833.000000,1670927976.511293
1670927976.550832,,,,26.601818,26.609552,265834.000000,1670927976.512300
1670927976.551150,,,,26.550756,26.563034,265835.000000,1670927976.513307
1670927976.551180,,,,26.546356,26.558058,265836.000000,1670927976.514314
1670927976.562260,,,,26.546621,26.554859,265837.000000,1670927976.515321
1670927976.562528,,,,26.488323,26.499687,265838.000000,1670927976.516328
1670927976.562696,,,,26.426876,26.436941,265839.000000,1670927976.517335
1670927976.563133,,,,26.435074,26.441870,265840.000000,1670927976.518342
1670927976.563151,,,,26.422596,26.430931,265841.000000,1670927976.519350
1670927976.567310,86.190926,265219.000000,1670927976.556704,,,,
1670927976.567324,86.118568,265220.000000,1670927976.557704,,,,
1670927976.567329,86.118568,265221.000000,1670927976.558704,,,,
1670927976.567336,86.118568,265222.000000,1670927976.559704,,,,
1670927976.567340,86.100479,265223.000000,1670927976.560704,,,,
1670927976.567349,86.064301,265224.000000,1670927976.561704,,,,
1670927976.567376,85.991943,265225.000000,1670927976.562704,,,,
1670927976.567381,85.991943,265226.000000,1670927976.563704,,,,
1670927976.567384,85.973854,265227.000000,1670927976.564704,,,,
1670927976.567400,85.937660,265228.000000,1670927976.565704,,,,
1670927976.569226,,,,26.420313,26.430882,265842.000000,1670927976.520357
1670927976.569394,,,,26.462408,26.472881,265843.000000,1670927976.521364
1670927976.569404,,,,26.514696,26.526203,265844.000000,1670927976.522371
1670927976.571963,,,,26.537918,26.549715,265845.000000,1670927976.523378
1670927976.572284,,,,26.597034,26.605440,265846.000000,1670927976.524385
1670927976.572652,,,,26.675959,26.688694,265847.000000,1670927976.525392
1670927976.573163,,,,26.752169,26.764252,265848.000000,1670927976.526399
1670927976.573183,,,,26.759861,26.771225,265849.000000,1670927976.527406
1670927976.573189,,,,26.712141,26.723888,265850.000000,1670927976.528413
1670927976.579268,,,,26.685623,26.695593,265851.000000,1670927976.529420
1670927976.579518,,,,26.671392,26.681410,265852.000000,1670927976.530427
1670927976.579889,,,,26.654972,26.664341,265853.000000,1670927976.531435
1670927976.580056,,,,26.657688,26.668379,265854.000000,1670927976.532442
1670927976.594564,,,,26.654612,26.667418,265855.000000,1670927976.533449
1670927976.595288,,,,26.617901,26.629673,265856.000000,1670927976.534456
1670927976.595749,,,,26.560181,26.570581,265857.000000,1670927976.535463
1670927976.595764,,,,26.508516,26.519472,265858.000000,1670927976.536470
1670927976.599622,,,,26.495487,26.507212,265859.000000,1670927976.537477
1670927976.599743,,,,26.540131,26.551590,265860.000000,1670927976.538484
1670927976.599765,,,,26.562248,26.572409,265861.000000,1670927976.539491
1670927976.599768,,,,26.544266,26.552599,265862.000000,1670927976.540498
1670927976.605389,,,,26.495174,26.503197,265863.000000,1670927976.541505
1670927976.605676,,,,26.438005,26.445019,265864.000000,1670927976.542512
1670927976.605866,,,,26.482841,26.491873,265865.000000,1670927976.543519
1670927976.605982,,,,26.502193,26.513605,265866.000000,1670927976.544527
1670927976.606116,,,,26.509022,26.517838,265867.000000,1670927976.545534
1670927976.606130,,,,26.542631,26.553272,265868.000000,1670927976.546541
1670927976.606152,,,,26.600424,26.612894,265869.000000,1670927976.547548
1670927976.606367,,,,26.645956,26.658018,265870.000000,1670927976.548555
1670927976.606558,,,,26.666031,26.673500,265871.000000,1670927976.549562
1670927976.606565,,,,26.624128,26.630997,265872.000000,1670927976.550569
1670927976.606748,,,,26.612131,26.618013,265873.000000,1670927976.551576
1670927976.606894,,,,26.594679,26.604551,265874.000000,1670927976.552583
1670927976.607014,,,,26.540058,26.551109,265875.000000,1670927976.553590
1670927976.607707,,,,26.564627,26.574862,265877.000000,1670927976.555604
1670927976.607722,,,,26.599918,26.610586,265878.000000,1670927976.556612
1670927976.607736,,,,26.550756,26.563705,265879.000000,1670927976.557619
1670927976.607743,,,,26.566071,26.575895,265880.000000,1670927976.558626
1670927976.607765,,,,26.623648,26.633760,265881.000000,1670927976.559633
1670927976.608041,,,,26.613791,26.622316,265882.000000,1670927976.560640
1670927976.608078,,,,26.553810,26.564236,265883.000000,1670927976.561647
1670927976.608175,,,,26.560854,26.571112,265884.000000,1670927976.562654
1670927976.608189,,,,26.620281,26.632030,265885.000000,1670927976.563661
1670927976.608291,,,,26.680552,26.692036,265886.000000,1670927976.564668
1670927976.608301,,,,26.682426,26.693790,265887.000000,1670927976.565675
1670927976.608317,,,,26.655525,26.667320,265888.000000,1670927976.566682
1670927976.608477,,,,26.651485,26.663017,265889.000000,1670927976.567689
1670927976.608638,,,,26.678844,26.692059,265890.000000,1670927976.568696
1670927976.608828,,,,26.679831,26.694534,265891.000000,1670927976.569704
1670927976.609383,,,,26.687788,26.696602,265892.000000,1670927976.570711
1670927976.609515,,,,26.675310,26.684750,265893.000000,1670927976.571718
1670927976.609527,,,,26.627132,26.637510,265894.000000,1670927976.572725
1670927976.609534,,,,26.599968,26.612942,265895.000000,1670927976.573732
1670927976.609625,,,,26.579365,26.592411,265896.000000,1670927976.574739
1670927976.609656,,,,26.528711,26.540411,265897.000000,1670927976.575746
1670927976.609731,,,,26.481833,26.492378,265898.000000,1670927976.576753
1670927976.615298,,,,26.479958,26.491272,265899.000000,1670927976.577760
1670927976.615544,,,,26.541332,26.555220,265900.000000,1670927976.578767
1670927976.615676,,,,26.604967,26.613710,265901.000000,1670927976.579774
1670927976.623292,,,,26.635042,26.643593,265902.000000,1670927976.580781
1670927976.623658,,,,26.679373,26.686146,265903.000000,1670927976.581789
1670927976.623676,,,,26.722406,26.730860,265904.000000,1670927976.582796
1670927976.629589,,,,26.694902,26.705618,265905.000000,1670927976.583803
1670927976.630034,,,,26.662329,26.674414,265906.000000,1670927976.584810
1670927976.630199,,,,26.649057,26.662128,265907.000000,1670927976.585817
1670927976.631161,85.919571,265229.000000,1670927976.570348,,,,
1670927976.631807,85.883392,265230.000000,1670927976.571348,,,,
1670927976.631819,,,,26.632807,26.643833,265908.000000,1670927976.586824
1670927976.631926,,,,26.623430,26.636236,265909.000000,1670927976.587831
1670927976.632129,85.702507,265241.000000,1670927976.582348,,,,
1670927976.632148,85.702507,265242.000000,1670927976.583348,,,,
1670927976.632193,85.720596,265243.000000,1670927976.584348,,,,
1670927976.632202,85.684418,265244.000000,1670927976.585348,,,,
1670927976.632355,,,,26.615137,26.625898,265910.000000,1670927976.588838
1670927976.632367,,,,26.597610,26.606884,265911.000000,1670927976.589845
1670927976.633594,85.666306,265245.000000,1670927976.586348,,,,
1670927976.633613,85.648224,265246.000000,1670927976.587348,,,,
1670927976.633627,85.756767,265247.000000,1670927976.588348,,,,
1670927976.633639,85.702507,265248.000000,1670927976.589348,,,,
1670927976.633647,85.684418,265249.000000,1670927976.590348,,,,
1670927976.633655,85.738686,265250.000000,1670927976.591348,,,,
1670927976.633661,85.033157,265280.000000,1670927976.621348,,,,
1670927976.633704,84.996979,265281.000000,1670927976.622348,,,,
1670927976.633765,84.942711,265282.000000,1670927976.623348,,,,
1670927976.633778,84.906532,265283.000000,1670927976.624348,,,,
1670927976.633816,84.924622,265284.000000,1670927976.625348,,,,
1670927976.633830,84.816071,265285.000000,1670927976.626348,,,,
1670927976.633839,84.834183,265286.000000,1670927976.627348,,,,
1670927976.633845,84.816071,265287.000000,1670927976.628348,,,,
1670927976.633851,84.761810,265288.000000,1670927976.629348,,,,
1670927976.633866,84.689453,265289.000000,1670927976.630348,,,,
1670927976.636945,,,,26.587828,26.597963,265912.000000,1670927976.590852
1670927976.637184,,,,26.599125,26.610033,265913.000000,1670927976.591859
1670927976.637412,,,,26.617830,26.629745,265914.000000,1670927976.592866
1670927976.637576,,,,26.644852,26.655085,265915.000000,1670927976.593874
1670927976.639168,,,,26.644562,26.653330,265916.000000,1670927976.594881
1670927976.639438,,,,26.628263,26.638161,265917.000000,1670927976.595888
1670927976.639887,,,,26.558016,26.569355,265918.000000,1670927976.596895
1670927976.639929,,,,26.509600,26.519978,265919.000000,1670927976.597902
1670927976.644237,,,,26.508228,26.518101,265920.000000,1670927976.598909
1670927976.644585,,,,26.487217,26.494493,265921.000000,1670927976.599916
1670927976.644768,,,,26.451540,26.459900,265922.000000,1670927976.600923
1670927976.646778,,,,26.411634,26.421387,265923.000000,1670927976.601930
1670927976.647098,,,,26.413677,26.426195,265924.000000,1670927976.602937
1670927976.647334,,,,26.437284,26.448023,265925.000000,1670927976.603944
1670927976.647418,,,,26.480078,26.492378,265926.000000,1670927976.604951
1670927976.651812,,,,26.589943,26.600897,265927.000000,1670927976.605958
1670927976.652002,,,,26.699207,26.709032,265928.000000,1670927976.606966
1670927976.652013,,,,26.708559,26.719561,265929.000000,1670927976.607973
1670927976.654165,,,,26.714664,26.725235,265930.000000,1670927976.608980
1670927976.654364,,,,26.735027,26.745598,265931.000000,1670927976.609987
1670927976.654598,,,,26.742432,26.753098,265932.000000,1670927976.610994
1670927976.654666,,,,26.713751,26.723455,265933.000000,1670927976.612001
1670927976.659611,,,,26.610041,26.618063,265934.000000,1670927976.613008
1670927976.659779,,,,26.554604,26.562817,265935.000000,1670927976.614015
1670927976.660165,,,,26.524408,26.533968,265936.000000,1670927976.615022
1670927976.660181,,,,26.474669,26.486776,265937.000000,1670927976.616029
1670927976.660195,,,,26.485918,26.497955,265938.000000,1670927976.617036
1670927976.660202,,,,26.520105,26.530724,265939.000000,1670927976.618043
1670927976.660259,,,,26.492290,26.503918,265940.000000,1670927976.619051
1670927976.677236,,,,26.418341,26.428646,265941.000000,1670927976.620058
1670927976.677266,,,,26.396729,26.407274,265942.000000,1670927976.621065
1670927976.677502,,,,26.432236,26.441629,265943.000000,1670927976.622072
1670927976.678039,,,,26.498636,26.507404,265944.000000,1670927976.623079
1670927976.678226,,,,26.542511,26.548801,265945.000000,1670927976.624086
1670927976.678239,,,,26.601578,26.610826,265946.000000,1670927976.625093
1670927976.684161,,,,26.704063,26.715090,265947.000000,1670927976.626100
1670927976.684753,,,,26.737816,26.748339,265948.000000,1670927976.627107
1670927976.685052,,,,26.719040,26.725788,265949.000000,1670927976.628114
1670927976.685523,,,,26.708366,26.717663,265950.000000,1670927976.629121
1670927976.685541,,,,26.714184,26.727663,265951.000000,1670927976.630128
1670927976.685934,,,,26.710770,26.724129,265952.000000,1670927976.631135
1670927976.685946,,,,26.662209,26.673019,265953.000000,1670927976.632143
1670927976.686359,,,,26.596169,26.606739,265954.000000,1670927976.633150
1670927976.686385,,,,26.530418,26.541565,265955.000000,1670927976.634157
1670927976.686967,,,,26.525202,26.535748,265956.000000,1670927976.635164
1670927976.686981,,,,26.580687,26.588852,265957.000000,1670927976.636171
1670927976.687239,,,,26.587706,26.595247,265958.000000,1670927976.637178
1670927976.687516,,,,26.580421,26.589886,265959.000000,1670927976.638185
1670927976.687862,,,,26.563137,26.572361,265960.000000,1670927976.639192
1670927976.687932,,,,26.556406,26.567360,265961.000000,1670927976.640199
1670927976.688904,82.988983,265341.000000,1670927976.676820,,,,
1670927976.688924,82.952805,265342.000000,1670927976.677820,,,,
1670927976.688931,82.916626,265343.000000,1670927976.678820,,,,
1670927976.688937,82.934715,265344.000000,1670927976.679820,,,,
1670927976.688947,82.862343,265345.000000,1670927976.680820,,,,
1670927976.688953,82.862343,265346.000000,1670927976.681820,,,,
1670927976.688970,82.826164,265347.000000,1670927976.682820,,,,
1670927976.688979,82.771896,265348.000000,1670927976.683820,,,,
1670927976.689016,82.771896,265349.000000,1670927976.684820,,,,
1670927976.689023,82.753807,265350.000000,1670927976.685820,,,,
