__time,/gdx/grip_force_stream/grip_force,/gdx/grip_force_stream/header/seq,/gdx/grip_force_stream/header/stamp,/shimmer0/emg_stream/emg_ch1,/shimmer0/emg_stream/emg_ch2,/shimmer0/emg_stream/header/seq,/shimmer0/emg_stream/header/stamp
1673606840.908902,-0.546731,1115753.000000,1673606840.848775,,,,
1673606840.909168,-0.600999,1115754.000000,1673606840.849775,,,,
1673606840.909369,-0.564820,1115755.000000,1673606840.850775,,,,
1673606840.910164,,,,0.566297,0.566342,857115.000000,1673606840.908761
1673606840.910567,-0.600999,1115756.000000,1673606840.851775,,,,
1673606840.910590,-0.564820,1115757.000000,1673606840.852775,,,,
1673606840.910599,-0.528634,1115758.000000,1673606840.853775,,,,
1673606840.910622,-0.582909,1115759.000000,1673606840.854775,,,,
1673606840.910712,-0.600999,1115760.000000,1673606840.855775,,,,
1673606840.911005,-0.257290,1115803.000000,1673606840.898775,,,,
1673606840.911054,-0.275379,1115804.000000,1673606840.899775,,,,
1673606840.911077,-0.275379,1115805.000000,1673606840.900775,,,,
1673606840.911094,-0.257290,1115806.000000,1673606840.901775,,,,
1673606840.911152,-0.293468,1115807.000000,1673606840.902775,,,,
1673606840.911171,-0.257290,1115808.000000,1673606840.903775,,,,
1673606840.911242,-0.257290,1115809.000000,1673606840.904775,,,,
1673606840.911262,-0.275379,1115810.000000,1673606840.905775,,,,
1673606840.911273,-0.275379,1115811.000000,1673606840.906775,,,,
1673606840.911290,-0.257290,1115812.000000,1673606840.907775,,,,
1673606840.911325,,,,0.564398,0.561054,857116.000000,1673606840.909768
1673606840.911337,,,,0.557378,0.558529,857117.000000,1673606840.910775
1673606840.911650,,,,0.556465,0.556269,857118.000000,1673606840.911782
1673606840.911696,,,,0.562090,0.561727,857119.000000,1673606840.912789
1673606840.912027,,,,0.570865,0.570550,857120.000000,1673606840.913796
1673606840.912147,,,,0.573942,0.574588,857121.000000,1673606840.914804
1673606840.912158,,,,0.569326,0.571343,857122.000000,1673606840.915811
1673606840.912339,,,,0.571154,0.571872,857123.000000,1673606840.916818
1673606840.912537,,,,0.573101,0.572112,857124.000000,1673606840.917825
1673606840.912657,,,,0.574303,0.573218,857125.000000,1673606840.918832
1673606840.913829,,,,0.574543,0.573939,857126.000000,1673606840.919839
1673606840.917382,,,,0.572067,0.575959,857127.000000,1673606840.920846
1673606840.917545,,,,0.573005,0.573795,857128.000000,1673606840.921853
1673606840.917555,,,,0.571562,0.570309,857129.000000,1673606840.922860
1673606840.920111,,,,0.568461,0.570189,857130.000000,1673606840.923867
1673606840.920125,,,,0.562667,0.561871,857131.000000,1673606840.924874
1673606840.920211,,,,0.562186,0.560164,857132.000000,1673606840.925881
1673606840.920535,,,,0.561730,0.560284,857133.000000,1673606840.926888
1673606840.920619,,,,0.567980,0.565934,857134.000000,1673606840.927896
1673606840.920869,,,,0.578847,0.576680,857135.000000,1673606840.928903
1673606840.920881,,,,0.585554,0.585887,857136.000000,1673606840.929910
1673606840.924953,,,,0.588367,0.590095,857137.000000,1673606840.930917
1673606840.925172,,,,0.589881,0.589205,857138.000000,1673606840.931924
1673606840.925392,,,,0.596108,0.595023,857139.000000,1673606840.932931
1673606840.925804,,,,0.588318,0.587666,857140.000000,1673606840.933938
1673606840.927475,,,,0.573534,0.574156,857141.000000,1673606840.934945
1673606840.927524,,,,0.564326,0.565140,857142.000000,1673606840.935952
1673606840.927888,,,,0.558244,0.557015,857143.000000,1673606840.936959
1673606840.932503,,,,0.549541,0.549442,857144.000000,1673606840.937966
1673606840.932800,,,,0.554277,0.556149,857145.000000,1673606840.938973
1673606840.933321,,,,0.565071,0.566943,857146.000000,1673606840.939981
1673606840.933342,,,,0.568076,0.566655,857147.000000,1673606840.940988
1673606840.940201,,,,0.562908,0.558818,857148.000000,1673606840.941995
1673606840.940221,,,,0.557042,0.555933,857149.000000,1673606840.943002
1673606840.940282,,,,0.547978,0.548072,857150.000000,1673606840.944009
1673606840.942322,,,,0.540285,0.544201,857151.000000,1673606840.945016
1673606840.942737,,,,0.543122,0.544682,857152.000000,1673606840.946023
1673606840.942791,,,,0.554229,0.554875,857153.000000,1673606840.947030
1673606840.942848,,,,0.560047,0.560861,857154.000000,1673606840.948037
1673606840.956589,,,,0.558268,0.558649,857155.000000,1673606840.949044
1673606840.956614,,,,0.556681,0.556750,857156.000000,1673606840.950051
1673606840.957230,,,,0.550527,0.551461,857157.000000,1673606840.951058
1673606840.957515,,,,0.551705,0.551678,857158.000000,1673606840.952065
1673606840.957541,,,,0.557595,0.559178,857159.000000,1673606840.953073
1673606840.957550,,,,0.569711,0.572449,857160.000000,1673606840.954080
1673606840.957594,,,,0.579520,0.579324,857161.000000,1673606840.955087
1673606840.963772,,,,0.578029,0.578795,857162.000000,1673606840.956094
1673606840.964196,-0.329646,1115814.000000,1673606840.903473,,,,
1673606840.964230,-0.347735,1115815.000000,1673606840.904473,,,,
1673606840.964243,,,,0.570913,0.570261,857163.000000,1673606840.957101
1673606840.964867,,,,0.561369,0.562304,857164.000000,1673606840.958108
1673606840.965997,-0.257290,1115816.000000,1673606840.905473,,,,
1673606840.966016,-0.221104,1115817.000000,1673606840.906473,,,,
1673606840.966023,-0.221104,1115818.000000,1673606840.907473,,,,
1673606840.966037,-0.257290,1115819.000000,1673606840.908473,,,,
1673606840.966050,-0.239193,1115820.000000,1673606840.909473,,,,
1673606840.966059,-0.203014,1115821.000000,1673606840.910473,,,,
1673606840.966063,-0.221104,1115822.000000,1673606840.911473,,,,
1673606840.966149,-0.184925,1115823.000000,1673606840.912473,,,,
1673606840.966159,-0.004027,1115864.000000,1673606840.953473,,,,
1673606840.966174,-0.004027,1115865.000000,1673606840.954473,,,,
1673606840.966203,-0.058294,1115866.000000,1673606840.955473,,,,
1673606840.966213,-0.040205,1115867.000000,1673606840.956473,,,,
1673606840.966219,-0.076383,1115868.000000,1673606840.957473,,,,
1673606840.966225,-0.004027,1115869.000000,1673606840.958473,,,,
1673606840.966246,-0.022116,1115870.000000,1673606840.959473,,,,
1673606840.966255,-0.004027,1115871.000000,1673606840.960473,,,,
1673606840.966275,-0.004027,1115872.000000,1673606840.961473,,,,
1673606840.966302,0.032160,1115873.000000,1673606840.962473,,,,
1673606840.970270,,,,0.549902,0.550956,857165.000000,1673606840.959115
1673606840.970286,,,,0.544805,0.547663,857166.000000,1673606840.960122
1673606840.970556,,,,0.546368,0.548601,857167.000000,1673606840.961129
1673606840.970865,,,,0.559350,0.559106,857168.000000,1673606840.962136
1673606840.970873,,,,0.569639,0.569059,857169.000000,1673606840.963143
1673606840.970877,,,,0.572067,0.572833,857170.000000,1673606840.964150
1673606840.970921,,,,0.577019,0.578555,857171.000000,1673606840.965158
1673606840.977578,,,,0.580962,0.581921,857172.000000,1673606840.966165
1673606840.977787,,,,0.578991,0.580911,857173.000000,1673606840.967172
1673606840.977966,,,,0.575721,0.578194,857174.000000,1673606840.968179
1673606840.978093,,,,0.569230,0.569083,857175.000000,1673606840.969186
1673606840.978272,,,,0.564494,0.562640,857176.000000,1673606840.970193
1673606840.978282,,,,0.565360,0.563049,857177.000000,1673606840.971200
1673606840.978324,,,,0.576491,0.574300,857178.000000,1673606840.972207
1673606840.980302,,,,0.594809,0.596153,857179.000000,1673606840.973214
1673606840.980312,,,,0.607359,0.609014,857180.000000,1673606840.974221
1673606840.980315,,,,0.611349,0.612981,857181.000000,1673606840.975228
1673606840.980336,,,,0.601925,0.602331,857182.000000,1673606840.976235
1673606840.980340,,,,0.576274,0.576199,857183.000000,1673606840.977242
1673606840.980347,,,,0.534540,0.532974,857184.000000,1673606840.978250
1673606840.980367,,,,0.506941,0.507083,857185.000000,1673606840.979257
1673606840.980386,,,,0.515596,0.513934,857186.000000,1673606840.980264
1673606840.984793,,,,0.529010,0.527685,857187.000000,1673606840.981271
1673606840.984918,,,,0.533362,0.532085,857188.000000,1673606840.982278
1673606840.985478,,,,0.528434,0.527253,857189.000000,1673606840.983285
1673606840.985559,,,,0.535261,0.535162,857190.000000,1673606840.984292
1673606840.989419,,,,0.548483,0.547302,857191.000000,1673606840.985299
1673606840.989653,,,,0.558436,0.560284,857192.000000,1673606840.986306
1673606840.989702,,,,0.560311,0.560332,857193.000000,1673606840.987313
1673606840.992433,,,,0.566249,0.564107,857194.000000,1673606840.988320
1673606840.992702,,,,0.582164,0.582618,857195.000000,1673606840.989327
1673606840.993087,,,,0.585722,0.586104,857196.000000,1673606840.990335
1673606840.996979,,,,0.586996,0.585719,857197.000000,1673606840.991342
1673606840.997318,,,,0.586732,0.586897,857198.000000,1673606840.992349
1673606840.997693,,,,0.581587,0.581296,857199.000000,1673606840.993356
1673606840.997898,,,,0.571971,0.571800,857200.000000,1673606840.994363
1673606840.999976,,,,0.564639,0.564347,857201.000000,1673606840.995370
1673606841.000269,,,,0.557691,0.557760,857202.000000,1673606840.996377
1673606841.000813,,,,0.558532,0.558433,857203.000000,1673606840.997384
1673606841.000837,,,,0.554373,0.554539,857204.000000,1673606840.998391
1673606841.004340,,,,0.549469,0.551870,857205.000000,1673606840.999398
1673606841.004350,,,,0.549469,0.551558,857206.000000,1673606841.000405
1673606841.004354,,,,0.553652,0.553000,857207.000000,1673606841.001412
1673606841.018189,,,,0.547353,0.548841,857208.000000,1673606841.002419
1673606841.018735,,,,0.537401,0.539898,857209.000000,1673606841.003427
1673606841.019139,,,,0.545743,0.546990,857210.000000,1673606841.004434
1673606841.019590,,,,0.557402,0.556366,857211.000000,1673606841.005441
1673606841.024270,,,,0.556152,0.555813,857212.000000,1673606841.006448
1673606841.024283,,,,0.554542,0.552639,857213.000000,1673606841.007455
1673606841.024289,,,,0.545526,0.541725,857214.000000,1673606841.008462
1673606841.024650,,,,0.532280,0.531772,857215.000000,1673606841.009469
1673606841.025176,,,,0.508792,0.509559,857216.000000,1673606841.010476
1673606841.025257,,,,0.497734,0.496384,857217.000000,1673606841.011483
1673606841.025267,,,,0.508913,0.509366,857218.000000,1673606841.012490
1673606841.029704,0.194970,1115925.000000,1673606841.019217,,,,
1673606841.029717,0.213059,1115926.000000,1673606841.020217,,,,
1673606841.029722,0.213059,1115927.000000,1673606841.021217,,,,
1673606841.029727,0.213059,1115928.000000,1673606841.022217,,,,
1673606841.029732,0.231148,1115929.000000,1673606841.023217,,,,
1673606841.029737,0.176880,1115930.000000,1673606841.024217,,,,
1673606841.029795,0.249237,1115931.000000,1673606841.025217,,,,
1673606841.029811,0.249237,1115932.000000,1673606841.026217,,,,
1673606841.029822,0.213059,1115933.000000,1673606841.027217,,,,
1673606841.029839,0.231148,1115934.000000,1673606841.028217,,,,
1673606841.030161,,,,0.521293,0.522396,857219.000000,1673606841.013497
1673606841.030259,,,,0.521582,0.521266,857220.000000,1673606841.014504
1673606841.030513,,,,0.503119,0.505039,857221.000000,1673606841.015512
1673606841.030523,,,,0.507831,0.508765,857222.000000,1673606841.016519
1673606841.030531,,,,0.512687,0.513477,857223.000000,1673606841.017526
1673606841.030537,,,,0.499945,0.497971,857224.000000,1673606841.018533
1673606841.030541,,,,0.501340,0.500808,857225.000000,1673606841.019540
1673606841.032544,,,,0.512591,0.513501,857226.000000,1673606841.020547
1673606841.032552,,,,0.517928,0.519031,857227.000000,1673606841.021554
1673606841.032562,,,,0.517183,0.518502,857228.000000,1673606841.022561
1673606841.032758,,,,0.514730,0.515617,857229.000000,1673606841.023568
1673606841.032774,,,,0.525260,0.525137,857230.000000,1673606841.024575
1673606841.032783,,,,0.541463,0.541100,857231.000000,1673606841.025582
1673606841.032789,,,,0.539853,0.537590,857232.000000,1673606841.026589
1673606841.037403,,,,0.529708,0.529681,857233.000000,1673606841.027596
1673606841.037737,,,,0.524635,0.525425,857234.000000,1673606841.028604
1673606841.037804,,,,0.519154,0.518165,857235.000000,1673606841.029611
1673606841.039716,,,,0.493911,0.492658,857236.000000,1673606841.030618
1673606841.039725,,,,0.474607,0.472224,857237.000000,1673606841.031625
1673606841.039834,,,,0.469895,0.472224,857238.000000,1673606841.032632
1673606841.039949,,,,0.493623,0.495231,857239.000000,1673606841.033639
1673606841.044863,,,,0.510812,0.512371,857240.000000,1673606841.034646
1673606841.045003,,,,0.516245,0.516170,857241.000000,1673606841.035653
1673606841.045105,,,,0.519106,0.517636,857242.000000,1673606841.036660
1673606841.045253,,,,0.519875,0.519055,857243.000000,1673606841.037667
1673606841.047499,,,,0.525428,0.526844,857244.000000,1673606841.038674
1673606841.048340,,,,0.555719,0.558481,857245.000000,1673606841.039681
1673606841.048477,,,,0.542762,0.542663,857246.000000,1673606841.040689
1673606841.048495,,,,0.528025,0.529152,857247.000000,1673606841.041696
1673606841.052394,,,,0.539083,0.540980,857248.000000,1673606841.042703
1673606841.052695,,,,0.529828,0.531363,857249.000000,1673606841.043710
1673606841.055240,,,,0.507999,0.508116,857250.000000,1673606841.044717
1673606841.055263,,,,0.509490,0.510520,857251.000000,1673606841.045724
1673606841.055279,,,,0.522447,0.521988,857252.000000,1673606841.046731
1673606841.055288,,,,0.533025,0.534994,857253.000000,1673606841.047738
1673606841.060380,,,,0.537112,0.537326,857254.000000,1673606841.048745
1673606841.060391,,,,0.526126,0.527108,857255.000000,1673606841.049752
1673606841.060736,,,,0.493118,0.495471,857256.000000,1673606841.050759
1673606841.060869,,,,0.454292,0.455035,857257.000000,1673606841.051766
1673606841.060950,,,,0.420828,0.420344,857258.000000,1673606841.052773
1673606841.061191,,,,0.400370,0.400391,857259.000000,1673606841.053781
1673606841.061277,,,,0.397581,0.396015,857260.000000,1673606841.054788
1673606841.061555,,,,0.402846,0.403275,857261.000000,1673606841.055795
1673606841.062179,,,,0.430829,0.430561,857262.000000,1673606841.056802
1673606841.062416,,,,0.484776,0.484821,857263.000000,1673606841.057809
1673606841.062544,,,,0.505835,0.505063,857264.000000,1673606841.058816
1673606841.076191,,,,0.500378,0.498861,857265.000000,1673606841.059823
1673606841.076377,,,,0.524347,0.524945,857266.000000,1673606841.060830
1673606841.076747,,,,0.575361,0.576584,857267.000000,1673606841.061837
1673606841.092507,0.267326,1115935.000000,1673606841.032006,,,,
1673606841.093446,0.285415,1115936.000000,1673606841.033005,,,,
1673606841.093459,0.303504,1115937.000000,1673606841.034005,,,,
1673606841.093464,0.267326,1115938.000000,1673606841.035006,,,,
1673606841.093491,0.810030,1115986.000000,1673606841.083005,,,,
1673606841.093497,0.755763,1115987.000000,1673606841.084006,,,,
1673606841.093502,0.810030,1115988.000000,1673606841.085006,,,,
1673606841.093512,0.828119,1115989.000000,1673606841.086005,,,,
1673606841.093518,0.828119,1115990.000000,1673606841.087005,,,,
1673606841.093526,0.882395,1115991.000000,1673606841.088006,,,,
1673606841.093531,0.882395,1115992.000000,1673606841.089005,,,,
1673606841.093536,0.882395,1115993.000000,1673606841.090005,,,,
1673606841.093569,0.900484,1115994.000000,1673606841.091006,,,,
1673606841.093581,0.900484,1115995.000000,1673606841.092005,,,,
1673606841.098306,,,,0.617576,0.616419,857268.000000,1673606841.062844
1673606841.098369,,,,0.652507,0.652504,857269.000000,1673606841.063851
1673606841.098381,,,,0.653637,0.656783,857270.000000,1673606841.064858
1673606841.098490,,,,0.622817,0.624953,857271.000000,1673606841.065866
1673606841.098569,,,,0.591155,0.593027,857272.000000,1673606841.066873
1673606841.098827,,,,0.577428,0.576247,857273.000000,1673606841.067880
1673606841.098968,,,,0.583510,0.583459,857274.000000,1673606841.068887
1673606841.099041,,,,0.581563,0.579925,857275.000000,1673606841.069894
1673606841.099109,,,,0.563677,0.564732,857276.000000,1673606841.070901
1673606841.099118,,,,0.561802,0.563626,857277.000000,1673606841.071908
1673606841.099155,,,,0.565817,0.567064,857278.000000,1673606841.072915
1673606841.099669,,,,0.574832,0.576992,857279.000000,1673606841.073922
1673606841.099946,,,,0.578053,0.581873,857280.000000,1673606841.074929
1673606841.100230,,,,0.589737,0.591633,857281.000000,1673606841.075936
1673606841.100399,,,,0.590915,0.592210,857282.000000,1673606841.076943
1673606841.105123,,,,0.593728,0.594061,857283.000000,1673606841.077950
1673606841.105352,,,,0.588150,0.587210,857284.000000,1673606841.078958
1673606841.105372,,,,0.589857,0.590816,857285.000000,1673606841.079965
1673606841.105388,,,,0.578221,0.578146,857286.000000,1673606841.080972
1673606841.107264,,,,0.579928,0.580695,857287.000000,1673606841.081979
1673606841.107465,,,,0.563172,0.565140,857288.000000,1673606841.082986
1673606841.107481,,,,0.522640,0.523358,857289.000000,1673606841.083993
1673606841.112965,,,,0.512591,0.510160,857290.000000,1673606841.085000
1673606841.113062,,,,0.531583,0.530065,857291.000000,1673606841.086007
1673606841.113379,,,,0.557306,0.557111,857292.000000,1673606841.087014
1673606841.113432,,,,0.543315,0.546221,857293.000000,1673606841.088021
1673606841.115454,,,,0.506677,0.506914,857294.000000,1673606841.089028
1673606841.115636,,,,0.494200,0.495134,857295.000000,1673606841.090035
1673606841.115984,,,,0.526871,0.528190,857296.000000,1673606841.091043
1673606841.116011,,,,0.529996,0.529248,857297.000000,1673606841.092050
1673606841.116657,,,,0.534876,0.533984,857298.000000,1673606841.093057
1673606841.116781,,,,0.537569,0.536051,857299.000000,1673606841.094064
1673606841.119887,,,,0.541896,0.538912,857300.000000,1673606841.095071
1673606841.120207,,,,0.545334,0.546846,857301.000000,1673606841.096078
1673606841.120395,,,,0.547353,0.547567,857302.000000,1673606841.097085
1673606841.120587,,,,0.547858,0.548240,857303.000000,1673606841.098092
1673606841.122493,,,,0.548171,0.549586,857304.000000,1673606841.099099
1673606841.122701,,,,0.543387,0.544105,857305.000000,1673606841.100106
1673606841.122934,,,,0.538747,0.539585,857306.000000,1673606841.101113
1673606841.123260,,,,0.530717,0.532277,857307.000000,1673606841.102120
1673606841.123534,,,,0.526078,0.526219,857308.000000,1673606841.103127
1673606841.123555,,,,0.518601,0.518622,857309.000000,1673606841.104135
1673606841.123562,,,,0.518649,0.518454,857310.000000,1673606841.105142
1673606841.136260,,,,0.528914,0.528166,857311.000000,1673606841.106149
1673606841.136872,,,,0.533795,0.531772,857312.000000,1673606841.107156
1673606841.137060,,,,0.520236,0.520137,857313.000000,1673606841.108163
1673606841.137095,,,,0.499609,0.499726,857314.000000,1673606841.109170
1673606841.143857,,,,0.478309,0.476142,857315.000000,1673606841.110177
1673606841.143870,,,,0.428329,0.428542,857316.000000,1673606841.111184
1673606841.144016,,,,0.411524,0.412291,857317.000000,1673606841.112191
1673606841.144277,,,,0.440950,0.441692,857318.000000,1673606841.113198
1673606841.146260,2.383869,1116047.000000,1673606841.136009,,,,
1673606841.146268,2.456234,1116048.000000,1673606841.137009,,,,
1673606841.146278,2.528590,1116049.000000,1673606841.138009,,,,
1673606841.146300,2.528590,1116050.000000,1673606841.139009,,,,
1673606841.146305,2.510501,1116051.000000,1673606841.140008,,,,
1673606841.146311,2.619043,1116052.000000,1673606841.141009,,,,
1673606841.146318,2.655221,1116053.000000,1673606841.142009,,,,
1673606841.146323,2.673311,1116054.000000,1673606841.143008,,,,
1673606841.146326,2.727586,1116055.000000,1673606841.144009,,,,
1673606841.146336,2.727586,1116056.000000,1673606841.145009,,,,
1673606841.149751,,,,0.484511,0.485951,857319.000000,1673606841.114205
1673606841.149923,,,,0.498527,0.497202,857320.000000,1673606841.115212
1673606841.150037,,,,0.550455,0.549875,857321.000000,1673606841.116220
1673606841.152572,,,,0.581972,0.582786,857322.000000,1673606841.117227
1673606841.152642,,,,0.565913,0.567208,857323.000000,1673606841.118234
1673606841.152649,,,,0.552354,0.552231,857324.000000,1673606841.119241
1673606841.152659,,,,0.549854,0.552399,857325.000000,1673606841.120248
1673606841.152668,,,,0.561369,0.563265,857326.000000,1673606841.121255
1673606841.152801,,,,0.576178,0.578916,857327.000000,1673606841.122262
1673606841.152910,,,,0.574976,0.575646,857328.000000,1673606841.123269
1673606841.157602,,,,0.559470,0.557255,857329.000000,1673606841.124276
1673606841.157712,,,,0.550262,0.548408,857330.000000,1673606841.125283
1673606841.157752,,,,0.546776,0.547110,857331.000000,1673606841.126290
1673606841.157758,,,,0.541103,0.541605,857332.000000,1673606841.127297
1673606841.162037,,,,0.540237,0.539537,857333.000000,1673606841.128304
1673606841.162870,,,,0.542329,0.540379,857334.000000,1673606841.129312
1673606841.163303,,,,0.551176,0.550596,857335.000000,1673606841.130319
1673606841.163330,,,,0.557282,0.555452,857336.000000,1673606841.131326
1673606841.163415,,,,0.540766,0.539489,857337.000000,1673606841.132333
1673606841.163937,,,,0.532016,0.531003,857338.000000,1673606841.133340
1673606841.164417,,,,0.549229,0.549442,857339.000000,1673606841.134347
1673606841.164994,,,,0.573894,0.575310,857340.000000,1673606841.135354
1673606841.165528,,,,0.557306,0.558698,857341.000000,1673606841.136361
1673606841.165541,,,,0.528890,0.529801,857342.000000,1673606841.137368
1673606841.165691,,,,0.507182,0.504991,857343.000000,1673606841.138375
1673606841.165716,,,,0.534468,0.533575,857344.000000,1673606841.139382
1673606841.165730,,,,0.583775,0.582786,857345.000000,1673606841.140389
1673606841.166080,,,,0.573990,0.574180,857346.000000,1673606841.141397
1673606841.167438,,,,0.534347,0.534441,857351.000000,1673606841.146432
1673606841.167461,,,,0.550887,0.552784,857352.000000,1673606841.147439
1673606841.167480,,,,0.566369,0.566751,857353.000000,1673606841.148446
1673606841.167495,,,,0.567812,0.567833,857354.000000,1673606841.149453
1673606841.167540,,,,0.563196,0.562544,857355.000000,1673606841.150460
1673606841.167548,,,,0.561153,0.561775,857356.000000,1673606841.151467
1673606841.167667,,,,0.552065,0.553168,857357.000000,1673606841.152474
1673606841.167736,,,,0.507927,0.509583,857358.000000,1673606841.153481
1673606841.167744,,,,0.439868,0.440971,857359.000000,1673606841.154489
1673606841.167762,,,,0.310362,0.308508,857360.000000,1673606841.155496
1673606841.172654,,,,0.191577,0.190781,857361.000000,1673606841.156503
1673606841.172849,,,,0.127870,0.126401,857362.000000,1673606841.157510
1673606841.173010,,,,0.086015,0.089450,857363.000000,1673606841.158517
1673606841.173172,,,,0.065437,0.067621,857364.000000,1673606841.159524
1673606841.173313,,,,0.154843,0.153735,857365.000000,1673606841.160531
1673606841.173491,,,,0.296827,0.297569,857366.000000,1673606841.161538
1673606841.173709,,,,0.421573,0.422796,857367.000000,1673606841.162545
1673606841.174592,,,,0.518000,0.520305,857368.000000,1673606841.163552
1673606841.174780,,,,0.568293,0.570598,857369.000000,1673606841.164559
1673606841.174994,,,,0.606806,0.608654,857370.000000,1673606841.165566
1673606841.175143,,,,0.705516,0.707917,857371.000000,1673606841.166574
1673606841.180000,,,,0.765281,0.768716,857372.000000,1673606841.167581
1673606841.180414,,,,0.775114,0.777250,857373.000000,1673606841.168588
1673606841.180612,,,,0.747034,0.745757,857374.000000,1673606841.169595
1673606841.180840,,,,0.745736,0.742800,857375.000000,1673606841.170602
1673606841.182996,,,,0.743813,0.745493,857376.000000,1673606841.171609
1673606841.183310,,,,0.692390,0.692507,857377.000000,1673606841.172616
1673606841.183328,,,,0.627096,0.625338,857378.000000,1673606841.173623
1673606841.184073,,,,0.554157,0.553889,857379.000000,1673606841.174630
1673606841.184383,,,,0.508744,0.512155,857380.000000,1673606841.175637
1673606841.184495,,,,0.524924,0.528334,857381.000000,1673606841.176644
1673606841.189858,,,,0.566418,0.568194,857382.000000,1673606841.177651
1673606841.190223,,,,0.568581,0.569372,857383.000000,1673606841.178658
1673606841.190360,,,,0.561850,0.562496,857384.000000,1673606841.179666
1673606841.190616,,,,0.557955,0.557808,857385.000000,1673606841.180673
1673606841.202456,,,,0.537545,0.536027,857386.000000,1673606841.181680
1673606841.202705,,,,0.488526,0.487850,857387.000000,1673606841.182687
1673606841.202781,,,,0.447970,0.448904,857388.000000,1673606841.183694
1673606841.204616,,,,0.446648,0.446693,857389.000000,1673606841.184701
1673606841.204724,,,,0.457899,0.457343,857390.000000,1673606841.185708
1673606841.204905,,,,0.479198,0.479388,857391.000000,1673606841.186715
1673606841.204912,,,,0.512398,0.512924,857392.000000,1673606841.187722
1673606841.209911,5.929539,1116106.000000,1673606841.197572,,,,
1673606841.210120,6.019984,1116107.000000,1673606841.198571,,,,
1673606841.210131,6.092349,1116108.000000,1673606841.199571,,,,
1673606841.210139,6.182802,1116109.000000,1673606841.200572,,,,
1673606841.210162,6.255158,1116110.000000,1673606841.201571,,,,
1673606841.210166,6.363701,1116111.000000,1673606841.202571,,,,
1673606841.210170,6.417968,1116112.000000,1673606841.203571,,,,
1673606841.210210,6.454146,1116113.000000,1673606841.204571,,,,
1673606841.210222,6.526511,1116114.000000,1673606841.205571,,,,
1673606841.210261,6.671231,1116115.000000,1673606841.206571,,,,
1673606841.210426,6.725498,1116116.000000,1673606841.207572,,,,
1673606841.210431,6.870219,1116117.000000,1673606841.208571,,,,
1673606841.210449,,,,0.544805,0.543456,857393.000000,1673606841.188729
1673606841.210454,,,,0.575072,0.574492,857394.000000,1673606841.189736
1673606841.210458,,,,0.574904,0.576007,857395.000000,1673606841.190743
1673606841.210464,,,,0.549998,0.553264,857396.000000,1673606841.191751
1673606841.217730,,,,0.538050,0.539273,857397.000000,1673606841.192758
1673606841.217747,,,,0.575433,0.577016,857398.000000,1673606841.193765
1673606841.217757,,,,0.568749,0.571920,857399.000000,1673606841.194772
1673606841.219837,,,,0.566802,0.568506,857400.000000,1673606841.195779
1673606841.220544,,,,0.566898,0.569564,857401.000000,1673606841.196786
1673606841.220561,,,,0.556272,0.559659,857402.000000,1673606841.197793
1673606841.220573,,,,0.556008,0.557568,857403.000000,1673606841.198800
1673606841.225416,,,,0.555816,0.557303,857404.000000,1673606841.199807
1673606841.225810,,,,0.561682,0.563001,857405.000000,1673606841.200814
1673606841.225829,,,,0.572091,0.572497,857406.000000,1673606841.201821
1673606841.226397,,,,0.576563,0.577065,857407.000000,1673606841.202828
1673606841.226952,,,,0.575072,0.575165,857408.000000,1673606841.203835
1673606841.227047,,,,0.551753,0.552952,857409.000000,1673606841.204843
1673606841.227622,,,,0.489608,0.490687,857410.000000,1673606841.205850
1673606841.227902,,,,0.462803,0.463281,857411.000000,1673606841.206857
1673606841.228724,,,,0.431670,0.432797,857412.000000,1673606841.207864
1673606841.228813,,,,0.409553,0.411233,857413.000000,1673606841.208871
1673606841.228825,,,,0.400442,0.402097,857414.000000,1673606841.209878
1673606841.228858,,,,0.397533,0.396857,857415.000000,1673606841.210885
1673606841.228867,,,,0.455807,0.456237,857416.000000,1673606841.211892
1673606841.228972,,,,0.573389,0.573603,857417.000000,1673606841.212899
1673606841.233256,,,,0.614378,0.614111,857418.000000,1673606841.213906
1673606841.233280,,,,0.625990,0.626468,857419.000000,1673606841.214913
1673606841.233489,,,,0.665272,0.663755,857420.000000,1673606841.215920
1673606841.233503,,,,0.687991,0.688324,857421.000000,1673606841.216928
1673606841.233699,,,,0.687029,0.687555,857422.000000,1673606841.217935
1673606841.233904,,,,0.650511,0.649210,857423.000000,1673606841.218942
1673606841.233949,,,,0.613369,0.611779,857424.000000,1673606841.219949
1673606841.234619,,,,0.587982,0.587522,857425.000000,1673606841.220956
1673606841.234901,,,,0.558797,0.556654,857426.000000,1673606841.221963
1673606841.234916,,,,0.553051,0.552639,857427.000000,1673606841.222970
1673606841.240252,,,,0.556513,0.556318,857428.000000,1673606841.223977
1673606841.240261,,,,0.549733,0.547759,857429.000000,1673606841.224984
1673606841.240557,,,,0.546584,0.545860,857430.000000,1673606841.225991
1673606841.240698,,,,0.567043,0.567520,857431.000000,1673606841.226998
1673606841.240788,,,,0.583871,0.585383,857432.000000,1673606841.228005
1673606841.240815,,,,0.589256,0.588508,857433.000000,1673606841.229012
1673606841.240969,,,,0.553436,0.551942,857434.000000,1673606841.230020
1673606841.242547,,,,0.524419,0.524031,857435.000000,1673606841.231027
1673606841.242656,,,,0.513576,0.512564,857436.000000,1673606841.232034
1673606841.242669,,,,0.508672,0.506914,857437.000000,1673606841.233041
1673606841.242971,,,,0.528770,0.526652,857438.000000,1673606841.234048
1673606841.256692,,,,0.540598,0.540547,857439.000000,1673606841.235055
1673606841.256893,,,,0.543555,0.544586,857440.000000,1673606841.236062
1673606841.256992,,,,0.560359,0.562760,857441.000000,1673606841.237069
1673606841.257011,,,,0.585169,0.587089,857442.000000,1673606841.238076
1673606841.264260,7.340568,1116122.000000,1673606841.206241,,,,
1673606841.264282,,,,0.584232,0.584301,857443.000000,1673606841.239083
1673606841.264611,,,,0.524299,0.523430,857444.000000,1673606841.240090
1673606841.264642,,,,0.480953,0.478667,857445.000000,1673606841.241097
1673606841.264713,,,,0.463356,0.464459,857446.000000,1673606841.242105
1673606841.264822,7.412924,1116123.000000,1673606841.207241,,,,
1673606841.265429,7.449110,1116124.000000,1673606841.208241,,,,
1673606841.265588,7.503377,1116125.000000,1673606841.209241,,,,
1673606841.265812,7.611920,1116126.000000,1673606841.210241,,,,
1673606841.265843,7.684276,1116127.000000,1673606841.211241,,,,
1673606841.265858,7.756640,1116128.000000,1673606841.212241,,,,
1673606841.265868,7.847086,1116129.000000,1673606841.213241,,,,
1673606841.265935,7.955628,1116130.000000,1673606841.214241,,,,
1673606841.265957,8.046082,1116131.000000,1673606841.215241,,,,
1673606841.265984,9.330480,1116147.000000,1673606841.231241,,,,
1673606841.266180,9.439022,1116148.000000,1673606841.232241,,,,
1673606841.266673,9.493289,1116149.000000,1673606841.233241,,,,
1673606841.267546,9.583742,1116150.000000,1673606841.234241,,,,
1673606841.267570,9.692286,1116151.000000,1673606841.235241,,,,
1673606841.267575,9.710374,1116152.000000,1673606841.236241,,,,
1673606841.267583,9.818917,1116153.000000,1673606841.237241,,,,
1673606841.267610,9.873184,1116154.000000,1673606841.238241,,,,
1673606841.267616,9.981727,1116155.000000,1673606841.239241,,,,
1673606841.267620,10.126448,1116156.000000,1673606841.240241,,,,
1673606841.267625,11.410845,1116169.000000,1673606841.253241,,,,
1673606841.267637,11.483201,1116170.000000,1673606841.254241,,,,
1673606841.267642,11.555565,1116171.000000,1673606841.255241,,,,
1673606841.267652,11.664108,1116172.000000,1673606841.256241,,,,
1673606841.267657,11.808828,1116173.000000,1673606841.257241,,,,
1673606841.267672,11.881185,1116174.000000,1673606841.258241,,,,
1673606841.267684,11.917371,1116175.000000,1673606841.259241,,,,
1673606841.267691,12.062092,1116176.000000,1673606841.260241,,,,
1673606841.267701,12.134448,1116177.000000,1673606841.261241,,,,
1673606841.267722,12.242990,1116178.000000,1673606841.262241,,,,
1673606841.269795,,,,0.424602,0.425874,857447.000000,1673606841.243112
1673606841.269914,,,,0.369501,0.369691,857448.000000,1673606841.244119
1673606841.270103,,,,0.391811,0.390846,857449.000000,1673606841.245126
1673606841.272176,,,,0.460062,0.459963,857450.000000,1673606841.246133
1673606841.272377,,,,0.451167,0.449578,857451.000000,1673606841.247140
1673606841.272387,,,,0.459077,0.457968,857452.000000,1673606841.248147
1673606841.277279,,,,0.523024,0.521315,857453.000000,1673606841.249154
1673606841.277475,,,,0.547546,0.547182,857454.000000,1673606841.250161
1673606841.277569,,,,0.560840,0.561606,857455.000000,1673606841.251168
1673606841.277740,,,,0.568317,0.569227,857456.000000,1673606841.252175
1673606841.279721,,,,0.559999,0.559539,857457.000000,1673606841.253182
1673606841.279945,,,,0.551248,0.552567,857458.000000,1673606841.254189
1673606841.279964,,,,0.576130,0.576752,857459.000000,1673606841.255197
1673606841.285222,,,,0.623273,0.624280,857460.000000,1673606841.256204
1673606841.285998,,,,0.694049,0.696450,857461.000000,1673606841.257211
1673606841.286030,,,,0.734485,0.736381,857462.000000,1673606841.258218
1673606841.286127,,,,0.727850,0.725731,857463.000000,1673606841.259225
1673606841.287530,,,,0.657555,0.655845,857464.000000,1673606841.260232
1673606841.287834,,,,0.586660,0.587618,857465.000000,1673606841.261239
1673606841.287960,,,,0.597045,0.598917,857466.000000,1673606841.262246
1673606841.287981,,,,0.640102,0.641421,857467.000000,1673606841.263253
1673606841.292598,,,,0.617335,0.617909,857468.000000,1673606841.264260
1673606841.292857,,,,0.592069,0.590431,857469.000000,1673606841.265267
1673606841.292909,,,,0.574976,0.576608,857470.000000,1673606841.266274
1673606841.292973,,,,0.570192,0.572232,857471.000000,1673606841.267282
1673606841.293200,,,,0.558628,0.557832,857472.000000,1673606841.268289
1673606841.293206,,,,0.559253,0.557880,857473.000000,1673606841.269296
1673606841.293214,,,,0.540478,0.541268,857474.000000,1673606841.270303
1673606841.295315,,,,0.445061,0.445971,857475.000000,1673606841.271310
1673606841.295321,,,,0.359597,0.358440,857476.000000,1673606841.272317
1673606841.295328,,,,0.298558,0.299613,857477.000000,1673606841.273324
1673606841.295334,,,,0.274133,0.272880,857478.000000,1673606841.274331
1673606841.295401,,,,0.306443,0.304421,857479.000000,1673606841.275338
1673606841.295424,,,,0.355486,0.355146,857480.000000,1673606841.276345
1673606841.295430,,,,0.410851,0.413180,857481.000000,1673606841.277352
1673606841.303028,,,,0.511365,0.511482,857482.000000,1673606841.278359
1673606841.303171,,,,0.599377,0.601730,857483.000000,1673606841.279366
1673606841.303180,,,,0.644261,0.646157,857484.000000,1673606841.280374
1673606841.303205,,,,0.714772,0.712293,857485.000000,1673606841.281381
1673606841.303232,,,,0.785788,0.782876,857486.000000,1673606841.282388
1673606841.303236,,,,0.798361,0.793670,857487.000000,1673606841.283395
1673606841.303341,,,,0.746866,0.746190,857488.000000,1673606841.284402
1673606841.309072,,,,0.686428,0.685439,857489.000000,1673606841.285409
1673606841.309713,,,,0.624163,0.623511,857490.000000,1673606841.286416
1673606841.309811,,,,0.599786,0.598509,857491.000000,1673606841.287423
1673606841.310855,,,,0.538458,0.538095,857492.000000,1673606841.288430
1673606841.310872,,,,0.448306,0.447149,857493.000000,1673606841.289437
1673606841.312020,,,,0.401788,0.403612,857494.000000,1673606841.290444
1673606841.312041,,,,0.400249,0.402987,857495.000000,1673606841.291451
1673606841.312065,,,,0.399961,0.400703,857496.000000,1673606841.292459
1673606841.312081,,,,0.428305,0.428566,857497.000000,1673606841.293466
1673606841.312132,,,,0.486627,0.486456,857498.000000,1673606841.294473
1673606841.312158,,,,0.627673,0.629497,857500.000000,1673606841.296487
1673606841.312205,,,,0.638347,0.636661,857501.000000,1673606841.297494
1673606841.312213,,,,0.685971,0.685535,857502.000000,1673606841.298501
1673606841.312219,,,,0.704699,0.706499,857503.000000,1673606841.299508
1673606841.312280,,,,0.695900,0.696762,857504.000000,1673606841.300515
1673606841.312291,,,,0.676499,0.676256,857505.000000,1673606841.301522
1673606841.312297,,,,0.673422,0.670510,857506.000000,1673606841.302529
1673606841.312312,,,,0.656161,0.654595,857507.000000,1673606841.303536
1673606841.312345,,,,0.595603,0.594181,857508.000000,1673606841.304543
1673606841.312384,,,,0.510740,0.509703,857509.000000,1673606841.305551
1673606841.324507,,,,0.487805,0.487538,857510.000000,1673606841.306558
1673606841.324537,,,,0.476698,0.477585,857511.000000,1673606841.307565
1673606841.324555,,,,0.473188,0.472584,857512.000000,1673606841.308572
1673606841.324574,,,,0.561850,0.560044,857513.000000,1673606841.309579
1673606841.331436,15.137413,1116207.000000,1673606841.297762,,,,
1673606841.331759,,,,0.646665,0.646782,857514.000000,1673606841.310586
1673606841.331774,,,,0.612287,0.615217,857515.000000,1673606841.311593
1673606841.331783,,,,0.627601,0.626997,857516.000000,1673606841.312600
1673606841.331790,,,,0.646665,0.648826,857517.000000,1673606841.313607
1673606841.331872,15.227859,1116208.000000,1673606841.298762,,,,
1673606841.332310,15.318312,1116209.000000,1673606841.299762,,,,
1673606841.332324,15.444943,1116210.000000,1673606841.300762,,,,
1673606841.332330,15.535389,1116211.000000,1673606841.301762,,,,
1673606841.332335,15.625842,1116212.000000,1673606841.302762,,,,
1673606841.332387,15.770563,1116213.000000,1673606841.303762,,,,
1673606841.332394,15.824839,1116214.000000,1673606841.304762,,,,
1673606841.332412,15.951462,1116215.000000,1673606841.305762,,,,
1673606841.332459,16.132368,1116216.000000,1673606841.306762,,,,
1673606841.332470,17.489122,1116230.000000,1673606841.320762,,,,
1673606841.332478,17.543398,1116231.000000,1673606841.321762,,,,
1673606841.332485,17.615753,1116232.000000,1673606841.322762,,,,
1673606841.332496,17.742386,1116233.000000,1673606841.323762,,,,
1673606841.332505,17.832840,1116234.000000,1673606841.324762,,,,
1673606841.332512,17.977560,1116235.000000,1673606841.325762,,,,
1673606841.332519,18.068014,1116236.000000,1673606841.326762,,,,
1673606841.332529,18.122280,1116237.000000,1673606841.327762,,,,
1673606841.332535,18.212734,1116238.000000,1673606841.328762,,,,
1673606841.332546,18.321268,1116239.000000,1673606841.329762,,,,
1673606841.332668,,,,0.637337,0.637094,857518.000000,1673606841.314614
1673606841.332676,,,,0.651593,0.653538,857519.000000,1673606841.315621
1673606841.332683,,,,0.636279,0.637743,857520.000000,1673606841.316628
1673606841.345606,,,,0.613176,0.614063,857521.000000,1673606841.317636
1673606841.346222,,,,0.602142,0.603100,857522.000000,1673606841.318643
1673606841.347229,,,,0.583222,0.584758,857523.000000,1673606841.319650
1673606841.347259,,,,0.582813,0.582402,857524.000000,1673606841.320657
1673606841.347273,,,,0.604305,0.605937,857525.000000,1673606841.321664
1673606841.347297,,,,0.605315,0.608005,857526.000000,1673606841.322671
1673606841.347310,,,,0.596829,0.598893,857527.000000,1673606841.323678
1673606841.347389,,,,0.593704,0.594806,857528.000000,1673606841.324685
1673606841.347695,,,,0.593367,0.593340,857529.000000,1673606841.325692
1673606841.348405,,,,0.593824,0.595744,857530.000000,1673606841.326699
1673606841.348434,,,,0.584664,0.586392,857531.000000,1673606841.327706
1673606841.348678,,,,0.569086,0.571944,857532.000000,1673606841.328713
1673606841.348709,,,,0.556777,0.559731,857533.000000,1673606841.329720
1673606841.348728,,,,0.546584,0.547663,857534.000000,1673606841.330728
1673606841.352808,,,,0.538603,0.539297,857535.000000,1673606841.331735
1673606841.353517,,,,0.539492,0.542590,857536.000000,1673606841.332742
1673606841.353693,,,,0.523986,0.523502,857537.000000,1673606841.333749
1673606841.353707,,,,0.476506,0.476022,857538.000000,1673606841.334756
1673606841.353723,,,,0.479463,0.479965,857539.000000,1673606841.335763
1673606841.354069,,,,0.489969,0.491336,857540.000000,1673606841.336770
1673606841.354084,,,,0.467683,0.469820,857541.000000,1673606841.337777
1673606841.355296,,,,0.453812,0.454145,857542.000000,1673606841.338784
1673606841.355749,,,,0.431598,0.430033,857543.000000,1673606841.339791
1673606841.355760,,,,0.458524,0.457198,857544.000000,1673606841.340798
1673606841.355946,,,,0.518312,0.519656,857545.000000,1673606841.341805
1673606841.355961,,,,0.578991,0.579084,857546.000000,1673606841.342813
1673606841.356013,,,,0.614475,0.616034,857547.000000,1673606841.343820
1673606841.356022,,,,0.674600,0.676400,857548.000000,1673606841.344827
1673606841.359910,,,,0.719412,0.720442,857549.000000,1673606841.345834
1673606841.360208,,,,0.691500,0.691522,857550.000000,1673606841.346841
1673606841.360217,,,,0.645078,0.646950,857551.000000,1673606841.347848
1673606841.360503,,,,0.633274,0.634545,857552.000000,1673606841.348855
1673606841.363368,,,,0.620028,0.620890,857553.000000,1673606841.349862
1673606841.363385,,,,0.595290,0.596273,857554.000000,1673606841.350869
1673606841.363399,,,,0.511485,0.510520,857555.000000,1673606841.351876
1673606841.363545,,,,0.367314,0.364690,857556.000000,1673606841.352883
1673606841.363812,,,,0.201362,0.200085,857557.000000,1673606841.353890
1673606841.364006,,,,0.066398,0.067068,857558.000000,1673606841.354897
1673606841.364480,,,,0.057022,0.057356,857559.000000,1673606841.355905
1673606841.364653,,,,0.106041,0.108875,857560.000000,1673606841.356912
1673606841.364676,,,,0.265262,0.268528,857561.000000,1673606841.357919
1673606841.364690,,,,0.420443,0.422941,857562.000000,1673606841.358926
1673606841.364876,,,,0.642770,0.643272,857563.000000,1673606841.359933
1673606841.370193,,,,0.761218,0.762153,857564.000000,1673606841.360940
1673606841.370752,,,,0.820310,0.821893,857565.000000,1673606841.361947
1673606841.371272,,,,0.869569,0.872330,857566.000000,1673606841.362954
1673606841.371288,,,,0.878584,0.878870,857567.000000,1673606841.363961
1673606841.371300,,,,0.873704,0.872379,857568.000000,1673606841.364968
1673606841.371590,,,,0.777686,0.775688,857569.000000,1673606841.365975
1673606841.372098,,,,0.664214,0.662865,857570.000000,1673606841.366982
1673606841.383705,,,,0.560480,0.560453,857571.000000,1673606841.367990
1673606841.383971,,,,0.495041,0.495182,857572.000000,1673606841.368997
1673606841.384183,,,,0.413063,0.412483,857573.000000,1673606841.370004
1673606841.391341,,,,0.353707,0.355170,857574.000000,1673606841.371011
1673606841.391435,,,,0.499729,0.498260,857575.000000,1673606841.372018
1673606841.391732,,,,0.520524,0.518862,857576.000000,1673606841.373025
1673606841.391752,,,,0.567139,0.567400,857577.000000,1673606841.374032
1673606841.395225,18.393633,1116240.000000,1673606841.334360,,,,
1673606841.395241,18.465988,1116241.000000,1673606841.335360,,,,
1673606841.395257,18.610710,1116242.000000,1673606841.336360,,,,
1673606841.395380,18.683075,1116243.000000,1673606841.337360,,,,
1673606841.396673,23.458866,1116291.000000,1673606841.385360,,,,
1673606841.396697,23.531231,1116292.000000,1673606841.386360,,,,
1673606841.396711,23.657862,1116293.000000,1673606841.387360,,,,
1673606841.396719,23.802582,1116294.000000,1673606841.388360,,,,
1673606841.396726,23.947304,1116295.000000,1673606841.389360,,,,
1673606841.396805,24.073935,1116296.000000,1673606841.390360,,,,
1673606841.396811,24.164379,1116297.000000,1673606841.391360,,,,
1673606841.396860,24.291012,1116298.000000,1673606841.392360,,,,
1673606841.396890,24.435732,1116299.000000,1673606841.393360,,,,
1673606841.396896,24.526186,1116300.000000,1673606841.394360,,,,
1673606841.397968,,,,0.600315,0.598821,857578.000000,1673606841.375039
1673606841.397986,,,,0.669359,0.668034,857579.000000,1673606841.376046
1673606841.398059,,,,0.738019,0.736405,857580.000000,1673606841.377053
1673606841.398323,,,,0.683832,0.683324,857581.000000,1673606841.378060
1673606841.398508,,,,0.639741,0.641421,857582.000000,1673606841.379067
1673606841.398527,,,,0.651473,0.650797,857583.000000,1673606841.380075
1673606841.398534,,,,0.680129,0.682386,857584.000000,1673606841.381082
1673606841.399734,,,,0.680754,0.679525,857585.000000,1673606841.382089
1673606841.399854,,,,0.672100,0.669404,857586.000000,1673606841.383096
1673606841.400029,,,,0.663998,0.663538,857587.000000,1673606841.384103
1673606841.405311,,,,0.653492,0.653658,857588.000000,1673606841.385110
1673606841.405753,,,,0.657050,0.659451,857589.000000,1673606841.386117
1673606841.406017,,,,0.658469,0.659572,857590.000000,1673606841.387124
1673606841.406034,,,,0.625413,0.625843,857591.000000,1673606841.388131
1673606841.406497,,,,0.603993,0.605312,857592.000000,1673606841.389138
1673606841.406514,,,,0.581443,0.580743,857593.000000,1673606841.390145
1673606841.406583,,,,0.571514,0.573410,857594.000000,1673606841.391152
1673606841.406592,,,,0.572716,0.573795,857595.000000,1673606841.392159
1673606841.407785,,,,0.580265,0.578315,857596.000000,1673606841.393167
1673606841.407800,,,,0.587237,0.588412,857597.000000,1673606841.394174
1673606841.408107,,,,0.600892,0.601105,857598.000000,1673606841.395181
1673606841.408120,,,,0.607238,0.604831,857599.000000,1673606841.396188
1673606841.408506,,,,0.598103,0.598677,857600.000000,1673606841.397195
1673606841.408520,,,,0.571105,0.570261,857601.000000,1673606841.398202
1673606841.408723,,,,0.531943,0.531147,857602.000000,1673606841.399209
1673606841.412451,,,,0.552498,0.551966,857603.000000,1673606841.400216
1673606841.412594,,,,0.590025,0.588676,857604.000000,1673606841.401223
1673606841.412845,,,,0.589232,0.588941,857605.000000,1673606841.402230
1673606841.413037,,,,0.580169,0.581007,857606.000000,1673606841.403237
1673606841.414810,,,,0.581972,0.585767,857607.000000,1673606841.404244
1673606841.415095,,,,0.544300,0.543504,857608.000000,1673606841.405252
1673606841.415174,,,,0.498527,0.499870,857609.000000,1673606841.406259
1673606841.419869,,,,0.481867,0.481431,857610.000000,1673606841.407266
1673606841.420112,,,,0.490377,0.487994,857611.000000,1673606841.408273
1673606841.420117,,,,0.493647,0.493067,857612.000000,1673606841.409280
1673606841.422240,,,,0.489007,0.490134,857613.000000,1673606841.410287
1673606841.422442,,,,0.536607,0.537085,857614.000000,1673606841.411294
1673606841.422452,,,,0.569783,0.569756,857615.000000,1673606841.412301
1673606841.422643,,,,0.618946,0.620121,857616.000000,1673606841.413308
1673606841.427413,,,,0.687534,0.687266,857617.000000,1673606841.414315
1673606841.427423,,,,0.658060,0.658706,857618.000000,1673606841.415322
1673606841.427606,,,,0.659166,0.658177,857619.000000,1673606841.416329
1673606841.430048,,,,0.673470,0.672650,857620.000000,1673606841.417336
1673606841.430300,,,,0.684553,0.685271,857621.000000,1673606841.418344
1673606841.430311,,,,0.670657,0.670198,857622.000000,1673606841.419351
1673606841.430418,,,,0.621807,0.624472,857623.000000,1673606841.420358
1673606841.430602,,,,0.586131,0.588027,857624.000000,1673606841.421365
1673606841.430688,,,,0.575216,0.575790,857625.000000,1673606841.422372
1673606841.430867,,,,0.557330,0.558337,857626.000000,1673606841.423379
1673606841.430878,,,,0.540983,0.540571,857627.000000,1673606841.424386
1673606841.444398,,,,0.548868,0.548408,857628.000000,1673606841.425393
1673606841.444595,,,,0.510716,0.510400,857629.000000,1673606841.426400
1673606841.445124,,,,0.472419,0.474820,857630.000000,1673606841.427407
1673606841.445516,,,,0.445806,0.446452,857631.000000,1673606841.428414
1673606841.451438,,,,0.392484,0.392217,857632.000000,1673606841.429421
1673606841.451454,,,,0.421838,0.423854,857633.000000,1673606841.430429
1673606841.457555,,,,0.467346,0.468834,857634.000000,1673606841.431436
1673606841.457964,,,,0.536872,0.536580,857635.000000,1673606841.432443
1673606841.458093,,,,0.657243,0.656855,857636.000000,1673606841.433450
1673606841.458143,,,,0.714916,0.716259,857637.000000,1673606841.434457
1673606841.458331,,,,0.682173,0.680367,857638.000000,1673606841.435464
1673606841.460253,,,,0.681668,0.678419,857639.000000,1673606841.436471
1673606841.460262,,,,0.673614,0.671808,857640.000000,1673606841.437478
1673606841.460291,,,,0.657868,0.656086,857641.000000,1673606841.438485
1673606841.460633,,,,0.632914,0.632742,857642.000000,1673606841.439492
1673606841.460652,,,,0.621903,0.623463,857643.000000,1673606841.440499
1673606841.460841,,,,0.607166,0.607620,857644.000000,1673606841.441506
1673606841.460979,24.670906,1116301.000000,1673606841.399854,,,,
1673606841.460990,24.797539,1116302.000000,1673606841.400854,,,,
1673606841.460998,24.924170,1116303.000000,1673606841.401854,,,,
1673606841.461005,25.086979,1116304.000000,1673606841.402854,,,,
1673606841.462554,25.231701,1116305.000000,1673606841.403854,,,,
1673606841.462569,30.333111,1116352.000000,1673606841.450854,,,,
1673606841.462573,30.423565,1116353.000000,1673606841.451854,,,,
1673606841.462617,30.514019,1116354.000000,1673606841.452854,,,,
1673606841.462621,30.640642,1116355.000000,1673606841.453854,,,,
1673606841.462648,30.713007,1116356.000000,1673606841.454854,,,,
1673606841.462673,30.839638,1116357.000000,1673606841.455854,,,,
1673606841.462681,30.966270,1116358.000000,1673606841.456854,,,,
1673606841.462740,30.984358,1116359.000000,1673606841.457854,,,,
1673606841.462751,31.092901,1116360.000000,1673606841.458854,,,,
1673606841.462762,31.165257,1116361.000000,1673606841.459854,,,,
1673606841.464909,,,,0.585386,0.583531,857645.000000,1673606841.442513
1673606841.464923,,,,0.510042,0.511169,857646.000000,1673606841.443521
1673606841.465209,,,,0.392148,0.394957,857647.000000,1673606841.444528
1673606841.465368,,,,0.288870,0.288650,857648.000000,1673606841.445535
1673606841.467528,,,,0.194751,0.193305,857649.000000,1673606841.446542
1673606841.467535,,,,0.106835,0.107288,857650.000000,1673606841.447549
1673606841.467746,,,,0.089093,0.090989,857651.000000,1673606841.448556
1673606841.467848,,,,-0.000026,0.001582,857652.000000,1673606841.449563
1673606841.467870,,,,-0.088423,-0.086599,857653.000000,1673606841.450570
1673606841.468081,,,,0.034352,0.032546,857654.000000,1673606841.451577
1673606841.468235,,,,0.247928,0.249368,857655.000000,1673606841.452584
1673606841.472672,,,,0.446575,0.446909,857656.000000,1673606841.453591
1673606841.472759,,,,0.641640,0.640027,857657.000000,1673606841.454598
1673606841.472987,,,,0.799659,0.798959,857658.000000,1673606841.455606
1673606841.472997,,,,0.873487,0.873533,857659.000000,1673606841.456613
1673606841.473167,,,,0.914236,0.915411,857660.000000,1673606841.457620
1673606841.473173,,,,0.944215,0.945630,857661.000000,1673606841.458627
1673606841.473333,,,,0.957509,0.959477,857662.000000,1673606841.459634
1673606841.477486,,,,0.939094,0.940726,857663.000000,1673606841.460641
1673606841.477512,,,,0.892744,0.895217,857664.000000,1673606841.461648
1673606841.477676,,,,0.826055,0.827615,857665.000000,1673606841.462655
1673606841.477706,,,,0.756242,0.755421,857666.000000,1673606841.463662
1673606841.477828,,,,0.697102,0.698493,857667.000000,1673606841.464669
1673606841.477901,,,,0.657219,0.661471,857668.000000,1673606841.465676
1673606841.478060,,,,0.640414,0.642671,857669.000000,1673606841.466683
1673606841.480157,,,,0.604762,0.605961,857670.000000,1673606841.467690
1673606841.480302,,,,0.520716,0.520497,857671.000000,1673606841.468698
1673606841.480681,,,,0.426838,0.426282,857672.000000,1673606841.469705
1673606841.481234,,,,0.375271,0.376158,857673.000000,1673606841.470712
1673606841.484343,,,,0.288052,0.288674,857674.000000,1673606841.471719
1673606841.484652,,,,0.124913,0.122987,857675.000000,1673606841.472726
1673606841.484675,,,,0.038511,0.036489,857676.000000,1673606841.473733
1673606841.487499,,,,0.056590,0.055361,857677.000000,1673606841.474740
1673606841.487638,,,,0.135996,0.135392,857678.000000,1673606841.475747
1673606841.487645,,,,0.303654,0.301175,857679.000000,1673606841.476754
1673606841.487728,,,,0.446912,0.443856,857680.000000,1673606841.477761
1673606841.491842,,,,0.571562,0.569949,857681.000000,1673606841.478768
1673606841.492013,,,,0.710781,0.711259,857682.000000,1673606841.479775
1673606841.492201,,,,0.846778,0.845453,857683.000000,1673606841.480783
1673606841.492222,,,,0.990012,0.990346,857684.000000,1673606841.481790
1673606841.505604,,,,1.057446,1.059246,857685.000000,1673606841.482797
1673606841.505616,,,,0.978352,0.979119,857686.000000,1673606841.483804
1673606841.505806,,,,0.836681,0.839683,857687.000000,1673606841.484811
1673606841.506242,,,,0.739389,0.740709,857688.000000,1673606841.485818
1673606841.511354,,,,0.701670,0.703422,857689.000000,1673606841.486825
1673606841.511390,,,,0.682798,0.684117,857690.000000,1673606841.487832
1673606841.511398,,,,0.668253,0.671496,857691.000000,1673606841.488839
1673606841.516548,36.646564,1116413.000000,1673606841.505506,,,,
1673606841.516570,36.791283,1116414.000000,1673606841.506506,,,,
1673606841.516577,36.863647,1116415.000000,1673606841.507506,,,,
1673606841.516582,36.954102,1116416.000000,1673606841.508506,,,,
1673606841.516589,37.062637,1116417.000000,1673606841.509506,,,,
1673606841.516596,37.225456,1116418.000000,1673606841.510506,,,,
1673606841.516609,37.207355,1116419.000000,1673606841.511506,,,,
1673606841.516621,37.333988,1116420.000000,1673606841.512506,,,,
1673606841.516646,37.406353,1116421.000000,1673606841.513506,,,,
1673606841.516656,37.532986,1116422.000000,1673606841.514506,,,,
1673606841.517932,,,,0.657050,0.658778,857692.000000,1673606841.489846
1673606841.518152,,,,0.650511,0.653994,857693.000000,1673606841.490853
1673606841.518167,,,,0.656762,0.656687,857694.000000,1673606841.491860
1673606841.518220,,,,0.645150,0.645628,857695.000000,1673606841.492867
1673606841.518279,,,,0.602430,0.602211,857696.000000,1673606841.493875
1673606841.518470,,,,0.563052,0.562159,857697.000000,1673606841.494882
1673606841.520114,,,,0.529660,0.531195,857698.000000,1673606841.495889
1673606841.520388,,,,0.522976,0.523334,857699.000000,1673606841.496896
1673606841.520401,,,,0.563485,0.563698,857700.000000,1673606841.497903
1673606841.520591,,,,0.579448,0.581224,857701.000000,1673606841.498910
1673606841.520765,,,,0.564831,0.564612,857702.000000,1673606841.499917
1673606841.520902,,,,0.562235,0.562905,857703.000000,1673606841.500924
1673606841.521073,,,,0.621494,0.621804,857704.000000,1673606841.501931
1673606841.521255,,,,0.653805,0.653970,857705.000000,1673606841.502938
1673606841.525361,,,,0.632697,0.634930,857706.000000,1673606841.503945
1673606841.525376,,,,0.616927,0.621900,857707.000000,1673606841.504952
1673606841.525383,,,,0.613369,0.614976,857708.000000,1673606841.505960
1673606841.525519,,,,0.610941,0.610842,857709.000000,1673606841.506967
1673606841.525525,,,,0.610989,0.609952,857710.000000,1673606841.507974
1673606841.525528,,,,0.610556,0.610577,857711.000000,1673606841.508981
1673606841.525535,,,,0.612648,0.612885,857712.000000,1673606841.509988
1673606841.527182,,,,0.603849,0.602163,857713.000000,1673606841.510995
1673606841.527270,,,,0.594449,0.592859,857714.000000,1673606841.512002
1673606841.527282,,,,0.582909,0.582281,857715.000000,1673606841.513009
1673606841.532794,,,,0.581659,0.583027,857716.000000,1673606841.514016
1673606841.532841,,,,0.613970,0.615914,857717.000000,1673606841.515023
1673606841.533057,,,,0.646761,0.649162,857718.000000,1673606841.516030
1673606841.533072,,,,0.638203,0.640724,857719.000000,1673606841.517037
1673606841.533116,,,,0.598271,0.597523,857720.000000,1673606841.518044
1673606841.533128,,,,0.550094,0.547879,857721.000000,1673606841.519052
1673606841.533151,,,,0.570817,0.569828,857722.000000,1673606841.520059
1673606841.534791,,,,0.569302,0.567761,857723.000000,1673606841.521066
1673606841.535427,,,,0.520644,0.518790,857724.000000,1673606841.522073
1673606841.535464,,,,0.535790,0.535571,857725.000000,1673606841.523080
1673606841.535492,,,,0.546464,0.546389,857726.000000,1673606841.524087
1673606841.539969,,,,0.556729,0.556654,857727.000000,1673606841.525094
1673606841.540079,,,,0.567523,0.567304,857728.000000,1673606841.526101
1673606841.540422,,,,0.587213,0.588460,857729.000000,1673606841.527108
1673606841.542349,,,,0.595531,0.596922,857730.000000,1673606841.528115
1673606841.542574,,,,0.582236,0.582714,857731.000000,1673606841.529122
1673606841.542995,,,,0.573029,0.570718,857732.000000,1673606841.530129
1673606841.543383,,,,0.576875,0.575261,857733.000000,1673606841.531137
1673606841.543405,,,,0.577861,0.574829,857734.000000,1673606841.532144
1673606841.547556,,,,0.579279,0.576896,857735.000000,1673606841.533151
1673606841.548127,,,,0.591300,0.592066,857736.000000,1673606841.534158
1673606841.548235,,,,0.593607,0.593893,857737.000000,1673606841.535165
1673606841.550445,,,,0.579640,0.578194,857738.000000,1673606841.536172
1673606841.550828,,,,0.556032,0.556125,857739.000000,1673606841.537179
1673606841.551873,,,,0.580049,0.579661,857740.000000,1673606841.538186
1673606841.551891,,,,0.561730,0.564563,857741.000000,1673606841.539193
1673606841.551915,,,,0.552618,0.554154,857742.000000,1673606841.540200
1673606841.552071,,,,0.571658,0.570021,857743.000000,1673606841.541207
1673606841.552404,,,,0.564326,0.561318,857744.000000,1673606841.542214
1673606841.552501,,,,0.553460,0.552471,857745.000000,1673606841.543221
1673606841.552516,,,,0.551969,0.553000,857746.000000,1673606841.544229
1673606841.552655,,,,0.588992,0.589902,857747.000000,1673606841.545236
1673606841.564237,,,,0.612744,0.614712,857748.000000,1673606841.546243
1673606841.564510,,,,0.594785,0.595359,857749.000000,1673606841.547250
1673606841.564531,,,,0.572139,0.572857,857750.000000,1673606841.548257
1673606841.565010,,,,0.557306,0.557928,857751.000000,1673606841.549264
1673606841.565016,,,,0.560167,0.560669,857752.000000,1673606841.550271
1673606841.565028,,,,0.537809,0.538215,857753.000000,1673606841.551278
1673606841.565132,,,,0.515812,0.518550,857754.000000,1673606841.552285
1673606841.565149,,,,0.479944,0.481479,857755.000000,1673606841.553292
1673606841.571206,,,,0.408519,0.410271,857756.000000,1673606841.554299
1673606841.571708,,,,0.429290,0.431667,857757.000000,1673606841.555306
1673606841.571774,,,,0.509033,0.509174,857758.000000,1673606841.556314
1673606841.571784,,,,0.510163,0.511891,857759.000000,1673606841.557321
1673606841.577440,,,,0.516053,0.516651,857760.000000,1673606841.558328
1673606841.577471,,,,0.566898,0.568915,857761.000000,1673606841.559335
1673606841.577479,,,,0.615556,0.614448,857762.000000,1673606841.560342
1673606841.581422,38.925926,1116474.000000,1673606841.570524,,,,
1673606841.581437,38.871651,1116475.000000,1673606841.571524,,,,
1673606841.581445,38.799294,1116476.000000,1673606841.572524,,,,
1673606841.581455,38.817383,1116477.000000,1673606841.573524,,,,
1673606841.581467,38.781204,1116478.000000,1673606841.574524,,,,
1673606841.581471,38.726929,1116479.000000,1673606841.575524,,,,
1673606841.581489,38.672661,1116480.000000,1673606841.576524,,,,
1673606841.581494,38.618393,1116481.000000,1673606841.577524,,,,
1673606841.581497,38.546028,1116482.000000,1673606841.578524,,,,
1673606841.581512,38.527939,1116483.000000,1673606841.579524,,,,
1673606841.584890,,,,0.625317,0.623294,857763.000000,1673606841.561349
1673606841.585287,,,,0.611253,0.610745,857764.000000,1673606841.562356
1673606841.585312,,,,0.591300,0.591152,857765.000000,1673606841.563363
1673606841.585321,,,,0.577596,0.575694,857766.000000,1673606841.564370
1673606841.587719,,,,0.579255,0.580358,857767.000000,1673606841.565377
1673606841.587732,,,,0.565504,0.568073,857768.000000,1673606841.566384
1673606841.587742,,,,0.510716,0.511482,857769.000000,1673606841.567391
1673606841.587947,,,,0.390200,0.390606,857770.000000,1673606841.568398
1673606841.587955,,,,0.248746,0.250522,857771.000000,1673606841.569406
1673606841.587969,,,,0.193332,0.194171,857772.000000,1673606841.570413
1673606841.592460,,,,0.190472,0.190108,857773.000000,1673606841.571420
1673606841.592469,,,,0.221820,0.221553,857774.000000,1673606841.572427
1673606841.592642,,,,0.411212,0.411449,857775.000000,1673606841.573434
1673606841.593009,,,,0.633875,0.634954,857776.000000,1673606841.574441
1673606841.595231,,,,0.716118,0.719192,857777.000000,1673606841.575448
1673606841.595664,,,,0.776844,0.779414,857778.000000,1673606841.576455
1673606841.596187,,,,0.789850,0.792131,857779.000000,1673606841.577462
1673606841.596258,,,,0.816559,0.817758,857780.000000,1673606841.578469
1673606841.596354,,,,0.838364,0.837376,857781.000000,1673606841.579476
1673606841.596370,,,,0.761939,0.761359,857782.000000,1673606841.580483
1673606841.596383,,,,0.682485,0.683444,857783.000000,1673606841.581491
1673606841.599996,,,,0.692582,0.693180,857784.000000,1673606841.582498
1673606841.600091,,,,0.679865,0.679165,857785.000000,1673606841.583505
1673606841.600345,,,,0.596396,0.597763,857786.000000,1673606841.584512
1673606841.600586,,,,0.563533,0.564539,857787.000000,1673606841.585519
1673606841.602910,,,,0.559109,0.560092,857788.000000,1673606841.586526
1673606841.602931,,,,0.585025,0.585791,857789.000000,1673606841.587533
1673606841.602945,,,,0.616494,0.616780,857790.000000,1673606841.588540
1673606841.602955,,,,0.589641,0.588700,857791.000000,1673606841.589547
1673606841.607568,,,,0.599810,0.600216,857792.000000,1673606841.590554
1673606841.607579,,,,0.610652,0.610769,857793.000000,1673606841.591561
1673606841.607848,,,,0.627745,0.627838,857794.000000,1673606841.592568
1673606841.610296,,,,0.653324,0.653922,857795.000000,1673606841.593575
1673606841.610679,,,,0.665008,0.666039,857796.000000,1673606841.594583
1673606841.610901,,,,0.662964,0.663106,857797.000000,1673606841.595590
1673606841.610921,,,,0.651810,0.653369,857798.000000,1673606841.596597
1673606841.610932,,,,0.643011,0.645388,857799.000000,1673606841.597604
1673606841.611424,,,,0.634957,0.637022,857800.000000,1673606841.598611
1673606841.611513,,,,0.626134,0.628920,857801.000000,1673606841.599618
1673606841.623574,,,,0.617696,0.617982,857802.000000,1673606841.600625
1673606841.623903,,,,0.608969,0.608942,857803.000000,1673606841.601632
1673606841.623912,,,,0.602118,0.602860,857804.000000,1673606841.602639
1673606841.631347,,,,0.596637,0.599518,857805.000000,1673606841.603646
1673606841.631545,,,,0.586371,0.584878,857806.000000,1673606841.604653
1673606841.631979,,,,0.561513,0.562328,857807.000000,1673606841.605660
1673606841.632187,,,,0.519659,0.521699,857808.000000,1673606841.606668
1673606841.634314,38.509853,1116484.000000,1673606841.573483,,,,
1673606841.634490,38.383221,1116485.000000,1673606841.574482,,,,
1673606841.634786,38.455578,1116486.000000,1673606841.575482,,,,
1673606841.634869,38.401310,1116487.000000,1673606841.576483,,,,
1673606841.634987,38.328945,1116488.000000,1673606841.577482,,,,
1673606841.635004,38.274677,1116489.000000,1673606841.578482,,,,
1673606841.636676,38.220409,1116490.000000,1673606841.579483,,,,
1673606841.636684,38.220409,1116491.000000,1673606841.580482,,,,
1673606841.636689,38.111866,1116492.000000,1673606841.581482,,,,
1673606841.636735,36.248589,1116535.000000,1673606841.624482,,,,
1673606841.636744,36.284767,1116536.000000,1673606841.625483,,,,
1673606841.636755,36.230492,1116537.000000,1673606841.626482,,,,
1673606841.636766,36.158134,1116538.000000,1673606841.627482,,,,
1673606841.636775,36.049591,1116539.000000,1673606841.628482,,,,
1673606841.636784,36.067680,1116540.000000,1673606841.629483,,,,
1673606841.636791,35.995323,1116541.000000,1673606841.630482,,,,
1673606841.636798,35.904869,1116542.000000,1673606841.631482,,,,
1673606841.636813,35.922958,1116543.000000,1673606841.632483,,,,
1673606841.636816,35.850605,1116544.000000,1673606841.633482,,,,
1673606841.637305,,,,0.489368,0.491456,857809.000000,1673606841.607675
1673606841.637505,,,,0.488214,0.488884,857810.000000,1673606841.608682
1673606841.637781,,,,0.520212,0.522613,857811.000000,1673606841.609689
1673606841.637792,,,,0.561345,0.560068,857812.000000,1673606841.610696
1673606841.641735,,,,0.650031,0.651614,857820.000000,1673606841.618752
1673606841.641745,,,,0.625293,0.623439,857821.000000,1673606841.619760
1673606841.641751,,,,0.617287,0.618006,857822.000000,1673606841.620767
1673606841.641770,,,,0.610700,0.610072,857823.000000,1673606841.621774
1673606841.641779,,,,0.603055,0.601442,857824.000000,1673606841.622781
1673606841.641893,,,,0.598584,0.601009,857825.000000,1673606841.623788
1673606841.641899,,,,0.598872,0.600312,857826.000000,1673606841.624795
1673606841.641934,,,,0.593463,0.594758,857827.000000,1673606841.625802
1673606841.641943,,,,0.590314,0.593412,857828.000000,1673606841.626809
1673606841.641950,,,,0.591828,0.591970,857829.000000,1673606841.627816
1673606841.645113,,,,0.588463,0.586032,857830.000000,1673606841.628823
1673606841.645406,,,,0.569302,0.567665,857831.000000,1673606841.629830
1673606841.645925,,,,0.550407,0.550476,857832.000000,1673606841.630837
1673606841.645934,,,,0.540045,0.538960,857833.000000,1673606841.631845
1673606841.646736,,,,0.521894,0.521339,857834.000000,1673606841.632852
1673606841.646753,,,,0.512182,0.512323,857835.000000,1673606841.633859
1673606841.646768,,,,0.487372,0.489389,857836.000000,1673606841.634866
1673606841.646800,,,,0.439435,0.439769,857837.000000,1673606841.635873
1673606841.647296,,,,0.459461,0.460564,857838.000000,1673606841.636880
1673606841.647547,,,,0.495306,0.496457,857839.000000,1673606841.637887
1673606841.647895,,,,0.532352,0.533816,857840.000000,1673606841.638894
1673606841.653137,,,,0.520284,0.520714,857841.000000,1673606841.639901
1673606841.653382,,,,0.577284,0.576367,857842.000000,1673606841.640908
1673606841.653805,,,,0.643059,0.642431,857843.000000,1673606841.641915
1673606841.653823,,,,0.649021,0.651398,857844.000000,1673606841.642922
1673606841.654230,,,,0.644886,0.646806,857845.000000,1673606841.643929
1673606841.654541,,,,0.652170,0.652528,857846.000000,1673606841.644937
1673606841.654807,,,,0.638491,0.641181,857847.000000,1673606841.645944
1673606841.655173,,,,0.625437,0.626035,857848.000000,1673606841.646951
1673606841.655226,,,,0.624259,0.625867,857849.000000,1673606841.647958
1673606841.655535,,,,0.629836,0.629040,857850.000000,1673606841.648965
1673606841.656273,,,,0.649285,0.646566,857851.000000,1673606841.649972
1673606841.656400,,,,0.655368,0.657144,857852.000000,1673606841.650979
1673606841.656421,,,,0.583078,0.585142,857853.000000,1673606841.651986
1673606841.656583,,,,0.486507,0.487465,857854.000000,1673606841.652993
1673606841.656601,,,,0.415106,0.416474,857855.000000,1673606841.654000
1673606841.656610,,,,0.394287,0.394789,857856.000000,1673606841.655007
1673606841.656847,,,,0.379166,0.378225,857857.000000,1673606841.656014
1673606841.656862,,,,0.384815,0.383634,857858.000000,1673606841.657022
1673606841.660050,,,,0.449581,0.450106,857859.000000,1673606841.658029
1673606841.660435,,,,0.559398,0.557976,857860.000000,1673606841.659036
1673606841.660766,,,,0.572452,0.571920,857861.000000,1673606841.660043
1673606841.660780,,,,0.549397,0.552207,857862.000000,1673606841.661050
1673606841.662291,,,,0.544372,0.546196,857863.000000,1673606841.662057
1673606841.662784,,,,0.573125,0.572833,857864.000000,1673606841.663064
1673606841.662797,,,,0.678903,0.681352,857865.000000,1673606841.664071
1673606841.667439,,,,0.690972,0.690247,857866.000000,1673606841.665078
1673606841.667953,,,,0.589472,0.588796,857867.000000,1673606841.666085
1673606841.667983,,,,0.591011,0.592691,857868.000000,1673606841.667092
1673606841.668301,,,,0.619427,0.618342,857869.000000,1673606841.668099
1673606841.669961,,,,0.631207,0.630531,857870.000000,1673606841.669106
1673606841.670200,,,,0.605387,0.605529,857871.000000,1673606841.670114
1673606841.670217,,,,0.573654,0.572641,857872.000000,1673606841.671121
1673606841.684225,,,,0.560648,0.559419,857873.000000,1673606841.672128
1673606841.684250,,,,0.562283,0.559900,857874.000000,1673606841.673135
1673606841.684421,,,,0.584712,0.584998,857875.000000,1673606841.674142
1673606841.684430,,,,0.609522,0.610048,857876.000000,1673606841.675149
1673606841.692010,,,,0.604233,0.605312,857877.000000,1673606841.676156
1673606841.692033,,,,0.605700,0.607692,857878.000000,1673606841.677163
1673606841.692250,,,,0.609162,0.610313,857879.000000,1673606841.678170
1673606841.692371,,,,0.603680,0.604807,857880.000000,1673606841.679177
1673606841.692379,,,,0.540237,0.540210,857881.000000,1673606841.680184
1673606841.692449,,,,0.462827,0.462511,857882.000000,1673606841.681191
1673606841.692617,,,,0.409793,0.411161,857883.000000,1673606841.682199
1673606841.697798,,,,0.379334,0.382120,857884.000000,1673606841.683206
1673606841.698118,,,,0.380680,0.382504,857885.000000,1673606841.684213
1673606841.698961,,,,0.395153,0.397458,857886.000000,1673606841.685220
1673606841.698975,,,,0.440229,0.440250,857887.000000,1673606841.686227
1673606841.698982,,,,0.517014,0.516026,857888.000000,1673606841.687234
1673606841.699009,,,,0.639549,0.640772,857889.000000,1673606841.688241
1673606841.699016,,,,0.724075,0.723495,857890.000000,1673606841.689248
1673606841.700148,,,,0.735471,0.735852,857891.000000,1673606841.690255
1673606841.700162,,,,0.762829,0.763234,857892.000000,1673606841.691262
1673606841.700243,,,,0.748164,0.749628,857893.000000,1673606841.692269
1673606841.700251,,,,0.682053,0.681929,857894.000000,1673606841.693276
1673606841.702371,34.258667,1116596.000000,1673606841.690938,,,,
1673606841.702395,34.258667,1116597.000000,1673606841.691938,,,,
1673606841.702410,34.222488,1116598.000000,1673606841.692938,,,,
1673606841.702417,34.222488,1116599.000000,1673606841.693938,,,,
1673606841.702455,34.222488,1116600.000000,1673606841.694938,,,,
1673606841.702492,34.204399,1116601.000000,1673606841.695938,,,,
1673606841.702505,34.186310,1116602.000000,1673606841.696938,,,,
1673606841.702517,34.240578,1116603.000000,1673606841.697938,,,,
1673606841.702528,34.240578,1116604.000000,1673606841.698938,,,,
1673606841.702558,34.222488,1116605.000000,1673606841.699938,,,,
1673606841.704812,,,,0.661522,0.660389,857895.000000,1673606841.694283
1673606841.705011,,,,0.655921,0.658562,857896.000000,1673606841.695291
1673606841.705196,,,,0.648756,0.649451,857897.000000,1673606841.696298
1673606841.707457,,,,0.626928,0.626588,857898.000000,1673606841.697305
1673606841.707775,,,,0.611830,0.612957,857899.000000,1673606841.698312
1673606841.708139,,,,0.613561,0.613342,857900.000000,1673606841.699319
1673606841.708149,,,,0.612479,0.611707,857901.000000,1673606841.700326
1673606841.708176,,,,0.602454,0.601922,857902.000000,1673606841.701333
1673606841.708182,,,,0.591420,0.590575,857903.000000,1673606841.702340
1673606841.708189,,,,0.579904,0.580334,857904.000000,1673606841.703347
1673606841.712773,,,,0.574495,0.576319,857905.000000,1673606841.704354
1673606841.712789,,,,0.545406,0.544778,857906.000000,1673606841.705361
1673606841.712938,,,,0.529323,0.530835,857907.000000,1673606841.706368
1673606841.713195,,,,0.530357,0.531796,857908.000000,1673606841.707376
1673606841.713281,,,,0.524299,0.524800,857909.000000,1673606841.708383
1673606841.713406,,,,0.513432,0.514415,857910.000000,1673606841.709390
1673606841.713601,,,,0.537040,0.537638,857911.000000,1673606841.710397
1673606841.714962,,,,0.546897,0.547951,857912.000000,1673606841.711404
1673606841.715350,,,,0.565312,0.566391,857913.000000,1673606841.712411
1673606841.715425,,,,0.566442,0.565357,857914.000000,1673606841.713418
1673606841.715491,,,,0.539949,0.541028,857915.000000,1673606841.714425
1673606841.720026,,,,0.572091,0.570958,857916.000000,1673606841.715432
1673606841.720470,,,,0.615148,0.612885,857917.000000,1673606841.716439
1673606841.720654,,,,0.618153,0.617789,857918.000000,1673606841.717446
1673606841.720665,,,,0.620869,0.619977,857919.000000,1673606841.718453
1673606841.722550,,,,0.618417,0.618054,857920.000000,1673606841.719460
1673606841.722657,,,,0.601805,0.601081,857921.000000,1673606841.720468
1673606841.722895,,,,0.601853,0.602788,857922.000000,1673606841.721475
1673606841.727456,,,,0.625341,0.623439,857923.000000,1673606841.722482
1673606841.727839,,,,0.628394,0.629329,857924.000000,1673606841.723489
1673606841.728205,,,,0.622384,0.625891,857925.000000,1673606841.724496
1673606841.730020,,,,0.628683,0.631925,857926.000000,1673606841.725503
1673606841.730184,,,,0.613321,0.615025,857927.000000,1673606841.726510
1673606841.730324,,,,0.570889,0.570165,857928.000000,1673606841.727517
1673606841.730471,,,,0.480352,0.480950,857929.000000,1673606841.728524
1673606841.730679,,,,0.391354,0.391496,857930.000000,1673606841.729531
1673606841.730741,,,,0.335676,0.336611,857931.000000,1673606841.730538
1673606841.730885,,,,0.322334,0.320840,857932.000000,1673606841.731545
1673606841.744207,,,,0.355582,0.354425,857933.000000,1673606841.732553
1673606841.744303,,,,0.449100,0.447823,857934.000000,1673606841.733560
1673606841.744314,,,,0.545310,0.544081,857935.000000,1673606841.734567
1673606841.744321,,,,0.609883,0.608173,857936.000000,1673606841.735574
1673606841.751885,,,,0.664479,0.664644,857937.000000,1673606841.736581
1673606841.752234,,,,0.727177,0.728063,857938.000000,1673606841.737588
1673606841.752404,,,,0.749318,0.746598,857939.000000,1673606841.738595
1673606841.752538,,,,0.733980,0.732030,857940.000000,1673606841.739602
1673606841.752710,,,,0.685514,0.684045,857941.000000,1673606841.740609
1673606841.752800,,,,0.653781,0.652528,857942.000000,1673606841.741616
1673606841.752815,,,,0.644357,0.643320,857943.000000,1673606841.742623
1673606841.754532,34.258667,1116606.000000,1673606841.693702,,,,
1673606841.754732,34.258667,1116607.000000,1673606841.694701,,,,
1673606841.754752,34.222488,1116608.000000,1673606841.695701,,,,
1673606841.754758,34.349121,1116609.000000,1673606841.696702,,,,
1673606841.754792,34.258667,1116610.000000,1673606841.697701,,,,
1673606841.755883,34.331032,1116611.000000,1673606841.698701,,,,
1673606841.755899,34.294853,1116612.000000,1673606841.699702,,,,
1673606841.755905,34.294853,1116613.000000,1673606841.700701,,,,
1673606841.755913,34.493843,1116657.000000,1673606841.744701,,,,
1673606841.755925,34.566208,1116658.000000,1673606841.745702,,,,
1673606841.755933,34.548107,1116659.000000,1673606841.746701,,,,
1673606841.755939,34.548107,1116660.000000,1673606841.747701,,,,
1673606841.755969,34.511932,1116661.000000,1673606841.748701,,,,
1673606841.755978,34.584297,1116662.000000,1673606841.749701,,,,
1673606841.755996,34.584297,1116663.000000,1673606841.750701,,,,
1673606841.756013,34.566208,1116664.000000,1673606841.751701,,,,
1673606841.756020,34.584297,1116665.000000,1673606841.752702,,,,
1673606841.756049,34.602383,1116666.000000,1673606841.753701,,,,
1673606841.757409,,,,0.626399,0.627454,857944.000000,1673606841.743630
1673606841.757964,,,,0.603753,0.604831,857945.000000,1673606841.744637
1673606841.758150,,,,0.611277,0.612596,857946.000000,1673606841.745645
1673606841.758379,,,,0.597430,0.598220,857947.000000,1673606841.746652
1673606841.760312,,,,0.568798,0.569348,857948.000000,1673606841.747659
1673606841.760514,,,,0.556585,0.553168,857949.000000,1673606841.748666
1673606841.760561,,,,0.532953,0.531580,857950.000000,1673606841.749673
1673606841.760642,,,,0.493671,0.495351,857951.000000,1673606841.750680
1673606841.760902,,,,0.485401,0.486504,857952.000000,1673606841.751687
1673606841.760988,,,,0.475568,0.474003,857953.000000,1673606841.752694
1673606841.765538,,,,0.496844,0.497971,857954.000000,1673606841.753701
1673606841.765560,,,,0.533338,0.534369,857955.000000,1673606841.754708
1673606841.765568,,,,0.570024,0.569780,857956.000000,1673606841.755715
1673606841.765577,,,,0.569639,0.568146,857957.000000,1673606841.756722
1673606841.765592,,,,0.572572,0.571054,857958.000000,1673606841.757730
1673606841.765617,,,,0.548531,0.548985,857959.000000,1673606841.758737
1673606841.765899,,,,0.482059,0.482657,857960.000000,1673606841.759744
1673606841.766145,,,,0.430036,0.431595,857961.000000,1673606841.760751
1673606841.767459,,,,0.374237,0.375749,857962.000000,1673606841.761758
1673606841.767478,,,,0.272185,0.274490,857963.000000,1673606841.762765
1673606841.767486,,,,0.263074,0.263864,857964.000000,1673606841.763772
1673606841.767610,,,,0.312261,0.313196,857965.000000,1673606841.764779
1673606841.772304,,,,0.409313,0.406833,857966.000000,1673606841.765786
1673606841.772511,,,,0.573534,0.574324,857967.000000,1673606841.766793
1673606841.772735,,,,0.696862,0.698614,857968.000000,1673606841.767800
1673606841.774979,,,,0.753838,0.754989,857969.000000,1673606841.768807
1673606841.774990,,,,0.761771,0.762970,857970.000000,1673606841.769814
1673606841.775017,,,,0.788047,0.790617,857971.000000,1673606841.770822
1673606841.775032,,,,0.830767,0.829106,857972.000000,1673606841.771829
1673606841.779966,,,,0.815405,0.814297,857973.000000,1673606841.772836
1673606841.780088,,,,0.768262,0.768091,857974.000000,1673606841.773843
1673606841.780284,,,,0.708137,0.706835,857975.000000,1673606841.774850
1673606841.780326,,,,0.664166,0.665293,857976.000000,1673606841.775857
1673606841.782118,,,,0.659094,0.658586,857977.000000,1673606841.776864
1673606841.782256,,,,0.657195,0.656519,857978.000000,1673606841.777871
1673606841.787984,,,,0.648588,0.649427,857979.000000,1673606841.778878
1673606841.788398,,,,0.624620,0.624689,857980.000000,1673606841.779885
1673606841.788594,,,,0.605291,0.603173,857981.000000,1673606841.780892
1673606841.789215,,,,0.597334,0.595287,857982.000000,1673606841.781899
1673606841.789235,,,,0.587766,0.588051,857983.000000,1673606841.782907
1673606841.789888,,,,0.564013,0.564972,857984.000000,1673606841.783914
1673606841.789951,,,,0.508071,0.508381,857985.000000,1673606841.784921
1673606841.790380,,,,0.462202,0.461021,857986.000000,1673606841.785928
1673606841.790786,,,,0.435974,0.433014,857987.000000,1673606841.786935
1673606841.791072,,,,0.446503,0.446741,857988.000000,1673606841.787942
1673606841.791348,,,,0.497205,0.499341,857989.000000,1673606841.788949
1673606841.791456,,,,0.540838,0.538864,857990.000000,1673606841.789956
1673606841.791802,,,,0.549156,0.547639,857991.000000,1673606841.790963
1673606841.792183,,,,0.611518,0.611875,857992.000000,1673606841.791970
1673606841.792210,,,,0.646665,0.645244,857993.000000,1673606841.792977
1673606841.794950,,,,0.648973,0.647455,857994.000000,1673606841.793984
1673606841.795267,,,,0.684024,0.686473,857995.000000,1673606841.794991
1673606841.795465,,,,0.704579,0.705898,857996.000000,1673606841.795999
1673606841.795678,,,,0.671066,0.672289,857997.000000,1673606841.797006
1673606841.797557,,,,0.630269,0.630098,857998.000000,1673606841.798013
1673606841.797655,,,,0.611085,0.613871,857999.000000,1673606841.799020
1673606841.797838,,,,0.621663,0.622597,858000.000000,1673606841.800027
1673606841.811817,,,,0.629163,0.630531,858001.000000,1673606841.801034
1673606841.811968,,,,0.611662,0.612500,858002.000000,1673606841.802041
1673606841.812574,,,,0.599473,0.601033,858003.000000,1673606841.803048
1673606841.812595,,,,0.595410,0.595864,858004.000000,1673606841.804055
1673606841.812620,,,,0.583607,0.583988,858005.000000,1673606841.805062
1673606841.812806,,,,0.590458,0.591297,858006.000000,1673606841.806069
1673606841.812816,,,,0.587405,0.586368,858007.000000,1673606841.807076
1673606841.819446,,,,0.582284,0.580935,858008.000000,1673606841.808084
1673606841.819791,,,,0.580962,0.581584,858009.000000,1673606841.809091
1673606841.819858,,,,0.559542,0.560645,858010.000000,1673606841.810098
1673606841.820111,,,,0.539011,0.539754,858011.000000,1673606841.811105
1673606841.820395,,,,0.534203,0.533118,858012.000000,1673606841.812112
1673606841.820610,,,,0.523649,0.524440,858013.000000,1673606841.813119
1673606841.820624,,,,0.508744,0.509799,858014.000000,1673606841.814126
1673606841.825188,,,,0.510427,0.511314,858015.000000,1673606841.815133
1673606841.825206,,,,0.538723,0.539273,858016.000000,1673606841.816140
1673606841.825251,,,,0.551224,0.549346,858017.000000,1673606841.817147
1673606841.827215,,,,0.537593,0.536965,858018.000000,1673606841.818154
1673606841.827446,,,,0.541439,0.540571,858019.000000,1673606841.819161
1673606841.827477,,,,0.536535,0.537085,858020.000000,1673606841.820168
1673606841.827521,,,,0.568533,0.567905,858021.000000,1673606841.821176
1673606841.830397,35.470707,1116718.000000,1673606841.819910,,,,
1673606841.830408,35.506886,1116719.000000,1673606841.820910,,,,
1673606841.830432,35.524975,1116720.000000,1673606841.821910,,,,
1673606841.830436,35.524975,1116721.000000,1673606841.822910,,,,
1673606841.830449,35.488796,1116722.000000,1673606841.823910,,,,
1673606841.830462,35.524975,1116723.000000,1673606841.824910,,,,
1673606841.830469,35.506886,1116724.000000,1673606841.825910,,,,
1673606841.830475,35.488796,1116725.000000,1673606841.826910,,,,
1673606841.830480,35.506886,1116726.000000,1673606841.827910,,,,
1673606841.830503,35.506886,1116727.000000,1673606841.828910,,,,
1673606841.832332,,,,0.597911,0.596513,858022.000000,1673606841.822183
1673606841.832452,,,,0.604690,0.604807,858023.000000,1673606841.823190
1673606841.832654,,,,0.634717,0.637478,858024.000000,1673606841.824197
1673606841.832788,,,,0.637770,0.636901,858025.000000,1673606841.825204
1673606841.835133,,,,0.644069,0.643320,858026.000000,1673606841.826211
1673606841.835138,,,,0.616927,0.617260,858027.000000,1673606841.827218
1673606841.835280,,,,0.581443,0.583411,858028.000000,1673606841.828225
1673606841.835642,,,,0.575216,0.575478,858029.000000,1673606841.829232
1673606841.835665,,,,0.572764,0.574300,858030.000000,1673606841.830239
1673606841.835820,,,,0.568605,0.571679,858031.000000,1673606841.831246
1673606841.835845,,,,0.570961,0.572088,858032.000000,1673606841.832253
1673606841.839987,,,,0.537593,0.539345,858033.000000,1673606841.833261
1673606841.840002,,,,0.487036,0.488932,858034.000000,1673606841.834268
1673606841.840266,,,,0.394335,0.394861,858035.000000,1673606841.835275
1673606841.842683,,,,0.280527,0.279635,858036.000000,1673606841.836282
1673606841.843022,,,,0.230547,0.230616,858037.000000,1673606841.837289
1673606841.843731,,,,0.270887,0.273312,858038.000000,1673606841.838296
1673606841.843781,,,,0.331998,0.332909,858039.000000,1673606841.839303
1673606841.843795,,,,0.425468,0.425417,858040.000000,1673606841.840310
1673606841.843892,,,,0.528409,0.527253,858041.000000,1673606841.841317
1673606841.843902,,,,0.691549,0.693204,858042.000000,1673606841.842324
1673606841.844073,,,,0.805188,0.806700,858043.000000,1673606841.843331
1673606841.847772,,,,0.794466,0.793526,858044.000000,1673606841.844338
1673606841.847908,,,,0.767541,0.769052,858045.000000,1673606841.845345
1673606841.848177,,,,0.783335,0.783933,858046.000000,1673606841.846353
1673606841.849952,,,,0.762853,0.765278,858047.000000,1673606841.847360
1673606841.850098,,,,0.692871,0.695104,858048.000000,1673606841.848367
1673606841.850108,,,,0.669888,0.671832,858049.000000,1673606841.849374
1673606841.850286,,,,0.682533,0.684670,858050.000000,1673606841.850381
1673606841.854890,,,,0.633851,0.634065,858051.000000,1673606841.851388
1673606841.855232,,,,0.601421,0.601081,858052.000000,1673606841.852395
1673606841.855249,,,,0.621759,0.625290,858053.000000,1673606841.853402
1673606841.855266,,,,0.620773,0.623944,858054.000000,1673606841.854409
1673606841.857156,,,,0.599978,0.598292,858055.000000,1673606841.855416
1673606841.857447,,,,0.584929,0.583796,858056.000000,1673606841.856423
1673606841.857608,,,,0.561658,0.562039,858057.000000,1673606841.857430
1673606841.871770,,,,0.580121,0.581849,858058.000000,1673606841.858438
1673606841.871984,,,,0.555599,0.556750,858059.000000,1673606841.859445
1673606841.872747,,,,0.514466,0.515377,858060.000000,1673606841.860452
1673606841.872763,,,,0.486122,0.484845,858061.000000,1673606841.861459
1673606841.872951,,,,0.478694,0.477561,858062.000000,1673606841.862466
1673606841.873379,,,,0.492517,0.492658,858063.000000,1673606841.863473
1673606841.873620,,,,0.469125,0.469651,858064.000000,1673606841.864480
1673606841.879595,,,,0.417919,0.418782,858065.000000,1673606841.865487
1673606841.879614,,,,0.410659,0.410512,858066.000000,1673606841.866494
1673606841.879630,,,,0.530429,0.530354,858067.000000,1673606841.867501
1673606841.879641,,,,0.565552,0.565381,858068.000000,1673606841.868508
1673606841.879893,,,,0.545118,0.547783,858069.000000,1673606841.869515
1673606841.879904,,,,0.608296,0.610409,858070.000000,1673606841.870522
1673606841.880265,,,,0.674360,0.674068,858071.000000,1673606841.871530
1673606841.882517,35.506886,1116728.000000,1673606841.822080,,,,
1673606841.882532,35.506886,1116729.000000,1673606841.823080,,,,
1673606841.882540,35.452618,1116730.000000,1673606841.824080,,,,
1673606841.883326,35.597340,1116779.000000,1673606841.873080,,,,
1673606841.883338,35.579250,1116780.000000,1673606841.874080,,,,
1673606841.883342,35.633518,1116781.000000,1673606841.875080,,,,
1673606841.883347,35.615429,1116782.000000,1673606841.876080,,,,
1673606841.883354,35.669697,1116783.000000,1673606841.877080,,,,
1673606841.883387,35.705883,1116784.000000,1673606841.878080,,,,
1673606841.883391,35.705883,1116785.000000,1673606841.879080,,,,
1673606841.883394,35.778240,1116786.000000,1673606841.880080,,,,
1673606841.883407,35.814419,1116787.000000,1673606841.881080,,,,
1673606841.883410,35.760151,1116788.000000,1673606841.882080,,,,
1673606841.884921,,,,0.714243,0.712918,858072.000000,1673606841.872537
1673606841.884926,,,,0.719412,0.720563,858073.000000,1673606841.873544
1673606841.885103,,,,0.695996,0.694767,858074.000000,1673606841.874551
1673606841.885113,,,,0.632241,0.632742,858075.000000,1673606841.875558
1673606841.887660,,,,0.593607,0.596129,858076.000000,1673606841.876565
1673606841.887733,,,,0.567596,0.568073,858077.000000,1673606841.877572
1673606841.888113,,,,0.548988,0.547182,858078.000000,1673606841.878579
1673606841.888124,,,,0.537593,0.538696,858079.000000,1673606841.879586
1673606841.888134,,,,0.531799,0.531412,858080.000000,1673606841.880593
1673606841.888141,,,,0.530765,0.532926,858081.000000,1673606841.881600
1673606841.892859,,,,0.556561,0.557976,858082.000000,1673606841.882607
1673606841.893222,,,,0.581178,0.582281,858083.000000,1673606841.883615
1673606841.893235,,,,0.611253,0.610986,858084.000000,1673606841.884622
1673606841.893242,,,,0.604281,0.604928,858085.000000,1673606841.885629
1673606841.893253,,,,0.604618,0.603004,858086.000000,1673606841.886636
1673606841.893486,,,,0.598343,0.595504,858087.000000,1673606841.887643
1673606841.893788,,,,0.591324,0.590599,858088.000000,1673606841.888650
1673606841.894101,,,,0.601637,0.601634,858089.000000,1673606841.889657
1673606841.894963,,,,0.611494,0.611635,858090.000000,1673606841.890664
1673606841.894977,,,,0.618321,0.617741,858091.000000,1673606841.891671
1673606841.894997,,,,0.621398,0.621299,858092.000000,1673606841.892678
1673606841.899959,,,,0.615364,0.615481,858093.000000,1673606841.893685
1673606841.900550,,,,0.599690,0.599110,858094.000000,1673606841.894692
1673606841.900665,,,,0.602647,0.603173,858095.000000,1673606841.895700
1673606841.900720,,,,0.602791,0.604735,858096.000000,1673606841.896707
1673606841.902377,,,,0.594257,0.595576,858097.000000,1673606841.897714
1673606841.902450,,,,0.594665,0.595432,858098.000000,1673606841.898721
1673606841.902602,,,,0.583486,0.583580,858099.000000,1673606841.899728
1673606841.902810,,,,0.548988,0.549466,858100.000000,1673606841.900735
1673606841.907437,,,,0.503744,0.507083,858101.000000,1673606841.901742
1673606841.907576,,,,0.499441,0.503356,858102.000000,1673606841.902749
1673606841.907840,,,,0.505980,0.508236,858103.000000,1673606841.903756
1673606841.910228,,,,0.513432,0.515881,858104.000000,1673606841.904763
1673606841.910467,,,,0.533121,0.532565,858105.000000,1673606841.905770
1673606841.910614,,,,0.544925,0.544418,858106.000000,1673606841.906777
1673606841.910792,,,,0.566586,0.566823,858107.000000,1673606841.907784
1673606841.911021,,,,0.593511,0.590936,858108.000000,1673606841.908792
1673606841.911189,,,,0.611854,0.610817,858109.000000,1673606841.909799
1673606841.911469,,,,0.636400,0.634978,858110.000000,1673606841.910806
1673606841.915334,,,,0.666090,0.665870,858111.000000,1673606841.911813
1673606841.915522,,,,0.647074,0.647575,858112.000000,1673606841.912820
1673606841.915645,,,,0.624115,0.625602,858113.000000,1673606841.913827
1673606841.915926,,,,0.615725,0.618703,858114.000000,1673606841.914834
1673606841.916110,,,,0.610292,0.611539,858115.000000,1673606841.915841
1673606841.916296,,,,0.599786,0.598893,858116.000000,1673606841.916848
1673606841.916555,,,,0.595987,0.593604,858117.000000,1673606841.917855
1673606841.917506,,,,0.585674,0.586681,858118.000000,1673606841.918862
1673606841.917525,,,,0.576178,0.577882,858119.000000,1673606841.919869
1673606841.917534,,,,0.554109,0.555476,858120.000000,1673606841.920877
1673606841.917543,,,,0.522568,0.521531,858121.000000,1673606841.921884
1673606841.931296,,,,0.518889,0.520497,858122.000000,1673606841.922891
1673606841.931325,,,,0.532184,0.533695,858123.000000,1673606841.923898
1673606841.931376,,,,0.529660,0.528334,858124.000000,1673606841.924905
1673606841.939270,,,,0.535550,0.534921,858125.000000,1673606841.925912
1673606841.939401,,,,0.503672,0.502755,858126.000000,1673606841.926919
1673606841.939508,,,,0.488983,0.488403,858127.000000,1673606841.927926
1673606841.939517,,,,0.497037,0.498524,858128.000000,1673606841.928933
1673606841.939771,,,,0.466529,0.467344,858129.000000,1673606841.929940
1673606841.939946,,,,0.491772,0.490783,858130.000000,1673606841.930947
1673606841.939960,,,,0.552330,0.554202,858131.000000,1673606841.931954
1673606841.940163,,,,0.526294,0.527036,858132.000000,1673606841.932961
1673606841.945357,,,,0.469053,0.468137,858133.000000,1673606841.933969
1673606841.945662,,,,0.489848,0.490903,858134.000000,1673606841.934976
1673606841.945672,,,,0.582909,0.582377,858135.000000,1673606841.935983
1673606841.945689,,,,0.635270,0.632598,858136.000000,1673606841.936990
1673606841.947603,,,,0.644501,0.645123,858137.000000,1673606841.937997
1673606841.948061,,,,0.643323,0.644546,858138.000000,1673606841.939004
1673606841.948551,,,,0.667628,0.666568,858139.000000,1673606841.940011
1673606841.948563,,,,0.687774,0.688541,858140.000000,1673606841.941018
1673606841.948662,,,,0.669792,0.671448,858141.000000,1673606841.942025
1673606841.948669,,,,0.643588,0.644041,858142.000000,1673606841.943032
1673606841.950138,36.501842,1116840.000000,1673606841.938207,,,,
1673606841.950150,36.519939,1116841.000000,1673606841.939207,,,,
1673606841.950173,36.538029,1116842.000000,1673606841.940207,,,,
1673606841.950180,36.519939,1116843.000000,1673606841.941207,,,,
1673606841.950197,36.519939,1116844.000000,1673606841.942207,,,,
1673606841.950207,36.501842,1116845.000000,1673606841.943207,,,,
1673606841.950246,36.538029,1116846.000000,1673606841.944207,,,,
1673606841.950258,36.538029,1116847.000000,1673606841.945207,,,,
1673606841.950266,36.465664,1116848.000000,1673606841.946207,,,,
1673606841.950281,36.483753,1116849.000000,1673606841.947207,,,,
1673606841.952686,,,,0.636856,0.636613,858143.000000,1673606841.944039
1673606841.952696,,,,0.633154,0.634065,858144.000000,1673606841.945046
1673606841.952701,,,,0.635125,0.634762,858145.000000,1673606841.946054
1673606841.952771,,,,0.602166,0.601586,858146.000000,1673606841.947061
1673606841.955204,,,,0.567163,0.567593,858147.000000,1673606841.948068
1673606841.955219,,,,0.560984,0.561943,858148.000000,1673606841.949075
1673606841.955405,,,,0.567499,0.570141,858149.000000,1673606841.950082
1673606841.955549,,,,0.584111,0.583916,858150.000000,1673606841.951089
1673606841.955663,,,,0.569062,0.568626,858151.000000,1673606841.952096
1673606841.955857,,,,0.558652,0.557784,858152.000000,1673606841.953103
1673606841.956101,,,,0.564951,0.563962,858153.000000,1673606841.954110
1673606841.959956,,,,0.568749,0.567400,858154.000000,1673606841.955117
1673606841.960467,,,,0.561682,0.561438,858155.000000,1673606841.956124
1673606841.960608,,,,0.518481,0.520858,858156.000000,1673606841.957131
1673606841.960722,,,,0.432151,0.433374,858157.000000,1673606841.958138
1673606841.962591,,,,0.358515,0.359113,858158.000000,1673606841.959146
1673606841.962793,,,,0.322646,0.323725,858159.000000,1673606841.960153
1673606841.962986,,,,0.332455,0.335072,858160.000000,1673606841.961160
1673606841.963253,,,,0.379142,0.381615,858161.000000,1673606841.962167
1673606841.963522,,,,0.440493,0.440899,858162.000000,1673606841.963174
1673606841.963846,,,,0.466721,0.467656,858163.000000,1673606841.964181
1673606841.967314,,,,0.540502,0.541436,858164.000000,1673606841.965188
1673606841.967482,,,,0.627601,0.624929,858165.000000,1673606841.966195
1673606841.967646,,,,0.700203,0.699527,858166.000000,1673606841.967202
1673606841.967855,,,,0.738404,0.736790,858167.000000,1673606841.968209
1673606841.968012,,,,0.761819,0.761672,858168.000000,1673606841.969216
1673606841.969635,,,,0.729725,0.729842,858169.000000,1673606841.970223
1673606841.969835,,,,0.669792,0.668202,858170.000000,1673606841.971231
1673606841.969969,,,,0.653565,0.653946,858171.000000,1673606841.972238
1673606841.975502,,,,0.657988,0.657672,858172.000000,1673606841.973245
1673606841.975548,,,,0.642554,0.641758,858173.000000,1673606841.974252
1673606841.975583,,,,0.658445,0.656086,858174.000000,1673606841.975259
1673606841.977139,,,,0.625389,0.625338,858175.000000,1673606841.976266
1673606841.977468,,,,0.587934,0.587787,858176.000000,1673606841.977273
1673606841.977758,,,,0.548099,0.549322,858177.000000,1673606841.978280
1673606841.977791,,,,0.520332,0.518045,858178.000000,1673606841.979287
1673606841.991987,,,,0.531511,0.530618,858179.000000,1673606841.980294
1673606841.992535,,,,0.499248,0.498188,858180.000000,1673606841.981301
1673606841.992895,,,,0.420323,0.421017,858181.000000,1673606841.982308
1673606841.993158,,,,0.427415,0.430946,858182.000000,1673606841.983315
1673606841.993460,,,,0.406283,0.407531,858183.000000,1673606841.984323
1673606841.993473,,,,0.391955,0.393299,858184.000000,1673606841.985330
1673606841.993509,,,,0.426333,0.426763,858185.000000,1673606841.986337
1673606841.998838,,,,0.491483,0.490326,858186.000000,1673606841.987344
1673606841.999130,,,,0.549373,0.548528,858187.000000,1673606841.988351
1673606841.999286,,,,0.541824,0.540427,858188.000000,1673606841.989358
1673606841.999691,,,,0.571995,0.571872,858189.000000,1673606841.990365
1673606842.003271,36.465664,1116850.000000,1673606841.942364,,,,
1673606842.003295,36.465664,1116851.000000,1673606841.943364,,,,
1673606842.003390,36.465664,1116852.000000,1673606841.944364,,,,
1673606842.003752,36.447575,1116853.000000,1673606841.945364,,,,
1673606842.003761,36.447575,1116854.000000,1673606841.946364,,,,
1673606842.005256,36.447575,1116855.000000,1673606841.947364,,,,
1673606842.005280,36.465664,1116856.000000,1673606841.948364,,,,
1673606842.005292,,,,0.629909,0.630266,858190.000000,1673606841.991372
1673606842.005385,36.465664,1116857.000000,1673606841.949364,,,,
1673606842.005395,36.483753,1116858.000000,1673606841.950364,,,,
1673606842.005402,36.411396,1116859.000000,1673606841.951364,,,,
1673606842.005422,36.393307,1116860.000000,1673606841.952364,,,,
1673606842.005429,36.447575,1116861.000000,1673606841.953364,,,,
1673606842.005432,36.990280,1116900.000000,1673606841.992364,,,,
1673606842.005446,36.990280,1116901.000000,1673606841.993364,,,,
1673606842.005453,37.026459,1116902.000000,1673606841.994364,,,,
1673606842.005612,37.026459,1116903.000000,1673606841.995364,,,,
1673606842.005622,37.080734,1116904.000000,1673606841.996364,,,,
1673606842.005630,37.080734,1116905.000000,1673606841.997364,,,,
1673606842.005635,37.171181,1116906.000000,1673606841.998364,,,,
1673606842.005638,37.207355,1116907.000000,1673606841.999364,,,,
1673606842.005643,37.189266,1116908.000000,1673606842.000364,,,,
1673606842.005699,37.261631,1116909.000000,1673606842.001364,,,,
1673606842.005703,37.261631,1116910.000000,1673606842.002364,,,,
1673606842.005808,,,,0.666138,0.666471,858191.000000,1673606841.992379
1673606842.005821,,,,0.698160,0.698493,858192.000000,1673606841.993386
1673606842.005903,,,,0.655488,0.654715,858193.000000,1673606841.994393
1673606842.006066,,,,0.564831,0.561967,858194.000000,1673606841.995400
1673606842.006072,,,,0.579472,0.579853,858195.000000,1673606841.996408
1673606842.007091,,,,0.627721,0.626516,858196.000000,1673606841.997415
1673606842.007215,,,,0.648420,0.648561,858197.000000,1673606841.998422
1673606842.007322,,,,0.680274,0.680006,858198.000000,1673606841.999429
1673606842.007454,,,,0.698280,0.697123,858199.000000,1673606842.000436
1673606842.012571,,,,0.686139,0.686257,858200.000000,1673606842.001443
1673606842.012718,,,,0.671258,0.672794,858201.000000,1673606842.002450
1673606842.012893,,,,0.656930,0.657528,858202.000000,1673606842.003457
1673606842.013183,,,,0.633250,0.633752,858203.000000,1673606842.004464
1673606842.013374,,,,0.608585,0.610192,858204.000000,1673606842.005471
1673606842.013505,,,,0.594497,0.594614,858205.000000,1673606842.006478
1673606842.013514,,,,0.583919,0.583796,858206.000000,1673606842.007485
1673606842.015382,,,,0.563845,0.564996,858207.000000,1673606842.008492
1673606842.015592,,,,0.528914,0.529248,858208.000000,1673606842.009500
1673606842.015777,,,,0.484584,0.485759,858209.000000,1673606842.010507
1673606842.015963,,,,0.459221,0.460083,858210.000000,1673606842.011514
1673606842.016151,,,,0.473381,0.474027,858211.000000,1673606842.012521
1673606842.016585,,,,0.479463,0.482032,858212.000000,1673606842.013528
1673606842.016593,,,,0.487228,0.486961,858213.000000,1673606842.014535
1673606842.016608,,,,0.511846,0.513021,858214.000000,1673606842.015542
1673606842.016622,,,,0.608416,0.610817,858215.000000,1673606842.016549
1673606842.016629,,,,0.668734,0.670125,858216.000000,1673606842.017556
1673606842.016680,,,,0.650079,0.648489,858217.000000,1673606842.018563
1673606842.023133,,,,0.637650,0.637911,858218.000000,1673606842.019570
1673606842.023145,,,,0.627000,0.625338,858219.000000,1673606842.020577
1673606842.023287,,,,0.616494,0.616347,858220.000000,1673606842.021585
1673606842.023444,,,,0.617408,0.617837,858221.000000,1673606842.022592
1673606842.023611,,,,0.629596,0.629737,858222.000000,1673606842.023599
1673606842.023788,,,,0.628538,0.627766,858223.000000,1673606842.024606
1673606842.023985,,,,0.613513,0.612404,858224.000000,1673606842.025613
1673606842.024169,,,,0.603224,0.606178,858225.000000,1673606842.026620
1673606842.024347,,,,0.592285,0.596922,858226.000000,1673606842.027627
1673606842.024635,,,,0.592333,0.590647,858227.000000,1673606842.028634
1673606842.025543,,,,0.596228,0.593220,858228.000000,1673606842.029641
1673606842.025817,,,,0.585410,0.583916,858229.000000,1673606842.030648
1673606842.025995,,,,0.573269,0.573314,858230.000000,1673606842.031655
1673606842.026037,,,,0.576130,0.576367,858231.000000,1673606842.032662
1673606842.026483,,,,0.570961,0.569540,858232.000000,1673606842.033669
1673606842.026975,,,,0.576058,0.576776,858233.000000,1673606842.034677
1673606842.026988,,,,0.582308,0.581608,858234.000000,1673606842.035684
1673606842.027011,,,,0.579231,0.579036,858235.000000,1673606842.036691
1673606842.027021,,,,0.564687,0.564491,858236.000000,1673606842.037698
1673606842.027054,,,,0.562571,0.565092,858237.000000,1673606842.038705
1673606842.027146,,,,0.551561,0.553913,858238.000000,1673606842.039712
1673606842.027153,,,,0.511269,0.512468,858239.000000,1673606842.040719
1673606842.027958,,,,0.438474,0.438399,858240.000000,1673606842.041726
1673606842.028591,,,,0.359501,0.356469,858241.000000,1673606842.042733
1673606842.028636,,,,0.344595,0.345578,858242.000000,1673606842.043740
1673606842.028669,,,,0.374141,0.374066,858243.000000,1673606842.044747
1673606842.028734,,,,0.403351,0.402650,858244.000000,1673606842.045754
1673606842.028767,,,,0.469919,0.469531,858245.000000,1673606842.046762
1673606842.028807,,,,0.524371,0.524344,858246.000000,1673606842.047769
1673606842.028848,,,,0.625509,0.626035,858247.000000,1673606842.048776
1673606842.028855,,,,0.674360,0.675775,858248.000000,1673606842.049783
1673606842.028884,,,,0.709002,0.710249,858249.000000,1673606842.050790
1673606842.029845,,,,0.738668,0.738473,858250.000000,1673606842.051797
1673606842.030081,,,,0.722777,0.722798,858251.000000,1673606842.052804
1673606842.030684,,,,0.694578,0.695296,858252.000000,1673606842.053811
1673606842.030705,,,,0.629644,0.630939,858253.000000,1673606842.054818
1673606842.036081,,,,0.515452,0.513285,858254.000000,1673606842.055825
1673606842.036234,,,,0.409457,0.408853,858255.000000,1673606842.056832
1673606842.036310,,,,0.378180,0.377744,858256.000000,1673606842.057839
1673606842.051988,,,,0.339523,0.336323,858257.000000,1673606842.058846
1673606842.052164,,,,0.249876,0.250498,858258.000000,1673606842.059854
1673606842.052184,,,,0.245236,0.244993,858259.000000,1673606842.060861
1673606842.052397,,,,0.270286,0.269802,858260.000000,1673606842.061868
1673606842.052418,,,,0.339595,0.341083,858261.000000,1673606842.062875
1673606842.052540,,,,0.418640,0.418974,858262.000000,1673606842.063882
1673606842.052626,,,,0.460230,0.460131,858263.000000,1673606842.064889
1673606842.052881,,,,0.500378,0.504077,858264.000000,1673606842.065896
1673606842.059342,37.370174,1116911.000000,1673606841.998392,,,,
1673606842.059607,37.406353,1116912.000000,1673606841.999392,,,,
1673606842.059690,37.406353,1116913.000000,1673606842.000392,,,,
1673606842.061056,38.455578,1116962.000000,1673606842.049392,,,,
1673606842.061071,38.491764,1116963.000000,1673606842.050392,,,,
1673606842.061080,38.473675,1116964.000000,1673606842.051392,,,,
1673606842.061092,38.473675,1116965.000000,1673606842.052392,,,,
1673606842.061127,38.527939,1116966.000000,1673606842.053392,,,,
1673606842.061132,38.564117,1116967.000000,1673606842.054392,,,,
1673606842.061150,38.564117,1116968.000000,1673606842.055392,,,,
1673606842.061158,38.546028,1116969.000000,1673606842.056392,,,,
1673606842.061164,38.564117,1116970.000000,1673606842.057392,,,,
1673606842.061180,38.582207,1116971.000000,1673606842.058392,,,,
1673606842.074189,,,,0.597238,0.601874,858265.000000,1673606842.066903
1673606842.074399,,,,0.755905,0.757080,858266.000000,1673606842.067910
1673606842.074408,,,,0.869881,0.870960,858267.000000,1673606842.068917
1673606842.074553,,,,0.940032,0.939957,858268.000000,1673606842.069924
1673606842.074731,,,,0.871444,0.870167,858269.000000,1673606842.070931
1673606842.075077,,,,0.747395,0.747800,858270.000000,1673606842.071939
1673606842.075089,,,,0.651040,0.649691,858271.000000,1673606842.072946
1673606842.075094,,,,0.596540,0.598292,858272.000000,1673606842.073953
1673606842.075119,,,,0.550046,0.551870,858273.000000,1673606842.074960
1673606842.075122,,,,0.506316,0.508597,858274.000000,1673606842.075967
1673606842.080587,,,,0.475592,0.476864,858275.000000,1673606842.076974
1673606842.080788,,,,0.424506,0.425176,858276.000000,1673606842.077981
1673606842.080813,,,,0.348586,0.349353,858277.000000,1673606842.078988
1673606842.081210,,,,0.325748,0.324927,858278.000000,1673606842.079995
1673606842.081565,,,,0.320122,0.319927,858279.000000,1673606842.081002
1673606842.081728,,,,0.314016,0.313484,858280.000000,1673606842.082009
1673606842.081844,,,,0.334066,0.334736,858281.000000,1673606842.083016
1673606842.082448,,,,0.373396,0.373369,858282.000000,1673606842.084023
1673606842.082497,,,,0.405755,0.402578,858283.000000,1673606842.085031
1673606842.082585,,,,0.496051,0.492706,858284.000000,1673606842.086038
1673606842.082693,,,,0.613777,0.615794,858285.000000,1673606842.087045
1673606842.082785,,,,0.691308,0.690199,858286.000000,1673606842.088052
1673606842.082904,,,,0.816415,0.813479,858287.000000,1673606842.089059
1673606842.082984,,,,0.932916,0.932047,858288.000000,1673606842.090066
1673606842.087297,,,,0.896783,0.897525,858289.000000,1673606842.091073
1673606842.087445,,,,0.780451,0.779943,858290.000000,1673606842.092080
1673606842.087584,,,,0.708617,0.709504,858291.000000,1673606842.093087
1673606842.089732,,,,0.685683,0.685295,858292.000000,1673606842.094094
1673606842.089818,,,,0.677196,0.676905,858293.000000,1673606842.095101
1673606842.089881,,,,0.666763,0.667361,858294.000000,1673606842.096108
1673606842.090026,,,,0.649646,0.650292,858295.000000,1673606842.097116
1673606842.090031,,,,0.618946,0.620482,858296.000000,1673606842.098123
1673606842.094866,,,,0.592838,0.593941,858297.000000,1673606842.099130
1673606842.095173,,,,0.581587,0.582161,858298.000000,1673606842.100137
1673606842.097224,,,,0.560191,0.560981,858299.000000,1673606842.101144
1673606842.097416,,,,0.534275,0.533527,858300.000000,1673606842.102151
1673606842.097655,,,,0.519250,0.521194,858301.000000,1673606842.103158
1673606842.097916,,,,0.508504,0.509967,858302.000000,1673606842.104165
1673606842.105177,,,,0.506917,0.507395,858303.000000,1673606842.105172
1673606842.105201,,,,0.511004,0.510833,858304.000000,1673606842.106179
1673606842.105501,,,,0.554566,0.554947,858305.000000,1673606842.107186
1673606842.105761,,,,0.575745,0.579036,858306.000000,1673606842.108193
1673606842.117560,,,,0.560552,0.562376,858307.000000,1673606842.109200
1673606842.117763,,,,0.575264,0.577040,858308.000000,1673606842.110208
1673606842.118056,,,,0.572452,0.572593,858309.000000,1673606842.111215
1673606842.118168,,,,0.572668,0.572232,858310.000000,1673606842.112222
1673606842.119784,,,,0.606157,0.607885,858311.000000,1673606842.113229
1673606842.119793,,,,0.627673,0.625626,858312.000000,1673606842.114236
1673606842.119944,,,,0.610556,0.608894,858313.000000,1673606842.115243
1673606842.124965,40.047512,1117023.000000,1673606842.114251,,,,
1673606842.124983,40.083691,1117024.000000,1673606842.115252,,,,
1673606842.124990,40.065601,1117025.000000,1673606842.116251,,,,
1673606842.124995,40.192234,1117026.000000,1673606842.117251,,,,
1673606842.125001,40.137959,1117027.000000,1673606842.118251,,,,
1673606842.125012,40.228413,1117028.000000,1673606842.119251,,,,
1673606842.125042,40.264587,1117029.000000,1673606842.120251,,,,
1673606842.125077,40.264587,1117030.000000,1673606842.121251,,,,
1673606842.125083,40.355042,1117031.000000,1673606842.122252,,,,
1673606842.125088,40.373131,1117032.000000,1673606842.123251,,,,
1673606842.125210,,,,0.606012,0.605865,858314.000000,1673606842.116250
1673606842.125490,,,,0.632192,0.631757,858315.000000,1673606842.117257
1673606842.125498,,,,0.647675,0.650148,858316.000000,1673606842.118264
1673606842.125680,,,,0.629356,0.628607,858317.000000,1673606842.119271
1673606842.125910,,,,0.604690,0.603822,858318.000000,1673606842.120278
1673606842.125965,,,,0.589376,0.589566,858319.000000,1673606842.121285
1673606842.126156,,,,0.576875,0.576488,858320.000000,1673606842.122293
1673606842.127857,,,,0.571827,0.571391,858321.000000,1673606842.123300
1673606842.127871,,,,0.573365,0.574781,858322.000000,1673606842.124307
1673606842.128067,,,,0.574399,0.575959,858323.000000,1673606842.125314
1673606842.128246,,,,0.580505,0.581320,858324.000000,1673606842.126321
1673606842.128400,,,,0.579952,0.578747,858325.000000,1673606842.127328
1673606842.128784,,,,0.569086,0.566775,858326.000000,1673606842.128335
1673606842.128975,,,,0.553676,0.553865,858327.000000,1673606842.129342
1673606842.128983,,,,0.540622,0.539826,858328.000000,1673606842.130349
1673606842.129077,,,,0.529708,0.529224,858329.000000,1673606842.131356
1673606842.129087,,,,0.529876,0.531604,858330.000000,1673606842.132363
1673606842.134742,,,,0.539156,0.541100,858331.000000,1673606842.133370
1673606842.134897,,,,0.559830,0.559467,858332.000000,1673606842.134377
1673606842.135171,,,,0.582020,0.582858,858333.000000,1673606842.135385
1673606842.135366,,,,0.568293,0.571944,858334.000000,1673606842.136392
1673606842.140481,,,,0.550719,0.551702,858335.000000,1673606842.137399
1673606842.140495,,,,0.549301,0.550476,858336.000000,1673606842.138406
1673606842.140510,,,,0.589617,0.591104,858337.000000,1673606842.139413
1673606842.140519,,,,0.596372,0.595504,858338.000000,1673606842.140420
1673606842.142344,,,,0.608008,0.608654,858339.000000,1673606842.141427
1673606842.142496,,,,0.597334,0.595407,858340.000000,1673606842.142434
1673606842.143133,,,,0.583510,0.581175,858341.000000,1673606842.143441
1673606842.143153,,,,0.589400,0.590095,858342.000000,1673606842.144448
1673606842.147990,,,,0.612047,0.613991,858343.000000,1673606842.145455
1673606842.148111,,,,0.604955,0.606442,858344.000000,1673606842.146462
1673606842.148125,,,,0.586804,0.586272,858345.000000,1673606842.147470
1673606842.150179,,,,0.572259,0.573723,858346.000000,1673606842.148477
1673606842.150195,,,,0.570216,0.573483,858347.000000,1673606842.149484
1673606842.150310,,,,0.574784,0.578964,858348.000000,1673606842.150491
1673606842.155267,,,,0.558628,0.559635,858349.000000,1673606842.151498
1673606842.155612,,,,0.543459,0.542134,858350.000000,1673606842.152505
1673606842.155967,,,,0.530309,0.532037,858351.000000,1673606842.153512
1673606842.155981,,,,0.522207,0.524127,858352.000000,1673606842.154519
1673606842.156245,,,,0.525501,0.527301,858353.000000,1673606842.155526
1673606842.156599,,,,0.540334,0.540355,858354.000000,1673606842.156533
1673606842.156979,,,,0.498166,0.497538,858355.000000,1673606842.157540
1673606842.157254,,,,0.444195,0.444313,858356.000000,1673606842.158547
1673606842.157643,,,,0.396283,0.395607,858357.000000,1673606842.159554
1673606842.157892,,,,0.347913,0.349136,858358.000000,1673606842.160562
1673606842.157917,,,,0.355822,0.356300,858359.000000,1673606842.161569
1673606842.171356,,,,0.434026,0.435754,858360.000000,1673606842.162576
1673606842.171793,,,,0.479463,0.482032,858361.000000,1673606842.163583
1673606842.171808,,,,0.517447,0.516795,858362.000000,1673606842.164590
1673606842.172026,,,,0.546728,0.547519,858363.000000,1673606842.165597
1673606842.178668,,,,0.507686,0.511338,858364.000000,1673606842.166604
1673606842.179221,,,,0.494176,0.496192,858365.000000,1673606842.167611
1673606842.179240,,,,0.518697,0.517973,858366.000000,1673606842.168618
1673606842.179253,,,,0.555575,0.556342,858367.000000,1673606842.169625
1673606842.185021,,,,0.555503,0.556005,858368.000000,1673606842.170632
1673606842.185031,,,,0.578895,0.579276,858369.000000,1673606842.171639
1673606842.185041,,,,0.641664,0.641830,858370.000000,1673606842.172647
1673606842.187604,,,,0.646040,0.646854,858371.000000,1673606842.173654
1673606842.187840,,,,0.548027,0.550307,858372.000000,1673606842.174661
1673606842.187949,40.336952,1117036.000000,1673606842.130035,,,,
1673606842.188023,,,,0.417967,0.416762,858373.000000,1673606842.175668
1673606842.188035,,,,0.353298,0.353151,858374.000000,1673606842.176675
1673606842.188082,,,,0.363179,0.364161,858375.000000,1673606842.177682
1673606842.188287,,,,0.415683,0.415440,858376.000000,1673606842.178689
1673606842.188298,,,,0.437825,0.437605,858377.000000,1673606842.179696
1673606842.188785,40.535942,1117037.000000,1673606842.131035,,,,
1673606842.188795,40.535942,1117038.000000,1673606842.132035,,,,
1673606842.188800,40.626396,1117039.000000,1673606842.133035,,,,
1673606842.188807,40.644485,1117040.000000,1673606842.134035,,,,
1673606842.188810,40.698750,1117041.000000,1673606842.135035,,,,
1673606842.188823,40.680660,1117042.000000,1673606842.136035,,,,
1673606842.188825,40.680660,1117043.000000,1673606842.137035,,,,
1673606842.188846,40.734936,1117044.000000,1673606842.138035,,,,
1673606842.188851,40.734936,1117045.000000,1673606842.139035,,,,
1673606842.188858,40.952015,1117084.000000,1673606842.178035,,,,
1673606842.188861,40.843472,1117085.000000,1673606842.179035,,,,
1673606842.188869,40.897747,1117086.000000,1673606842.180035,,,,
1673606842.188872,40.897747,1117087.000000,1673606842.181035,,,,
1673606842.188889,40.843472,1117088.000000,1673606842.182035,,,,
1673606842.188891,40.879658,1117089.000000,1673606842.183035,,,,
1673606842.188919,40.897747,1117090.000000,1673606842.184035,,,,
1673606842.188935,40.843472,1117091.000000,1673606842.185035,,,,
1673606842.188938,40.825382,1117092.000000,1673606842.186035,,,,
1673606842.188942,40.789204,1117093.000000,1673606842.187035,,,,
1673606842.192724,,,,0.468765,0.468473,858378.000000,1673606842.180703
1673606842.192734,,,,0.545406,0.546677,858379.000000,1673606842.181710
1673606842.193075,,,,0.585938,0.585286,858380.000000,1673606842.182717
1673606842.193224,,,,0.595627,0.595071,858381.000000,1673606842.183724
1673606842.193239,,,,0.641015,0.642238,858382.000000,1673606842.184731
1673606842.193418,,,,0.740784,0.742247,858383.000000,1673606842.185739
1673606842.193602,,,,0.656978,0.656494,858384.000000,1673606842.186746
1673606842.194703,,,,0.544997,0.547110,858385.000000,1673606842.187753
1673606842.194895,,,,0.537713,0.537037,858386.000000,1673606842.188760
1673606842.195123,,,,0.588631,0.588412,858387.000000,1673606842.189767
1673606842.195197,,,,0.629885,0.628271,858388.000000,1673606842.190774
1673606842.199935,,,,0.715253,0.716908,858389.000000,1673606842.191781
1673606842.200131,,,,0.745399,0.744675,858390.000000,1673606842.192788
1673606842.200305,,,,0.703713,0.705417,858391.000000,1673606842.193795
1673606842.200470,,,,0.702463,0.703951,858392.000000,1673606842.194802
1673606842.202388,,,,0.710973,0.714312,858393.000000,1673606842.195809
1673606842.202494,,,,0.697631,0.695873,858394.000000,1673606842.196816
1673606842.202636,,,,0.662820,0.663947,858395.000000,1673606842.197824
1673606842.207890,,,,0.630245,0.631084,858396.000000,1673606842.198831
1673606842.207907,,,,0.607647,0.606081,858397.000000,1673606842.199838
1673606842.207985,,,,0.592261,0.591994,858398.000000,1673606842.200845
1673606842.208463,,,,0.590242,0.592475,858399.000000,1673606842.201852
1673606842.208490,,,,0.595338,0.592763,858400.000000,1673606842.202859
1673606842.208498,,,,0.575096,0.576415,858401.000000,1673606842.203866
1673606842.209863,,,,0.595218,0.594181,858402.000000,1673606842.204873
1673606842.209926,,,,0.601950,0.601321,858403.000000,1673606842.205880
1673606842.210129,,,,0.587525,0.589277,858404.000000,1673606842.206887
1673606842.210341,,,,0.560071,0.562376,858405.000000,1673606842.207894
1673606842.215254,,,,0.548099,0.549827,858406.000000,1673606842.208901
1673606842.215820,,,,0.540502,0.541845,858407.000000,1673606842.209908
1673606842.216053,,,,0.546296,0.549081,858408.000000,1673606842.210916
1673606842.216375,,,,0.560335,0.561606,858409.000000,1673606842.211923
1673606842.216386,,,,0.577476,0.577377,858410.000000,1673606842.212930
1673606842.216660,,,,0.627745,0.626877,858411.000000,1673606842.213937
1673606842.216889,,,,0.622216,0.621660,858412.000000,1673606842.214944
1673606842.217252,,,,0.595050,0.594734,858413.000000,1673606842.215951
1673606842.217782,,,,0.568677,0.569348,858414.000000,1673606842.216958
1673606842.217801,,,,0.561754,0.564059,858415.000000,1673606842.217965
1673606842.218031,,,,0.575505,0.576367,858416.000000,1673606842.218972
1673606842.222566,,,,0.584208,0.584661,858417.000000,1673606842.219979
1673606842.222578,,,,0.584544,0.585286,858418.000000,1673606842.220986
1673606842.222914,,,,0.589545,0.590191,858419.000000,1673606842.221993
1673606842.223157,,,,0.598391,0.596129,858420.000000,1673606842.223001
1673606842.224768,,,,0.590650,0.589133,858421.000000,1673606842.224008
1673606842.225010,,,,0.570697,0.569564,858422.000000,1673606842.225015
1673606842.225164,,,,0.563485,0.564347,858423.000000,1673606842.226022
1673606842.225312,,,,0.567644,0.568867,858424.000000,1673606842.227029
1673606842.238787,,,,0.573534,0.576415,858425.000000,1673606842.228036
1673606842.238895,,,,0.594329,0.594975,858426.000000,1673606842.229043
1673606842.238987,,,,0.584712,0.586585,858427.000000,1673606842.230050
1673606842.239228,,,,0.577717,0.576439,858428.000000,1673606842.231057
1673606842.239296,,,,0.577164,0.576151,858429.000000,1673606842.232064
1673606842.239306,,,,0.563533,0.564491,858430.000000,1673606842.233071
1673606842.252802,40.970104,1117106.000000,1673606842.203448,,,,
1673606842.252932,,,,0.556801,0.554202,858431.000000,1673606842.234078
1673606842.253044,41.024380,1117107.000000,1673606842.204448,,,,
1673606842.253055,,,,0.540213,0.538648,858432.000000,1673606842.235085
1673606842.253321,,,,0.524274,0.523430,858433.000000,1673606842.236093
1673606842.253643,,,,0.528241,0.526820,858434.000000,1673606842.237100
1673606842.253655,,,,0.568774,0.567857,858435.000000,1673606842.238107
1673606842.253810,,,,0.575577,0.577666,858436.000000,1673606842.239114
1673606842.253817,41.060558,1117108.000000,1673606842.205448,,,,
1673606842.253819,,,,0.559542,0.563385,858437.000000,1673606842.240121
1673606842.253837,41.151012,1117109.000000,1673606842.206448,,,,
1673606842.253984,41.223366,1117110.000000,1673606842.207448,,,,
1673606842.254236,41.205276,1117111.000000,1673606842.208448,,,,
1673606842.254241,41.241455,1117112.000000,1673606842.209448,,,,
1673606842.254274,41.259544,1117113.000000,1673606842.210448,,,,
1673606842.254281,41.313820,1117114.000000,1673606842.211448,,,,
1673606842.254288,41.349998,1117115.000000,1673606842.212448,,,,
1673606842.254329,42.363045,1117145.000000,1673606842.242448,,,,
1673606842.254336,42.417320,1117146.000000,1673606842.243448,,,,
1673606842.254369,42.471584,1117147.000000,1673606842.244448,,,,
1673606842.254374,42.507763,1117148.000000,1673606842.245448,,,,
1673606842.254430,42.471584,1117149.000000,1673606842.246448,,,,
1673606842.254438,42.507763,1117150.000000,1673606842.247448,,,,
1673606842.254444,42.507763,1117151.000000,1673606842.248448,,,,
1673606842.254454,42.598217,1117152.000000,1673606842.249448,,,,
1673606842.254467,42.580128,1117153.000000,1673606842.250448,,,,
1673606842.254479,42.562038,1117154.000000,1673606842.251448,,,,
1673606842.255007,,,,0.532953,0.535018,858438.000000,1673606842.241128
1673606842.255229,,,,0.481290,0.482537,858439.000000,1673606842.242135
1673606842.255574,,,,0.470808,0.472296,858440.000000,1673606842.243142
1673606842.255621,,,,0.492108,0.493788,858441.000000,1673606842.244149
1673606842.255679,,,,0.454341,0.458689,858442.000000,1673606842.245156
1673606842.255691,,,,0.460182,0.464290,858443.000000,1673606842.246163
1673606842.255795,,,,0.507927,0.510857,858444.000000,1673606842.247170
1673606842.260147,,,,0.535213,0.536051,858445.000000,1673606842.248178
1673606842.260218,,,,0.583727,0.586296,858446.000000,1673606842.249185
1673606842.260386,,,,0.603993,0.605072,858447.000000,1673606842.250192
1673606842.260397,,,,0.624548,0.623968,858448.000000,1673606842.251199
1673606842.262425,,,,0.652531,0.650412,858449.000000,1673606842.252206
1673606842.262590,,,,0.612888,0.613630,858450.000000,1673606842.253213
1673606842.262783,,,,0.572452,0.574035,858451.000000,1673606842.254220
1673606842.262883,,,,0.566850,0.564684,858452.000000,1673606842.255227
1673606842.267318,,,,0.572933,0.570958,858453.000000,1673606842.256234
1673606842.267657,,,,0.599569,0.602235,858454.000000,1673606842.257241
1673606842.267669,,,,0.576515,0.577521,858455.000000,1673606842.258248
1673606842.269823,,,,0.552306,0.552447,858456.000000,1673606842.259255
1673606842.270053,,,,0.550262,0.547831,858457.000000,1673606842.260262
1673606842.270374,,,,0.584111,0.581224,858458.000000,1673606842.261270
1673606842.270441,,,,0.572428,0.571487,858459.000000,1673606842.262277
1673606842.274860,,,,0.522544,0.521819,858460.000000,1673606842.263284
1673606842.275491,,,,0.500138,0.498837,858461.000000,1673606842.264291
1673606842.275501,,,,0.496460,0.494437,858462.000000,1673606842.265298
1673606842.278596,,,,0.516341,0.514487,858463.000000,1673606842.266305
1673606842.278620,,,,0.508696,0.509222,858464.000000,1673606842.267312
1673606842.278668,,,,0.505956,0.505111,858465.000000,1673606842.268319
1673606842.278682,,,,0.482973,0.482489,858466.000000,1673606842.269326
1673606842.278775,,,,0.458283,0.456285,858467.000000,1673606842.270333
1673606842.279018,,,,0.464438,0.462968,858468.000000,1673606842.271340
1673606842.279456,,,,0.488045,0.486744,858469.000000,1673606842.272347
1673606842.279905,,,,0.527135,0.526772,858470.000000,1673606842.273355
1673606842.282771,,,,0.564687,0.564900,858471.000000,1673606842.274362
1673606842.283317,,,,0.577620,0.576055,858472.000000,1673606842.275369
1673606842.283424,,,,0.601781,0.602427,858473.000000,1673606842.276376
1673606842.285143,,,,0.624884,0.624136,858474.000000,1673606842.277383
1673606842.285407,,,,0.678350,0.677097,858475.000000,1673606842.278390
1673606842.285593,,,,0.654550,0.656807,858476.000000,1673606842.279397
1673606842.285784,,,,0.539252,0.541412,858477.000000,1673606842.280404
1673606842.285918,,,,0.453379,0.453328,858478.000000,1673606842.281411
1673606842.286297,,,,0.415443,0.416041,858479.000000,1673606842.282418
1673606842.286309,,,,0.388421,0.388827,858480.000000,1673606842.283425
1673606842.302378,,,,0.411861,0.412050,858481.000000,1673606842.284432
1673606842.302394,,,,0.450710,0.452895,858482.000000,1673606842.285439
1673606842.302420,,,,0.513985,0.514439,858483.000000,1673606842.286447
1673606842.307080,42.634396,1117155.000000,1673606842.246459,,,,
1673606842.308412,42.616306,1117206.000000,1673606842.297458,,,,
1673606842.308437,42.598217,1117207.000000,1673606842.298459,,,,
1673606842.308450,42.580128,1117208.000000,1673606842.299459,,,,
1673606842.308460,42.543949,1117209.000000,1673606842.300458,,,,
1673606842.308465,42.598217,1117210.000000,1673606842.301458,,,,
1673606842.308471,42.580128,1117211.000000,1673606842.302459,,,,
1673606842.308484,42.562038,1117212.000000,1673606842.303458,,,,
1673606842.308494,42.598217,1117213.000000,1673606842.304458,,,,
1673606842.308500,42.562038,1117214.000000,1673606842.305459,,,,
1673606842.308506,42.543949,1117215.000000,1673606842.306458,,,,
1673606842.309436,,,,0.574856,0.573915,858484.000000,1673606842.287454
