__time,/gdx/grip_force_stream/grip_force,/gdx/grip_force_stream/header/seq,/gdx/grip_force_stream/header/stamp,/shimmer0/emg_stream/emg_ch1,/shimmer0/emg_stream/emg_ch2,/shimmer0/emg_stream/header/seq,/shimmer0/emg_stream/header/stamp
1673608197.772646,,,,-5.280291,-5.282433,2159334.000000,1673607173.830596
1673608197.773021,,,,-5.297215,-5.297459,2159335.000000,1673607173.831603
1673608197.773411,,,,-5.308634,-5.310801,2159336.000000,1673607173.832610
1673608197.774928,,,,-5.307817,-5.309695,2159337.000000,1673607173.833617
1673608197.775479,,,,-5.301639,-5.305873,2159338.000000,1673607173.834624
1673608197.775491,,,,-5.294450,-5.298156,2159339.000000,1673607173.835631
1673608197.789177,,,,-5.286180,-5.287241,2159340.000000,1673607173.836638
1673608197.789463,,,,-5.270362,-5.271422,2159341.000000,1673607173.837646
1673608197.789649,,,,-5.252019,-5.251878,2159342.000000,1673607173.838653
1673608197.789719,,,,-5.236056,-5.238559,2159343.000000,1673607173.839660
1673608197.796616,,,,-5.220406,-5.223197,2159344.000000,1673607173.840667
1673608197.796844,,,,-5.214660,-5.214975,2159345.000000,1673607173.841674
1673608197.796942,,,,-5.213242,-5.214375,2159346.000000,1673607173.842681
1673608197.797091,,,,-5.223988,-5.225818,2159347.000000,1673607173.843688
1673608197.797234,,,,-5.215117,-5.216995,2159348.000000,1673607173.844695
1673608197.797381,,,,-5.219660,-5.219711,2159349.000000,1673607173.845702
1673608197.797475,,,,-5.231320,-5.231996,2159350.000000,1673607173.846709
1673608197.802481,,,,-5.242836,-5.243536,2159351.000000,1673607173.847716
1673608197.802662,,,,-5.253101,-5.255917,2159352.000000,1673607173.848723
1673608197.802923,,,,-5.260025,-5.262936,2159353.000000,1673607173.849730
1673608197.802932,,,,-5.268246,-5.270653,2159354.000000,1673607173.850738
1673608197.804238,0.773852,2027753.000000,1673608197.793619,,,,
1673608197.804251,0.773852,2027754.000000,1673608197.794619,,,,
1673608197.804257,0.791941,2027755.000000,1673608197.795619,,,,
1673608197.804261,0.737674,2027756.000000,1673608197.796619,,,,
1673608197.804309,0.773852,2027757.000000,1673608197.797619,,,,
1673608197.804322,0.773852,2027758.000000,1673608197.798619,,,,
1673608197.804328,0.719577,2027759.000000,1673608197.799619,,,,
1673608197.804338,0.773852,2027760.000000,1673608197.800619,,,,
1673608197.804343,0.791941,2027761.000000,1673608197.801619,,,,
1673608197.804371,0.791941,2027762.000000,1673608197.802619,,,,
1673608197.804861,,,,-5.280459,-5.282385,2159355.000000,1673607173.851745
1673608197.804881,,,,-5.287262,-5.289742,2159356.000000,1673607173.852752
1673608197.804911,,,,-5.289209,-5.292482,2159357.000000,1673607173.853759
1673608197.810461,,,,-5.289426,-5.294910,2159358.000000,1673607173.854766
1673608197.810531,,,,-5.287142,-5.292650,2159359.000000,1673607173.855773
1673608197.810541,,,,-5.278223,-5.283611,2159360.000000,1673607173.856780
1673608197.810730,,,,-5.266395,-5.268850,2159361.000000,1673607173.857787
1673608197.810888,,,,-5.254784,-5.256229,2159362.000000,1673607173.858794
1673608197.811105,,,,-5.244518,-5.246372,2159363.000000,1673607173.859801
1673608197.811205,,,,-5.238508,-5.237381,2159364.000000,1673607173.860808
1673608197.811265,,,,-5.227257,-5.228029,2159365.000000,1673607173.861815
1673608197.812359,,,,-5.216102,-5.217957,2159366.000000,1673607173.862823
1673608197.812364,,,,-5.210285,-5.214278,2159367.000000,1673607173.863830
1673608197.812373,,,,-5.203505,-5.207908,2159368.000000,1673607173.864837
1673608197.818223,,,,-5.200644,-5.204157,2159369.000000,1673607173.865844
1673608197.818682,,,,-5.218194,-5.220288,2159370.000000,1673607173.866851
1673608197.818694,,,,-5.243869,-5.245892,2159371.000000,1673607173.867858
1673608197.818997,,,,-5.269568,-5.270822,2159372.000000,1673607173.868865
1673608197.819300,,,,-5.262741,-5.265869,2159373.000000,1673607173.869872
1673608197.819317,,,,-5.262933,-5.265773,2159374.000000,1673607173.870879
1673608197.819740,,,,-5.279329,-5.281087,2159375.000000,1673607173.871886
1673608197.819948,,,,-5.281709,-5.282049,2159376.000000,1673607173.872893
1673608197.820140,,,,-5.269448,-5.272576,2159377.000000,1673607173.873900
1673608197.820513,,,,-5.265506,-5.269331,2159378.000000,1673607173.874907
1673608197.820523,,,,-5.256106,-5.257046,2159379.000000,1673607173.875915
1673608197.825377,,,,-5.233291,-5.236251,2159380.000000,1673607173.876922
1673608197.825394,,,,-5.217737,-5.219014,2159381.000000,1673607173.877929
1673608197.825421,,,,-5.199298,-5.201296,2159382.000000,1673607173.878936
1673608197.827502,,,,-5.184609,-5.186800,2159383.000000,1673607173.879943
1673608197.827764,,,,-5.198457,-5.203027,2159384.000000,1673607173.880950
1673608197.827877,,,,-5.246081,-5.252166,2159385.000000,1673607173.881957
1673608197.832949,,,,-5.261611,-5.263970,2159386.000000,1673607173.882964
1673608197.833523,,,,-5.252596,-5.255676,2159387.000000,1673607173.883971
1673608197.833956,,,,-5.245600,-5.248752,2159388.000000,1673607173.884978
1673608197.834095,,,,-5.236296,-5.239882,2159389.000000,1673607173.885985
1673608197.834495,,,,-5.245264,-5.249089,2159390.000000,1673607173.886992
1673608197.834514,,,,-5.252259,-5.253007,2159391.000000,1673607173.888000
1673608197.834520,,,,-5.257837,-5.259907,2159392.000000,1673607173.889007
1673608197.837056,,,,-5.265770,-5.268490,2159393.000000,1673607173.890014
1673608197.837575,,,,-5.271492,-5.274837,2159394.000000,1673607173.891021
1673608197.837637,,,,-5.275891,-5.279788,2159395.000000,1673607173.892028
1673608197.837664,,,,-5.278199,-5.282506,2159396.000000,1673607173.893035
1673608197.852096,,,,-5.290075,-5.291449,2159397.000000,1673607173.894042
1673608197.852231,,,,-5.283368,-5.285967,2159398.000000,1673607173.895049
1673608197.852358,,,,-5.280363,-5.284188,2159399.000000,1673607173.896056
1673608197.852679,,,,-5.285772,-5.289718,2159400.000000,1673607173.897063
1673608197.852689,,,,-5.282286,-5.285775,2159401.000000,1673607173.898070
1673608197.852695,,,,-5.253846,-5.258152,2159402.000000,1673607173.899077
1673608197.852895,,,,-5.235431,-5.238174,2159403.000000,1673607173.900084
1673608197.852907,,,,-5.223603,-5.225024,2159404.000000,1673607173.901092
1673608197.859875,,,,-5.211511,-5.213461,2159405.000000,1673607173.902099
1673608197.859928,,,,-5.202327,-5.202426,2159406.000000,1673607173.903106
1673608197.860007,,,,-5.199081,-5.199277,2159407.000000,1673607173.904113
1673608197.862607,,,,-5.206727,-5.208412,2159408.000000,1673607173.905120
1673608197.863241,,,,-5.213698,-5.213725,2159409.000000,1673607173.906127
1673608197.863328,,,,-5.220959,-5.217932,2159410.000000,1673607173.907134
1673608197.863412,,,,-5.229541,-5.229183,2159411.000000,1673607173.908141
1673608197.865032,,,,-5.241777,-5.244089,2159412.000000,1673607173.909148
1673608197.865181,,,,-5.254014,-5.256181,2159413.000000,1673607173.910155
1673608197.865429,,,,-5.259399,-5.262576,2159414.000000,1673607173.911162
1673608197.865545,,,,-5.276709,-5.279188,2159415.000000,1673607173.912169
1673608197.869834,0.791941,2027775.000000,1673608197.819388,,,,
1673608197.870131,0.773852,2027776.000000,1673608197.820388,,,,
1673608197.870241,,,,-5.290291,-5.291136,2159416.000000,1673607173.913177
1673608197.870290,0.737674,2027777.000000,1673608197.821388,,,,
1673608197.870579,,,,-5.294763,-5.296449,2159417.000000,1673607173.914184
1673608197.870776,,,,-5.295941,-5.297218,2159418.000000,1673607173.915191
1673608197.871049,,,,-5.291037,-5.290415,2159419.000000,1673607173.916198
1673608197.871082,0.755763,2027778.000000,1673608197.822388,,,,
1673608197.871089,,,,-5.273487,-5.272865,2159420.000000,1673607173.917205
1673608197.871133,,,,-5.258317,-5.258777,2159421.000000,1673607173.918212
1673608197.871166,0.773852,2027779.000000,1673608197.823388,,,,
1673608197.871374,0.773852,2027780.000000,1673608197.824388,,,,
1673608197.871388,0.773852,2027781.000000,1673608197.825388,,,,
1673608197.871400,0.791941,2027782.000000,1673608197.826388,,,,
1673608197.871409,0.737674,2027783.000000,1673608197.827388,,,,
1673608197.871414,0.755763,2027784.000000,1673608197.828388,,,,
1673608197.871436,0.773852,2027814.000000,1673608197.858388,,,,
1673608197.871457,0.755763,2027815.000000,1673608197.859388,,,,
1673608197.871462,0.773852,2027816.000000,1673608197.860388,,,,
1673608197.871466,0.773852,2027817.000000,1673608197.861388,,,,
1673608197.871510,0.791941,2027818.000000,1673608197.862388,,,,
1673608197.871520,0.810030,2027819.000000,1673608197.863388,,,,
1673608197.871524,0.810030,2027820.000000,1673608197.864388,,,,
1673608197.871594,0.755763,2027821.000000,1673608197.865388,,,,
1673608197.871599,0.773852,2027822.000000,1673608197.866388,,,,
1673608197.871628,0.755763,2027823.000000,1673608197.867388,,,,
1673608197.873072,,,,-5.250120,-5.255628,2159422.000000,1673607173.919219
1673608197.873085,,,,-5.241777,-5.246637,2159423.000000,1673607173.920226
1673608197.873094,,,,-5.227161,-5.230025,2159424.000000,1673607173.921233
1673608197.873106,,,,-5.208217,-5.208989,2159425.000000,1673607173.922240
1673608197.873111,,,,-5.188191,-5.190094,2159426.000000,1673607173.923247
1673608197.873122,,,,-5.183263,-5.187353,2159427.000000,1673607173.924254
1673608197.873142,,,,-5.195307,-5.197906,2159428.000000,1673607173.925261
1673608197.877582,,,,-5.217064,-5.217812,2159429.000000,1673607173.926269
1673608197.877777,,,,-5.230839,-5.232790,2159430.000000,1673607173.927276
1673608197.877949,,,,-5.247956,-5.251541,2159431.000000,1673607173.928283
1673608197.877963,,,,-5.258197,-5.260941,2159432.000000,1673607173.929290
1673608197.880079,,,,-5.274689,-5.278298,2159433.000000,1673607173.930297
1673608197.880310,,,,-5.281661,-5.286568,2159434.000000,1673607173.931304
1673608197.880723,,,,-5.285988,-5.287410,2159435.000000,1673607173.932311
1673608197.880748,,,,-5.285195,-5.287169,2159436.000000,1673607173.933318
1673608197.884957,,,,-5.285940,-5.289093,2159437.000000,1673607173.934325
1673608197.885083,,,,-5.282550,-5.284140,2159438.000000,1673607173.935332
1673608197.885146,,,,-5.272429,-5.276014,2159439.000000,1673607173.936339
1673608197.887592,,,,-5.265001,-5.266686,2159440.000000,1673607173.937346
1673608197.887728,,,,-5.254399,-5.254017,2159441.000000,1673607173.938354
1673608197.887807,,,,-5.238460,-5.239569,2159442.000000,1673607173.939361
1673608197.892948,,,,-5.228820,-5.229472,2159443.000000,1673607173.940368
1673608197.892962,,,,-5.219155,-5.219326,2159444.000000,1673607173.941375
1673608197.893110,,,,-5.204394,-5.205696,2159445.000000,1673607173.942382
1673608197.893200,,,,-5.198961,-5.200407,2159446.000000,1673607173.943389
1673608197.893395,,,,-5.203962,-5.204590,2159447.000000,1673607173.944396
1673608197.893543,,,,-5.198432,-5.199542,2159448.000000,1673607173.945403
1673608197.893644,,,,-5.214131,-5.215144,2159449.000000,1673607173.946410
1673608197.894892,,,,-5.235551,-5.235650,2159450.000000,1673607173.947417
1673608197.894902,,,,-5.255024,-5.254426,2159451.000000,1673607173.948424
1673608197.894906,,,,-5.261371,-5.262263,2159452.000000,1673607173.949431
1673608197.894923,,,,-5.270843,-5.271952,2159453.000000,1673607173.950438
1673608197.899879,,,,-5.288777,-5.287410,2159454.000000,1673607173.951446
1673608197.900001,,,,-5.299234,-5.300584,2159455.000000,1673607173.952453
1673608197.900265,,,,-5.300124,-5.303349,2159456.000000,1673607173.953460
1673608197.900291,,,,-5.293104,-5.296857,2159457.000000,1673607173.954467
1673608197.902618,,,,-5.284546,-5.287337,2159458.000000,1673607173.955474
1673608197.902777,,,,-5.272117,-5.273538,2159459.000000,1673607173.956481
1673608197.902817,,,,-5.260169,-5.260171,2159460.000000,1673607173.957488
1673608197.902847,,,,-5.256010,-5.258248,2159461.000000,1673607173.958495
1673608197.902852,,,,-5.248269,-5.251348,2159462.000000,1673607173.959502
1673608197.903023,,,,-5.232185,-5.233006,2159463.000000,1673607173.960509
1673608197.903163,,,,-5.221079,-5.221899,2159464.000000,1673607173.961516
1673608197.907383,,,,-5.218506,-5.218966,2159465.000000,1673607173.962523
1673608197.907554,,,,-5.211078,-5.210840,2159466.000000,1673607173.963531
1673608197.907568,,,,-5.200716,-5.203147,2159467.000000,1673607173.964538
1673608197.910178,,,,-5.208890,-5.208677,2159468.000000,1673607173.965545
1673608197.910462,,,,-5.214900,-5.215360,2159469.000000,1673607173.966552
1673608197.910580,,,,-5.219155,-5.219159,2159470.000000,1673607173.967559
1673608197.910621,,,,-5.238869,-5.240146,2159471.000000,1673607173.968566
1673608197.910630,,,,-5.260625,-5.263153,2159472.000000,1673607173.969573
1673608197.910637,,,,-5.250841,-5.253873,2159473.000000,1673607173.970580
1673608197.910699,,,,-5.248629,-5.250339,2159474.000000,1673607173.971587
1673608197.924375,,,,-5.240936,-5.243271,2159475.000000,1673607173.972594
1673608197.925018,,,,-5.262669,-5.264379,2159476.000000,1673607173.973601
1673608197.925042,,,,-5.275386,-5.273923,2159477.000000,1673607173.974608
1673608197.925292,,,,-5.250000,-5.251902,2159478.000000,1673607173.975616
1673608197.925595,,,,-5.233676,-5.235915,2159479.000000,1673607173.976623
1673608197.925613,,,,-5.231464,-5.233150,2159480.000000,1673607173.977630
1673608197.925626,,,,-5.218362,-5.220144,2159481.000000,1673607173.978637
1673608197.925911,,,,-5.211871,-5.214350,2159482.000000,1673607173.979644
1673608197.931375,,,,-5.217208,-5.221106,2159483.000000,1673607173.980651
1673608197.931583,,,,-5.219708,-5.223341,2159484.000000,1673607173.981658
1673608197.931591,,,,-5.235647,-5.236035,2159485.000000,1673607173.982665
1673608197.931790,,,,-5.236777,-5.241733,2159486.000000,1673607173.983672
1673608197.934717,0.864306,2027875.000000,1673608197.924597,,,,
1673608197.934725,0.828119,2027876.000000,1673608197.925597,,,,
1673608197.934730,0.828119,2027877.000000,1673608197.926597,,,,
1673608197.934733,0.791941,2027878.000000,1673608197.927597,,,,
1673608197.934736,0.755763,2027879.000000,1673608197.928597,,,,
1673608197.934743,0.755763,2027880.000000,1673608197.929597,,,,
1673608197.934747,0.773852,2027881.000000,1673608197.930597,,,,
1673608197.934780,0.755763,2027882.000000,1673608197.931597,,,,
1673608197.934787,0.773852,2027883.000000,1673608197.932597,,,,
1673608197.934790,0.791941,2027884.000000,1673608197.933597,,,,
1673608197.937560,,,,-5.226151,-5.229712,2159487.000000,1673607173.984679
1673608197.937569,,,,-5.223747,-5.224351,2159488.000000,1673607173.985686
1673608197.937606,,,,-5.224516,-5.227068,2159489.000000,1673607173.986693
1673608197.940216,,,,-5.237138,-5.238559,2159490.000000,1673607173.987700
1673608197.940353,,,,-5.244422,-5.245531,2159491.000000,1673607173.988708
1673608197.940541,,,,-5.250913,-5.255195,2159492.000000,1673607173.989715
1673608197.940552,,,,-5.263294,-5.265004,2159493.000000,1673607173.990722
1673608197.940574,,,,-5.281108,-5.283226,2159494.000000,1673607173.991729
1673608197.940692,,,,-5.293465,-5.295126,2159495.000000,1673607173.992736
1673608197.940725,,,,-5.299883,-5.300752,2159496.000000,1673607173.993743
1673608197.944863,,,,-5.312721,-5.314888,2159497.000000,1673607173.994750
1673608197.945022,,,,-5.295724,-5.295992,2159498.000000,1673607173.995757
1673608197.945161,,,,-5.282310,-5.283900,2159499.000000,1673607173.996764
1673608197.948032,,,,-5.269015,-5.270990,2159500.000000,1673607173.997771
1673608197.948254,,,,-5.251682,-5.251830,2159501.000000,1673607173.998778
1673608197.948601,,,,-5.232522,-5.231828,2159502.000000,1673607173.999785
1673608197.949086,,,,-5.215934,-5.216346,2159503.000000,1673607174.000793
1673608197.949988,,,,-5.196461,-5.198820,2159504.000000,1673607174.001800
1673608197.950015,,,,-5.186076,-5.186391,2159505.000000,1673607174.002807
1673608197.950054,,,,-5.184297,-5.184516,2159506.000000,1673607174.003814
1673608197.950086,,,,-5.177084,-5.178314,2159507.000000,1673607174.004821
1673608197.950680,,,,-5.182542,-5.183819,2159508.000000,1673607174.005828
1673608197.950704,,,,-5.199875,-5.199349,2159509.000000,1673607174.006835
1673608197.950808,,,,-5.213578,-5.213918,2159510.000000,1673607174.007842
1673608197.953122,,,,-5.224156,-5.226467,2159511.000000,1673607174.008849
1673608197.953252,,,,-5.233171,-5.235915,2159512.000000,1673607174.009856
1673608197.953561,,,,-5.245480,-5.246997,2159513.000000,1673607174.010863
1673608197.953575,,,,-5.260217,-5.262071,2159514.000000,1673607174.011870
1673608197.954950,,,,-5.268799,-5.271062,2159515.000000,1673607174.012877
1673608197.955119,,,,-5.271612,-5.272985,2159516.000000,1673607174.013885
1673608197.955609,,,,-5.272573,-5.274596,2159517.000000,1673607174.014892
1673608197.955630,,,,-5.266756,-5.268009,2159518.000000,1673607174.015899
1673608197.959886,,,,-5.254230,-5.256349,2159519.000000,1673607174.016906
1673608197.960232,,,,-5.242595,-5.244810,2159520.000000,1673607174.017913
1673608197.960250,,,,-5.221199,-5.223534,2159521.000000,1673607174.018920
1673608197.962685,,,,-5.216126,-5.217764,2159522.000000,1673607174.019927
1673608197.963146,,,,-5.205068,-5.209085,2159523.000000,1673607174.020934
1673608197.963228,,,,-5.195548,-5.195262,2159524.000000,1673607174.021941
1673608197.963498,,,,-5.192110,-5.191319,2159525.000000,1673607174.022948
1673608197.963744,,,,-5.189730,-5.191680,2159526.000000,1673607174.023955
1673608197.963977,,,,-5.184200,-5.187689,2159527.000000,1673607174.024962
1673608197.964110,,,,-5.187061,-5.189396,2159528.000000,1673607174.025970
1673608197.977521,,,,-5.196822,-5.198219,2159529.000000,1673607174.026977
1673608197.977602,,,,-5.209924,-5.211442,2159530.000000,1673607174.027984
1673608197.977879,,,,-5.224685,-5.223798,2159531.000000,1673607174.028991
1673608197.977886,,,,-5.236753,-5.237838,2159532.000000,1673607174.029998
1673608197.977889,,,,-5.247788,-5.246901,2159533.000000,1673607174.031005
1673608197.977909,,,,-5.259159,-5.259547,2159534.000000,1673607174.032012
1673608197.977913,,,,-5.269833,-5.269956,2159535.000000,1673607174.033019
1673608197.979465,0.882395,2027936.000000,1673608197.968487,,,,
1673608197.979477,0.900484,2027937.000000,1673608197.969487,,,,
1673608197.979484,0.864306,2027938.000000,1673608197.970487,,,,
1673608197.979488,0.882395,2027939.000000,1673608197.971487,,,,
1673608197.979491,0.864306,2027940.000000,1673608197.972486,,,,
1673608197.979525,0.900484,2027941.000000,1673608197.973487,,,,
1673608197.979529,0.900484,2027942.000000,1673608197.974487,,,,
1673608197.979536,0.864306,2027943.000000,1673608197.975487,,,,
1673608197.979540,0.882395,2027944.000000,1673608197.976487,,,,
1673608197.979544,0.918573,2027945.000000,1673608197.977487,,,,
1673608197.982540,,,,-5.275122,-5.276832,2159536.000000,1673607174.034026
1673608197.982830,,,,-5.281084,-5.282241,2159537.000000,1673607174.035033
1673608197.982865,,,,-5.278079,-5.280630,2159538.000000,1673607174.036040
1673608197.982872,,,,-5.267645,-5.270870,2159539.000000,1673607174.037047
1673608197.985188,,,,-5.265169,-5.267168,2159540.000000,1673607174.038054
1673608197.985248,,,,-5.254471,-5.257792,2159541.000000,1673607174.039062
1673608197.985388,,,,-5.250432,-5.249377,2159542.000000,1673607174.040069
1673608197.985394,,,,-5.241153,-5.240458,2159543.000000,1673607174.041076
1673608197.985633,,,,-5.210645,-5.214398,2159544.000000,1673607174.042083
1673608197.985643,,,,-5.198697,-5.201176,2159545.000000,1673607174.043090
1673608197.985660,,,,-5.207880,-5.206369,2159546.000000,1673607174.044097
1673608197.989997,,,,-5.217184,-5.217932,2159547.000000,1673607174.045104
1673608197.990096,,,,-5.227473,-5.230217,2159548.000000,1673607174.046111
1673608197.990215,,,,-5.213770,-5.217572,2159549.000000,1673607174.047118
1673608197.992314,,,,-5.212039,-5.215096,2159550.000000,1673607174.048125
1673608197.992432,,,,-5.216319,-5.218582,2159551.000000,1673607174.049132
1673608197.992558,,,,-5.218771,-5.221322,2159552.000000,1673607174.050139
1673608197.992712,,,,-5.216487,-5.219687,2159553.000000,1673607174.051147
1673608197.997474,,,,-5.217329,-5.217043,2159554.000000,1673607174.052154
1673608197.998158,,,,-5.224949,-5.225866,2159555.000000,1673607174.053161
1673608197.998297,,,,-5.238989,-5.244305,2159556.000000,1673607174.054168
1673608198.000125,,,,-5.255913,-5.259330,2159557.000000,1673607174.055175
1673608198.000585,,,,-5.235623,-5.236828,2159558.000000,1673607174.056182
1673608198.000896,,,,-5.221488,-5.222572,2159559.000000,1673607174.057189
1673608198.000923,,,,-5.224685,-5.228077,2159560.000000,1673607174.058196
1673608198.006023,,,,-5.213987,-5.214903,2159561.000000,1673607174.059203
1673608198.006363,,,,-5.197591,-5.197354,2159562.000000,1673607174.060210
1673608198.006404,,,,-5.190932,-5.193074,2159563.000000,1673607174.061217
1673608198.006473,,,,-5.175065,-5.177905,2159564.000000,1673607174.062224
1673608198.006538,,,,-5.185258,-5.187401,2159565.000000,1673607174.063231
1673608198.006549,,,,-5.194586,-5.197186,2159566.000000,1673607174.064239
1673608198.006554,,,,-5.196437,-5.197113,2159567.000000,1673607174.065246
1673608198.007363,,,,-5.215261,-5.215552,2159568.000000,1673607174.066253
1673608198.007772,,,,-5.216463,-5.219495,2159569.000000,1673607174.067260
1673608198.007955,,,,-5.212977,-5.217428,2159570.000000,1673607174.068267
1673608198.007969,,,,-5.223074,-5.224712,2159571.000000,1673607174.069274
1673608198.012537,,,,-5.255336,-5.257720,2159572.000000,1673607174.070281
1673608198.012885,,,,-5.286926,-5.290487,2159573.000000,1673607174.071288
1673608198.013025,,,,-5.279233,-5.283082,2159574.000000,1673607174.072295
1673608198.013311,,,,-5.283488,-5.285318,2159575.000000,1673607174.073302
1673608198.015331,,,,-5.299066,-5.302315,2159576.000000,1673607174.074309
1673608198.015448,,,,-5.299956,-5.303228,2159577.000000,1673607174.075316
1673608198.015460,,,,-5.287118,-5.288203,2159578.000000,1673607174.076324
1673608198.015831,,,,-5.265914,-5.266927,2159579.000000,1673607174.077331
1673608198.016247,,,,-5.241585,-5.243896,2159580.000000,1673607174.078338
1673608198.016271,,,,-5.225262,-5.228198,2159581.000000,1673607174.079345
1673608198.020380,,,,-5.214684,-5.215649,2159582.000000,1673607174.080352
1673608198.020625,,,,-5.207808,-5.208436,2159583.000000,1673607174.081359
1673608198.020855,,,,-5.197471,-5.197089,2159584.000000,1673607174.082366
1673608198.021110,,,,-5.197086,-5.197666,2159585.000000,1673607174.083373
1673608198.021366,,,,-5.202039,-5.203340,2159586.000000,1673607174.084380
1673608198.021584,,,,-5.193624,-5.196536,2159587.000000,1673607174.085387
1673608198.021889,,,,-5.196341,-5.198508,2159588.000000,1673607174.086394
1673608198.022489,,,,-5.213819,-5.214879,2159589.000000,1673607174.087401
1673608198.022646,,,,-5.232955,-5.235001,2159590.000000,1673607174.088408
1673608198.022904,,,,-5.248918,-5.250940,2159591.000000,1673607174.089416
1673608198.023201,,,,-5.252356,-5.257022,2159592.000000,1673607174.090423
1673608198.036804,,,,-5.258414,-5.260292,2159593.000000,1673607174.091430
1673608198.037318,,,,-5.269040,-5.273033,2159594.000000,1673607174.092437
1673608198.037460,,,,-5.283824,-5.288203,2159595.000000,1673607174.093444
1673608198.037810,,,,-5.276516,-5.279308,2159596.000000,1673607174.094451
1673608198.037927,,,,-5.269232,-5.272216,2159597.000000,1673607174.095458
1673608198.037963,,,,-5.245792,-5.247959,2159598.000000,1673607174.096465
1673608198.037968,,,,-5.243412,-5.247478,2159599.000000,1673607174.097472
1673608198.043704,,,,-5.260361,-5.263345,2159600.000000,1673607174.098479
1673608198.044037,,,,-5.240936,-5.241853,2159601.000000,1673607174.099486
1673608198.044047,,,,-5.201894,-5.202330,2159602.000000,1673607174.100493
1673608198.044058,,,,-5.187999,-5.188627,2159603.000000,1673607174.101501
1673608198.049972,,,,-5.193096,-5.192281,2159604.000000,1673607174.102508
1673608198.050239,,,,-5.197158,-5.199589,2159605.000000,1673607174.103515
1673608198.050252,,,,-5.216535,-5.218485,2159606.000000,1673607174.104522
1673608198.052835,0.900484,2027946.000000,1673608197.992280,,,,
1673608198.052974,,,,-5.229132,-5.231684,2159607.000000,1673607174.105529
1673608198.052980,,,,-5.221872,-5.224832,2159608.000000,1673607174.106536
1673608198.053043,,,,-5.216799,-5.217932,2159609.000000,1673607174.107543
1673608198.053074,,,,-5.225863,-5.228077,2159610.000000,1673607174.108550
1673608198.053079,,,,-5.242354,-5.243896,2159611.000000,1673607174.109557
1673608198.053102,,,,-5.253365,-5.253945,2159612.000000,1673607174.110564
1673608198.053106,,,,-5.262453,-5.266591,2159613.000000,1673607174.111571
1673608198.053307,0.954751,2027947.000000,1673608197.993279,,,,
1673608198.054565,0.954751,2027948.000000,1673608197.994279,,,,
1673608198.054602,0.954751,2027949.000000,1673608197.995280,,,,
1673608198.054808,0.990929,2027997.000000,1673608198.043279,,,,
1673608198.054826,1.009027,2027998.000000,1673608198.044280,,,,
1673608198.054843,0.990929,2027999.000000,1673608198.045280,,,,
1673608198.054856,0.972840,2028000.000000,1673608198.046279,,,,
1673608198.054884,0.990929,2028001.000000,1673608198.047279,,,,
1673608198.054892,0.954751,2028002.000000,1673608198.048280,,,,
1673608198.054906,0.990929,2028003.000000,1673608198.049279,,,,
1673608198.054913,1.009027,2028004.000000,1673608198.050279,,,,
1673608198.054951,1.081383,2028005.000000,1673608198.051280,,,,
1673608198.054986,1.045205,2028006.000000,1673608198.052279,,,,
1673608198.057820,,,,-5.273391,-5.275221,2159614.000000,1673607174.112578
1673608198.058106,,,,-5.274256,-5.274380,2159615.000000,1673607174.113585
1673608198.058121,,,,-5.281973,-5.281688,2159616.000000,1673607174.114593
1673608198.058183,,,,-5.279016,-5.279813,2159617.000000,1673607174.115600
1673608198.059924,,,,-5.267621,-5.270557,2159618.000000,1673607174.116607
1673608198.060210,,,,-5.266612,-5.268778,2159619.000000,1673607174.117614
1673608198.060596,,,,-5.267694,-5.269379,2159620.000000,1673607174.118621
1673608198.060825,,,,-5.258822,-5.260532,2159621.000000,1673607174.119628
1673608198.064964,,,,-5.257452,-5.259138,2159622.000000,1673607174.120635
1673608198.065368,,,,-5.234710,-5.238223,2159623.000000,1673607174.121642
1673608198.065649,,,,-5.215958,-5.218005,2159624.000000,1673607174.122649
1673608198.067675,,,,-5.202832,-5.203219,2159625.000000,1673607174.123656
1673608198.067839,,,,-5.187206,-5.188915,2159626.000000,1673607174.124663
1673608198.068281,,,,-5.185042,-5.188242,2159627.000000,1673607174.125670
1673608198.073383,,,,-5.198625,-5.203003,2159628.000000,1673607174.126678
1673608198.073531,,,,-5.215117,-5.217957,2159629.000000,1673607174.127685
1673608198.073543,,,,-5.231969,-5.233078,2159630.000000,1673607174.128692
1673608198.074266,,,,-5.243581,-5.242598,2159631.000000,1673607174.129699
1673608198.074640,,,,-5.252379,-5.253561,2159632.000000,1673607174.130706
1673608198.074930,,,,-5.262453,-5.264980,2159633.000000,1673607174.131713
1673608198.074961,,,,-5.268198,-5.272432,2159634.000000,1673607174.132720
1673608198.075410,,,,-5.277814,-5.279885,2159635.000000,1673607174.133727
1673608198.075505,,,,-5.284426,-5.288660,2159636.000000,1673607174.134734
1673608198.076554,,,,-5.278872,-5.281880,2159637.000000,1673607174.135741
1673608198.076572,,,,-5.265289,-5.267480,2159638.000000,1673607174.136748
1673608198.076596,,,,-5.251177,-5.254714,2159639.000000,1673607174.137755
1673608198.076625,,,,-5.240888,-5.241853,2159640.000000,1673607174.138762
1673608198.076820,,,,-5.226849,-5.228943,2159641.000000,1673607174.139770
1673608198.076837,,,,-5.211751,-5.213821,2159642.000000,1673607174.140777
1673608198.080597,,,,-5.201197,-5.201897,2159643.000000,1673607174.141784
1673608198.080613,,,,-5.191605,-5.195358,2159644.000000,1673607174.142791
1673608198.080625,,,,-5.191822,-5.193315,2159645.000000,1673607174.143798
1673608198.080791,,,,-5.195307,-5.196657,2159646.000000,1673607174.144805
1673608198.082412,,,,-5.210405,-5.212739,2159647.000000,1673607174.145812
1673608198.082608,,,,-5.209732,-5.212644,2159648.000000,1673607174.146819
1673608198.096644,,,,-5.208578,-5.210696,2159649.000000,1673607174.147826
1673608198.096974,,,,-5.225911,-5.226082,2159650.000000,1673607174.148833
1673608198.097420,,,,-5.259808,-5.258368,2159651.000000,1673607174.149840
1673608198.097610,,,,-5.275146,-5.277481,2159652.000000,1673607174.150847
1673608198.097788,,,,-5.265794,-5.271807,2159653.000000,1673607174.151855
1673608198.097859,,,,-5.289834,-5.293468,2159654.000000,1673607174.152862
1673608198.097866,,,,-5.316712,-5.318374,2159655.000000,1673607174.153869
1673608198.097871,,,,-5.321424,-5.326355,2159656.000000,1673607174.154876
1673608198.103935,,,,-5.306567,-5.310657,2159657.000000,1673607174.155883
1673608198.104010,,,,-5.282983,-5.285775,2159658.000000,1673607174.156890
1673608198.104018,,,,-5.256322,-5.258922,2159659.000000,1673607174.157897
1673608198.110377,,,,-5.235864,-5.238246,2159660.000000,1673607174.158904
1673608198.110464,,,,-5.220357,-5.219976,2159661.000000,1673607174.159911
1673608198.110484,,,,-5.201389,-5.202522,2159662.000000,1673607174.160918
1673608198.110528,,,,-5.185691,-5.186872,2159663.000000,1673607174.161925
1673608198.112327,,,,-5.172397,-5.174251,2159664.000000,1673607174.162932
1673608198.112543,,,,-5.155328,-5.158528,2159665.000000,1673607174.163939
1673608198.112729,,,,-5.158453,-5.159971,2159666.000000,1673607174.164947
1673608198.112760,,,,-5.174272,-5.176895,2159667.000000,1673607174.165954
1673608198.117902,1.045205,2028007.000000,1673608198.056942,,,,
1673608198.118482,,,,-5.188504,-5.191199,2159668.000000,1673607174.166961
1673608198.118502,,,,-5.203553,-5.205239,2159669.000000,1673607174.167968
1673608198.118510,,,,-5.224324,-5.226346,2159670.000000,1673607174.168975
1673608198.120162,1.081383,2028008.000000,1673608198.057942,,,,
1673608198.120179,1.009027,2028009.000000,1673608198.058942,,,,
1673608198.120601,1.135650,2028050.000000,1673608198.099942,,,,
1673608198.120723,,,,-5.243581,-5.244161,2159671.000000,1673607174.169982
1673608198.120964,,,,-5.259520,-5.261037,2159672.000000,1673607174.170989
1673608198.121106,1.153747,2028051.000000,1673608198.100942,,,,
1673608198.121439,1.081383,2028052.000000,1673608198.101942,,,,
1673608198.121469,1.099472,2028053.000000,1673608198.102942,,,,
1673608198.121506,1.153747,2028054.000000,1673608198.103942,,,,
1673608198.121517,1.099472,2028055.000000,1673608198.104942,,,,
1673608198.121528,1.117561,2028056.000000,1673608198.105942,,,,
1673608198.121537,1.099472,2028057.000000,1673608198.106942,,,,
1673608198.121550,1.153747,2028058.000000,1673608198.107942,,,,
1673608198.121602,1.189925,2028059.000000,1673608198.108942,,,,
1673608198.121614,1.135650,2028060.000000,1673608198.109942,,,,
1673608198.121623,1.171836,2028061.000000,1673608198.110942,,,,
1673608198.121651,1.153747,2028062.000000,1673608198.111942,,,,
1673608198.121744,1.208014,2028063.000000,1673608198.112942,,,,
1673608198.121752,1.153747,2028064.000000,1673608198.113942,,,,
1673608198.121815,1.171836,2028065.000000,1673608198.114942,,,,
1673608198.121828,1.171836,2028066.000000,1673608198.115942,,,,
1673608198.121846,1.117561,2028067.000000,1673608198.116942,,,,
1673608198.121858,,,,-5.266179,-5.269691,2159673.000000,1673607174.171996
1673608198.122113,,,,-5.261299,-5.262840,2159674.000000,1673607174.173003
1673608198.122321,,,,-5.264496,-5.267119,2159675.000000,1673607174.174010
1673608198.122555,,,,-5.273968,-5.274019,2159676.000000,1673607174.175017
1673608198.122574,,,,-5.292142,-5.293492,2159677.000000,1673607174.176024
1673608198.122746,,,,-5.294715,-5.297675,2159678.000000,1673607174.177032
1673608198.125021,,,,-5.283224,-5.288323,2159679.000000,1673607174.178039
1673608198.125092,,,,-5.270266,-5.274091,2159680.000000,1673607174.179046
1673608198.127594,,,,-5.256370,-5.256950,2159681.000000,1673607174.180053
1673608198.127841,,,,-5.234229,-5.236131,2159682.000000,1673607174.181060
1673608198.127877,,,,-5.207496,-5.211706,2159683.000000,1673607174.182067
1673608198.128335,,,,-5.187710,-5.190911,2159684.000000,1673607174.183074
1673608198.128343,,,,-5.172637,-5.176775,2159685.000000,1673607174.184081
1673608198.128350,,,,-5.160449,-5.163937,2159686.000000,1673607174.185088
1673608198.128432,,,,-5.155280,-5.157423,2159687.000000,1673607174.186095
1673608198.128443,,,,-5.164608,-5.165812,2159688.000000,1673607174.187102
1673608198.132417,,,,-5.182229,-5.183458,2159689.000000,1673607174.188109
1673608198.132500,,,,-5.205356,-5.205624,2159690.000000,1673607174.189116
1673608198.132609,,,,-5.227762,-5.227597,2159691.000000,1673607174.190124
1673608198.134959,,,,-5.241417,-5.242887,2159692.000000,1673607174.191131
1673608198.135560,,,,-5.249903,-5.253849,2159693.000000,1673607174.192138
1673608198.135629,,,,-5.259375,-5.262455,2159694.000000,1673607174.193145
1673608198.135946,,,,-5.267934,-5.269379,2159695.000000,1673607174.194152
1673608198.142977,,,,-5.265866,-5.268129,2159696.000000,1673607174.195159
1673608198.143144,,,,-5.262861,-5.265196,2159697.000000,1673607174.196166
1673608198.143291,,,,-5.261226,-5.262455,2159698.000000,1673607174.197173
1673608198.143461,,,,-5.244422,-5.243608,2159699.000000,1673607174.198180
1673608198.143726,,,,-5.239902,-5.238319,2159700.000000,1673607174.199187
1673608198.143979,,,,-5.225598,-5.225794,2159701.000000,1673607174.200194
1673608198.143986,,,,-5.202928,-5.205431,2159702.000000,1673607174.201201
1673608198.156111,,,,-5.187686,-5.190382,2159703.000000,1673607174.202209
1673608198.156278,,,,-5.179176,-5.182473,2159704.000000,1673607174.203216
1673608198.156461,,,,-5.174031,-5.175573,2159705.000000,1673607174.204223
1673608198.164157,,,,-5.177397,-5.179275,2159706.000000,1673607174.205230
1673608198.164172,,,,-5.185811,-5.185502,2159707.000000,1673607174.206237
1673608198.164183,,,,-5.198360,-5.199469,2159708.000000,1673607174.207244
1673608198.164260,,,,-5.214468,-5.218173,2159709.000000,1673607174.208251
1673608198.170136,,,,-5.232690,-5.237429,2159710.000000,1673607174.209258
1673608198.170408,,,,-5.248605,-5.251517,2159711.000000,1673607174.210265
1673608198.170642,,,,-5.255961,-5.258128,2159712.000000,1673607174.211272
1673608198.172940,,,,-5.260649,-5.262455,2159713.000000,1673607174.212279
1673608198.172964,,,,-5.263823,-5.266735,2159714.000000,1673607174.213286
1673608198.172992,,,,-5.266756,-5.270268,2159715.000000,1673607174.214293
1673608198.173004,,,,-5.268414,-5.269355,2159716.000000,1673607174.215301
1673608198.173204,,,,-5.267645,-5.267215,2159717.000000,1673607174.216308
1673608198.173576,,,,-5.257596,-5.257936,2159718.000000,1673607174.217315
1673608198.173828,,,,-5.251779,-5.251758,2159719.000000,1673607174.218322
1673608198.174209,,,,-5.239254,-5.240579,2159720.000000,1673607174.219329
1673608198.176780,1.298468,2028119.000000,1673608198.165433,,,,
1673608198.176802,1.334646,2028120.000000,1673608198.166433,,,,
1673608198.176809,1.388913,2028121.000000,1673608198.167433,,,,
1673608198.176839,1.298468,2028122.000000,1673608198.168433,,,,
1673608198.176852,1.352735,2028123.000000,1673608198.169433,,,,
1673608198.176860,1.370824,2028124.000000,1673608198.170433,,,,
1673608198.176918,1.298468,2028125.000000,1673608198.171433,,,,
1673608198.176927,1.370824,2028126.000000,1673608198.172433,,,,
1673608198.176962,1.352735,2028127.000000,1673608198.173433,,,,
1673608198.176981,1.370824,2028128.000000,1673608198.174433,,,,
1673608198.178137,,,,-5.226728,-5.226779,2159721.000000,1673607174.220336
1673608198.178149,,,,-5.215429,-5.215528,2159722.000000,1673607174.221343
1673608198.178629,,,,-5.210693,-5.211970,2159723.000000,1673607174.222350
1673608198.178638,,,,-5.193312,-5.195022,2159724.000000,1673607174.223357
1673608198.178653,,,,-5.196004,-5.196416,2159725.000000,1673607174.224364
1673608198.178779,,,,-5.205548,-5.203917,2159726.000000,1673607174.225371
1673608198.178791,,,,-5.223507,-5.222572,2159727.000000,1673607174.226378
1673608198.179796,,,,-5.243268,-5.243656,2159728.000000,1673607174.227386
1673608198.180045,,,,-5.251153,-5.250411,2159729.000000,1673607174.228393
1673608198.180077,,,,-5.262548,-5.261085,2159730.000000,1673607174.229400
1673608198.184866,,,,-5.280291,-5.283371,2159731.000000,1673607174.230407
1673608198.185101,,,,-5.294859,-5.296208,2159732.000000,1673607174.231414
1673608198.185267,,,,-5.297311,-5.301641,2159733.000000,1673607174.232421
1673608198.185424,,,,-5.294547,-5.296040,2159734.000000,1673607174.233428
1673608198.189714,,,,-5.280843,-5.281880,2159735.000000,1673607174.234435
1673608198.190143,,,,-5.265602,-5.266326,2159736.000000,1673607174.235442
1673608198.190498,,,,-5.253774,-5.253536,2159737.000000,1673607174.236449
1673608198.190532,,,,-5.231512,-5.232525,2159738.000000,1673607174.237456
1673608198.190832,,,,-5.217088,-5.220913,2159739.000000,1673607174.238463
1673608198.191202,,,,-5.212328,-5.214134,2159740.000000,1673607174.239470
1673608198.191532,,,,-5.203240,-5.204830,2159741.000000,1673607174.240478
1673608198.192617,,,,-5.196173,-5.197258,2159742.000000,1673607174.241485
1673608198.193159,,,,-5.187566,-5.191247,2159743.000000,1673607174.242492
1673608198.193228,,,,-5.182374,-5.189035,2159744.000000,1673607174.243499
1673608198.193398,,,,-5.190331,-5.194661,2159745.000000,1673607174.244506
1673608198.196880,,,,-5.194971,-5.198339,2159746.000000,1673607174.245513
1673608198.197186,,,,-5.200163,-5.203628,2159747.000000,1673607174.246520
1673608198.197398,,,,-5.212424,-5.214086,2159748.000000,1673607174.247527
1673608198.199760,,,,-5.199683,-5.201657,2159749.000000,1673607174.248534
1673608198.199965,,,,-5.200019,-5.200383,2159750.000000,1673607174.249541
1673608198.200006,,,,-5.217785,-5.219182,2159751.000000,1673607174.250548
1673608198.200014,,,,-5.258798,-5.258513,2159752.000000,1673607174.251555
1673608198.204456,,,,-5.282214,-5.283659,2159753.000000,1673607174.252563
1673608198.204468,,,,-5.266107,-5.269860,2159754.000000,1673607174.253570
1673608198.204806,,,,-5.262260,-5.261734,2159755.000000,1673607174.254577
1673608198.204815,,,,-5.271035,-5.272168,2159756.000000,1673607174.255584
1673608198.204916,,,,-5.308154,-5.312147,2159757.000000,1673607174.256591
1673608198.204921,,,,-5.277117,-5.277120,2159758.000000,1673607174.257598
1673608198.204923,,,,-5.268631,-5.266999,2159759.000000,1673607174.258605
1673608198.212056,,,,-5.257212,-5.256830,2159760.000000,1673607174.259612
1673608198.212066,,,,-5.240143,-5.242189,2159761.000000,1673607174.260619
1673608198.212259,,,,-5.221511,-5.223582,2159762.000000,1673607174.261626
1673608198.215647,,,,-5.207039,-5.209518,2159763.000000,1673607174.262633
1673608198.215670,,,,-5.205741,-5.209999,2159764.000000,1673607174.263640
1673608198.216240,,,,-5.216944,-5.220144,2159765.000000,1673607174.264647
1673608198.216253,,,,-5.229926,-5.230698,2159766.000000,1673607174.265655
1673608198.216259,,,,-5.247523,-5.247190,2159767.000000,1673607174.266662
1673608198.216290,,,,-5.256010,-5.257720,2159768.000000,1673607174.267669
1673608198.216305,,,,-5.265553,-5.269259,2159769.000000,1673607174.268676
1673608198.219519,,,,-5.273319,-5.275053,2159770.000000,1673607174.269683
1673608198.220343,,,,-5.275338,-5.278539,2159771.000000,1673607174.270690
1673608198.220355,,,,-5.289474,-5.290823,2159772.000000,1673607174.271697
1673608198.220447,,,,-5.295965,-5.295415,2159773.000000,1673607174.272704
1673608198.220552,,,,-5.287743,-5.290727,2159774.000000,1673607174.273711
1673608198.220565,,,,-5.285219,-5.285799,2159775.000000,1673607174.274718
1673608198.220571,,,,-5.272309,-5.275750,2159776.000000,1673607174.275725
1673608198.220583,,,,-5.257067,-5.260340,2159777.000000,1673607174.276732
1673608198.230474,,,,-5.249086,-5.251902,2159778.000000,1673607174.277740
1673608198.230623,1.370824,2028129.000000,1673608198.169537,,,,
1673608198.230703,,,,-5.235431,-5.238823,2159779.000000,1673607174.278747
1673608198.230774,1.407002,2028130.000000,1673608198.170537,,,,
1673608198.230786,,,,-5.222834,-5.226058,2159780.000000,1673607174.279754
1673608198.231085,,,,-5.215525,-5.217331,2159781.000000,1673607174.280761
1673608198.232344,,,,-5.217929,-5.214879,2159782.000000,1673607174.281768
1673608198.232358,1.388913,2028161.000000,1673608198.201537,,,,
1673608198.232374,1.370824,2028162.000000,1673608198.202537,,,,
1673608198.232388,1.370824,2028163.000000,1673608198.203537,,,,
1673608198.232427,1.388913,2028164.000000,1673608198.204537,,,,
1673608198.232913,,,,-5.216319,-5.217620,2159783.000000,1673607174.282775
1673608198.232932,,,,-5.216006,-5.219663,2159784.000000,1673607174.283782
1673608198.233385,1.425100,2028165.000000,1673608198.205537,,,,
1673608198.233417,1.425100,2028166.000000,1673608198.206537,,,,
1673608198.233434,1.461278,2028167.000000,1673608198.207537,,,,
1673608198.233458,1.461278,2028168.000000,1673608198.208537,,,,
1673608198.233467,1.461278,2028169.000000,1673608198.209537,,,,
1673608198.233479,1.443189,2028170.000000,1673608198.210537,,,,
1673608198.233494,1.515545,2028180.000000,1673608198.220537,,,,
1673608198.233500,1.533634,2028181.000000,1673608198.221537,,,,
1673608198.233607,1.497456,2028182.000000,1673608198.222537,,,,
1673608198.233623,1.497456,2028183.000000,1673608198.223537,,,,
1673608198.233645,1.569820,2028184.000000,1673608198.224537,,,,
1673608198.233652,1.551723,2028185.000000,1673608198.225537,,,,
1673608198.233658,1.569820,2028186.000000,1673608198.226537,,,,
1673608198.233662,1.569820,2028187.000000,1673608198.227537,,,,
1673608198.233674,1.587909,2028188.000000,1673608198.228537,,,,
1673608198.233694,1.587909,2028189.000000,1673608198.229537,,,,
1673608198.237921,,,,-5.221391,-5.224784,2159785.000000,1673607174.284789
1673608198.238139,,,,-5.229036,-5.232645,2159786.000000,1673607174.285796
1673608198.238328,,,,-5.230647,-5.236708,2159787.000000,1673607174.286803
1673608198.238345,,,,-5.236104,-5.238872,2159788.000000,1673607174.287810
1673608198.238353,,,,-5.246346,-5.250291,2159789.000000,1673607174.288817
1673608198.238358,,,,-5.263534,-5.264884,2159790.000000,1673607174.289824
1673608198.238630,,,,-5.290556,-5.291977,2159791.000000,1673607174.290832
1673608198.240223,,,,-5.313731,-5.315777,2159792.000000,1673607174.291839
1673608198.240401,,,,-5.319428,-5.321283,2159793.000000,1673607174.292846
1673608198.240589,,,,-5.319861,-5.317580,2159794.000000,1673607174.293853
1673608198.240731,,,,-5.314404,-5.314263,2159795.000000,1673607174.294860
1673608198.240833,,,,-5.308394,-5.308613,2159796.000000,1673607174.295867
1673608198.241112,,,,-5.299162,-5.298300,2159797.000000,1673607174.296874
1673608198.241118,,,,-5.272405,-5.271999,2159798.000000,1673607174.297881
1673608198.244978,,,,-5.228724,-5.232164,2159799.000000,1673607174.298888
1673608198.245024,,,,-5.212256,-5.215817,2159800.000000,1673607174.299895
1673608198.245140,,,,-5.214179,-5.215744,2159801.000000,1673607174.300902
1673608198.245305,,,,-5.209058,-5.210383,2159802.000000,1673607174.301909
1673608198.247658,,,,-5.189297,-5.190502,2159803.000000,1673607174.302917
1673608198.248064,,,,-5.180522,-5.182641,2159804.000000,1673607174.303924
1673608198.248069,,,,-5.183239,-5.185670,2159805.000000,1673607174.304931
1673608198.248073,,,,-5.196485,-5.195358,2159806.000000,1673607174.305938
1673608198.248090,,,,-5.210645,-5.213124,2159807.000000,1673607174.306945
1673608198.248243,,,,-5.223290,-5.225409,2159808.000000,1673607174.307952
1673608198.248319,,,,-5.230599,-5.230385,2159809.000000,1673607174.308959
1673608198.252592,,,,-5.230599,-5.231948,2159810.000000,1673607174.309966
1673608198.252605,,,,-5.236561,-5.237669,2159811.000000,1673607174.310973
1673608198.252613,,,,-5.253245,-5.255508,2159812.000000,1673607174.311980
1673608198.254851,,,,-5.263150,-5.266542,2159813.000000,1673607174.312987
1673608198.255095,,,,-5.260529,-5.263609,2159814.000000,1673607174.313994
1673608198.255285,,,,-5.258366,-5.257768,2159815.000000,1673607174.315001
1673608198.255442,,,,-5.256731,-5.259450,2159816.000000,1673607174.316009
1673608198.260011,,,,-5.256731,-5.258080,2159817.000000,1673607174.317016
1673608198.260450,,,,-5.262212,-5.261782,2159818.000000,1673607174.318023
1673608198.260461,,,,-5.267573,-5.267985,2159819.000000,1673607174.319030
1673608198.262385,,,,-5.263534,-5.263802,2159820.000000,1673607174.320037
1673608198.262701,,,,-5.248509,-5.249570,2159821.000000,1673607174.321044
1673608198.263078,,,,-5.230887,-5.235386,2159822.000000,1673607174.322051
1673608198.263095,,,,-5.218843,-5.218629,2159823.000000,1673607174.323058
1673608198.276677,,,,-5.201509,-5.204301,2159824.000000,1673607174.324065
1673608198.276800,,,,-5.200284,-5.202667,2159825.000000,1673607174.325072
1673608198.276942,,,,-5.199803,-5.200094,2159826.000000,1673607174.326079
1673608198.276986,,,,-5.203866,-5.203532,2159827.000000,1673607174.327086
1673608198.285388,,,,-5.218001,-5.218509,2159828.000000,1673607174.328094
1673608198.285646,,,,-5.235262,-5.236540,2159829.000000,1673607174.329101
1673608198.285881,,,,-5.252163,-5.251421,2159830.000000,1673607174.330108
1673608198.285894,,,,-5.263462,-5.262527,2159831.000000,1673607174.331115
1673608198.286033,,,,-5.271203,-5.273514,2159832.000000,1673607174.332122
1673608198.286312,,,,-5.273631,-5.275221,2159833.000000,1673607174.333129
1673608198.286319,,,,-5.270242,-5.272649,2159834.000000,1673607174.334136
1673608198.287568,1.786897,2028241.000000,1673608198.276788,,,,
1673608198.287585,1.823075,2028242.000000,1673608198.277788,,,,
1673608198.287595,1.786897,2028243.000000,1673608198.278788,,,,
1673608198.287603,1.841164,2028244.000000,1673608198.279788,,,,
1673608198.287609,1.895440,2028245.000000,1673608198.280788,,,,
1673608198.287615,1.913529,2028246.000000,1673608198.281788,,,,
1673608198.287620,1.931618,2028247.000000,1673608198.282788,,,,
1673608198.287648,1.895440,2028248.000000,1673608198.283788,,,,
1673608198.287725,1.895440,2028249.000000,1673608198.284788,,,,
1673608198.287732,1.949707,2028250.000000,1673608198.285788,,,,
1673608198.290372,,,,-5.271011,-5.273466,2159835.000000,1673607174.335143
1673608198.290448,,,,-5.271107,-5.272696,2159836.000000,1673607174.336150
1673608198.290491,,,,-5.262404,-5.263609,2159837.000000,1673607174.337157
1673608198.290666,,,,-5.253053,-5.254113,2159838.000000,1673607174.338164
1673608198.290802,,,,-5.237378,-5.238078,2159839.000000,1673607174.339171
1673608198.290954,,,,-5.229733,-5.232285,2159840.000000,1673607174.340178
1673608198.291116,,,,-5.226849,-5.226995,2159841.000000,1673607174.341186
1673608198.292551,,,,-5.220454,-5.221154,2159842.000000,1673607174.342193
1673608198.292757,,,,-5.215862,-5.217067,2159843.000000,1673607174.343200
1673608198.292948,,,,-5.213722,-5.218654,2159844.000000,1673607174.344207
1673608198.293029,,,,-5.213842,-5.218678,2159845.000000,1673607174.345214
1673608198.293142,,,,-5.214780,-5.214014,2159846.000000,1673607174.346221
1673608198.293399,,,,-5.224661,-5.225193,2159847.000000,1673607174.347228
1673608198.293411,,,,-5.248749,-5.251733,2159848.000000,1673607174.348235
1673608198.297474,,,,-5.250192,-5.254426,2159849.000000,1673607174.349242
1673608198.297561,,,,-5.259303,-5.261398,2159850.000000,1673607174.350249
1673608198.297654,,,,-5.261371,-5.265557,2159851.000000,1673607174.351256
1673608198.299776,,,,-5.267117,-5.270485,2159852.000000,1673607174.352263
1673608198.299901,,,,-5.271636,-5.270557,2159853.000000,1673607174.353271
1673608198.300066,,,,-5.268919,-5.269619,2159854.000000,1673607174.354278
1673608198.300158,,,,-5.265409,-5.267865,2159855.000000,1673607174.355285
1673608198.305290,,,,-5.261010,-5.260845,2159856.000000,1673607174.356292
1673608198.305705,,,,-5.250168,-5.249594,2159857.000000,1673607174.357299
1673608198.306027,,,,-5.242739,-5.245146,2159858.000000,1673607174.358306
1673608198.306183,,,,-5.232762,-5.234208,2159859.000000,1673607174.359313
1673608198.308063,,,,-5.219925,-5.219736,2159860.000000,1673607174.360320
1673608198.308083,,,,-5.209371,-5.211706,2159861.000000,1673607174.361327
1673608198.308113,,,,-5.203770,-5.204373,2159862.000000,1673607174.362334
1673608198.308120,,,,-5.205765,-5.207427,2159863.000000,1673607174.363341
1673608198.312433,,,,-5.214371,-5.216057,2159864.000000,1673607174.364348
1673608198.312687,,,,-5.224805,-5.228029,2159865.000000,1673607174.365355
1673608198.315344,,,,-5.231488,-5.233559,2159866.000000,1673607174.366363
1673608198.315735,,,,-5.241417,-5.244401,2159867.000000,1673607174.367370
1673608198.315750,,,,-5.253533,-5.253993,2159868.000000,1673607174.368377
1673608198.315927,,,,-5.270434,-5.270052,2159869.000000,1673607174.369384
1673608198.315944,,,,-5.278968,-5.282096,2159870.000000,1673607174.370391
1673608198.316152,,,,-5.283151,-5.286953,2159871.000000,1673607174.371398
1673608198.316776,,,,-5.299643,-5.300969,2159872.000000,1673607174.372405
1673608198.316850,,,,-5.335368,-5.336620,2159873.000000,1673607174.373412
1673608198.320332,,,,-5.328011,-5.331644,2159874.000000,1673607174.374419
1673608198.320584,,,,-5.314476,-5.316979,2159875.000000,1673607174.375426
1673608198.320652,,,,-5.298850,-5.303685,2159876.000000,1673607174.376433
1673608198.322733,,,,-5.278704,-5.282433,2159877.000000,1673607174.377440
1673608198.323074,,,,-5.252211,-5.254570,2159878.000000,1673607174.378448
1673608198.323143,,,,-5.224204,-5.226323,2159879.000000,1673607174.379455
1673608198.323246,,,,-5.200837,-5.204350,2159880.000000,1673607174.380462
1673608198.327662,,,,-5.184850,-5.187930,2159881.000000,1673607174.381469
1673608198.327681,,,,-5.175113,-5.178410,2159882.000000,1673607174.382476
1673608198.328128,,,,-5.168790,-5.172087,2159883.000000,1673607174.383483
1673608198.328203,,,,-5.174825,-5.176630,2159884.000000,1673607174.384490
1673608198.330264,,,,-5.193264,-5.193699,2159885.000000,1673607174.385497
1673608198.330772,,,,-5.210429,-5.211129,2159886.000000,1673607174.386504
1673608198.330791,,,,-5.223218,-5.224808,2159887.000000,1673607174.387511
1673608198.331208,,,,-5.238412,-5.241853,2159888.000000,1673607174.388518
1673608198.331316,,,,-5.264688,-5.269547,2159889.000000,1673607174.389525
1673608198.331330,,,,-5.276372,-5.281399,2159890.000000,1673607174.390532
1673608198.344496,,,,-5.274136,-5.276711,2159891.000000,1673607174.391540
1673608198.344912,,,,-5.281901,-5.281929,2159892.000000,1673607174.392547
1673608198.345316,,,,-5.302624,-5.303685,2159893.000000,1673607174.393554
1673608198.345343,,,,-5.318707,-5.320874,2159894.000000,1673607174.394561
1673608198.345589,,,,-5.314789,-5.317605,2159895.000000,1673607174.395568
1673608198.345745,,,,-5.296494,-5.300488,2159896.000000,1673607174.396575
1673608198.345755,,,,-5.304307,-5.307988,2159897.000000,1673607174.397582
1673608198.345780,,,,-5.309211,-5.313926,2159898.000000,1673607174.398589
1673608198.345918,,,,-5.289258,-5.292723,2159899.000000,1673607174.399596
1673608198.346050,,,,-5.266684,-5.266518,2159900.000000,1673607174.400603
1673608198.346134,,,,-5.236537,-5.237838,2159901.000000,1673607174.401610
1673608198.350844,1.985893,2028251.000000,1673608198.290187,,,,
1673608198.350858,1.841164,2028252.000000,1673608198.291187,,,,
1673608198.350865,1.931618,2028253.000000,1673608198.292187,,,,
1673608198.350909,1.967796,2028254.000000,1673608198.293187,,,,
1673608198.351441,,,,-5.204394,-5.204398,2159902.000000,1673607174.402617
1673608198.351607,1.949707,2028255.000000,1673608198.294187,,,,
1673608198.351779,,,,-5.194971,-5.197426,2159903.000000,1673607174.403625
1673608198.351999,,,,-5.199154,-5.204301,2159904.000000,1673607174.404632
1673608198.352073,2.799942,2028302.000000,1673608198.341187,,,,
1673608198.352084,2.836128,2028303.000000,1673608198.342187,,,,
1673608198.352093,2.836128,2028304.000000,1673608198.343187,,,,
1673608198.352098,2.890396,2028305.000000,1673608198.344187,,,,
1673608198.352190,2.908485,2028306.000000,1673608198.345187,,,,
1673608198.352197,2.926574,2028307.000000,1673608198.346187,,,,
1673608198.352201,2.908485,2028308.000000,1673608198.347187,,,,
1673608198.352203,2.944663,2028309.000000,1673608198.348187,,,,
1673608198.352229,2.962760,2028310.000000,1673608198.349187,,,,
1673608198.352234,2.980849,2028311.000000,1673608198.350187,,,,
1673608198.352256,,,,-5.208914,-5.211874,2159905.000000,1673607174.405639
1673608198.352262,,,,-5.199034,-5.202354,2159906.000000,1673607174.406646
1673608198.352266,,,,-5.198264,-5.201465,2159907.000000,1673607174.407653
1673608198.352269,,,,-5.207448,-5.207210,2159908.000000,1673607174.408660
1673608198.357544,,,,-5.224541,-5.223895,2159909.000000,1673607174.409667
1673608198.357550,,,,-5.239590,-5.243584,2159910.000000,1673607174.410674
1673608198.357752,,,,-5.257260,-5.260725,2159911.000000,1673607174.411681
1673608198.357946,,,,-5.277334,-5.279140,2159912.000000,1673607174.412688
1673608198.359856,,,,-5.293633,-5.294982,2159913.000000,1673607174.413695
1673608198.360238,,,,-5.302360,-5.304310,2159914.000000,1673607174.414702
1673608198.360246,,,,-5.295893,-5.296232,2159915.000000,1673607174.415709
1673608198.360279,,,,-5.284882,-5.287482,2159916.000000,1673607174.416717
1673608198.365842,,,,-5.275843,-5.279596,2159917.000000,1673607174.417724
1673608198.365866,,,,-5.266852,-5.269908,2159918.000000,1673607174.418731
1673608198.366371,,,,-5.260697,-5.264210,2159919.000000,1673607174.419738
1673608198.366692,,,,-5.240551,-5.243079,2159920.000000,1673607174.420745
1673608198.367035,,,,-5.236320,-5.238968,2159921.000000,1673607174.421752
1673608198.367454,,,,-5.238556,-5.237886,2159922.000000,1673607174.422759
1673608198.368015,,,,-5.238268,-5.240554,2159923.000000,1673607174.423766
1673608198.368233,,,,-5.233676,-5.234472,2159924.000000,1673607174.424773
1673608198.368421,,,,-5.232979,-5.235410,2159925.000000,1673607174.425780
1673608198.368436,,,,-5.242715,-5.243992,2159926.000000,1673607174.426787
1673608198.368730,,,,-5.256250,-5.260845,2159927.000000,1673607174.427794
1673608198.369135,,,,-5.267357,-5.272264,2159928.000000,1673607174.428802
1673608198.369365,,,,-5.287094,-5.289765,2159929.000000,1673607174.429809
1673608198.369413,,,,-5.309283,-5.312292,2159930.000000,1673607174.430816
1673608198.369636,,,,-5.322289,-5.325129,2159931.000000,1673607174.431823
1673608198.369842,,,,-5.331353,-5.335130,2159932.000000,1673607174.432830
1673608198.370061,,,,-5.336281,-5.338063,2159933.000000,1673607174.433837
1673608198.370267,,,,-5.335415,-5.337943,2159934.000000,1673607174.434844
1673608198.372996,,,,-5.322241,-5.325297,2159935.000000,1673607174.435851
1673608198.373218,,,,-5.296638,-5.295776,2159936.000000,1673607174.436858
1673608198.373479,,,,-5.262068,-5.262407,2159937.000000,1673607174.437865
1673608198.373579,,,,-5.236753,-5.237285,2159938.000000,1673607174.438872
1673608198.373763,,,,-5.221343,-5.222500,2159939.000000,1673607174.439879
1673608198.373905,,,,-5.219901,-5.221202,2159940.000000,1673607174.440886
1673608198.374130,,,,-5.220357,-5.222548,2159941.000000,1673607174.441894
1673608198.374440,,,,-5.221704,-5.223582,2159942.000000,1673607174.442901
1673608198.374450,,,,-5.243677,-5.245531,2159943.000000,1673607174.443908
1673608198.374469,,,,-5.292719,-5.292650,2159944.000000,1673607174.444915
1673608198.383611,,,,-5.316448,-5.317821,2159945.000000,1673607174.445922
1673608198.383703,,,,-5.320030,-5.323783,2159946.000000,1673607174.446929
1673608198.384704,,,,-5.314837,-5.318470,2159947.000000,1673607174.447936
1673608198.384734,,,,-5.316400,-5.318855,2159948.000000,1673607174.448943
1673608198.384783,,,,-5.295629,-5.296954,2159949.000000,1673607174.449950
1673608198.384931,,,,-5.264592,-5.266566,2159950.000000,1673607174.450957
1673608198.385063,,,,-5.236224,-5.239521,2159951.000000,1673607174.451964
1673608198.385084,,,,-5.209900,-5.212259,2159952.000000,1673607174.452971
1673608198.385101,,,,-5.206342,-5.209134,2159953.000000,1673607174.453979
1673608198.385110,,,,-5.222160,-5.224303,2159954.000000,1673607174.454986
1673608198.385185,,,,-5.223795,-5.225265,2159955.000000,1673607174.455993
1673608198.388763,,,,-5.229637,-5.233246,2159956.000000,1673607174.457000
1673608198.389218,,,,-5.234638,-5.237814,2159957.000000,1673607174.458007
1673608198.389237,,,,-5.224805,-5.228751,2159958.000000,1673607174.459014
1673608198.389309,,,,-5.220886,-5.222716,2159959.000000,1673607174.460021
1673608198.404582,,,,-5.215982,-5.216346,2159960.000000,1673607174.461028
1673608198.404646,,,,-5.197711,-5.201056,2159961.000000,1673607174.462035
1673608198.404797,,,,-5.188624,-5.193964,2159962.000000,1673607174.463042
1673608198.404802,,,,-5.189946,-5.193844,2159963.000000,1673607174.464049
1673608198.404867,,,,-5.193673,-5.195863,2159964.000000,1673607174.465056
1673608198.405195,,,,-5.204635,-5.207403,2159965.000000,1673607174.466063
1673608198.405209,,,,-5.216775,-5.217452,2159966.000000,1673607174.467071
1673608198.405214,,,,-5.236921,-5.236804,2159967.000000,1673607174.468078
1673608198.405224,,,,-5.263174,-5.264956,2159968.000000,1673607174.469085
1673608198.405267,,,,-5.288344,-5.293227,2159969.000000,1673607174.470092
1673608198.411789,,,,-5.324117,-5.326523,2159970.000000,1673607174.471099
1673608198.411919,,,,-5.347965,-5.345708,2159971.000000,1673607174.472106
1673608198.412170,,,,-5.348999,-5.349194,2159972.000000,1673607174.473113
1673608198.412347,,,,-5.347917,-5.352055,2159973.000000,1673607174.474120
1673608198.412565,,,,-5.324958,-5.329072,2159974.000000,1673607174.475127
1673608198.412723,,,,-5.315197,-5.317773,2159975.000000,1673607174.476134
1673608198.412895,,,,-5.330054,-5.330730,2159976.000000,1673607174.477141
1673608198.417503,,,,-5.329502,-5.332774,2159977.000000,1673607174.478148
1673608198.417756,,,,-5.298994,-5.302074,2159978.000000,1673607174.479156
1673608198.418060,,,,-5.247715,-5.250628,2159979.000000,1673607174.480163
1673608198.419765,,,,-5.201558,-5.203821,2159980.000000,1673607174.481170
1673608198.419970,,,,-5.174536,-5.174852,2159981.000000,1673607174.482177
1673608198.420105,,,,-5.158092,-5.158961,2159982.000000,1673607174.483184
1673608198.420290,,,,-5.160016,-5.161245,2159983.000000,1673607174.484191
1673608198.425179,,,,-5.161506,-5.164105,2159984.000000,1673607174.485198
1673608198.425449,,,,-5.239494,-5.239040,2159985.000000,1673607174.486205
1673608198.425462,3.017027,2028312.000000,1673608198.364570,,,,
1673608198.425875,,,,-5.408210,-5.409055,2159986.000000,1673607174.487212
1673608198.426035,3.017027,2028313.000000,1673608198.365570,,,,
1673608198.426183,,,,-5.467855,-5.473339,2159987.000000,1673607174.488219
1673608198.427456,3.053205,2028314.000000,1673608198.366570,,,,
1673608198.427475,3.107481,2028315.000000,1673608198.367570,,,,
1673608198.427495,3.107481,2028316.000000,1673608198.368570,,,,
1673608198.427507,3.107481,2028317.000000,1673608198.369570,,,,
1673608198.427739,,,,-5.469201,-5.470767,2159988.000000,1673607174.489226
1673608198.427757,,,,-5.451603,-5.450044,2159989.000000,1673607174.490233
1673608198.428200,,,,-5.430159,-5.429706,2159990.000000,1673607174.491241
1673608198.428332,3.179837,2028318.000000,1673608198.370570,,,,
1673608198.428351,4.265246,2028363.000000,1673608198.415570,,,,
1673608198.428357,4.355692,2028364.000000,1673608198.416570,,,,
1673608198.428404,4.337603,2028365.000000,1673608198.417570,,,,
1673608198.428453,4.373789,2028366.000000,1673608198.418570,,,,
1673608198.428464,4.373789,2028367.000000,1673608198.419569,,,,
1673608198.428469,4.446145,2028368.000000,1673608198.420570,,,,
1673608198.428477,4.446145,2028369.000000,1673608198.421570,,,,
1673608198.428484,4.428056,2028370.000000,1673608198.422570,,,,
1673608198.428522,4.464234,2028371.000000,1673608198.423570,,,,
1673608198.428539,4.554688,2028372.000000,1673608198.424570,,,,
1673608198.428560,,,,-5.374794,-5.372441,2159991.000000,1673607174.492248
1673608198.432646,,,,-5.286589,-5.284332,2159992.000000,1673607174.493255
1673608198.432708,,,,-5.228531,-5.228895,2159993.000000,1673607174.494262
1673608198.435392,,,,-5.197423,-5.198772,2159994.000000,1673607174.495269
1673608198.435416,,,,-5.170497,-5.174900,2159995.000000,1673607174.496276
1673608198.435996,,,,-5.156602,-5.159466,2159996.000000,1673607174.497283
1673608198.436142,,,,-5.157972,-5.160331,2159997.000000,1673607174.498290
1673608198.436198,,,,-5.179513,-5.184588,2159998.000000,1673607174.499297
1673608198.436440,,,,-5.187903,-5.191728,2159999.000000,1673607174.500304
1673608198.436546,,,,-5.226872,-5.226827,2160000.000000,1673607174.501311
1673608198.436610,,,,-5.313034,-5.314888,2160001.000000,1673607174.502318
1673608198.440706,,,,-5.423981,-5.428792,2160002.000000,1673607174.503325
1673608198.440731,,,,-5.451988,-5.455429,2160003.000000,1673607174.504333
1673608198.440752,,,,-5.423163,-5.424801,2160004.000000,1673607174.505340
1673608198.440922,,,,-5.390829,-5.391649,2160005.000000,1673607174.506347
1673608198.441369,,,,-5.347845,-5.347535,2160006.000000,1673607174.507354
1673608198.441381,,,,-5.334983,-5.332726,2160007.000000,1673607174.508361
1673608198.441386,,,,-5.268727,-5.269451,2160008.000000,1673607174.509368
1673608198.442626,,,,-5.214468,-5.218654,2160009.000000,1673607174.510375
1673608198.442919,,,,-5.167589,-5.172063,2160010.000000,1673607174.511382
1673608198.442931,,,,-5.142683,-5.145811,2160011.000000,1673607174.512389
1673608198.443330,,,,-5.128090,-5.129896,2160012.000000,1673607174.513396
1673608198.443346,,,,-5.110540,-5.111794,2160013.000000,1673607174.514403
1673608198.443357,,,,-5.129629,-5.130737,2160014.000000,1673607174.515410
1673608198.443366,,,,-5.158069,-5.161317,2160015.000000,1673607174.516418
1673608198.447693,,,,-5.176411,-5.175212,2160016.000000,1673607174.517425
1673608198.448095,,,,-5.194057,-5.192522,2160017.000000,1673607174.518432
1673608198.448192,,,,-5.202014,-5.202594,2160018.000000,1673607174.519439
1673608198.450326,,,,-5.195620,-5.198796,2160019.000000,1673607174.520446
1673608198.450338,,,,-5.196461,-5.200359,2160020.000000,1673607174.521453
1673608198.450777,,,,-5.206655,-5.209855,2160021.000000,1673607174.522460
1673608198.450983,,,,-5.211967,-5.213076,2160022.000000,1673607174.523467
1673608198.451072,,,,-5.209443,-5.210960,2160023.000000,1673607174.524474
1673608198.462783,,,,-5.191725,-5.193195,2160024.000000,1673607174.525481
1673608198.462996,,,,-5.175474,-5.180309,2160025.000000,1673607174.526488
1673608198.465415,,,,-5.186076,-5.188747,2160026.000000,1673607174.527495
1673608198.465424,,,,-5.198240,-5.202186,2160027.000000,1673607174.528502
1673608198.465644,,,,-5.219757,-5.223990,2160028.000000,1673607174.529510
1673608198.465660,,,,-5.234325,-5.237141,2160029.000000,1673607174.530517
1673608198.471299,,,,-5.228291,-5.230626,2160030.000000,1673607174.531524
1673608198.471514,,,,-5.240816,-5.242141,2160031.000000,1673607174.532531
1673608198.471712,,,,-5.257043,-5.258008,2160032.000000,1673607174.533538
1673608198.471871,,,,-5.260193,-5.263994,2160033.000000,1673607174.534545
1673608198.477791,,,,-5.258414,-5.261037,2160034.000000,1673607174.535552
1673608198.478168,,,,-5.255216,-5.256614,2160035.000000,1673607174.536559
1673608198.478312,,,,-5.246634,-5.250628,2160036.000000,1673607174.537566
1673608198.478565,,,,-5.231657,-5.235434,2160037.000000,1673607174.538573
1673608198.478789,,,,-5.222425,-5.225193,2160038.000000,1673607174.539580
1673608198.478948,,,,-5.222208,-5.224760,2160039.000000,1673607174.540587
1673608198.479196,,,,-5.217424,-5.221659,2160040.000000,1673607174.541595
1673608198.480169,,,,-5.212616,-5.212884,2160041.000000,1673607174.542602
1673608198.480363,,,,-5.226247,-5.227789,2160042.000000,1673607174.543609
1673608198.480796,,,,-5.315991,-5.320850,2160043.000000,1673607174.544616
1673608198.480806,,,,-5.372438,-5.374629,2160044.000000,1673607174.545623
1673608198.480810,,,,-5.356451,-5.357656,2160045.000000,1673607174.546630
1673608198.480844,,,,-5.350898,-5.354483,2160046.000000,1673607174.547637
1673608198.480966,,,,-5.382968,-5.386528,2160047.000000,1673607174.548644
1673608198.482345,6.092349,2028424.000000,1673608198.471351,,,,
1673608198.482379,6.146616,2028425.000000,1673608198.472351,,,,
1673608198.482410,6.164705,2028426.000000,1673608198.473351,,,,
1673608198.482431,6.255158,2028427.000000,1673608198.474351,,,,
1673608198.482450,6.309425,2028428.000000,1673608198.475351,,,,
1673608198.482464,6.345612,2028429.000000,1673608198.476351,,,,
1673608198.482478,6.363701,2028430.000000,1673608198.477351,,,,
1673608198.482489,6.436057,2028431.000000,1673608198.478351,,,,
1673608198.482512,6.490333,2028432.000000,1673608198.479351,,,,
1673608198.482549,6.508421,2028433.000000,1673608198.480351,,,,
1673608198.485179,,,,-5.419702,-5.422493,2160048.000000,1673607174.549651
1673608198.485544,,,,-5.424534,-5.427975,2160049.000000,1673607174.550658
1673608198.486072,,,,-5.411672,-5.411435,2160050.000000,1673607174.551665
1673608198.492973,,,,-5.358831,-5.359579,2160051.000000,1673607174.552672
1673608198.493267,,,,-5.319693,-5.321138,2160052.000000,1673607174.553679
1673608198.493284,,,,-5.258029,-5.260845,2160053.000000,1673607174.554687
1673608198.493323,,,,-5.206318,-5.208797,2160054.000000,1673607174.555694
1673608198.495237,,,,-5.143644,-5.146172,2160055.000000,1673607174.556701
1673608198.495435,,,,-5.117224,-5.118309,2160056.000000,1673607174.557708
1673608198.495747,,,,-5.114146,-5.117323,2160057.000000,1673607174.558715
1673608198.496032,,,,-5.104626,-5.107058,2160058.000000,1673607174.559722
1673608198.496291,,,,-5.088159,-5.090469,2160059.000000,1673607174.560729
1673608198.496301,,,,-5.076427,-5.077223,2160060.000000,1673607174.561736
1673608198.496545,,,,-5.060247,-5.058688,2160061.000000,1673607174.562743
1673608198.500497,,,,-5.055103,-5.052317,2160062.000000,1673607174.563750
1673608198.500510,,,,-5.065560,-5.066453,2160063.000000,1673607174.564757
1673608198.500879,,,,-5.083975,-5.086287,2160064.000000,1673607174.565764
1673608198.501115,,,,-5.108881,-5.110663,2160065.000000,1673607174.566772
1673608198.501310,,,,-5.135398,-5.139080,2160066.000000,1673607174.567779
1673608198.501316,,,,-5.177469,-5.182304,2160067.000000,1673607174.568786
1673608198.501365,,,,-5.224685,-5.227452,2160068.000000,1673607174.569793
1673608198.501398,,,,-5.260265,-5.262383,2160069.000000,1673607174.570800
1673608198.502195,,,,-5.280651,-5.282578,2160070.000000,1673607174.571807
1673608198.502352,,,,-5.281132,-5.281592,2160071.000000,1673607174.572814
1673608198.502476,,,,-5.273992,-5.272408,2160072.000000,1673607174.573821
1673608198.507956,,,,-5.252596,-5.253200,2160073.000000,1673607174.574828
1673608198.507977,,,,-5.238388,-5.238199,2160074.000000,1673607174.575835
1673608198.507984,,,,-5.205933,-5.208652,2160075.000000,1673607174.576842
1673608198.508163,,,,-5.182854,-5.187329,2160076.000000,1673607174.577849
1673608198.508337,,,,-5.201726,-5.206008,2160077.000000,1673607174.578856
1673608198.508351,,,,-5.275651,-5.277312,2160078.000000,1673607174.579864
1673608198.508372,,,,-5.287022,-5.288708,2160079.000000,1673607174.580871
1673608198.509910,,,,-5.252860,-5.256421,2160080.000000,1673607174.581878
1673608198.510015,,,,-5.228098,-5.229833,2160081.000000,1673607174.582885
1673608198.510025,,,,-5.234445,-5.234544,2160082.000000,1673607174.583892
1673608198.515070,,,,-5.186821,-5.188266,2160083.000000,1673607174.584899
1673608198.515075,,,,-5.264736,-5.263176,2160084.000000,1673607174.585906
1673608198.515215,,,,-5.451892,-5.454804,2160085.000000,1673607174.586913
1673608198.515240,,,,-5.522908,-5.527382,2160086.000000,1673607174.587920
1673608198.517344,,,,-5.553295,-5.556688,2160087.000000,1673607174.588927
1673608198.517729,,,,-5.487905,-5.492379,2160088.000000,1673607174.589934
1673608198.517958,,,,-5.391718,-5.393188,2160089.000000,1673607174.590941
1673608198.531550,,,,-5.304499,-5.307772,2160090.000000,1673607174.591949
1673608198.532078,,,,-5.296975,-5.300319,2160091.000000,1673607174.592956
1673608198.532633,,,,-5.309500,-5.311306,2160092.000000,1673607174.593963
1673608198.532885,,,,-5.321111,-5.322797,2160093.000000,1673607174.594970
1673608198.532914,,,,-5.290388,-5.294069,2160094.000000,1673607174.595977
1673608198.538826,,,,-5.275483,-5.278058,2160095.000000,1673607174.596984
1673608198.538837,,,,-5.285123,-5.287434,2160096.000000,1673607174.597991
1673608198.538911,,,,-5.278560,-5.282289,2160097.000000,1673607174.598998
1673608198.545358,,,,-5.220526,-5.223846,2160098.000000,1673607174.600005
1673608198.545512,,,,-5.131311,-5.131434,2160099.000000,1673607174.601012
1673608198.545712,,,,-5.067988,-5.066765,2160100.000000,1673607174.602019
1673608198.545720,,,,-5.087774,-5.086527,2160101.000000,1673607174.603026
1673608198.545823,8.570698,2028466.000000,1673608198.516324,,,,
1673608198.545834,,,,-5.028081,-5.029502,2160102.000000,1673607174.604033
1673608198.545987,8.606875,2028467.000000,1673608198.517324,,,,
1673608198.546091,,,,-4.908191,-4.910141,2160103.000000,1673607174.605041
1673608198.546098,,,,-4.832271,-4.834967,2160104.000000,1673607174.606048
1673608198.546104,8.661143,2028468.000000,1673608198.518324,,,,
1673608198.546176,8.769686,2028469.000000,1673608198.519324,,,,
1673608198.546382,8.823953,2028470.000000,1673608198.520324,,,,
1673608198.546395,8.896317,2028471.000000,1673608198.521324,,,,
1673608198.546400,9.041038,2028472.000000,1673608198.522324,,,,
1673608198.546420,9.113402,2028473.000000,1673608198.523324,,,,
1673608198.546426,9.185759,2028474.000000,1673608198.524324,,,,
1673608198.546431,9.258123,2028475.000000,1673608198.525324,,,,
1673608198.546434,10.126448,2028485.000000,1673608198.535324,,,,
1673608198.546495,10.216892,2028486.000000,1673608198.536324,,,,
1673608198.546498,10.379710,2028487.000000,1673608198.537324,,,,
1673608198.546518,10.397799,2028488.000000,1673608198.538324,,,,
1673608198.546524,10.506334,2028489.000000,1673608198.539324,,,,
1673608198.546529,10.578698,2028490.000000,1673608198.540324,,,,
1673608198.546532,10.651063,2028491.000000,1673608198.541324,,,,
1673608198.546550,10.741508,2028492.000000,1673608198.542324,,,,
1673608198.546553,10.868140,2028493.000000,1673608198.543324,,,,
1673608198.546565,10.940504,2028494.000000,1673608198.544324,,,,
1673608198.547315,,,,-4.839219,-4.839991,2160105.000000,1673607174.607055
1673608198.547369,,,,-4.879823,-4.880283,2160106.000000,1673607174.608062
1673608198.547481,,,,-4.958820,-4.957694,2160107.000000,1673607174.609069
1673608198.553060,,,,-5.159967,-5.161918,2160108.000000,1673607174.610076
1673608198.553118,,,,-5.318803,-5.321427,2160109.000000,1673607174.611083
1673608198.553430,,,,-5.373135,-5.374268,2160110.000000,1673607174.612090
1673608198.553445,,,,-5.359937,-5.362536,2160111.000000,1673607174.613097
1673608198.553543,,,,-5.338902,-5.343015,2160112.000000,1673607174.614104
1673608198.553550,,,,-5.360947,-5.364892,2160113.000000,1673607174.615111
1673608198.553567,,,,-5.402921,-5.406434,2160114.000000,1673607174.616118
1673608198.553659,,,,-5.389002,-5.391601,2160115.000000,1673607174.617126
1673608198.555356,,,,-5.349599,-5.350396,2160116.000000,1673607174.618133
1673608198.555575,,,,-5.491271,-5.493845,2160117.000000,1673607174.619140
1673608198.555766,,,,-5.620056,-5.624410,2160118.000000,1673607174.620147
1673608198.555939,,,,-5.614983,-5.616453,2160119.000000,1673607174.621154
1673608198.555956,,,,-5.494708,-5.495793,2160120.000000,1673607174.622161
1673608198.555983,,,,-5.348350,-5.349001,2160121.000000,1673607174.623168
1673608198.560265,,,,-5.212016,-5.210793,2160122.000000,1673607174.624175
1673608198.560703,,,,-5.091308,-5.093691,2160123.000000,1673607174.625182
1673608198.560711,,,,-4.952714,-4.954929,2160124.000000,1673607174.626189
1673608198.560891,,,,-4.790464,-4.791694,2160125.000000,1673607174.627196
1673608198.561031,,,,-4.747312,-4.751738,2160126.000000,1673607174.628203
1673608198.562377,,,,-4.792292,-4.799266,2160127.000000,1673607174.629210
1673608198.562678,,,,-4.847561,-4.849030,2160128.000000,1673607174.630218
1673608198.567835,,,,-4.886579,-4.886341,2160129.000000,1673607174.631225
1673608198.567849,,,,-4.934203,-4.935408,2160130.000000,1673607174.632232
1673608198.568045,,,,-5.054550,-5.057774,2160131.000000,1673607174.633239
1673608198.568168,,,,-5.222281,-5.226106,2160132.000000,1673607174.634246
1673608198.570018,,,,-5.290748,-5.293083,2160133.000000,1673607174.635253
1673608198.570676,,,,-5.278872,-5.281832,2160134.000000,1673607174.636260
1673608198.570695,,,,-5.260818,-5.263609,2160135.000000,1673607174.637267
1673608198.570887,,,,-5.259760,-5.262335,2160136.000000,1673607174.638274
1673608198.575461,,,,-5.211126,-5.212764,2160137.000000,1673607174.639281
1673608198.575644,,,,-5.179777,-5.179420,2160138.000000,1673607174.640288
1673608198.575660,,,,-5.160040,-5.162014,2160139.000000,1673607174.641295
1673608198.577743,,,,-5.095251,-5.098162,2160140.000000,1673607174.642303
1673608198.578110,,,,-5.033851,-5.034094,2160141.000000,1673607174.643310
1673608198.578548,,,,-4.998920,-5.002553,2160142.000000,1673607174.644317
1673608198.578561,,,,-4.968942,-4.972406,2160143.000000,1673607174.645324
1673608198.578589,,,,-4.970288,-4.968776,2160144.000000,1673607174.646331
1673608198.578601,,,,-4.994737,-4.995125,2160145.000000,1673607174.647338
1673608198.578609,,,,-5.028658,-5.028925,2160146.000000,1673607174.648345
1673608198.578725,,,,-5.084360,-5.085108,2160147.000000,1673607174.649352
1673608198.591557,,,,-5.139701,-5.140906,2160148.000000,1673607174.650359
1673608198.591594,,,,-5.171916,-5.175958,2160149.000000,1673607174.651366
1673608198.591883,,,,-5.188816,-5.191464,2160150.000000,1673607174.652373
1673608198.591898,,,,-5.198457,-5.201344,2160151.000000,1673607174.653380
1673608198.591905,,,,-5.181148,-5.182497,2160152.000000,1673607174.654387
1673608198.592106,,,,-5.177782,-5.179540,2160153.000000,1673607174.655395
1673608198.598843,,,,-5.182614,-5.184420,2160154.000000,1673607174.656402
1673608198.599192,,,,-5.195211,-5.196897,2160155.000000,1673607174.657409
1673608198.599481,,,,-5.226536,-5.225385,2160156.000000,1673607174.658416
1673608198.599723,,,,-5.309596,-5.310200,2160157.000000,1673607174.659423
1673608198.600410,12.586699,2028512.000000,1673608198.556015,,,,
1673608198.600422,12.731420,2028513.000000,1673608198.557015,,,,
1673608198.600432,12.839962,2028514.000000,1673608198.558015,,,,
1673608198.600439,12.966594,2028515.000000,1673608198.559015,,,,
1673608198.600467,13.093225,2028516.000000,1673608198.560015,,,,
1673608198.601165,13.165582,2028517.000000,1673608198.561015,,,,
1673608198.601177,13.310311,2028518.000000,1673608198.562015,,,,
1673608198.601190,13.400756,2028519.000000,1673608198.563015,,,,
1673608198.601194,13.527388,2028520.000000,1673608198.564015,,,,
1673608198.601197,13.635930,2028521.000000,1673608198.565015,,,,
1673608198.601203,16.910240,2028546.000000,1673608198.590015,,,,
1673608198.601241,17.091146,2028547.000000,1673608198.591015,,,,
1673608198.601257,17.199680,2028548.000000,1673608198.592015,,,,
1673608198.601269,17.362499,2028549.000000,1673608198.593015,,,,
1673608198.601272,17.507219,2028550.000000,1673608198.594015,,,,
1673608198.601276,17.615753,2028551.000000,1673608198.595015,,,,
1673608198.601284,17.760475,2028552.000000,1673608198.596015,,,,
1673608198.601311,17.905195,2028553.000000,1673608198.597015,,,,
1673608198.601316,18.122280,2028554.000000,1673608198.598015,,,,
1673608198.601331,18.194637,2028555.000000,1673608198.599015,,,,
1673608198.604912,,,,-5.344479,-5.346381,2160158.000000,1673607174.660430
1673608198.605051,,,,-5.360802,-5.361575,2160159.000000,1673607174.661437
1673608198.605165,,,,-5.485525,-5.486153,2160160.000000,1673607174.662444
1673608198.605304,,,,-5.594501,-5.598157,2160161.000000,1673607174.663451
1673608198.607611,,,,-5.621065,-5.621020,2160162.000000,1673607174.664458
1673608198.607761,,,,-5.593947,-5.595177,2160163.000000,1673607174.665465
1673608198.607874,,,,-5.453454,-5.454251,2160164.000000,1673607174.666472
1673608198.608007,,,,-5.263655,-5.265484,2160165.000000,1673607174.667480
1673608198.608138,,,,-5.135639,-5.137036,2160166.000000,1673607174.668487
1673608198.608145,,,,-5.033466,-5.035296,2160167.000000,1673607174.669494
1673608198.608157,,,,-4.962883,-4.964786,2160168.000000,1673607174.670501
1673608198.612661,,,,-4.986708,-4.988778,2160169.000000,1673607174.671508
1673608198.612905,,,,-4.999377,-5.001880,2160170.000000,1673607174.672515
1673608198.613138,,,,-4.974327,-4.972478,2160171.000000,1673607174.673522
1673608198.613394,,,,-4.971850,-4.970627,2160172.000000,1673607174.674529
1673608198.615126,,,,-5.010988,-5.009741,2160173.000000,1673607174.675536
1673608198.615326,,,,-5.034308,-5.033229,2160174.000000,1673607174.676543
1673608198.615984,,,,-5.074143,-5.074843,2160175.000000,1673607174.677550
1673608198.616001,,,,-5.107415,-5.109004,2160176.000000,1673607174.678557
1673608198.616017,,,,-5.075922,-5.078064,2160177.000000,1673607174.679564
1673608198.616047,,,,-5.042001,-5.040946,2160178.000000,1673607174.680572
1673608198.620089,,,,-5.023898,-5.021930,2160179.000000,1673607174.681579
1673608198.620507,,,,-5.012839,-5.012866,2160180.000000,1673607174.682586
1673608198.620734,,,,-5.030966,-5.031907,2160181.000000,1673607174.683593
1673608198.621069,,,,-5.084000,-5.085397,2160182.000000,1673607174.684600
1673608198.622829,,,,-5.159487,-5.161629,2160183.000000,1673607174.685607
1673608198.622852,,,,-5.226872,-5.230000,2160184.000000,1673607174.686614
1673608198.622903,,,,-5.263102,-5.265797,2160185.000000,1673607174.687621
1673608198.627552,,,,-5.316640,-5.317773,2160186.000000,1673607174.688628
1673608198.627941,,,,-5.369361,-5.371167,2160187.000000,1673607174.689635
1673608198.628070,,,,-5.372606,-5.373114,2160188.000000,1673607174.690642
1673608198.628237,,,,-5.413548,-5.414271,2160189.000000,1673607174.691649
1673608198.629897,,,,-5.503675,-5.504664,2160190.000000,1673607174.692657
1673608198.630164,,,,-5.563753,-5.561784,2160191.000000,1673607174.693664
1673608198.630472,,,,-5.514854,-5.514905,2160192.000000,1673607174.694671
1673608198.630882,,,,-5.424726,-5.427782,2160193.000000,1673607174.695678
1673608198.643920,,,,-5.309548,-5.312243,2160194.000000,1673607174.696685
1673608198.644687,,,,-5.166410,-5.169010,2160195.000000,1673607174.697692
1673608198.644702,,,,-5.013561,-5.014285,2160196.000000,1673607174.698699
1673608198.647650,,,,-4.952666,-4.952236,2160197.000000,1673607174.699706
1673608198.651256,,,,-4.952281,-4.951996,2160198.000000,1673607174.700713
1673608198.651519,,,,-5.015965,-5.017602,2160199.000000,1673607174.701720
1673608198.651588,,,,-5.076643,-5.077559,2160200.000000,1673607174.702727
1673608198.654638,18.393633,2028556.000000,1673608198.593831,,,,
1673608198.654661,18.520264,2028557.000000,1673608198.594831,,,,
1673608198.654666,18.683075,2028558.000000,1673608198.595831,,,,
1673608198.654673,18.845884,2028559.000000,1673608198.596831,,,,
1673608198.654680,19.026783,2028560.000000,1673608198.597831,,,,
1673608198.655790,26.154291,2028607.000000,1673608198.644831,,,,
1673608198.655801,26.317110,2028608.000000,1673608198.645831,,,,
1673608198.655813,26.443733,2028609.000000,1673608198.646831,,,,
1673608198.655821,26.624640,2028610.000000,1673608198.647831,,,,
1673608198.655857,26.751272,2028611.000000,1673608198.648831,,,,
1673608198.655860,26.877903,2028612.000000,1673608198.649831,,,,
1673608198.655871,27.040712,2028613.000000,1673608198.650831,,,,
1673608198.655879,27.167345,2028614.000000,1673608198.651831,,,,
1673608198.655899,27.312065,2028615.000000,1673608198.652831,,,,
1673608198.655905,27.420601,2028616.000000,1673608198.653831,,,,
1673608198.659189,,,,-5.087654,-5.088233,2160201.000000,1673607174.703734
1673608198.659211,,,,-5.132081,-5.133237,2160202.000000,1673607174.704741
1673608198.659298,,,,-5.122344,-5.124583,2160203.000000,1673607174.705749
1673608198.659467,,,,-5.129340,-5.133911,2160204.000000,1673607174.706756
1673608198.659708,,,,-5.246874,-5.248320,2160205.000000,1673607174.707763
1673608198.659752,,,,-5.326617,-5.330875,2160206.000000,1673607174.708770
1673608198.659853,,,,-5.341522,-5.347439,2160207.000000,1673607174.709777
1673608198.665389,,,,-5.319910,-5.319816,2160208.000000,1673607174.710784
1673608198.665396,,,,-5.294498,-5.293780,2160209.000000,1673607174.711791
1673608198.665415,,,,-5.222377,-5.223197,2160210.000000,1673607174.712798
1673608198.665418,,,,-5.118979,-5.119943,2160211.000000,1673607174.713805
1673608198.665555,,,,-5.096573,-5.098283,2160212.000000,1673607174.714812
1673608198.665658,,,,-5.274665,-5.275918,2160213.000000,1673607174.715819
1673608198.665784,,,,-5.634672,-5.636358,2160214.000000,1673607174.716826
1673608198.667705,,,,-5.754923,-5.754926,2160215.000000,1673607174.717834
1673608198.667886,,,,-5.666862,-5.668139,2160216.000000,1673607174.718841
1673608198.667892,,,,-5.507883,-5.507934,2160217.000000,1673607174.719848
1673608198.668056,,,,-5.305485,-5.304166,2160218.000000,1673607174.720855
1673608198.668175,,,,-5.082437,-5.082103,2160219.000000,1673607174.721862
1673608198.668324,,,,-4.873044,-4.874417,2160220.000000,1673607174.722869
1673608198.668352,,,,-4.706803,-4.706182,2160221.000000,1673607174.723876
1673608198.672464,,,,-4.677546,-4.681708,2160222.000000,1673607174.724883
1673608198.672611,,,,-4.677065,-4.678222,2160223.000000,1673607174.725890
1673608198.672738,,,,-4.712044,-4.710605,2160224.000000,1673607174.726897
1673608198.672859,,,,-4.787027,-4.788640,2160225.000000,1673607174.727904
1673608198.675150,,,,-4.887877,-4.891101,2160226.000000,1673607174.728911
1673608198.675286,,,,-5.010027,-5.012794,2160227.000000,1673607174.729918
1673608198.675308,,,,-5.095683,-5.101215,2160228.000000,1673607174.730926
1673608198.675403,,,,-5.118786,-5.123333,2160229.000000,1673607174.731933
1673608198.680574,,,,-5.122488,-5.124222,2160230.000000,1673607174.732940
1673608198.680592,,,,-5.132706,-5.133959,2160231.000000,1673607174.733947
1673608198.680619,,,,-5.138860,-5.141916,2160232.000000,1673607174.734954
1673608198.683362,,,,-5.142586,-5.145762,2160233.000000,1673607174.735961
1673608198.684037,,,,-5.160881,-5.162374,2160234.000000,1673607174.736968
1673608198.684185,,,,-5.177205,-5.178674,2160235.000000,1673607174.737975
1673608198.684342,,,,-5.168093,-5.169202,2160236.000000,1673607174.738982
1673608198.684361,,,,-5.142706,-5.144921,2160237.000000,1673607174.739989
1673608198.684798,,,,-5.096982,-5.102177,2160238.000000,1673607174.740996
1673608198.684823,,,,-5.093784,-5.099725,2160239.000000,1673607174.742003
1673608198.687677,,,,-5.111093,-5.111866,2160240.000000,1673607174.743011
1673608198.688591,,,,-5.171700,-5.173025,2160241.000000,1673607174.744018
1673608198.688617,,,,-5.254014,-5.257239,2160242.000000,1673607174.745025
1673608198.690313,,,,-5.264135,-5.264138,2160243.000000,1673607174.746032
1673608198.690487,,,,-5.243677,-5.242261,2160244.000000,1673607174.747039
1673608198.690585,,,,-5.169584,-5.171606,2160245.000000,1673607174.748046
1673608198.690605,,,,-5.118113,-5.119174,2160246.000000,1673607174.749053
1673608198.703950,,,,-5.091092,-5.091840,2160247.000000,1673607174.750060
1673608198.704624,,,,-5.082894,-5.085902,2160248.000000,1673607174.751067
1673608198.705100,,,,-5.083567,-5.085661,2160249.000000,1673607174.752074
1673608198.705124,,,,-5.057891,-5.059601,2160250.000000,1673607174.753081
1673608198.711593,,,,-5.051617,-5.054817,2160251.000000,1673607174.754088
1673608198.711901,,,,-5.076908,-5.079050,2160252.000000,1673607174.755095
1673608198.712007,,,,-5.114074,-5.116409,2160253.000000,1673607174.756103
1673608198.712051,,,,-5.144221,-5.143551,2160254.000000,1673607174.757110
1673608198.712169,,,,-5.149246,-5.149032,2160255.000000,1673607174.758117
1673608198.712289,,,,-5.147587,-5.147686,2160256.000000,1673607174.759124
1673608198.718166,27.565321,2028617.000000,1673608198.657419,,,,
1673608198.718215,27.728138,2028618.000000,1673608198.658419,,,,
1673608198.718221,27.854771,2028619.000000,1673608198.659419,,,,
1673608198.718225,27.963305,2028620.000000,1673608198.660419,,,,
1673608198.718271,28.144211,2028621.000000,1673608198.661419,,,,
1673608198.718277,,,,-5.138547,-5.136988,2160257.000000,1673607174.760131
1673608198.718356,,,,-5.125397,-5.126867,2160258.000000,1673607174.761138
1673608198.718366,,,,-5.117296,-5.120087,2160259.000000,1673607174.762145
1673608198.718372,,,,-5.106477,-5.111649,2160260.000000,1673607174.763152
1673608198.718489,,,,-5.101717,-5.104966,2160261.000000,1673607174.764159
1673608198.718675,28.307022,2028622.000000,1673608198.662419,,,,
1673608198.718684,28.524099,2028623.000000,1673608198.663419,,,,
1673608198.718731,,,,-5.087605,-5.089869,2160262.000000,1673607174.765166
1673608198.718797,,,,-5.093015,-5.094100,2160263.000000,1673607174.766173
1673608198.718873,28.596462,2028624.000000,1673608198.664419,,,,
1673608198.718881,,,,-5.099890,-5.102225,2160264.000000,1673607174.767180
1673608198.719361,35.470707,2028668.000000,1673608198.708419,,,,
1673608198.719371,35.651608,2028669.000000,1673608198.709419,,,,
1673608198.719377,35.742062,2028670.000000,1673608198.710419,,,,
1673608198.719382,35.868694,2028671.000000,1673608198.711419,,,,
1673608198.719385,36.013412,2028672.000000,1673608198.712419,,,,
1673608198.719417,36.085770,2028673.000000,1673608198.713419,,,,
1673608198.719424,36.212402,2028674.000000,1673608198.714419,,,,
1673608198.719442,36.339031,2028675.000000,1673608198.715419,,,,
1673608198.719455,36.519939,2028676.000000,1673608198.716419,,,,
1673608198.719476,36.628475,2028677.000000,1673608198.717419,,,,
1673608198.719736,,,,-5.117127,-5.117611,2160265.000000,1673607174.768188
1673608198.719929,,,,-5.139846,-5.139704,2160266.000000,1673607174.769195
1673608198.720006,,,,-5.148981,-5.151989,2160267.000000,1673607174.770202
1673608198.720122,,,,-5.168646,-5.168841,2160268.000000,1673607174.771209
1673608198.725530,,,,-5.195620,-5.196200,2160269.000000,1673607174.772216
1673608198.725554,,,,-5.203433,-5.204590,2160270.000000,1673607174.773223
1673608198.725561,,,,-5.200091,-5.203676,2160271.000000,1673607174.774230
1673608198.725568,,,,-5.202568,-5.206441,2160272.000000,1673607174.775237
1673608198.725804,,,,-5.207808,-5.209614,2160273.000000,1673607174.776244
1673608198.725933,,,,-5.208962,-5.210960,2160274.000000,1673607174.777251
1673608198.725948,,,,-5.188768,-5.192714,2160275.000000,1673607174.778258
1673608198.727711,,,,-5.172853,-5.176991,2160276.000000,1673607174.779265
1673608198.728101,,,,-5.130109,-5.132036,2160277.000000,1673607174.780272
1673608198.728327,,,,-5.097582,-5.099893,2160278.000000,1673607174.781280
1673608198.728343,,,,-5.091837,-5.093258,2160279.000000,1673607174.782287
1673608198.728367,,,,-5.071210,-5.071886,2160280.000000,1673607174.783294
1673608198.728570,,,,-5.126022,-5.125809,2160281.000000,1673607174.784301
1673608198.733409,,,,-5.242234,-5.239377,2160282.000000,1673607174.785308
1673608198.734179,,,,-5.392992,-5.392298,2160283.000000,1673607174.786315
1673608198.734507,,,,-5.479106,-5.483051,2160284.000000,1673607174.787322
1673608198.734574,,,,-5.461628,-5.463290,2160285.000000,1673607174.788329
1673608198.734892,,,,-5.413403,-5.415786,2160286.000000,1673607174.789336
1673608198.735532,,,,-5.306423,-5.307652,2160287.000000,1673607174.790343
1673608198.735553,,,,-5.179633,-5.179900,2160288.000000,1673607174.791350
1673608198.735802,,,,-5.091620,-5.092272,2160289.000000,1673607174.792357
1673608198.736056,,,,-5.089457,-5.087512,2160290.000000,1673607174.793365
1673608198.736694,,,,-5.074624,-5.074459,2160291.000000,1673607174.794372
1673608198.736922,,,,-5.082966,-5.082608,2160292.000000,1673607174.795379
1673608198.737381,,,,-5.162011,-5.161485,2160293.000000,1673607174.796386
1673608198.737538,,,,-5.223194,-5.225457,2160294.000000,1673607174.797393
1673608198.737560,,,,-5.197832,-5.202138,2160295.000000,1673607174.798400
1673608198.737573,,,,-5.175426,-5.175741,2160296.000000,1673607174.799407
1673608198.737581,,,,-5.137850,-5.139127,2160297.000000,1673607174.800414
1673608198.737594,,,,-5.063445,-5.064265,2160298.000000,1673607174.801421
1673608198.737602,,,,-4.993992,-4.994644,2160299.000000,1673607174.802428
1673608198.737628,,,,-4.943675,-4.945072,2160300.000000,1673607174.803435
1673608198.739909,,,,-4.931005,-4.932210,2160301.000000,1673607174.804442
1673608198.740321,,,,-4.928361,-4.928773,2160302.000000,1673607174.805449
1673608198.740369,,,,-4.994160,-4.995149,2160303.000000,1673607174.806457
1673608198.742793,,,,-5.238700,-5.238703,2160304.000000,1673607174.807464
1673608198.742951,,,,-5.431337,-5.431821,2160305.000000,1673607174.808471
1673608198.743333,,,,-5.591159,-5.592124,2160306.000000,1673607174.809478
1673608198.743523,,,,-5.688547,-5.689487,2160307.000000,1673607174.810485
1673608198.743664,,,,-5.614646,-5.614938,2160308.000000,1673607174.811492
1673608198.743714,,,,-5.455787,-5.458771,2160309.000000,1673607174.812499
1673608198.743891,,,,-5.241609,-5.245507,2160310.000000,1673607174.813506
1673608198.744163,,,,-5.028081,-5.031354,2160311.000000,1673607174.814513
1673608198.764141,,,,-4.936799,-4.937980,2160312.000000,1673607174.815520
1673608198.764388,,,,-4.882059,-4.882927,2160313.000000,1673607174.816527
1673608198.764411,,,,-4.796379,-4.798089,2160314.000000,1673607174.817534
1673608198.764520,,,,-4.821068,-4.820302,2160315.000000,1673607174.818542
1673608198.764667,,,,-4.865495,-4.864777,2160316.000000,1673607174.819549
1673608198.764803,,,,-4.913720,-4.915190,2160317.000000,1673607174.820556
1673608198.770905,,,,-4.981491,-4.982167,2160318.000000,1673607174.821563
1673608198.771088,,,,-5.032120,-5.032291,2160319.000000,1673607174.822570
1673608198.771097,,,,-5.067700,-5.068472,2160320.000000,1673607174.823577
1673608198.771128,,,,-5.058420,-5.062895,2160321.000000,1673607174.824584
1673608198.771291,,,,-5.042217,-5.046427,2160322.000000,1673607174.825591
1673608198.771436,,,,-5.051304,-5.050730,2160323.000000,1673607174.826598
1673608198.771811,,,,-5.042409,-5.043278,2160324.000000,1673607174.827605
1673608198.771826,,,,-5.028105,-5.030128,2160325.000000,1673607174.828612
1673608198.771835,,,,-5.074624,-5.075853,2160326.000000,1673607174.829619
1673608198.771843,,,,-5.147082,-5.150931,2160327.000000,1673607174.830626
1673608198.771850,,,,-5.195908,-5.197522,2160328.000000,1673607174.831634
1673608198.772595,,,,-5.193552,-5.194805,2160329.000000,1673607174.832641
1673608198.772797,,,,-5.157107,-5.160451,2160330.000000,1673607174.833648
1673608198.772924,,,,-5.147779,-5.152590,2160331.000000,1673607174.834655
1673608198.773328,,,,-5.192807,-5.193315,2160332.000000,1673607174.835662
1673608198.773340,,,,-5.288320,-5.287794,2160333.000000,1673607174.836669
1673608198.773429,,,,-5.373039,-5.373643,2160334.000000,1673607174.837676
1673608198.773491,,,,-5.407056,-5.409079,2160335.000000,1673607174.838683
1673608198.774524,40.192234,2028729.000000,1673608198.763695,,,,
1673608198.774537,40.246498,2028730.000000,1673608198.764695,,,,
1673608198.774543,40.264587,2028731.000000,1673608198.765695,,,,
1673608198.774558,40.300774,2028732.000000,1673608198.766695,,,,
1673608198.774688,40.409309,2028733.000000,1673608198.767695,,,,
1673608198.774705,40.445496,2028734.000000,1673608198.768695,,,,
1673608198.774716,40.535942,2028735.000000,1673608198.769695,,,,
1673608198.774727,40.535942,2028736.000000,1673608198.770695,,,,
1673608198.774746,40.608307,2028737.000000,1673608198.771695,,,,
1673608198.774778,40.590218,2028738.000000,1673608198.772695,,,,
1673608198.778455,,,,-5.385828,-5.389221,2160336.000000,1673607174.839690
1673608198.778618,,,,-5.360370,-5.362200,2160337.000000,1673607174.840697
1673608198.778680,,,,-5.269400,-5.271375,2160338.000000,1673607174.841704
1673608198.778895,,,,-5.151746,-5.153456,2160339.000000,1673607174.842711
1673608198.779044,,,,-5.064118,-5.065251,2160340.000000,1673607174.843719
1673608198.779054,,,,-5.010364,-5.011136,2160341.000000,1673607174.844726
1673608198.779202,,,,-4.946103,-4.945337,2160342.000000,1673607174.845733
1673608198.780118,,,,-4.930549,-4.932523,2160343.000000,1673607174.846740
1673608198.780199,,,,-4.927977,-4.927955,2160344.000000,1673607174.847747
1673608198.780210,,,,-4.908552,-4.911295,2160345.000000,1673607174.848754
1673608198.780217,,,,-4.937689,-4.939302,2160346.000000,1673607174.849761
1673608198.785460,,,,-4.995771,-4.997649,2160347.000000,1673607174.850768
1673608198.785603,,,,-5.048780,-5.051187,2160348.000000,1673607174.851775
1673608198.785760,,,,-5.088375,-5.091648,2160349.000000,1673607174.852782
1673608198.786021,,,,-5.096236,-5.099437,2160350.000000,1673607174.853789
1673608198.786388,,,,-5.105396,-5.109798,2160351.000000,1673607174.854796
1673608198.786404,,,,-5.120060,-5.121289,2160352.000000,1673607174.855803
1673608198.786418,,,,-5.117464,-5.118861,2160353.000000,1673607174.856811
1673608198.787771,,,,-5.111358,-5.114053,2160354.000000,1673607174.857818
1673608198.787782,,,,-5.110084,-5.111265,2160355.000000,1673607174.858825
1673608198.787816,,,,-5.099073,-5.100470,2160356.000000,1673607174.859832
1673608198.787829,,,,-5.078230,-5.080372,2160357.000000,1673607174.860839
1673608198.792686,,,,-5.066714,-5.069362,2160358.000000,1673607174.861846
1673608198.792702,,,,-5.073831,-5.075901,2160359.000000,1673607174.862853
1673608198.792926,,,,-5.081788,-5.083449,2160360.000000,1673607174.863860
1673608198.795165,,,,-5.078398,-5.081214,2160361.000000,1673607174.864867
1673608198.795182,,,,-5.075609,-5.076935,2160362.000000,1673607174.865874
1673608198.795207,,,,-5.083567,-5.083618,2160363.000000,1673607174.866881
1673608198.801859,,,,-5.095106,-5.096167,2160364.000000,1673607174.867888
1673608198.802366,,,,-5.110901,-5.111120,2160365.000000,1673607174.868896
1673608198.803716,,,,-5.128042,-5.125256,2160366.000000,1673607174.869903
1673608198.803772,,,,-5.138452,-5.137541,2160367.000000,1673607174.870910
1673608198.803786,,,,-5.156001,-5.156773,2160368.000000,1673607174.871917
1673608198.803799,,,,-5.176195,-5.174996,2160369.000000,1673607174.872924
1673608198.803827,,,,-5.172445,-5.176342,2160370.000000,1673607174.873931
1673608198.808182,,,,-5.167901,-5.170813,2160371.000000,1673607174.874938
1673608198.808200,,,,-5.182854,-5.186103,2160372.000000,1673607174.875945
1673608198.808705,,,,-5.213193,-5.218822,2160373.000000,1673607174.876952
1673608198.809104,,,,-5.228267,-5.233270,2160374.000000,1673607174.877959
1673608198.809858,,,,-5.210237,-5.212644,2160375.000000,1673607174.878966
1673608198.809992,,,,-5.180666,-5.184204,2160376.000000,1673607174.879973
1673608198.810048,,,,-5.147034,-5.149705,2160377.000000,1673607174.880980
1673608198.810201,,,,-5.109074,-5.109798,2160378.000000,1673607174.881988
1673608198.810446,,,,-5.078350,-5.079146,2160379.000000,1673607174.882995
1673608198.810680,,,,-5.061353,-5.064001,2160380.000000,1673607174.884002
1673608198.811098,,,,-5.070657,-5.072848,2160381.000000,1673607174.885009
1673608198.811260,,,,-5.069816,-5.069723,2160382.000000,1673607174.886016
1673608198.811369,,,,-5.068565,-5.069987,2160383.000000,1673607174.887023
1673608198.811637,,,,-5.090971,-5.091840,2160384.000000,1673607174.888030
1673608198.814981,,,,-5.097174,-5.098138,2160385.000000,1673607174.889037
1673608198.815348,,,,-5.112992,-5.115111,2160386.000000,1673607174.890044
1673608198.815392,,,,-5.106910,-5.108596,2160387.000000,1673607174.891051
1673608198.815487,,,,-5.101910,-5.105999,2160388.000000,1673607174.892058
1673608198.831320,,,,-5.108088,-5.110423,2160389.000000,1673607174.893065
1673608198.831510,,,,-5.117464,-5.117371,2160390.000000,1673607174.894073
1673608198.831617,,,,-5.121719,-5.123910,2160391.000000,1673607174.895080
1673608198.831700,,,,-5.149221,-5.151580,2160392.000000,1673607174.896087
1673608198.839199,,,,-5.227161,-5.229039,2160393.000000,1673607174.897094
1673608198.839220,,,,-5.348902,-5.350204,2160394.000000,1673607174.898101
1673608198.839226,,,,-5.376212,-5.377249,2160395.000000,1673607174.899108
1673608198.845563,,,,-5.334310,-5.335923,2160396.000000,1673607174.900115
1673608198.845908,,,,-5.281829,-5.283491,2160397.000000,1673607174.901122
1673608198.845922,,,,-5.203313,-5.206441,2160398.000000,1673607174.902129
1673608198.846094,,,,-5.061954,-5.064482,2160399.000000,1673607174.903136
1673608198.846226,,,,-4.954493,-4.955073,2160400.000000,1673607174.904143
1673608198.846490,,,,-4.918168,-4.918628,2160401.000000,1673607174.905150
1673608198.846706,,,,-4.925933,-4.929302,2160402.000000,1673607174.906157
1673608198.846723,,,,-4.942833,-4.945866,2160403.000000,1673607174.907165
1673608198.847504,,,,-4.964133,-4.967262,2160404.000000,1673607174.908172
1673608198.847733,,,,-4.995098,-4.996639,2160405.000000,1673607174.909179
1673608198.848046,,,,-5.026687,-5.029791,2160406.000000,1673607174.910186
1673608198.851501,42.344955,2028790.000000,1673608198.839122,,,,
1673608198.851538,42.308777,2028791.000000,1673608198.840122,,,,
1673608198.851551,42.363045,2028792.000000,1673608198.841122,,,,
1673608198.851558,42.308777,2028793.000000,1673608198.842122,,,,
1673608198.851572,42.326866,2028794.000000,1673608198.843122,,,,
1673608198.851668,42.308777,2028795.000000,1673608198.844122,,,,
1673608198.851722,42.344955,2028796.000000,1673608198.845122,,,,
1673608198.851741,42.344955,2028797.000000,1673608198.846122,,,,
1673608198.851758,42.290688,2028798.000000,1673608198.847122,,,,
1673608198.851768,42.272598,2028799.000000,1673608198.848122,,,,
1673608198.852584,,,,-5.120637,-5.124775,2160407.000000,1673607174.911193
1673608198.853353,,,,-5.217881,-5.221659,2160408.000000,1673607174.912200
1673608198.853364,,,,-5.499732,-5.502019,2160409.000000,1673607174.913207
1673608198.853429,,,,-5.658136,-5.661673,2160410.000000,1673607174.914214
1673608198.854784,,,,-5.708405,-5.711317,2160411.000000,1673607174.915221
1673608198.854904,,,,-5.660059,-5.661288,2160412.000000,1673607174.916228
1673608198.855065,,,,-5.473841,-5.474469,2160413.000000,1673607174.917235
1673608198.855088,,,,-5.231128,-5.234713,2160414.000000,1673607174.918242
1673608198.859896,,,,-5.042938,-5.043927,2160415.000000,1673607174.919250
1673608198.860090,,,,-4.893647,-4.894635,2160416.000000,1673607174.920257
1673608198.862811,,,,-4.774069,-4.775250,2160417.000000,1673607174.921264
1673608198.862835,,,,-4.724497,-4.725149,2160418.000000,1673607174.922271
1673608198.862881,,,,-4.738777,-4.741209,2160419.000000,1673607174.923278
1673608198.863179,,,,-4.791787,-4.793953,2160420.000000,1673607174.924285
1673608198.863187,,,,-4.889487,-4.891390,2160421.000000,1673607174.925292
1673608198.863195,,,,-5.027745,-5.029575,2160422.000000,1673607174.926299
1673608198.863201,,,,-5.196221,-5.196512,2160423.000000,1673607174.927306
1673608198.863221,,,,-5.291590,-5.293396,2160424.000000,1673607174.928313
1673608198.867553,,,,-5.298417,-5.303974,2160425.000000,1673607174.929320
1673608198.867685,,,,-5.270314,-5.273418,2160426.000000,1673607174.930327
1673608198.868002,,,,-5.200716,-5.200647,2160427.000000,1673607174.931334
1673608198.868012,,,,-5.094145,-5.095879,2160428.000000,1673607174.932342
1673608198.870111,,,,-5.063108,-5.063977,2160429.000000,1673607174.933349
1673608198.870197,,,,-5.026975,-5.028805,2160430.000000,1673607174.934356
1673608198.870359,,,,-4.988823,-4.992552,2160431.000000,1673607174.935363
1673608198.870445,,,,-4.991371,-4.994067,2160432.000000,1673607174.936370
1673608198.870665,,,,-5.014114,-5.014477,2160433.000000,1673607174.937377
1673608198.870739,,,,-5.022744,-5.024935,2160434.000000,1673607174.938384
1673608198.870902,,,,-5.053925,-5.057510,2160435.000000,1673607174.939391
1673608198.875289,,,,-5.090923,-5.092080,2160436.000000,1673607174.940398
1673608198.875300,,,,-5.101741,-5.103355,2160437.000000,1673607174.941405
1673608198.875483,,,,-5.082726,-5.082993,2160438.000000,1673607174.942412
1673608198.875495,,,,-5.063878,-5.065996,2160439.000000,1673607174.943419
1673608198.875629,,,,-5.071643,-5.072367,2160440.000000,1673607174.944427
1673608198.875760,,,,-5.089625,-5.091287,2160441.000000,1673607174.945434
1673608198.891285,,,,-5.106357,-5.108356,2160442.000000,1673607174.946441
1673608198.892014,,,,-5.100660,-5.100518,2160443.000000,1673607174.947448
1673608198.892239,,,,-5.110012,-5.112803,2160444.000000,1673607174.948455
1673608198.892253,,,,-5.128883,-5.131555,2160445.000000,1673607174.949462
1673608198.905292,,,,-5.134124,-5.136940,2160446.000000,1673607174.950469
1673608198.905535,42.127876,2028807.000000,1673608198.850604,,,,
1673608198.905576,,,,-5.140254,-5.142469,2160447.000000,1673607174.951476
1673608198.905651,,,,-5.247043,-5.249233,2160448.000000,1673607174.952483
1673608198.905659,,,,-5.330487,-5.332918,2160449.000000,1673607174.953490
1673608198.906285,42.109787,2028808.000000,1673608198.851604,,,,
1673608198.906294,42.127876,2028809.000000,1673608198.852604,,,,
1673608198.906302,42.055511,2028810.000000,1673608198.853604,,,,
1673608198.906307,42.001247,2028811.000000,1673608198.854604,,,,
1673608198.906317,42.001247,2028812.000000,1673608198.855604,,,,
1673608198.906413,42.001247,2028813.000000,1673608198.856604,,,,
1673608198.906422,41.928883,2028814.000000,1673608198.857604,,,,
1673608198.906427,41.910793,2028815.000000,1673608198.858604,,,,
1673608198.906431,41.910793,2028816.000000,1673608198.859604,,,,
1673608198.906442,40.336952,2028851.000000,1673608198.894604,,,,
1673608198.906448,40.264587,2028852.000000,1673608198.895604,,,,
1673608198.906452,40.246498,2028853.000000,1673608198.896604,,,,
1673608198.906467,40.228413,2028854.000000,1673608198.897604,,,,
1673608198.906473,40.192234,2028855.000000,1673608198.898604,,,,
1673608198.906477,40.174145,2028856.000000,1673608198.899604,,,,
1673608198.906494,40.101780,2028857.000000,1673608198.900604,,,,
1673608198.906497,40.065601,2028858.000000,1673608198.901604,,,,
1673608198.906501,40.047512,2028859.000000,1673608198.902604,,,,
1673608198.906514,39.957058,2028860.000000,1673608198.903604,,,,
1673608198.907320,,,,-5.265458,-5.267865,2160450.000000,1673607174.954497
1673608198.907479,,,,-5.204803,-5.206104,2160451.000000,1673607174.955504
1673608198.907485,,,,-5.146216,-5.147854,2160452.000000,1673607174.956511
1673608198.912418,,,,-5.060127,-5.060780,2160453.000000,1673607174.957519
1673608198.912742,,,,-4.998103,-4.998490,2160454.000000,1673607174.958526
1673608198.912749,,,,-4.942689,-4.944159,2160455.000000,1673607174.959533
1673608198.912785,,,,-4.936607,-4.935864,2160456.000000,1673607174.960540
1673608198.915137,,,,-4.954638,-4.955314,2160457.000000,1673607174.961547
1673608198.915235,,,,-4.972788,-4.974306,2160458.000000,1673607174.962554
1673608198.915497,,,,-4.986034,-4.985821,2160459.000000,1673607174.963561
1673608198.915531,,,,-5.022528,-5.026810,2160460.000000,1673607174.964568
1673608198.915535,,,,-5.148789,-5.152230,2160461.000000,1673607174.965575
1673608198.915738,,,,-5.268703,-5.268417,2160462.000000,1673607174.966582
1673608198.915880,,,,-5.283247,-5.283563,2160463.000000,1673607174.967589
1673608198.919884,,,,-5.273247,-5.276038,2160464.000000,1673607174.968596
1673608198.920037,,,,-5.253533,-5.254883,2160465.000000,1673607174.969604
1673608198.920179,,,,-5.210332,-5.210408,2160466.000000,1673607174.970611
1673608198.922912,,,,-5.148596,-5.145258,2160467.000000,1673607174.971618
1673608198.923223,,,,-5.119579,-5.120857,2160468.000000,1673607174.972625
1673608198.923254,,,,-5.173671,-5.174659,2160469.000000,1673607174.973632
1673608198.923265,,,,-5.277334,-5.278442,2160470.000000,1673607174.974639
1673608198.927684,,,,-5.378857,-5.381480,2160471.000000,1673607174.975646
1673608198.928229,,,,-5.457469,-5.459059,2160472.000000,1673607174.976653
1673608198.928338,,,,-5.425255,-5.426460,2160473.000000,1673607174.977660
1673608198.930071,,,,-5.321039,-5.323302,2160474.000000,1673607174.978667
1673608198.930381,,,,-5.214924,-5.220000,2160475.000000,1673607174.979674
1673608198.930694,,,,-5.113137,-5.117996,2160476.000000,1673607174.980681
1673608198.930987,,,,-4.964758,-4.966516,2160477.000000,1673607174.981688
1673608198.935647,,,,-4.844628,-4.845184,2160478.000000,1673607174.982696
1673608198.935676,,,,-4.867683,-4.867806,2160479.000000,1673607174.983703
1673608198.935700,,,,-4.900402,-4.901150,2160480.000000,1673607174.984710
1673608198.935901,,,,-4.944348,-4.945553,2160481.000000,1673607174.985717
1673608198.936292,,,,-5.011806,-5.012794,2160482.000000,1673607174.986724
1673608198.936517,,,,-5.107487,-5.107658,2160483.000000,1673607174.987731
1673608198.936843,,,,-5.099193,-5.100230,2160484.000000,1673607174.988738
1673608198.937128,,,,-5.018153,-5.021040,2160485.000000,1673607174.989745
1673608198.937670,,,,-4.983534,-4.990293,2160486.000000,1673607174.990752
1673608198.937863,,,,-4.957114,-4.961876,2160487.000000,1673607174.991759
1673608198.938497,,,,-4.951368,-4.952717,2160488.000000,1673607174.992766
1673608198.938511,,,,-4.988799,-4.991182,2160489.000000,1673607174.993773
1673608198.938682,,,,-5.009546,-5.010992,2160490.000000,1673607174.994781
1673608198.938697,,,,-5.045414,-5.046740,2160491.000000,1673607174.995788
1673608198.938804,,,,-5.094121,-5.096744,2160492.000000,1673607174.996795
1673608198.943897,,,,-5.106020,-5.107153,2160493.000000,1673607174.997802
1673608198.944597,,,,-5.090202,-5.093931,2160494.000000,1673607174.998809
1673608198.944629,,,,-5.089769,-5.092897,2160495.000000,1673607174.999816
1673608198.944861,,,,-5.109627,-5.112899,2160496.000000,1673607175.000823
1673608198.945026,,,,-5.171555,-5.176150,2160497.000000,1673607175.001830
1673608198.945097,,,,-5.235262,-5.236636,2160498.000000,1673607175.002837
1673608198.959669,,,,-5.264376,-5.267288,2160499.000000,1673607175.003844
1673608198.959824,,,,-5.250408,-5.254066,2160500.000000,1673607175.004851
1673608198.960178,,,,-5.209203,-5.210095,2160501.000000,1673607175.005858
1673608198.960195,,,,-5.199009,-5.202114,2160502.000000,1673607175.006866
1673608198.965360,,,,-5.181845,-5.184636,2160503.000000,1673607175.007873
1673608198.965565,,,,-5.143211,-5.147326,2160504.000000,1673607175.008880
1673608198.965578,,,,-5.101886,-5.103716,2160505.000000,1673607175.009887
1673608198.965635,,,,-5.122801,-5.124078,2160506.000000,1673607175.010894
1673608198.967333,,,,-5.171411,-5.172448,2160507.000000,1673607175.011901
1673608198.967506,,,,-5.200043,-5.200142,2160508.000000,1673607175.012908
1673608198.967530,,,,-5.164031,-5.169178,2160509.000000,1673607175.013915
1673608198.969575,39.251545,2028912.000000,1673608198.959471,,,,
1673608198.969586,39.215366,2028913.000000,1673608198.960471,,,,
1673608198.969606,39.215366,2028914.000000,1673608198.961471,,,,
1673608198.969610,39.305813,2028915.000000,1673608198.962471,,,,
1673608198.969617,39.323910,2028916.000000,1673608198.963471,,,,
1673608198.969629,39.287724,2028917.000000,1673608198.964471,,,,
1673608198.969634,39.323910,2028918.000000,1673608198.965471,,,,
1673608198.969647,39.360088,2028919.000000,1673608198.966471,,,,
1673608198.969651,39.360088,2028920.000000,1673608198.967471,,,,
1673608198.969658,39.378178,2028921.000000,1673608198.968471,,,,
1673608198.972412,,,,-5.138042,-5.141147,2160510.000000,1673607175.014922
1673608198.972553,,,,-5.140927,-5.142637,2160511.000000,1673607175.015929
1673608198.972668,,,,-5.124027,-5.126626,2160512.000000,1673607175.016936
1673608198.977015,,,,-5.152106,-5.157134,2160513.000000,1673607175.017943
1673608198.977034,,,,-5.171195,-5.176463,2160514.000000,1673607175.018950
1673608198.977043,,,,-5.170666,-5.173457,2160515.000000,1673607175.019958
1673608198.977189,,,,-5.121623,-5.123405,2160516.000000,1673607175.020965
1673608198.977230,,,,-5.040534,-5.042388,2160517.000000,1673607175.021972
1673608198.980129,,,,-4.970168,-4.971469,2160518.000000,1673607175.022979
1673608198.980366,,,,-4.967451,-4.966468,2160519.000000,1673607175.023986
1673608198.980664,,,,-5.008080,-5.009236,2160520.000000,1673607175.024993
1673608198.980677,,,,-5.106477,-5.107779,2160521.000000,1673607175.026000
1673608198.980696,,,,-5.315895,-5.314984,2160522.000000,1673607175.027007
1673608198.980735,,,,-5.533077,-5.534907,2160523.000000,1673607175.028014
1673608198.984609,,,,-5.667271,-5.668524,2160524.000000,1673607175.029021
1673608198.985188,,,,-5.672560,-5.675616,2160525.000000,1673607175.030028
1673608198.985291,,,,-5.589837,-5.593349,2160526.000000,1673607175.031035
1673608198.985783,,,,-5.446194,-5.450405,2160527.000000,1673607175.032043
1673608198.986136,,,,-5.159295,-5.162951,2160528.000000,1673607175.033050
1673608198.986599,,,,-4.892829,-4.894178,2160529.000000,1673607175.034057
1673608198.986706,,,,-4.823977,-4.824942,2160530.000000,1673607175.035064
1673608198.986970,,,,-4.847585,-4.851675,2160531.000000,1673607175.036071
1673608198.987916,,,,-4.854292,-4.859680,2160532.000000,1673607175.037078
1673608198.988420,,,,-4.869918,-4.874081,2160533.000000,1673607175.038085
1673608198.988443,,,,-4.929467,-4.931537,2160534.000000,1673607175.039092
1673608198.988819,,,,-5.015797,-5.018348,2160535.000000,1673607175.040099
1673608198.988833,,,,-5.015532,-5.018420,2160536.000000,1673607175.041106
1673608198.988896,,,,-4.977452,-4.979258,2160537.000000,1673607175.042113
1673608198.989260,,,,-4.978293,-4.980532,2160538.000000,1673607175.043120
1673608198.992070,,,,-4.982236,-4.984931,2160539.000000,1673607175.044127
1673608198.992118,,,,-4.979231,-4.982119,2160540.000000,1673607175.045135
1673608198.992305,,,,-4.987717,-4.989836,2160541.000000,1673607175.046142
1673608198.992613,,,,-5.025341,-5.028685,2160542.000000,1673607175.047149
1673608198.994965,,,,-5.064094,-5.065876,2160543.000000,1673607175.048156
1673608198.995306,,,,-5.090010,-5.093595,2160544.000000,1673607175.049163
1673608198.995313,,,,-5.103977,-5.108067,2160545.000000,1673607175.050170
1673608198.999634,,,,-5.133403,-5.136531,2160546.000000,1673607175.051177
1673608198.999754,,,,-5.162372,-5.166053,2160547.000000,1673607175.052184
1673608198.999952,,,,-5.236128,-5.238126,2160548.000000,1673607175.053191
1673608199.000168,,,,-5.318611,-5.318662,2160549.000000,1673607175.054198
1673608199.003011,,,,-5.359793,-5.360204,2160550.000000,1673607175.055205
1673608199.003224,,,,-5.357701,-5.361262,2160551.000000,1673607175.056212
1673608199.003759,,,,-5.371524,-5.374725,2160552.000000,1673607175.057220
1673608199.004168,,,,-5.345080,-5.346982,2160553.000000,1673607175.058227
1673608199.004658,,,,-5.393762,-5.398164,2160554.000000,1673607175.059234
1673608199.004682,,,,-5.486102,-5.489927,2160555.000000,1673607175.060241
1673608199.004694,,,,-5.498386,-5.498534,2160556.000000,1673607175.061248
1673608199.007022,,,,-5.408811,-5.407011,2160557.000000,1673607175.062255
1673608199.007285,,,,-5.281901,-5.281976,2160558.000000,1673607175.063262
1673608199.007560,,,,-5.132802,-5.132565,2160559.000000,1673607175.064269
1673608199.007742,,,,-4.973461,-4.974570,2160560.000000,1673607175.065276
1673608199.008011,,,,-4.843618,-4.844511,2160561.000000,1673607175.066283
1673608199.008262,,,,-4.844676,-4.847756,2160562.000000,1673607175.067290
1673608199.008512,,,,-4.905787,-4.908218,2160563.000000,1673607175.068297
1673608199.018778,,,,-4.940766,-4.944087,2160564.000000,1673607175.069304
1673608199.018790,,,,-4.964758,-4.968584,2160565.000000,1673607175.070312
1673608199.018803,,,,-4.973341,-4.975363,2160566.000000,1673607175.071319
1673608199.025051,,,,-5.015917,-5.016425,2160567.000000,1673607175.072326
1673608199.025276,,,,-5.056473,-5.061236,2160568.000000,1673607175.073333
1673608199.025284,,,,-5.081043,-5.085517,2160569.000000,1673607175.074340
1673608199.027517,,,,-5.077557,-5.079170,2160570.000000,1673607175.075347
1673608199.027524,,,,-5.056209,-5.058496,2160571.000000,1673607175.076354
1673608199.027654,,,,-5.060488,-5.063280,2160572.000000,1673607175.077361
1673608199.027718,,,,-5.137658,-5.139248,2160573.000000,1673607175.078368
1673608199.027798,,,,-5.201678,-5.205840,2160574.000000,1673607175.079375
1673608199.033916,,,,-5.195956,-5.199469,2160575.000000,1673607175.080382
1673608199.033935,,,,-5.170137,-5.173842,2160576.000000,1673607175.081389
1673608199.040583,,,,-5.142899,-5.145402,2160577.000000,1673607175.082397
1673608199.040665,,,,-5.088399,-5.089796,2160578.000000,1673607175.083404
1673608199.040812,,,,-5.055944,-5.057197,2160579.000000,1673607175.084411
1673608199.041111,,,,-5.044116,-5.047533,2160580.000000,1673607175.085418
1673608199.041119,,,,-5.046376,-5.048278,2160581.000000,1673607175.086425
1673608199.041443,,,,-5.049189,-5.052341,2160582.000000,1673607175.087432
1673608199.041756,,,,-5.055680,-5.054265,2160583.000000,1673607175.088439
1673608199.042014,,,,-5.071210,-5.070155,2160584.000000,1673607175.089446
1673608199.042597,,,,-5.097823,-5.100350,2160585.000000,1673607175.090453
1673608199.042912,,,,-5.137658,-5.141003,2160586.000000,1673607175.091460
1673608199.043028,,,,-5.193913,-5.194541,2160587.000000,1673607175.092467
1673608199.043038,,,,-5.286709,-5.285655,2160588.000000,1673607175.093474
1673608199.043556,39.432442,2028922.000000,1673608198.982677,,,,
1673608199.044391,39.522896,2028923.000000,1673608198.983677,,,,
1673608199.044404,40.029423,2028944.000000,1673608199.004677,,,,
1673608199.044553,40.029423,2028945.000000,1673608199.005677,,,,
1673608199.044742,40.083691,2028946.000000,1673608199.006677,,,,
1673608199.044754,40.137959,2028947.000000,1673608199.007677,,,,
1673608199.045470,40.174145,2028948.000000,1673608199.008677,,,,
1673608199.045495,40.228413,2028949.000000,1673608199.009677,,,,
1673608199.045504,40.192234,2028950.000000,1673608199.010677,,,,
1673608199.045520,40.192234,2028951.000000,1673608199.011678,,,,
1673608199.045543,40.264587,2028952.000000,1673608199.012677,,,,
1673608199.045550,40.318863,2028953.000000,1673608199.013677,,,,
1673608199.045557,40.933926,2028973.000000,1673608199.033677,,,,
1673608199.045584,41.006290,2028974.000000,1673608199.034678,,,,
1673608199.045595,41.024380,2028975.000000,1673608199.035677,,,,
1673608199.045688,41.096737,2028976.000000,1673608199.036677,,,,
1673608199.045700,41.096737,2028977.000000,1673608199.037677,,,,
1673608199.045713,41.114822,2028978.000000,1673608199.038677,,,,
1673608199.045725,41.151012,2028979.000000,1673608199.039677,,,,
1673608199.045732,41.151012,2028980.000000,1673608199.040677,,,,
1673608199.045743,41.241455,2028981.000000,1673608199.041677,,,,
1673608199.045771,41.259544,2028982.000000,1673608199.042677,,,,
1673608199.047729,,,,-5.306639,-5.308349,2160589.000000,1673607175.094481
1673608199.048118,,,,-5.302432,-5.304719,2160590.000000,1673607175.095489
1673608199.048302,,,,-5.336906,-5.339505,2160591.000000,1673607175.096496
1673608199.048313,,,,-5.329646,-5.332438,2160592.000000,1673607175.097503
1673608199.048347,,,,-5.271684,-5.272769,2160593.000000,1673607175.098510
1673608199.048420,,,,-5.224396,-5.225962,2160594.000000,1673607175.099517
1673608199.050209,,,,-5.169776,-5.168529,2160595.000000,1673607175.100524
1673608199.050432,,,,-5.084168,-5.084315,2160596.000000,1673607175.101531
1673608199.050739,,,,-5.047338,-5.052774,2160597.000000,1673607175.102538
1673608199.050897,,,,-5.058468,-5.061957,2160598.000000,1673607175.103545
1673608199.050994,,,,-5.063132,-5.064722,2160599.000000,1673607175.104552
1673608199.051240,,,,-5.048155,-5.048398,2160600.000000,1673607175.105559
1673608199.051483,,,,-5.043251,-5.043638,2160601.000000,1673607175.106566
1673608199.051498,,,,-5.071210,-5.075636,2160602.000000,1673607175.107574
1673608199.055209,,,,-5.111694,-5.115520,2160603.000000,1673607175.108581
1673608199.055306,,,,-5.145447,-5.147902,2160604.000000,1673607175.109588
1673608199.055322,,,,-5.189538,-5.190526,2160605.000000,1673607175.110595
1673608199.057492,,,,-5.278896,-5.280077,2160606.000000,1673607175.111602
1673608199.057560,,,,-5.441963,-5.441750,2160607.000000,1673607175.112609
1673608199.057624,,,,-5.651789,-5.652946,2160608.000000,1673607175.113616
1673608199.071768,,,,-5.748528,-5.751320,2160609.000000,1673607175.114623
1673608199.071947,,,,-5.832694,-5.837097,2160610.000000,1673607175.115630
1673608199.072233,,,,-5.904864,-5.907367,2160611.000000,1673607175.116637
1673608199.072505,,,,-5.824136,-5.826831,2160612.000000,1673607175.117644
1673608199.072613,,,,-5.663857,-5.664077,2160613.000000,1673607175.118651
1673608199.072665,,,,-5.415687,-5.415714,2160614.000000,1673607175.119658
1673608199.072712,,,,-5.147154,-5.151028,2160615.000000,1673607175.120666
1673608199.072721,,,,-4.878164,-4.877711,2160616.000000,1673607175.121673
1673608199.078678,,,,-4.608766,-4.605740,2160617.000000,1673607175.122680
1673608199.078893,,,,-4.467432,-4.466617,2160618.000000,1673607175.123687
1673608199.078911,,,,-4.502555,-4.504241,2160619.000000,1673607175.124694
1673608199.079147,,,,-4.512532,-4.512198,2160620.000000,1673607175.125701
1673608199.079719,,,,-4.598309,-4.599658,2160621.000000,1673607175.126708
1673608199.079741,,,,-4.747480,-4.749623,2160622.000000,1673607175.127715
1673608199.080187,,,,-4.865831,-4.868238,2160623.000000,1673607175.128722
1673608199.080414,,,,-4.982717,-4.983345,2160624.000000,1673607175.129729
1673608199.080797,,,,-5.074912,-5.076598,2160625.000000,1673607175.130736
1673608199.080949,,,,-5.112151,-5.113068,2160626.000000,1673607175.131743
1673608199.081327,,,,-5.141408,-5.143960,2160627.000000,1673607175.132751
1673608199.081560,,,,-5.159800,-5.163505,2160628.000000,1673607175.133758
1673608199.081609,,,,-5.172709,-5.174323,2160629.000000,1673607175.134765
1673608199.081939,,,,-5.179561,-5.182881,2160630.000000,1673607175.135772
1673608199.086302,,,,-5.229541,-5.232044,2160631.000000,1673607175.136779
1673608199.086591,,,,-5.289234,-5.290006,2160632.000000,1673607175.137786
1673608199.086898,,,,-5.313515,-5.313998,2160633.000000,1673607175.138793
1673608199.089576,42.688671,2029034.000000,1673608199.078573,,,,
1673608199.089599,42.724850,2029035.000000,1673608199.079573,,,,
1673608199.089610,42.761028,2029036.000000,1673608199.080573,,,,
1673608199.089619,42.724850,2029037.000000,1673608199.081573,,,,
1673608199.089626,42.742939,2029038.000000,1673608199.082573,,,,
1673608199.089634,42.851482,2029039.000000,1673608199.083573,,,,
1673608199.089640,42.851482,2029040.000000,1673608199.084573,,,,
1673608199.089690,42.887657,2029041.000000,1673608199.085573,,,,
1673608199.089714,42.851482,2029042.000000,1673608199.086573,,,,
1673608199.089721,42.905746,2029043.000000,1673608199.087573,,,,
1673608199.093474,,,,-5.299860,-5.302315,2160634.000000,1673607175.139800
1673608199.093633,,,,-5.248509,-5.249738,2160635.000000,1673607175.140807
1673608199.093791,,,,-5.172877,-5.176703,2160636.000000,1673607175.141814
1673608199.094155,,,,-5.094649,-5.097153,2160637.000000,1673607175.142821
1673608199.094166,,,,-5.034861,-5.036955,2160638.000000,1673607175.143828
1673608199.094172,,,,-4.968412,-4.973704,2160639.000000,1673607175.144835
1673608199.094327,,,,-4.938482,-4.940697,2160640.000000,1673607175.145843
1673608199.094777,,,,-4.962739,-4.966035,2160641.000000,1673607175.146850
1673608199.094793,,,,-5.000964,-5.002096,2160642.000000,1673607175.147857
1673608199.094798,,,,-5.045342,-5.044672,2160643.000000,1673607175.148864
1673608199.094877,,,,-5.091548,-5.094725,2160644.000000,1673607175.149871
1673608199.094883,,,,-5.131432,-5.133670,2160645.000000,1673607175.150878
1673608199.095424,,,,-5.148596,-5.151580,2160646.000000,1673607175.151885
1673608199.095574,,,,-5.150856,-5.153336,2160647.000000,1673607175.152892
1673608199.095850,,,,-5.149991,-5.150667,2160648.000000,1673607175.153899
1673608199.095860,,,,-5.156001,-5.160956,2160649.000000,1673607175.154906
1673608199.096047,,,,-5.168310,-5.172303,2160650.000000,1673607175.155913
1673608199.096376,,,,-5.153837,-5.157759,2160651.000000,1673607175.156920
1673608199.096760,,,,-5.142611,-5.147181,2160652.000000,1673607175.157928
1673608199.096776,,,,-5.137225,-5.139657,2160653.000000,1673607175.158935
1673608199.096805,,,,-5.130566,-5.131146,2160654.000000,1673607175.159942
1673608199.096817,,,,-5.124700,-5.123285,2160655.000000,1673607175.160949
1673608199.100553,,,,-5.116262,-5.114197,2160656.000000,1673607175.161956
1673608199.100679,,,,-5.092221,-5.094484,2160657.000000,1673607175.162963
1673608199.100826,,,,-5.088976,-5.091118,2160658.000000,1673607175.163970
1673608199.100835,,,,-5.087533,-5.088522,2160659.000000,1673607175.164977
1673608199.101100,,,,-5.095923,-5.097682,2160660.000000,1673607175.165984
1673608199.101287,,,,-5.106597,-5.106192,2160661.000000,1673607175.166991
1673608199.101483,,,,-5.106958,-5.109269,2160662.000000,1673607175.167998
1673608199.102857,,,,-5.144485,-5.145690,2160663.000000,1673607175.169005
1673608199.103009,,,,-5.241393,-5.244834,2160664.000000,1673607175.170012
1673608199.103096,,,,-5.283007,-5.287217,2160665.000000,1673607175.171020
1673608199.103200,,,,-5.297071,-5.298348,2160666.000000,1673607175.172027
1673608199.103499,,,,-5.334959,-5.334601,2160667.000000,1673607175.173034
1673608199.103623,,,,-5.312336,-5.314575,2160668.000000,1673607175.174041
1673608199.103685,,,,-5.255216,-5.256541,2160669.000000,1673607175.175048
