__time,/gdx/grip_force_stream/grip_force,/gdx/grip_force_stream/header/seq,/gdx/grip_force_stream/header/stamp,/shimmer0/emg_stream/emg_ch1,/shimmer0/emg_stream/emg_ch2,/shimmer0/emg_stream/header/seq,/shimmer0/emg_stream/header/stamp
1673608516.685315,,,,9.193462,9.197498,2474886.000000,1673606980.744658
1673608516.685378,,,,9.203440,9.204999,2474887.000000,1673606980.745666
1673608516.685385,,,,9.197044,9.197691,2474888.000000,1673606980.746673
1673608516.691003,,,,9.186322,9.190527,2474889.000000,1673606980.747680
1673608516.691168,,,,9.179014,9.184228,2474890.000000,1673606980.748687
1673608516.691194,,,,9.164758,9.170044,2474891.000000,1673606980.749694
1673608516.691394,,,,9.158820,9.163746,2474892.000000,1673606980.750701
1673608516.692719,1.425100,2308567.000000,1673608516.651992,,,,
1673608516.692734,1.425100,2308568.000000,1673608516.652992,,,,
1673608516.692740,1.370824,2308569.000000,1673608516.653992,,,,
1673608516.692745,1.388913,2308570.000000,1673608516.654992,,,,
1673608516.692829,1.425100,2308571.000000,1673608516.655992,,,,
1673608516.692842,1.461278,2308572.000000,1673608516.656992,,,,
1673608516.692851,1.443189,2308573.000000,1673608516.657992,,,,
1673608516.692859,1.425100,2308574.000000,1673608516.658992,,,,
1673608516.692865,1.407002,2308575.000000,1673608516.659992,,,,
1673608516.692891,1.388913,2308597.000000,1673608516.681992,,,,
1673608516.692913,1.443189,2308598.000000,1673608516.682992,,,,
1673608516.692919,1.425100,2308599.000000,1673608516.683992,,,,
1673608516.692924,1.407002,2308600.000000,1673608516.684992,,,,
1673608516.692933,1.425100,2308601.000000,1673608516.685992,,,,
1673608516.692937,1.388913,2308602.000000,1673608516.686992,,,,
1673608516.692941,1.388913,2308603.000000,1673608516.687992,,,,
1673608516.692953,1.352735,2308604.000000,1673608516.688992,,,,
1673608516.692993,1.388913,2308605.000000,1673608516.689992,,,,
1673608516.693002,1.370824,2308606.000000,1673608516.690992,,,,
1673608516.697343,,,,9.153171,9.153745,2474893.000000,1673606980.751708
1673608516.697527,,,,9.145309,9.148528,2474894.000000,1673606980.752715
1673608516.697534,,,,9.137665,9.144056,2474895.000000,1673606980.753722
1673608516.699575,,,,9.130861,9.134561,2474896.000000,1673606980.754729
1673608516.699758,,,,9.130836,9.133647,2474897.000000,1673606980.755736
1673608516.700004,,,,9.137424,9.140354,2474898.000000,1673606980.756743
1673608516.704886,,,,9.149733,9.152374,2474899.000000,1673606980.757751
1673608516.705280,,,,9.157763,9.162616,2474900.000000,1673606980.758758
1673608516.705353,,,,9.166345,9.171391,2474901.000000,1673606980.759765
1673608516.705573,,,,9.189880,9.191969,2474902.000000,1673606980.760772
1673608516.705812,,,,9.202430,9.205168,2474903.000000,1673606980.761779
1673608516.707161,,,,9.207382,9.209110,2474904.000000,1673606980.762786
1673608516.707529,,,,9.194088,9.197378,2474905.000000,1673606980.763793
1673608516.712501,,,,9.179543,9.184468,2474906.000000,1673606980.764800
1673608516.713342,,,,9.175817,9.177761,2474907.000000,1673606980.765807
1673608516.713528,,,,9.171681,9.173698,2474908.000000,1673606980.766814
1673608516.713608,,,,9.165984,9.170188,2474909.000000,1673606980.767821
1673608516.715050,,,,9.157137,9.159995,2474910.000000,1673606980.768828
1673608516.715790,,,,9.148915,9.152591,2474911.000000,1673606980.769835
1673608516.716162,,,,9.144588,9.150740,2474912.000000,1673606980.770843
1673608516.716478,,,,9.140453,9.144224,2474913.000000,1673606980.771850
1673608516.716679,,,,9.137856,9.140065,2474914.000000,1673606980.772857
1673608516.716855,,,,9.136511,9.140762,2474915.000000,1673606980.773864
1673608516.716953,,,,9.131198,9.136556,2474916.000000,1673606980.774871
1673608516.716965,,,,9.131943,9.136483,2474917.000000,1673606980.775878
1673608516.719714,,,,9.141751,9.146532,2474918.000000,1673606980.776885
1673608516.720049,,,,9.157402,9.161678,2474919.000000,1673606980.777892
1673608516.720057,,,,9.167282,9.172015,2474920.000000,1673606980.778899
1673608516.722122,,,,9.178269,9.180910,2474921.000000,1673606980.779906
1673608516.722412,,,,9.182693,9.184829,2474922.000000,1673606980.780913
1673608516.722612,,,,9.188679,9.192883,2474923.000000,1673606980.781920
1673608516.727495,,,,9.195242,9.198099,2474924.000000,1673606980.782928
1673608516.727929,,,,9.193102,9.193580,2474925.000000,1673606980.783935
1673608516.728261,,,,9.184327,9.186416,2474926.000000,1673606980.784942
1673608516.728637,,,,9.194545,9.199975,2474927.000000,1673606980.785949
1673608516.728646,,,,9.188559,9.195263,2474928.000000,1673606980.786956
1673608516.735007,,,,9.173077,9.179949,2474929.000000,1673606980.787963
1673608516.735018,,,,9.155646,9.161438,2474930.000000,1673606980.788970
1673608516.735139,,,,9.136919,9.140931,2474931.000000,1673606980.789977
1673608516.737322,,,,9.109777,9.114270,2474932.000000,1673606980.790984
1673608516.737334,,,,9.094055,9.097802,2474933.000000,1673606980.791991
1673608516.737454,,,,9.088285,9.091432,2474934.000000,1673606980.792998
1673608516.737715,,,,9.094103,9.096168,2474935.000000,1673606980.794005
1673608516.737784,,,,9.096747,9.099726,2474936.000000,1673606980.795012
1673608516.737792,,,,9.103911,9.107203,2474937.000000,1673606980.796020
1673608516.751399,,,,9.118360,9.123093,2474938.000000,1673606980.797027
1673608516.751742,,,,9.138987,9.146028,2474939.000000,1673606980.798034
1673608516.751753,,,,9.164397,9.170093,2474940.000000,1673606980.799041
1673608516.751975,,,,9.186419,9.191055,2474941.000000,1673606980.800048
1673608516.751992,,,,9.209882,9.215528,2474942.000000,1673606980.801055
1673608516.752080,,,,9.227504,9.233343,2474943.000000,1673606980.802062
1673608516.752121,,,,9.223681,9.230266,2474944.000000,1673606980.803069
1673608516.752166,,,,9.205868,9.211273,2474945.000000,1673606980.804076
1673608516.758884,,,,9.193054,9.198219,2474946.000000,1673606980.805083
1673608516.759167,,,,9.186515,9.190287,2474947.000000,1673606980.806090
1673608516.759467,,,,9.176153,9.180839,2474948.000000,1673606980.807097
1673608516.759722,,,,9.160960,9.166174,2474949.000000,1673606980.808105
1673608516.759898,,,,9.145261,9.150163,2474950.000000,1673606980.809112
1673608516.760179,,,,9.126557,9.129656,2474951.000000,1673606980.810119
1673608516.760387,,,,9.127447,9.134175,2474952.000000,1673606980.811126
1673608516.765129,,,,9.127880,9.132733,2474953.000000,1673606980.812133
1673608516.766216,,,,9.130404,9.136243,2474954.000000,1673606980.813140
1673608516.766280,,,,9.135261,9.138887,2474955.000000,1673606980.814147
1673608516.766293,,,,9.143218,9.143720,2474956.000000,1673606980.815154
1673608516.766459,,,,9.155622,9.157183,2474957.000000,1673606980.816161
1673608516.766479,,,,9.159349,9.165741,2474958.000000,1673606980.817168
1673608516.766604,,,,9.169158,9.173145,2474959.000000,1673606980.818175
1673608516.766619,,,,9.176033,9.179468,2474960.000000,1673606980.819182
1673608516.767087,,,,9.180481,9.183675,2474961.000000,1673606980.820189
1673608516.767406,,,,9.183005,9.188123,2474962.000000,1673606980.821197
1673608516.767459,1.334646,2308607.000000,1673608516.705745,,,,
1673608516.768167,1.352735,2308608.000000,1673608516.706745,,,,
1673608516.768184,1.407002,2308609.000000,1673608516.707745,,,,
1673608516.768234,1.370824,2308610.000000,1673608516.708745,,,,
1673608516.769517,1.407002,2308611.000000,1673608516.709745,,,,
1673608516.769544,1.461278,2308612.000000,1673608516.710745,,,,
1673608516.769552,1.388913,2308613.000000,1673608516.711745,,,,
1673608516.769559,1.407002,2308614.000000,1673608516.712745,,,,
1673608516.769566,1.678355,2308658.000000,1673608516.756745,,,,
1673608516.769574,1.678355,2308659.000000,1673608516.757745,,,,
1673608516.769579,1.660266,2308660.000000,1673608516.758745,,,,
1673608516.769610,1.696444,2308661.000000,1673608516.759745,,,,
1673608516.769635,1.642177,2308662.000000,1673608516.760745,,,,
1673608516.769640,1.750719,2308663.000000,1673608516.761745,,,,
1673608516.769645,1.642177,2308664.000000,1673608516.762745,,,,
1673608516.769664,1.696444,2308665.000000,1673608516.763745,,,,
1673608516.769703,1.696444,2308666.000000,1673608516.764745,,,,
1673608516.769736,1.660266,2308667.000000,1673608516.765745,,,,
1673608516.772556,,,,9.192188,9.196128,2474963.000000,1673606980.822204
1673608516.772785,,,,9.205723,9.209230,2474964.000000,1673606980.823211
1673608516.773003,,,,9.212046,9.215072,2474965.000000,1673606980.824218
1673608516.773138,,,,9.206949,9.210649,2474966.000000,1673606980.825225
1673608516.773289,,,,9.183173,9.189493,2474967.000000,1673606980.826232
1673608516.773612,,,,9.155022,9.160188,2474968.000000,1673606980.827239
1673608516.773621,,,,9.142521,9.146317,2474969.000000,1673606980.828246
1673608516.773830,,,,9.135934,9.139368,2474970.000000,1673606980.829253
1673608516.774668,,,,9.125428,9.129536,2474971.000000,1673606980.830260
1673608516.774867,,,,9.119393,9.123886,2474972.000000,1673606980.831267
1673608516.775057,,,,9.117831,9.122252,2474973.000000,1673606980.832274
1673608516.775307,,,,9.124611,9.126723,2474974.000000,1673606980.833282
1673608516.779792,,,,9.126317,9.128839,2474975.000000,1673606980.834289
1673608516.780049,,,,9.114898,9.117323,2474976.000000,1673606980.835296
1673608516.782062,,,,9.123841,9.128189,2474977.000000,1673606980.836303
1673608516.782280,,,,9.137256,9.140138,2474978.000000,1673606980.837310
1673608516.782420,,,,9.149541,9.151750,2474979.000000,1673606980.838317
1673608516.782552,,,,9.157546,9.159802,2474980.000000,1673606980.839324
1673608516.787354,,,,9.158219,9.163914,2474981.000000,1673606980.840331
1673608516.787445,,,,9.150093,9.151965,2474982.000000,1673606980.841338
1673608516.787491,,,,9.146440,9.149129,2474983.000000,1673606980.842345
1673608516.787497,,,,9.151656,9.157784,2474984.000000,1673606980.843352
1673608516.789833,,,,9.164638,9.169227,2474985.000000,1673606980.844359
1673608516.789973,,,,9.170672,9.174299,2474986.000000,1673606980.845366
1673608516.790215,,,,9.166585,9.171871,2474987.000000,1673606980.846374
1673608516.790338,,,,9.159541,9.163457,2474988.000000,1673606980.847381
1673608516.790408,,,,9.144636,9.148936,2474989.000000,1673606980.848388
1673608516.790417,,,,9.133914,9.136483,2474990.000000,1673606980.849395
1673608516.790451,,,,9.134924,9.137156,2474991.000000,1673606980.850402
1673608516.795321,,,,9.126966,9.130979,2474992.000000,1673606980.851409
1673608516.795510,,,,9.125836,9.128285,2474993.000000,1673606980.852416
1673608516.795645,,,,9.113600,9.118237,2474994.000000,1673606980.853423
1673608516.795660,,,,9.104897,9.111313,2474995.000000,1673606980.854430
1673608516.795811,,,,9.099801,9.105543,2474996.000000,1673606980.855437
1673608516.795823,,,,9.094704,9.099485,2474997.000000,1673606980.856444
1673608516.796017,,,,9.095714,9.099702,2474998.000000,1673606980.857451
1673608516.796984,,,,9.111124,9.111121,2474999.000000,1673606980.858459
1673608516.797165,,,,9.131967,9.134104,2475000.000000,1673606980.859466
1673608516.797335,,,,9.118769,9.125401,2475001.000000,1673606980.860473
1673608516.809887,,,,9.121197,9.125016,2475002.000000,1673606980.861480
1673608516.810172,,,,9.106725,9.110568,2475003.000000,1673606980.862487
1673608516.810705,,,,9.082804,9.085542,2475004.000000,1673606980.863494
1673608516.810717,,,,9.094440,9.096552,2475005.000000,1673606980.864501
1673608516.812365,,,,9.110619,9.114534,2475006.000000,1673606980.865508
1673608516.812407,,,,9.128962,9.132060,2475007.000000,1673606980.866515
1673608516.812692,,,,9.134371,9.137926,2475008.000000,1673606980.867522
1673608516.818516,,,,9.124971,9.130642,2475009.000000,1673606980.868529
1673608516.818875,,,,9.167595,9.173169,2475010.000000,1673606980.869536
1673608516.819046,,,,9.206709,9.210961,2475011.000000,1673606980.870543
1673608516.819278,,,,9.202838,9.205745,2475012.000000,1673606980.871551
1673608516.822666,1.678355,2308668.000000,1673608516.761736,,,,
1673608516.822938,1.714541,2308669.000000,1673608516.762736,,,,
1673608516.825072,1.750719,2308670.000000,1673608516.763736,,,,
1673608516.825093,2.166792,2308719.000000,1673608516.812736,,,,
1673608516.825099,2.184881,2308720.000000,1673608516.813736,,,,
1673608516.825164,2.202970,2308721.000000,1673608516.814736,,,,
1673608516.825179,2.184881,2308722.000000,1673608516.815736,,,,
1673608516.825223,,,,9.165888,9.169371,2475013.000000,1673606980.872558
1673608516.825238,2.202970,2308723.000000,1673608516.816736,,,,
1673608516.825279,2.184881,2308724.000000,1673608516.817736,,,,
1673608516.825288,2.293424,2308725.000000,1673608516.818736,,,,
1673608516.825320,2.257237,2308726.000000,1673608516.819736,,,,
1673608516.825328,2.257237,2308727.000000,1673608516.820736,,,,
1673608516.825375,2.293424,2308728.000000,1673608516.821736,,,,
1673608516.825541,,,,9.127976,9.131723,2475014.000000,1673606980.873565
1673608516.825725,,,,9.101868,9.105255,2475015.000000,1673606980.874572
1673608516.825732,,,,9.090690,9.095206,2475016.000000,1673606980.875579
1673608516.825886,,,,9.093021,9.096552,2475017.000000,1673606980.876586
1673608516.826002,,,,9.110787,9.114174,2475018.000000,1673606980.877593
1673608516.826157,,,,9.148915,9.153024,2475019.000000,1673606980.878600
1673608516.827056,,,,9.175240,9.180790,2475020.000000,1673606980.879607
1673608516.827183,,,,9.202093,9.205503,2475021.000000,1673606980.880614
1673608516.827348,,,,9.209185,9.215120,2475022.000000,1673606980.881621
1673608516.827499,,,,9.210147,9.215120,2475023.000000,1673606980.882628
1673608516.832326,,,,9.212262,9.213726,2475024.000000,1673606980.883636
1673608516.832565,,,,9.211589,9.215769,2475025.000000,1673606980.884643
1673608516.832576,,,,9.194592,9.199614,2475026.000000,1673606980.885650
1673608516.832580,,,,9.184255,9.188964,2475027.000000,1673606980.886657
1673608516.835220,,,,9.171874,9.179179,2475028.000000,1673606980.887664
1673608516.835240,,,,9.147954,9.151484,2475029.000000,1673606980.888671
1673608516.835250,,,,9.117302,9.119534,2475030.000000,1673606980.889678
1673608516.835257,,,,9.104921,9.107467,2475031.000000,1673606980.890685
1673608516.835263,,,,9.107302,9.109606,2475032.000000,1673606980.891692
1673608516.835354,,,,9.106869,9.109991,2475033.000000,1673606980.892699
1673608516.839835,,,,9.112950,9.118717,2475034.000000,1673606980.893706
1673608516.839847,,,,9.135381,9.140234,2475035.000000,1673606980.894713
1673608516.839984,,,,9.155142,9.160068,2475036.000000,1673606980.895720
1673608516.840110,,,,9.155142,9.161798,2475037.000000,1673606980.896728
1673608516.842356,,,,9.166032,9.169250,2475038.000000,1673606980.897735
1673608516.842450,,,,9.163869,9.167376,2475039.000000,1673606980.898742
1673608516.842880,,,,9.155022,9.160235,2475040.000000,1673606980.899749
1673608516.843011,,,,9.161056,9.167399,2475041.000000,1673606980.900756
1673608516.843032,,,,9.171923,9.177617,2475042.000000,1673606980.901763
1673608516.843035,,,,9.172067,9.178218,2475043.000000,1673606980.902770
1673608516.843048,,,,9.167643,9.170428,2475044.000000,1673606980.903777
1673608516.847577,,,,9.161152,9.165957,2475045.000000,1673606980.904784
1673608516.847589,,,,9.174495,9.177112,2475046.000000,1673606980.905791
1673608516.847949,,,,9.178004,9.179636,2475047.000000,1673606980.906798
1673608516.848026,,,,9.159277,9.159755,2475048.000000,1673606980.907805
1673608516.848036,,,,9.144492,9.145715,2475049.000000,1673606980.908813
1673608516.848083,,,,9.131222,9.133791,2475050.000000,1673606980.909820
1673608516.848096,,,,9.122808,9.125257,2475051.000000,1673606980.910827
1673608516.849822,,,,9.117446,9.119751,2475052.000000,1673606980.911834
1673608516.849831,,,,9.099921,9.102971,2475053.000000,1673606980.912841
1673608516.849921,,,,9.096050,9.102250,2475054.000000,1673606980.913848
1673608516.849928,,,,9.112735,9.116722,2475055.000000,1673606980.914855
1673608516.849948,,,,9.132327,9.132925,2475056.000000,1673606980.915862
1673608516.855051,,,,9.132833,9.134897,2475057.000000,1673606980.916869
1673608516.855337,,,,9.134851,9.137012,2475058.000000,1673606980.917876
1673608516.857278,,,,9.135381,9.136796,2475059.000000,1673606980.918883
1673608516.857795,,,,9.142472,9.146172,2475060.000000,1673606980.919890
1673608516.858483,,,,9.153651,9.157880,2475061.000000,1673606980.920897
1673608516.858561,,,,9.147521,9.147494,2475062.000000,1673606980.921905
1673608516.870945,,,,9.138746,9.141604,2475063.000000,1673606980.922912
1673608516.871569,,,,9.125596,9.129199,2475064.000000,1673606980.923919
1673608516.871702,,,,9.110138,9.114030,2475065.000000,1673606980.924926
1673608516.871715,,,,9.112302,9.115737,2475066.000000,1673606980.925933
1673608516.878526,,,,9.120379,9.122612,2475067.000000,1673606980.926940
1673608516.878744,,,,9.124562,9.129128,2475068.000000,1673606980.927947
1673608516.879103,,,,9.125644,9.129632,2475069.000000,1673606980.928954
1673608516.884829,,,,9.133963,9.136195,2475070.000000,1673606980.929961
1673608516.884843,,,,9.136775,9.138407,2475071.000000,1673606980.930968
1673608516.884971,,,,9.138145,9.139801,2475072.000000,1673606980.931975
1673608516.885169,,,,9.118985,9.120111,2475073.000000,1673606980.932982
1673608516.887331,,,,9.100113,9.104101,2475074.000000,1673606980.933990
1673608516.887434,,,,9.095641,9.099100,2475075.000000,1673606980.934997
1673608516.887447,,,,9.100329,9.101937,2475076.000000,1673606980.936004
1673608516.887663,,,,9.127496,9.130738,2475077.000000,1673606980.937011
1673608516.887785,,,,9.140309,9.144032,2475078.000000,1673606980.938018
1673608516.887912,,,,9.144732,9.150547,2475079.000000,1673606980.939025
1673608516.888057,,,,9.153940,9.156750,2475080.000000,1673606980.940032
1673608516.889084,3.035116,2308780.000000,1673608516.878662,,,,
1673608516.889095,3.017027,2308781.000000,1673608516.879662,,,,
1673608516.889104,3.017027,2308782.000000,1673608516.880662,,,,
1673608516.889109,3.017027,2308783.000000,1673608516.881662,,,,
1673608516.889128,3.071295,2308784.000000,1673608516.882662,,,,
1673608516.889154,3.107481,2308785.000000,1673608516.883662,,,,
1673608516.889159,3.197926,2308786.000000,1673608516.884662,,,,
1673608516.889163,3.161748,2308787.000000,1673608516.885662,,,,
1673608516.889167,3.197926,2308788.000000,1673608516.886662,,,,
1673608516.889174,3.143659,2308789.000000,1673608516.887662,,,,
1673608516.892659,,,,9.172691,9.173939,2475081.000000,1673606980.941039
1673608516.892800,,,,9.194809,9.198028,2475082.000000,1673606980.942046
1673608516.893067,,,,9.194880,9.198051,2475083.000000,1673606980.943053
1673608516.893158,,,,9.169710,9.173218,2475084.000000,1673606980.944060
1673608516.893231,,,,9.147184,9.151509,2475085.000000,1673606980.945067
1673608516.893272,,,,9.138674,9.142926,2475086.000000,1673606980.946074
1673608516.893279,,,,9.161248,9.161895,2475087.000000,1673606980.947082
1673608516.896923,,,,9.166730,9.167328,2475088.000000,1673606980.948089
1673608516.896932,,,,9.146656,9.148168,2475089.000000,1673606980.949096
1673608516.897147,,,,9.128721,9.129103,2475090.000000,1673606980.950103
1673608516.897208,,,,9.106749,9.108548,2475091.000000,1673606980.951110
1673608516.897350,,,,9.100570,9.105110,2475092.000000,1673606980.952117
1673608516.897373,,,,9.104801,9.109101,2475093.000000,1673606980.953124
1673608516.897577,,,,9.109393,9.113765,2475094.000000,1673606980.954131
1673608516.897879,,,,9.112950,9.115832,2475095.000000,1673606980.955138
1673608516.897891,,,,9.111652,9.113188,2475096.000000,1673606980.956145
1673608516.898040,,,,9.119393,9.123502,2475097.000000,1673606980.957152
1673608516.898187,,,,9.140020,9.144897,2475098.000000,1673606980.958159
1673608516.900619,,,,9.152978,9.158288,2475099.000000,1673606980.959167
1673608516.900882,,,,9.162354,9.166029,2475100.000000,1673606980.960174
1673608516.901009,,,,9.175216,9.178386,2475101.000000,1673606980.961181
1673608516.901071,,,,9.180721,9.183026,2475102.000000,1673606980.962188
1673608516.901127,,,,9.174062,9.174419,2475103.000000,1673606980.963195
1673608516.901157,,,,9.166393,9.170213,2475104.000000,1673606980.964202
1673608516.901163,,,,9.149035,9.153048,2475105.000000,1673606980.965209
1673608516.901273,,,,9.134491,9.139681,2475106.000000,1673606980.966216
1673608516.901384,,,,9.137183,9.137950,2475107.000000,1673606980.967223
1673608516.901501,,,,9.134130,9.135378,2475108.000000,1673606980.968230
1673608516.904165,,,,9.126534,9.128911,2475109.000000,1673606980.969237
1673608516.904336,,,,9.118816,9.122396,2475110.000000,1673606980.970244
1673608516.904675,,,,9.108119,9.111193,2475111.000000,1673606980.971251
1673608516.904690,,,,9.098310,9.100687,2475112.000000,1673606980.972259
1673608516.904696,,,,9.100257,9.103741,2475113.000000,1673606980.973266
1673608516.904707,,,,9.112879,9.114991,2475114.000000,1673606980.974273
1673608516.904960,,,,9.115379,9.120040,2475115.000000,1673606980.975280
1673608516.905250,,,,9.116317,9.120280,2475116.000000,1673606980.976287
1673608516.905388,,,,9.118552,9.122131,2475117.000000,1673606980.977294
1673608516.905394,,,,9.128241,9.130161,2475118.000000,1673606980.978301
1673608516.905417,,,,9.134828,9.138239,2475119.000000,1673606980.979308
1673608516.907458,,,,9.141391,9.144657,2475120.000000,1673606980.980315
1673608516.907865,,,,9.149492,9.152422,2475121.000000,1673606980.981322
1673608516.907882,,,,9.149541,9.153625,2475122.000000,1673606980.982329
1673608516.908115,,,,9.156248,9.159635,2475123.000000,1673606980.983336
1673608516.908278,,,,9.166248,9.168602,2475124.000000,1673606980.984344
1673608516.908485,,,,9.167667,9.172496,2475125.000000,1673606980.985351
1673608516.908654,,,,9.161465,9.166174,2475126.000000,1673606980.986358
1673608516.911739,,,,9.159950,9.162976,2475127.000000,1673606980.987365
1673608516.911957,,,,9.128288,9.129319,2475128.000000,1673606980.988372
1673608516.912358,,,,9.118023,9.120400,2475129.000000,1673606980.989379
1673608516.912426,,,,9.129731,9.130593,2475130.000000,1673606980.990386
1673608516.912703,,,,9.120187,9.124223,2475131.000000,1673606980.991393
1673608516.913100,,,,9.108023,9.111265,2475132.000000,1673606980.992400
1673608516.913116,,,,9.090714,9.095687,2475133.000000,1673606980.993407
1673608516.913544,,,,9.084535,9.088114,2475134.000000,1673606980.994414
1673608516.913758,,,,9.078717,9.081094,2475135.000000,1673606980.995421
1673608516.913772,,,,9.066625,9.069242,2475136.000000,1673606980.996428
1673608516.913785,,,,9.064100,9.067055,2475137.000000,1673606980.997436
1673608516.919319,,,,9.079438,9.080493,2475138.000000,1673606980.998443
1673608516.919603,,,,9.107302,9.111121,2475139.000000,1673606980.999450
1673608516.919818,,,,9.144156,9.148889,2475140.000000,1673606981.000457
1673608516.920121,,,,9.180264,9.185189,2475141.000000,1673606981.001464
1673608516.920384,,,,9.206853,9.212356,2475142.000000,1673606981.002471
1673608516.920402,,,,9.212912,9.215649,2475143.000000,1673606981.003478
1673608516.920706,,,,9.189352,9.191969,2475144.000000,1673606981.004485
1673608516.933116,,,,9.166153,9.169179,2475145.000000,1673606981.005492
1673608516.933626,,,,9.168052,9.172184,2475146.000000,1673606981.006499
1673608516.933633,,,,9.170143,9.173482,2475147.000000,1673606981.007506
1673608516.933794,,,,9.162186,9.167232,2475148.000000,1673606981.008513
1673608516.933966,,,,9.150166,9.152182,2475149.000000,1673606981.009521
1673608516.934124,,,,9.129587,9.130713,2475150.000000,1673606981.010528
1673608516.934241,,,,9.100162,9.103404,2475151.000000,1673606981.011535
1673608516.938930,,,,9.100642,9.106553,2475152.000000,1673606981.012542
1673608516.938948,,,,9.110787,9.116795,2475153.000000,1673606981.013549
1673608516.938959,,,,9.112710,9.114534,2475154.000000,1673606981.014556
1673608516.938967,,,,9.103022,9.108164,2475155.000000,1673606981.015563
1673608516.942023,3.252202,2308790.000000,1673608516.881495,,,,
1673608516.942108,3.234104,2308791.000000,1673608516.882495,,,,
1673608516.942928,3.288380,2308792.000000,1673608516.883495,,,,
1673608516.942939,3.306469,2308793.000000,1673608516.884495,,,,
1673608516.942943,3.324558,2308794.000000,1673608516.885495,,,,
1673608516.942946,4.916485,2308841.000000,1673608516.932495,,,,
1673608516.943017,4.970761,2308842.000000,1673608516.933495,,,,
1673608516.943019,5.006939,2308843.000000,1673608516.934495,,,,
1673608516.943032,5.061214,2308844.000000,1673608516.935495,,,,
1673608516.943037,5.133571,2308845.000000,1673608516.936495,,,,
1673608516.943039,5.169749,2308846.000000,1673608516.937495,,,,
1673608516.943067,5.224024,2308847.000000,1673608516.938495,,,,
1673608516.943072,5.260202,2308848.000000,1673608516.939495,,,,
1673608516.943075,5.314469,2308849.000000,1673608516.940495,,,,
1673608516.943081,5.368745,2308850.000000,1673608516.941495,,,,
1673608516.944792,,,,9.111652,9.115424,2475156.000000,1673606981.016570
1673608516.945153,,,,9.121293,9.127155,2475157.000000,1673606981.017577
1673608516.945163,,,,9.123505,9.128551,2475158.000000,1673606981.018584
1673608516.945168,,,,9.127496,9.132661,2475159.000000,1673606981.019591
1673608516.946986,,,,9.127134,9.131988,2475160.000000,1673606981.020598
1673608516.947040,,,,9.132279,9.138022,2475161.000000,1673606981.021605
1673608516.952547,,,,9.156609,9.158481,2475162.000000,1673606981.022613
1673608516.952685,,,,9.172163,9.175357,2475163.000000,1673606981.023620
1673608516.952857,,,,9.168340,9.171487,2475164.000000,1673606981.024627
1673608516.953019,,,,9.170889,9.175285,2475165.000000,1673606981.025634
1673608516.953185,,,,9.175696,9.179083,2475166.000000,1673606981.026641
1673608516.953196,,,,9.167667,9.171102,2475167.000000,1673606981.027648
1673608516.953244,,,,9.151440,9.155932,2475168.000000,1673606981.028655
1673608516.953398,,,,9.143290,9.147422,2475169.000000,1673606981.029662
1673608516.954586,,,,9.140862,9.144609,2475170.000000,1673606981.030669
1673608516.954614,,,,9.129779,9.135258,2475171.000000,1673606981.031676
1673608516.954619,,,,9.115475,9.119319,2475172.000000,1673606981.032683
1673608516.960444,,,,9.103888,9.107587,2475173.000000,1673606981.033690
1673608516.960711,,,,9.102445,9.106914,2475174.000000,1673606981.034698
1673608516.960734,,,,9.109921,9.112852,2475175.000000,1673606981.035705
1673608516.960861,,,,9.117879,9.121121,2475176.000000,1673606981.036712
1673608516.962462,,,,9.141150,9.146004,2475177.000000,1673606981.037719
1673608516.962846,,,,9.147088,9.152687,2475178.000000,1673606981.038726
1673608516.962862,,,,9.139059,9.143647,2475179.000000,1673606981.039733
1673608516.963122,,,,9.132712,9.134464,2475180.000000,1673606981.040740
1673608516.967251,,,,9.125716,9.127348,2475181.000000,1673606981.041747
1673608516.967706,,,,9.119995,9.122444,2475182.000000,1673606981.042754
1673608516.967717,,,,9.136751,9.137469,2475183.000000,1673606981.043761
1673608516.969957,,,,9.151896,9.153865,2475184.000000,1673606981.044768
1673608516.970284,,,,9.150646,9.154971,2475185.000000,1673606981.045775
1673608516.970539,,,,9.180120,9.183675,2475186.000000,1673606981.046782
1673608516.970710,,,,9.181995,9.186512,2475187.000000,1673606981.047790
1673608516.970944,,,,9.146295,9.149249,2475188.000000,1673606981.048797
1673608516.971164,,,,9.138843,9.141315,2475189.000000,1673606981.049804
1673608516.971301,,,,9.137856,9.141965,2475190.000000,1673606981.050811
1673608516.975876,,,,9.124034,9.128285,2475191.000000,1673606981.051818
1673608516.975904,,,,9.118552,9.123333,2475192.000000,1673606981.052825
1673608516.975989,,,,9.119514,9.125954,2475193.000000,1673606981.053832
1673608516.976162,,,,9.117662,9.123189,2475194.000000,1673606981.054839
1673608516.976187,,,,9.122808,9.128671,2475195.000000,1673606981.055846
1673608516.976198,,,,9.143458,9.148359,2475196.000000,1673606981.056853
1673608516.976956,,,,9.152353,9.156653,2475197.000000,1673606981.057860
1673608516.977181,,,,9.145694,9.149153,2475198.000000,1673606981.058867
1673608516.977213,,,,9.149636,9.149657,2475199.000000,1673606981.059875
1673608516.977229,,,,9.158051,9.157760,2475200.000000,1673606981.060882
1673608516.977523,,,,9.159060,9.163481,2475201.000000,1673606981.061889
1673608516.977805,,,,9.172956,9.175862,2475202.000000,1673606981.062896
1673608516.978166,,,,9.180024,9.182209,2475203.000000,1673606981.063903
1673608516.978247,,,,9.175817,9.178555,2475204.000000,1673606981.064910
1673608516.978528,,,,9.168797,9.169250,2475205.000000,1673606981.065917
1673608516.984743,,,,9.157979,9.161919,2475206.000000,1673606981.066924
1673608516.984912,,,,9.152377,9.157063,2475207.000000,1673606981.067931
1673608516.985048,,,,9.124875,9.130377,2475208.000000,1673606981.068938
1673608516.995038,5.423012,2308851.000000,1673608516.934333,,,,
1673608516.995065,5.404923,2308852.000000,1673608516.935333,,,,
1673608516.995157,5.477287,2308853.000000,1673608516.936333,,,,
1673608516.996050,5.567733,2308854.000000,1673608516.937333,,,,
1673608516.996060,5.676275,2308855.000000,1673608516.938333,,,,
1673608516.996064,5.712453,2308856.000000,1673608516.939333,,,,
1673608516.996068,5.676275,2308857.000000,1673608516.940333,,,,
1673608516.996101,5.748631,2308858.000000,1673608516.941333,,,,
1673608516.996108,7.069215,2308902.000000,1673608516.985333,,,,
1673608516.996112,7.123482,2308903.000000,1673608516.986333,,,,
1673608516.996118,7.141572,2308904.000000,1673608516.987333,,,,
1673608516.996121,7.159669,2308905.000000,1673608516.988333,,,,
1673608516.996149,7.232025,2308906.000000,1673608516.989333,,,,
1673608516.996154,7.268203,2308907.000000,1673608516.990333,,,,
1673608516.996180,7.304389,2308908.000000,1673608516.991333,,,,
1673608516.996185,7.322478,2308909.000000,1673608516.992333,,,,
1673608516.996190,7.286292,2308910.000000,1673608516.993333,,,,
1673608516.996192,7.358656,2308911.000000,1673608516.994333,,,,
1673608516.997280,,,,9.113503,9.116915,2475209.000000,1673606981.069945
1673608516.997412,,,,9.100162,9.103932,2475210.000000,1673606981.070952
1673608516.997631,,,,9.103190,9.107034,2475211.000000,1673606981.071959
1673608516.997761,,,,9.104465,9.109318,2475212.000000,1673606981.072967
1673608516.999506,,,,9.098454,9.101648,2475213.000000,1673606981.073974
1673608516.999648,,,,9.099416,9.103235,2475214.000000,1673606981.074981
1673608516.999785,,,,9.102950,9.105230,2475215.000000,1673606981.075988
1673608517.004779,,,,9.112302,9.112924,2475216.000000,1673606981.076995
1673608517.005012,,,,9.128337,9.126867,2475217.000000,1673606981.078002
1673608517.005022,,,,9.146776,9.145523,2475218.000000,1673606981.079009
1673608517.007187,,,,9.157883,9.160836,2475219.000000,1673606981.080016
1673608517.007200,,,,9.162691,9.168770,2475220.000000,1673606981.081023
1673608517.007411,,,,9.163460,9.168818,2475221.000000,1673606981.082030
1673608517.007576,,,,9.153531,9.157807,2475222.000000,1673606981.083037
1673608517.007699,,,,9.140189,9.142278,2475223.000000,1673606981.084044
1673608517.012532,,,,9.128650,9.129825,2475224.000000,1673606981.085052
1673608517.012941,,,,9.118119,9.119679,2475225.000000,1673606981.086059
1673608517.013486,,,,9.115715,9.119727,2475226.000000,1673606981.087066
1673608517.013502,,,,9.111989,9.117924,2475227.000000,1673606981.088073
1673608517.013525,,,,9.115932,9.117516,2475228.000000,1673606981.089080
1673608517.013540,,,,9.119538,9.120160,2475229.000000,1673606981.090087
1673608517.014792,,,,9.095641,9.099173,2475230.000000,1673606981.091094
1673608517.014829,,,,9.074630,9.077825,2475231.000000,1673606981.092101
1673608517.015011,,,,9.066264,9.070973,2475232.000000,1673606981.093108
1673608517.015031,,,,9.076289,9.077344,2475233.000000,1673606981.094115
1673608517.020416,,,,9.093670,9.093716,2475234.000000,1673606981.095122
1673608517.020430,,,,9.114730,9.119054,2475235.000000,1673606981.096129
1673608517.020731,,,,9.129491,9.132877,2475236.000000,1673606981.097136
1673608517.020843,,,,9.122639,9.124270,2475237.000000,1673606981.098144
1673608517.022520,,,,9.103142,9.105495,2475238.000000,1673606981.099151
1673608517.022853,,,,9.102229,9.102707,2475239.000000,1673606981.100158
1673608517.023958,,,,9.113864,9.114607,2475240.000000,1673606981.101165
1673608517.023971,,,,9.114898,9.119414,2475241.000000,1673606981.102172
1673608517.023976,,,,9.118336,9.121987,2475242.000000,1673606981.103179
1673608517.024267,,,,9.120427,9.124247,2475243.000000,1673606981.104186
1673608517.027616,,,,9.124515,9.127732,2475244.000000,1673606981.105193
1673608517.028308,,,,9.132784,9.136868,2475245.000000,1673606981.106200
1673608517.028463,,,,9.131510,9.136796,2475246.000000,1673606981.107207
1673608517.028481,,,,9.146536,9.151629,2475247.000000,1673606981.108214
1673608517.028490,,,,9.149108,9.154298,2475248.000000,1673606981.109221
1673608517.028898,,,,9.152017,9.153865,2475249.000000,1673606981.110229
1673608517.028916,,,,9.125356,9.127517,2475250.000000,1673606981.111236
1673608517.030048,,,,9.094944,9.101793,2475251.000000,1673606981.112243
1673608517.030475,,,,9.097805,9.103812,2475252.000000,1673606981.113250
1673608517.030939,,,,9.093719,9.097225,2475253.000000,1673606981.114257
1673608517.031159,,,,9.097781,9.098692,2475254.000000,1673606981.115264
1673608517.031174,,,,9.105762,9.104966,2475255.000000,1673606981.116271
1673608517.031180,,,,9.095185,9.096240,2475256.000000,1673606981.117278
1673608517.031201,,,,9.105691,9.107995,2475257.000000,1673606981.118285
1673608517.031251,,,,9.113312,9.116866,2475258.000000,1673606981.119292
1673608517.034960,,,,9.121750,9.125881,2475259.000000,1673606981.120299
1673608517.035154,,,,9.135092,9.136724,2475260.000000,1673606981.121306
1673608517.035301,,,,9.135814,9.138767,2475261.000000,1673606981.122313
1673608517.035524,,,,9.159830,9.163409,2475262.000000,1673606981.123321
1673608517.035648,,,,9.188198,9.189517,2475263.000000,1673606981.124328
1673608517.035787,,,,9.178245,9.180358,2475264.000000,1673606981.125335
1673608517.051232,,,,9.152641,9.155115,2475265.000000,1673606981.126342
1673608517.051244,,,,9.137400,9.137517,2475266.000000,1673606981.127349
1673608517.051265,,,,9.101964,9.101480,2475267.000000,1673606981.128356
1673608517.051347,,,,9.069366,9.072248,2475268.000000,1673606981.129363
1673608517.059076,,,,9.052994,9.055346,2475269.000000,1673606981.130370
1673608517.059568,,,,9.044844,9.047894,2475270.000000,1673606981.131377
1673608517.059835,,,,9.044147,9.046524,2475271.000000,1673606981.132384
1673608517.059852,,,,9.042993,9.046716,2475272.000000,1673606981.133391
1673608517.059865,,,,9.038449,9.043230,2475273.000000,1673606981.134398
1673608517.059967,,,,9.054148,9.057583,2475274.000000,1673606981.135406
1673608517.060141,,,,9.065880,9.068473,2475275.000000,1673606981.136413
1673608517.061153,9.764642,2308963.000000,1673608517.049634,,,,
1673608517.061168,9.746552,2308964.000000,1673608517.050634,,,,
1673608517.061186,9.764642,2308965.000000,1673608517.051634,,,,
1673608517.061192,9.945540,2308966.000000,1673608517.052634,,,,
1673608517.061223,9.927451,2308967.000000,1673608517.053634,,,,
1673608517.061231,10.035994,2308968.000000,1673608517.054634,,,,
1673608517.061237,10.072172,2308969.000000,1673608517.055634,,,,
1673608517.061249,10.108358,2308970.000000,1673608517.056634,,,,
1673608517.061254,10.253078,2308971.000000,1673608517.057634,,,,
1673608517.061322,10.216892,2308972.000000,1673608517.058634,,,,
1673608517.064706,,,,9.039700,9.042028,2475276.000000,1673606981.137420
1673608517.065149,,,,9.014096,9.017747,2475277.000000,1673606981.138427
1673608517.065163,,,,8.997797,9.003635,2475278.000000,1673606981.139434
1673608517.065216,,,,9.021837,9.025897,2475279.000000,1673606981.140441
1673608517.067143,,,,9.071745,9.074410,2475280.000000,1673606981.141448
1673608517.067551,,,,9.075688,9.079459,2475281.000000,1673606981.142455
1673608517.067755,,,,9.074101,9.076141,2475282.000000,1673606981.143462
1673608517.067791,,,,9.114923,9.118886,2475283.000000,1673606981.144469
1673608517.072243,,,,9.155046,9.155379,2475284.000000,1673606981.145476
1673608517.072390,,,,9.174879,9.175790,2475285.000000,1673606981.146483
1673608517.072637,,,,9.165094,9.167665,2475286.000000,1673606981.147491
1673608517.072930,,,,9.152184,9.155066,2475287.000000,1673606981.148498
1673608517.074735,,,,9.144636,9.146461,2475288.000000,1673606981.149505
1673608517.074859,,,,9.133506,9.134993,2475289.000000,1673606981.150512
1673608517.080599,,,,9.120980,9.123285,2475290.000000,1673606981.151519
1673608517.080762,,,,9.092973,9.097730,2475291.000000,1673606981.152526
1673608517.080788,,,,9.058403,9.063184,2475292.000000,1673606981.153533
1673608517.080800,,,,9.033569,9.035249,2475293.000000,1673606981.154540
1673608517.082222,,,,9.027751,9.029119,2475294.000000,1673606981.155547
1673608517.082233,,,,9.033617,9.036114,2475295.000000,1673606981.156554
1673608517.082598,,,,9.031165,9.035898,2475296.000000,1673606981.157561
1673608517.087696,,,,9.050157,9.055395,2475297.000000,1673606981.158568
1673608517.087916,,,,9.074919,9.076623,2475298.000000,1673606981.159575
1673608517.088161,,,,9.089656,9.090566,2475299.000000,1673606981.160583
1673608517.088179,,,,9.099680,9.104053,2475300.000000,1673606981.161590
1673608517.088334,,,,9.103527,9.107587,2475301.000000,1673606981.162597
1673608517.088355,,,,9.120740,9.124487,2475302.000000,1673606981.163604
1673608517.088581,,,,9.125403,9.127541,2475303.000000,1673606981.164611
1673608517.088654,,,,9.112806,9.113717,2475304.000000,1673606981.165618
1673608517.089833,,,,9.107302,9.109991,2475305.000000,1673606981.166625
1673608517.089987,,,,9.113792,9.117756,2475306.000000,1673606981.167632
1673608517.090221,,,,9.095449,9.099653,2475307.000000,1673606981.168639
1673608517.090229,,,,9.091338,9.093451,2475308.000000,1673606981.169646
1673608517.090315,,,,9.100883,9.105519,2475309.000000,1673606981.170653
1673608517.090324,,,,9.108214,9.111482,2475310.000000,1673606981.171660
1673608517.090339,,,,9.105282,9.107780,2475311.000000,1673606981.172668
1673608517.094801,,,,9.089030,9.089628,2475312.000000,1673606981.173675
1673608517.094936,,,,9.071240,9.073377,2475313.000000,1673606981.174682
1673608517.094946,,,,9.056335,9.058664,2475314.000000,1673606981.175689
1673608517.097184,,,,9.030083,9.031547,2475315.000000,1673606981.176696
1673608517.097212,,,,9.024866,9.028662,2475316.000000,1673606981.177703
1673608517.097383,,,,9.030588,9.035056,2475317.000000,1673606981.178710
1673608517.097485,,,,9.025347,9.027339,2475318.000000,1673606981.179717
1673608517.097632,,,,9.011860,9.014982,2475319.000000,1673606981.180724
1673608517.111399,,,,9.073596,9.075733,2475320.000000,1673606981.181731
1673608517.111416,,,,9.103671,9.107611,2475321.000000,1673606981.182738
1673608517.119132,,,,9.065784,9.068304,2475322.000000,1673606981.183745
1673608517.119524,,,,9.044892,9.048567,2475323.000000,1673606981.184752
1673608517.119602,,,,9.029891,9.033061,2475324.000000,1673606981.185760
1673608517.119877,,,,9.003302,9.006544,2475325.000000,1673606981.186767
1673608517.120100,,,,8.999864,9.003202,2475326.000000,1673606981.187774
1673608517.120138,,,,9.027150,9.029527,2475327.000000,1673606981.188781
1673608517.120144,,,,9.026670,9.032147,2475328.000000,1673606981.189788
1673608517.120170,,,,9.012365,9.015872,2475329.000000,1673606981.190795
1673608517.124493,10.343524,2308973.000000,1673608517.063757,,,,
1673608517.125029,,,,8.952095,8.952645,2475330.000000,1673606981.191802
1673608517.125174,10.886229,2308981.000000,1673608517.071757,,,,
1673608517.125264,10.886229,2308982.000000,1673608517.072757,,,,
1673608517.125453,10.976683,2308983.000000,1673608517.073757,,,,
1673608517.125474,10.994771,2308984.000000,1673608517.074757,,,,
1673608517.125657,11.067127,2308985.000000,1673608517.075757,,,,
1673608517.125749,11.157581,2308986.000000,1673608517.076757,,,,
1673608517.126036,,,,8.856053,8.856339,2475331.000000,1673606981.192809
1673608517.126059,,,,8.860669,8.862517,2475332.000000,1673606981.193816
1673608517.126331,11.229946,2308987.000000,1673608517.077757,,,,
1673608517.126452,,,,8.940868,8.943823,2475333.000000,1673606981.194823
1673608517.126467,,,,9.039844,9.044841,2475334.000000,1673606981.195830
1673608517.126578,11.302302,2308988.000000,1673608517.078757,,,,
1673608517.126766,,,,9.099752,9.105255,2475335.000000,1673606981.196837
1673608517.126805,,,,9.134010,9.138551,2475336.000000,1673606981.197845
1673608517.127103,,,,9.133217,9.136099,2475337.000000,1673606981.198852
1673608517.127443,,,,9.140117,9.142879,2475338.000000,1673606981.199859
1673608517.127855,,,,9.179327,9.184324,2475339.000000,1673606981.200866
1673608517.127908,,,,9.201132,9.206322,2475340.000000,1673606981.201873
1673608517.128036,11.410845,2308989.000000,1673608517.079757,,,,
1673608517.128060,11.519387,2308990.000000,1673608517.080757,,,,
1673608517.128072,14.214813,2309024.000000,1673608517.114757,,,,
1673608517.128079,14.232903,2309025.000000,1673608517.115757,,,,
1673608517.128093,14.287178,2309026.000000,1673608517.116757,,,,
1673608517.128103,14.486166,2309027.000000,1673608517.117757,,,,
1673608517.128135,14.540433,2309028.000000,1673608517.118757,,,,
1673608517.128144,14.576619,2309029.000000,1673608517.119757,,,,
1673608517.128156,14.685153,2309030.000000,1673608517.120757,,,,
1673608517.128184,14.739429,2309031.000000,1673608517.121757,,,,
1673608517.128193,14.847972,2309032.000000,1673608517.122757,,,,
1673608517.128202,14.974595,2309033.000000,1673608517.123757,,,,
1673608517.132724,,,,9.180793,9.183844,2475341.000000,1673606981.202880
1673608517.132808,,,,9.162786,9.167953,2475342.000000,1673606981.203887
1673608517.132821,,,,9.143915,9.150740,2475343.000000,1673606981.204894
1673608517.132832,,,,9.131943,9.134488,2475344.000000,1673606981.205901
1673608517.134540,,,,9.125259,9.126410,2475345.000000,1673606981.206908
1673608517.134693,,,,9.140645,9.143239,2475346.000000,1673606981.207915
1673608517.139820,,,,9.173100,9.177713,2475347.000000,1673606981.208922
1673608517.139946,,,,9.154421,9.160404,2475348.000000,1673606981.209929
1673608517.140127,,,,9.081362,9.084892,2475349.000000,1673606981.210937
1673608517.140160,,,,9.065471,9.069579,2475350.000000,1673606981.211944
1673608517.142357,,,,9.072322,9.076887,2475351.000000,1673606981.212951
1673608517.142441,,,,9.078237,9.082513,2475352.000000,1673606981.213958
1673608517.142539,,,,9.040108,9.042389,2475353.000000,1673606981.214965
1673608517.142668,,,,9.026525,9.031090,2475354.000000,1673606981.215972
1673608517.142803,,,,9.063932,9.067872,2475355.000000,1673606981.216979
1673608517.142899,,,,9.065518,9.068954,2475356.000000,1673606981.217986
1673608517.142999,,,,9.029795,9.032941,2475357.000000,1673606981.218993
1673608517.147503,,,,9.053451,9.057654,2475358.000000,1673606981.220000
1673608517.147721,,,,9.085905,9.089821,2475359.000000,1673606981.221007
1673608517.147921,,,,9.100065,9.106577,2475360.000000,1673606981.222014
1673608517.147931,,,,9.101123,9.105039,2475361.000000,1673606981.223022
1673608517.148065,,,,9.112326,9.115280,2475362.000000,1673606981.224029
1673608517.148207,,,,9.142040,9.147999,2475363.000000,1673606981.225036
1673608517.148358,,,,9.174375,9.176775,2475364.000000,1673606981.226043
1673608517.149858,,,,9.171730,9.173890,2475365.000000,1673606981.227050
1673608517.149936,,,,9.140550,9.143359,2475366.000000,1673606981.228057
1673608517.150042,,,,9.094920,9.097081,2475367.000000,1673606981.229064
1673608517.150167,,,,9.071817,9.074916,2475368.000000,1673606981.230071
1673608517.150285,,,,9.045469,9.048206,2475369.000000,1673606981.231078
1673608517.150296,,,,8.999743,9.004116,2475370.000000,1673606981.232085
1673608517.150532,,,,8.984454,8.989908,2475371.000000,1673606981.233092
1673608517.150653,,,,8.975463,8.980436,2475372.000000,1673606981.234099
1673608517.154815,,,,8.959957,8.963367,2475373.000000,1673606981.235106
1673608517.154928,,,,8.951303,8.951395,2475374.000000,1673606981.236114
1673608517.154942,,,,8.949932,8.949857,2475375.000000,1673606981.237121
1673608517.155042,,,,8.985632,8.989740,2475376.000000,1673606981.238128
1673608517.165075,,,,9.010466,9.012410,2475377.000000,1673606981.239135
1673608517.165560,,,,9.005970,9.011016,2475378.000000,1673606981.240142
1673608517.165702,,,,9.024145,9.030056,2475379.000000,1673606981.241149
1673608517.179776,,,,9.099801,9.102178,2475380.000000,1673606981.242156
1673608517.179816,,,,9.145766,9.150234,2475381.000000,1673606981.243163
1673608517.180379,,,,9.157954,9.161678,2475382.000000,1673606981.244170
1673608517.181940,,,,9.136582,9.142133,2475383.000000,1673606981.245177
1673608517.182122,,,,9.105931,9.111217,2475384.000000,1673606981.246184
1673608517.182218,,,,9.110282,9.112636,2475385.000000,1673606981.247191
1673608517.182231,,,,9.111075,9.111818,2475386.000000,1673606981.248199
1673608517.182300,,,,9.129274,9.131459,2475387.000000,1673606981.249206
1673608517.182308,,,,9.131775,9.134752,2475388.000000,1673606981.250213
1673608517.182353,,,,9.103623,9.107755,2475389.000000,1673606981.251220
1673608517.182382,,,,9.073909,9.077224,2475390.000000,1673606981.252227
1673608517.187097,,,,9.078645,9.083161,2475391.000000,1673606981.253234
1673608517.187124,,,,9.106003,9.111385,2475392.000000,1673606981.254241
1673608517.187134,,,,9.079222,9.084364,2475393.000000,1673606981.255248
1673608517.187156,,,,9.046478,9.047293,2475394.000000,1673606981.256255
1673608517.187290,,,,9.017221,9.018180,2475395.000000,1673606981.257262
1673608517.187816,,,,9.050397,9.054890,2475396.000000,1673606981.258269
1673608517.187829,,,,9.108456,9.112443,2475397.000000,1673606981.259276
1673608517.187843,,,,9.133626,9.134512,2475398.000000,1673606981.260283
1673608517.187883,,,,9.134972,9.138960,2475399.000000,1673606981.261291
1673608517.187896,,,,9.126149,9.130233,2475400.000000,1673606981.262298
1673608517.190620,15.010781,2309034.000000,1673608517.130184,,,,
1673608517.191146,15.119315,2309035.000000,1673608517.131184,,,,
1673608517.191163,18.664986,2309068.000000,1673608517.164184,,,,
1673608517.191471,18.827795,2309069.000000,1673608517.165184,,,,
1673608517.191478,18.936338,2309070.000000,1673608517.166184,,,,
1673608517.191480,19.099148,2309071.000000,1673608517.167184,,,,
1673608517.191488,19.243868,2309072.000000,1673608517.168184,,,,
1673608517.191499,19.388588,2309073.000000,1673608517.169184,,,,
1673608517.191515,19.479042,2309074.000000,1673608517.170184,,,,
1673608517.191526,19.659941,2309075.000000,1673608517.171184,,,,
1673608517.191532,19.786573,2309076.000000,1673608517.172184,,,,
1673608517.191552,19.985561,2309077.000000,1673608517.173184,,,,
1673608517.191556,21.107147,2309085.000000,1673608517.181184,,,,
1673608517.191561,21.215691,2309086.000000,1673608517.182184,,,,
1673608517.191565,21.378500,2309087.000000,1673608517.183184,,,,
1673608517.191586,21.559408,2309088.000000,1673608517.184184,,,,
1673608517.191591,21.686031,2309089.000000,1673608517.185184,,,,
1673608517.191597,21.830751,2309090.000000,1673608517.186184,,,,
1673608517.191602,21.939295,2309091.000000,1673608517.187184,,,,
1673608517.191607,22.138290,2309092.000000,1673608517.188184,,,,
1673608517.191611,22.301100,2309093.000000,1673608517.189184,,,,
1673608517.191646,22.391544,2309094.000000,1673608517.190184,,,,
1673608517.192710,,,,9.113215,9.116650,2475401.000000,1673606981.263305
1673608517.192826,,,,9.100113,9.103091,2475402.000000,1673606981.264312
1673608517.192836,,,,9.055470,9.057101,2475403.000000,1673606981.265319
1673608517.192849,,,,8.999432,9.000294,2475404.000000,1673606981.266326
1673608517.192921,,,,8.968371,8.967550,2475405.000000,1673606981.267333
1673608517.192927,,,,8.940965,8.942500,2475406.000000,1673606981.268340
1673608517.192941,,,,8.904279,8.907401,2475407.000000,1673606981.269347
1673608517.202999,,,,8.880599,8.884683,2475408.000000,1673606981.270354
1673608517.203325,,,,8.869613,8.871124,2475409.000000,1673606981.271361
1673608517.203498,,,,8.882570,8.883889,2475410.000000,1673606981.272368
1673608517.203590,,,,8.927742,8.927835,2475411.000000,1673606981.273376
1673608517.203661,,,,8.985079,8.987096,2475412.000000,1673606981.274383
1673608517.203724,,,,9.095185,9.098692,2475413.000000,1673606981.275390
1673608517.204138,,,,9.180024,9.184492,2475414.000000,1673606981.276397
1673608517.204151,,,,9.174686,9.177929,2475415.000000,1673606981.277404
1673608517.204155,,,,9.151800,9.153985,2475416.000000,1673606981.278411
1673608517.204162,,,,9.112062,9.117083,2475417.000000,1673606981.279418
1673608517.204174,,,,9.086891,9.091167,2475418.000000,1673606981.280425
1673608517.207833,,,,9.087132,9.092633,2475419.000000,1673606981.281432
1673608517.208181,,,,9.103960,9.110303,2475420.000000,1673606981.282439
1673608517.208404,,,,9.090160,9.095567,2475421.000000,1673606981.283446
1673608517.208423,,,,9.087035,9.093042,2475422.000000,1673606981.284453
1673608517.208582,,,,9.093815,9.096768,2475423.000000,1673606981.285460
1673608517.208956,,,,9.096627,9.099293,2475424.000000,1673606981.286468
1673608517.208965,,,,9.074558,9.077536,2475425.000000,1673606981.287475
1673608517.209210,,,,9.051263,9.055323,2475426.000000,1673606981.288482
1673608517.209382,,,,9.049965,9.052846,2475427.000000,1673606981.289489
1673608517.209573,,,,9.032439,9.034095,2475428.000000,1673606981.290496
1673608517.210000,,,,9.019025,9.023205,2475429.000000,1673606981.291503
1673608517.210018,,,,9.034698,9.036860,2475430.000000,1673606981.292510
1673608517.210031,,,,9.029025,9.033975,2475431.000000,1673606981.293517
1673608517.210165,,,,8.973059,8.978201,2475432.000000,1673606981.294524
1673608517.210413,,,,8.954283,8.960386,2475433.000000,1673606981.295531
1673608517.210569,,,,8.969741,8.974042,2475434.000000,1673606981.296538
1673608517.210761,,,,8.989887,8.993923,2475435.000000,1673606981.297545
1673608517.210876,,,,9.046503,9.050971,2475436.000000,1673606981.298553
1673608517.215043,,,,9.066144,9.067896,2475437.000000,1673606981.299560
1673608517.215310,,,,9.024795,9.026594,2475438.000000,1673606981.300567
1673608517.215449,,,,9.040829,9.044528,2475439.000000,1673606981.301574
1673608517.215808,,,,9.080256,9.081911,2475440.000000,1673606981.302581
1673608517.215897,,,,9.073164,9.076574,2475441.000000,1673606981.303588
1673608517.215906,,,,9.033233,9.034648,2475442.000000,1673606981.304595
1673608517.215941,,,,8.970895,8.973320,2475443.000000,1673606981.305602
1673608517.222263,,,,8.935075,8.938437,2475444.000000,1673606981.306609
1673608517.222468,,,,8.942263,8.947165,2475445.000000,1673606981.307616
1673608517.222742,,,,8.965005,8.970339,2475446.000000,1673606981.308623
1673608517.223112,,,,8.938657,8.941395,2475447.000000,1673606981.309630
1673608517.238863,,,,8.913703,8.913411,2475448.000000,1673606981.310637
1673608517.238975,,,,8.867809,8.870138,2475449.000000,1673606981.311645
1673608517.245899,,,,8.863026,8.867229,2475450.000000,1673606981.312652
1673608517.246280,,,,8.889614,8.893049,2475451.000000,1673606981.313659
1673608517.246292,,,,8.901010,8.905117,2475452.000000,1673606981.314666
1673608517.246536,,,,8.933704,8.935793,2475453.000000,1673606981.315673
1673608517.252479,,,,8.969693,8.971421,2475454.000000,1673606981.316680
1673608517.252712,,,,8.978444,8.980509,2475455.000000,1673606981.317687
1673608517.252723,,,,8.978588,8.980893,2475456.000000,1673606981.318694
1673608517.252729,,,,8.926733,8.930552,2475457.000000,1673606981.319701
1673608517.254912,22.536274,2309095.000000,1673608517.194242,,,,
1673608517.254919,,,,8.936085,8.937140,2475458.000000,1673606981.320708
1673608517.254943,,,,9.054725,9.058568,2475459.000000,1673606981.321715
1673608517.255134,,,,9.177019,9.182113,2475460.000000,1673606981.322722
1673608517.255221,22.662897,2309096.000000,1673608517.195242,,,,
1673608517.255264,,,,9.281259,9.286689,2475461.000000,1673606981.323730
1673608517.255453,,,,9.279937,9.281833,2475462.000000,1673606981.324737
1673608517.255612,,,,9.211661,9.212212,2475463.000000,1673606981.325744
1673608517.255647,,,,9.168099,9.173265,2475464.000000,1673606981.326751
1673608517.255781,22.825716,2309097.000000,1673608517.196242,,,,
1673608517.255794,23.060881,2309098.000000,1673608517.197242,,,,
1673608517.255801,23.205603,2309099.000000,1673608517.198242,,,,
1673608517.255805,23.350323,2309100.000000,1673608517.199242,,,,
1673608517.256205,23.567408,2309101.000000,1673608517.200242,,,,
1673608517.256214,23.694040,2309102.000000,1673608517.201242,,,,
1673608517.256220,30.604464,2309146.000000,1673608517.245242,,,,
1673608517.256223,30.749184,2309147.000000,1673608517.246242,,,,
1673608517.257381,30.893906,2309148.000000,1673608517.247242,,,,
1673608517.257400,31.020536,2309149.000000,1673608517.248242,,,,
1673608517.257411,31.183346,2309150.000000,1673608517.249242,,,,
1673608517.257419,31.328068,2309151.000000,1673608517.250242,,,,
1673608517.257437,31.490885,2309152.000000,1673608517.251242,,,,
1673608517.257445,31.617508,2309153.000000,1673608517.252242,,,,
1673608517.257450,31.780327,2309154.000000,1673608517.253242,,,,
1673608517.257453,31.906958,2309155.000000,1673608517.254242,,,,
1673608517.260115,,,,9.130452,9.135642,2475465.000000,1673606981.327758
1673608517.260237,,,,9.083453,9.086383,2475466.000000,1673606981.328765
1673608517.260347,,,,9.064630,9.069795,2475467.000000,1673606981.329772
1673608517.260527,,,,9.073428,9.078498,2475468.000000,1673606981.330779
1673608517.260788,,,,9.084247,9.088186,2475469.000000,1673606981.331786
1673608517.260797,,,,9.095641,9.099149,2475470.000000,1673606981.332793
1673608517.260802,,,,9.107974,9.111746,2475471.000000,1673606981.333800
1673608517.262119,,,,9.135308,9.137469,2475472.000000,1673606981.334807
1673608517.262129,,,,9.123769,9.126266,2475473.000000,1673606981.335814
1673608517.262179,,,,9.088237,9.092513,2475474.000000,1673606981.336822
1673608517.262187,,,,9.084583,9.087994,2475475.000000,1673606981.337829
1673608517.267190,,,,9.082973,9.085109,2475476.000000,1673606981.338836
1673608517.267323,,,,9.124202,9.125569,2475477.000000,1673606981.339843
1673608517.267343,,,,9.158291,9.161919,2475478.000000,1673606981.340850
1673608517.269772,,,,9.163436,9.168337,2475479.000000,1673606981.341857
1673608517.269782,,,,9.179087,9.183314,2475480.000000,1673606981.342864
1673608517.269789,,,,9.173725,9.176871,2475481.000000,1673606981.343871
1673608517.269794,,,,9.126269,9.131002,2475482.000000,1673606981.344878
1673608517.275021,,,,9.088020,9.093427,2475483.000000,1673606981.345885
1673608517.275261,,,,9.076313,9.078762,2475484.000000,1673606981.346892
1673608517.275382,,,,9.064821,9.068737,2475485.000000,1673606981.347899
1673608517.275644,,,,9.061144,9.064747,2475486.000000,1673606981.348907
1673608517.275827,,,,9.060542,9.064074,2475487.000000,1673606981.349914
1673608517.276076,,,,9.055374,9.058496,2475488.000000,1673606981.350921
1673608517.277496,,,,9.052176,9.058544,2475489.000000,1673606981.351928
1673608517.277816,,,,9.031213,9.037076,2475490.000000,1673606981.352935
1673608517.277935,,,,9.021981,9.025728,2475491.000000,1673606981.353942
1673608517.278199,,,,9.052320,9.054457,2475492.000000,1673606981.354949
1673608517.278241,,,,9.089223,9.089941,2475493.000000,1673606981.355956
1673608517.278251,,,,9.091218,9.094316,2475494.000000,1673606981.356963
1673608517.278621,,,,9.077611,9.081551,2475495.000000,1673606981.357970
1673608517.278919,,,,9.038113,9.040802,2475496.000000,1673606981.358977
1673608517.282478,,,,9.003567,9.004645,2475497.000000,1673606981.359984
1673608517.282792,,,,9.019289,9.022195,2475498.000000,1673606981.360991
1673608517.283066,,,,9.019457,9.021618,2475499.000000,1673606981.361999
1673608517.283300,,,,9.028424,9.033686,2475500.000000,1673606981.363006
1673608517.284761,,,,9.064630,9.068112,2475501.000000,1673606981.364013
1673608517.284783,,,,9.114249,9.114246,2475502.000000,1673606981.365020
1673608517.284799,,,,9.134563,9.136603,2475503.000000,1673606981.366027
1673608517.299069,,,,9.115620,9.118285,2475504.000000,1673606981.367034
1673608517.299440,,,,9.083886,9.086359,2475505.000000,1673606981.368041
1673608517.299961,,,,9.033978,9.038494,2475506.000000,1673606981.369048
1673608517.305926,,,,8.988229,8.992649,2475507.000000,1673606981.370055
1673608517.306115,,,,8.993566,8.996544,2475508.000000,1673606981.371062
1673608517.306324,,,,9.011403,9.015079,2475509.000000,1673606981.372069
1673608517.306464,,,,9.021091,9.023517,2475510.000000,1673606981.373076
1673608517.308807,42.164055,2309207.000000,1673608517.298657,,,,
1673608517.308815,42.363045,2309208.000000,1673608517.299657,,,,
1673608517.308820,42.525860,2309209.000000,1673608517.300657,,,,
1673608517.308826,42.761028,2309210.000000,1673608517.301657,,,,
1673608517.308854,42.923836,2309211.000000,1673608517.302657,,,,
1673608517.308859,43.086655,2309212.000000,1673608517.303657,,,,
1673608517.308878,43.303734,2309213.000000,1673608517.304657,,,,
1673608517.308893,43.448452,2309214.000000,1673608517.305657,,,,
1673608517.308898,43.629353,2309215.000000,1673608517.306657,,,,
1673608517.308919,43.900703,2309216.000000,1673608517.307657,,,,
1673608517.312404,,,,9.035973,9.038614,2475511.000000,1673606981.374084
1673608517.312877,,,,9.055253,9.057294,2475512.000000,1673606981.375091
1673608517.312905,,,,9.037608,9.041283,2475513.000000,1673606981.376098
1673608517.312914,,,,9.054749,9.060059,2475514.000000,1673606981.377105
1673608517.314953,,,,9.076577,9.078305,2475515.000000,1673606981.378112
1673608517.315089,,,,9.072924,9.077368,2475516.000000,1673606981.379119
1673608517.315151,,,,9.075279,9.079628,2475517.000000,1673606981.380126
1673608517.315344,,,,9.063090,9.067391,2475518.000000,1673606981.381133
1673608517.315452,,,,9.042560,9.046331,2475519.000000,1673606981.382140
1673608517.315585,,,,9.044556,9.048375,2475520.000000,1673606981.383147
1673608517.315720,,,,9.042752,9.048495,2475521.000000,1673606981.384154
1673608517.322416,,,,9.056600,9.061357,2475522.000000,1673606981.385161
1673608517.322522,,,,9.030516,9.034552,2475523.000000,1673606981.386168
1673608517.322716,,,,8.973996,8.978225,2475524.000000,1673606981.387176
1673608517.322864,,,,8.965678,8.971108,2475525.000000,1673606981.388183
1673608517.322933,,,,9.062009,9.063064,2475526.000000,1673606981.389190
1673608517.323088,,,,9.102950,9.103332,2475527.000000,1673606981.390197
1673608517.323222,,,,9.081097,9.082945,2475528.000000,1673606981.391204
1673608517.327232,,,,9.049268,9.051717,2475529.000000,1673606981.392211
1673608517.327464,,,,9.029795,9.031859,2475530.000000,1673606981.393218
1673608517.327474,,,,9.054965,9.058255,2475531.000000,1673606981.394225
1673608517.329535,,,,9.083717,9.087273,2475532.000000,1673606981.395232
1673608517.329741,,,,9.111052,9.117900,2475533.000000,1673606981.396239
1673608517.330005,,,,9.147738,9.153095,2475534.000000,1673606981.397246
1673608517.330087,,,,9.193078,9.195551,2475535.000000,1673606981.398253
1673608517.335019,,,,9.177427,9.181367,2475536.000000,1673606981.399261
1673608517.335387,,,,9.163052,9.169227,2475537.000000,1673606981.400268
1673608517.335732,,,,9.149012,9.152014,2475538.000000,1673606981.401275
1673608517.335837,,,,9.135838,9.139320,2475539.000000,1673606981.402282
1673608517.335850,,,,9.126005,9.128189,2475540.000000,1673606981.403289
1673608517.335862,,,,9.127687,9.130040,2475541.000000,1673606981.404296
1673608517.335872,,,,9.137256,9.139777,2475542.000000,1673606981.405303
1673608517.337084,,,,9.144372,9.146388,2475543.000000,1673606981.406310
1673608517.337497,,,,9.143435,9.145811,2475544.000000,1673606981.407317
1673608517.337512,,,,9.134395,9.136676,2475545.000000,1673606981.408324
1673608517.337531,,,,9.103911,9.107226,2475546.000000,1673606981.409331
1673608517.342501,,,,9.058138,9.060876,2475547.000000,1673606981.410338
1673608517.342911,,,,9.024169,9.029263,2475548.000000,1673606981.411345
1673608517.343256,,,,8.984911,8.988177,2475549.000000,1673606981.412353
1673608517.343768,,,,8.965702,8.970147,2475550.000000,1673606981.413360
1673608517.345015,,,,8.952000,8.954761,2475551.000000,1673606981.414367
1673608517.345202,,,,8.980680,8.985028,2475552.000000,1673606981.415374
1673608517.345307,,,,9.077660,9.081430,2475553.000000,1673606981.416381
1673608517.359022,,,,9.121124,9.125184,2475554.000000,1673606981.417388
1673608517.359169,,,,9.098022,9.100783,2475555.000000,1673606981.418395
1673608517.359175,,,,9.088814,9.090831,2475556.000000,1673606981.419402
1673608517.359442,,,,9.047464,9.053688,2475557.000000,1673606981.420409
1673608517.359450,,,,8.965462,8.971565,2475558.000000,1673606981.421416
1673608517.359509,,,,8.929065,8.932283,2475559.000000,1673606981.422423
1673608517.359577,,,,8.949235,8.955002,2475560.000000,1673606981.423430
1673608517.366149,,,,8.983541,8.987144,2475561.000000,1673606981.424438
1673608517.366163,,,,9.037608,9.040274,2475562.000000,1673606981.425445
1673608517.366327,,,,9.095305,9.095999,2475563.000000,1673606981.426452
1673608517.372549,,,,9.135645,9.139008,2475564.000000,1673606981.427459
1673608517.372559,,,,9.167571,9.169563,2475565.000000,1673606981.428466
1673608517.372568,,,,9.161753,9.159755,2475566.000000,1673606981.429473
1673608517.372581,,,,9.122711,9.122444,2475567.000000,1673606981.430480
1673608517.372591,48.893581,2309254.000000,1673608517.348196,,,,
1673608517.373039,49.002125,2309255.000000,1673608517.349196,,,,
1673608517.373052,49.038300,2309256.000000,1673608517.350196,,,,
1673608517.373067,49.146843,2309257.000000,1673608517.351196,,,,
1673608517.373074,49.219200,2309258.000000,1673608517.352196,,,,
1673608517.373081,49.345833,2309259.000000,1673608517.353196,,,,
1673608517.373085,49.400108,2309260.000000,1673608517.354196,,,,
1673608517.373140,49.418198,2309261.000000,1673608517.355196,,,,
1673608517.373148,49.526737,2309262.000000,1673608517.356196,,,,
1673608517.373152,49.635273,2309263.000000,1673608517.357196,,,,
1673608517.373157,50.015167,2309268.000000,1673608517.362196,,,,
1673608517.373167,50.069435,2309269.000000,1673608517.363196,,,,
1673608517.373210,50.123711,2309270.000000,1673608517.364196,,,,
1673608517.373219,50.250343,2309271.000000,1673608517.365196,,,,
1673608517.373230,50.304611,2309272.000000,1673608517.366196,,,,
1673608517.373249,50.304611,2309273.000000,1673608517.367196,,,,
1673608517.373256,50.413151,2309274.000000,1673608517.368196,,,,
1673608517.373318,50.449329,2309275.000000,1673608517.369196,,,,
1673608517.373327,50.521694,2309276.000000,1673608517.370196,,,,
1673608517.373333,50.594051,2309277.000000,1673608517.371196,,,,
1673608517.374912,,,,9.081097,9.086647,2475568.000000,1673606981.431487
1673608517.375062,,,,9.054364,9.061549,2475569.000000,1673606981.432494
1673608517.375154,,,,9.010562,9.016112,2475570.000000,1673606981.433501
1673608517.375326,,,,8.954716,8.956564,2475571.000000,1673606981.434508
1673608517.375461,,,,8.940364,8.942019,2475572.000000,1673606981.435515
1673608517.375590,,,,8.950846,8.954280,2475573.000000,1673606981.436522
1673608517.375857,,,,8.968106,8.971998,2475574.000000,1673606981.437530
1673608517.376010,,,,8.973131,8.976758,2475575.000000,1673606981.438537
1673608517.379857,,,,9.015491,9.020295,2475576.000000,1673606981.439544
1673608517.379993,,,,9.072394,9.076647,2475577.000000,1673606981.440551
1673608517.380396,,,,9.108167,9.112323,2475578.000000,1673606981.441558
1673608517.380609,,,,9.117903,9.122348,2475579.000000,1673606981.442565
1673608517.380902,,,,9.120500,9.126050,2475580.000000,1673606981.443572
1673608517.381018,,,,9.116197,9.117804,2475581.000000,1673606981.444579
1673608517.382374,,,,9.101748,9.103428,2475582.000000,1673606981.445586
1673608517.382637,,,,9.099152,9.104702,2475583.000000,1673606981.446593
1673608517.382866,,,,9.143555,9.149754,2475584.000000,1673606981.447600
1673608517.383069,,,,9.139876,9.145427,2475585.000000,1673606981.448607
1673608517.383287,,,,9.069437,9.072368,2475586.000000,1673606981.449615
1673608517.383463,,,,8.964140,8.968801,2475587.000000,1673606981.450622
1673608517.383613,,,,8.897451,8.900044,2475588.000000,1673606981.451629
1673608517.387246,,,,8.896754,8.902088,2475589.000000,1673606981.452636
1673608517.387407,,,,8.951903,8.958584,2475590.000000,1673606981.453643
1673608517.387779,,,,9.051767,9.059194,2475591.000000,1673606981.454650
1673608517.388021,,,,9.158531,9.165212,2475592.000000,1673606981.455657
1673608517.391960,,,,9.183125,9.190118,2475593.000000,1673606981.456664
1673608517.391986,,,,9.155382,9.162207,2475594.000000,1673606981.457671
1673608517.392497,,,,9.133193,9.137926,2475595.000000,1673606981.458678
1673608517.392651,,,,9.121510,9.125546,2475596.000000,1673606981.459685
1673608517.395064,,,,9.134972,9.139368,2475597.000000,1673606981.460692
1673608517.395276,,,,9.148267,9.152567,2475598.000000,1673606981.461699
1673608517.395288,,,,9.148362,9.152494,2475599.000000,1673606981.462707
1673608517.399421,,,,9.147281,9.150499,2475600.000000,1673606981.463714
1673608517.400031,,,,9.156800,9.160428,2475601.000000,1673606981.464721
1673608517.400342,,,,9.160815,9.164563,2475602.000000,1673606981.465728
1673608517.400360,,,,9.120764,9.125930,2475603.000000,1673606981.466735
1673608517.402583,,,,9.075809,9.079892,2475604.000000,1673606981.467742
1673608517.402670,,,,9.055590,9.062222,2475605.000000,1673606981.468749
1673608517.402790,,,,9.076866,9.081263,2475606.000000,1673606981.469756
1673608517.402953,,,,9.108023,9.111313,2475607.000000,1673606981.470763
1673608517.406660,,,,9.094367,9.096480,2475608.000000,1673606981.471770
1673608517.406944,,,,9.064149,9.071959,2475609.000000,1673606981.472777
1673608517.420366,,,,9.068645,9.076094,2475610.000000,1673606981.473784
1673608517.420379,,,,9.033449,9.037460,2475611.000000,1673606981.474792
1673608517.420519,,,,9.009457,9.011761,2475612.000000,1673606981.475799
1673608517.420645,,,,9.005562,9.009862,2475613.000000,1673606981.476806
1673608517.420765,,,,9.015731,9.018877,2475614.000000,1673606981.477813
1673608517.420892,,,,9.044243,9.049433,2475615.000000,1673606981.478820
1673608517.421017,,,,9.082299,9.087176,2475616.000000,1673606981.479827
1673608517.421135,,,,9.094440,9.096937,2475617.000000,1673606981.480834
1673608517.425702,50.666416,2309278.000000,1673608517.365045,,,,
1673608517.425779,50.720684,2309279.000000,1673608517.366045,,,,
1673608517.425786,50.720684,2309280.000000,1673608517.367045,,,,
1673608517.425798,50.883492,2309281.000000,1673608517.368045,,,,
1673608517.425807,50.847313,2309282.000000,1673608517.369045,,,,
1673608517.426168,,,,9.094151,9.096240,2475618.000000,1673606981.481841
1673608517.426292,,,,9.096724,9.101048,2475619.000000,1673606981.482848
1673608517.426394,,,,9.081097,9.085253,2475620.000000,1673606981.483855
1673608517.426733,,,,9.064870,9.066285,2475621.000000,1673606981.484862
1673608517.426746,,,,9.068836,9.075204,2475622.000000,1673606981.485869
1673608517.426750,,,,9.057898,9.061405,2475623.000000,1673606981.486876
1673608517.426816,50.919678,2309283.000000,1673608517.370045,,,,
1673608517.426821,52.312618,2309322.000000,1673608517.409045,,,,
1673608517.426945,,,,9.010442,9.015920,2475624.000000,1673606981.487884
1673608517.427007,52.294521,2309323.000000,1673608517.410045,,,,
1673608517.427047,52.348797,2309324.000000,1673608517.411045,,,,
1673608517.427053,52.348797,2309325.000000,1673608517.412045,,,,
1673608517.427189,52.403065,2309326.000000,1673608517.413045,,,,
1673608517.427202,52.403065,2309327.000000,1673608517.414045,,,,
1673608517.427206,52.493519,2309328.000000,1673608517.415045,,,,
1673608517.427217,52.529694,2309329.000000,1673608517.416045,,,,
1673608517.427221,52.547783,2309330.000000,1673608517.417045,,,,
1673608517.427224,52.511608,2309331.000000,1673608517.418045,,,,
1673608517.427233,52.565872,2309332.000000,1673608517.419045,,,,
1673608517.427251,52.511608,2309333.000000,1673608517.420045,,,,
1673608517.427254,52.547783,2309334.000000,1673608517.421045,,,,
1673608517.427261,52.529694,2309335.000000,1673608517.422045,,,,
1673608517.427272,52.565872,2309336.000000,1673608517.423045,,,,
1673608517.427275,52.602058,2309337.000000,1673608517.424045,,,,
1673608517.427285,52.583961,2309338.000000,1673608517.425045,,,,
1673608517.432406,,,,8.992268,8.998490,2475625.000000,1673606981.488891
1673608517.432563,,,,8.979718,8.985942,2475626.000000,1673606981.489898
1673608517.432771,,,,8.965318,8.969546,2475627.000000,1673606981.490905
1673608517.432898,,,,8.947600,8.949327,2475628.000000,1673606981.491912
1673608517.434699,,,,8.972121,8.974667,2475629.000000,1673606981.492919
1673608517.435002,,,,9.025732,9.028806,2475630.000000,1673606981.493926
1673608517.435156,,,,9.056720,9.061189,2475631.000000,1673606981.494933
1673608517.435169,,,,9.076866,9.079146,2475632.000000,1673606981.495940
1673608517.440114,,,,9.090497,9.094990,2475633.000000,1673606981.496947
1673608517.440126,,,,9.087708,9.088042,2475634.000000,1673606981.497954
1673608517.440325,,,,9.061865,9.059698,2475635.000000,1673606981.498961
1673608517.440749,,,,9.019193,9.020247,2475636.000000,1673606981.499969
1673608517.440760,,,,9.011932,9.015920,2475637.000000,1673606981.500976
1673608517.440765,,,,9.059220,9.061862,2475638.000000,1673606981.501983
1673608517.442623,,,,9.117326,9.120111,2475639.000000,1673606981.502990
1673608517.442798,,,,9.136271,9.141292,2475640.000000,1673606981.503997
1673608517.443133,,,,9.098671,9.102370,2475641.000000,1673606981.505004
1673608517.443151,,,,9.101483,9.104245,2475642.000000,1673606981.506011
1673608517.443673,,,,9.089150,9.091239,2475643.000000,1673606981.507018
1673608517.443693,,,,9.085809,9.089484,2475644.000000,1673606981.508025
1673608517.443721,,,,9.092300,9.093667,2475645.000000,1673606981.509032
1673608517.447363,,,,9.040300,9.043086,2475646.000000,1673606981.510039
1673608517.447694,,,,9.022342,9.025897,2475647.000000,1673606981.511046
1673608517.448107,,,,9.052994,9.056981,2475648.000000,1673606981.512053
1673608517.448301,,,,9.047441,9.049913,2475649.000000,1673606981.513061
1673608517.449903,,,,9.036935,9.041331,2475650.000000,1673606981.514068
1673608517.450117,,,,9.039411,9.042966,2475651.000000,1673606981.515075
1673608517.450358,,,,9.048354,9.052702,2475652.000000,1673606981.516082
1673608517.450368,,,,9.033233,9.037292,2475653.000000,1673606981.517089
1673608517.454880,,,,9.071024,9.074170,2475654.000000,1673606981.518096
1673608517.455149,,,,9.049315,9.050995,2475655.000000,1673606981.519103
1673608517.455171,,,,9.047632,9.049577,2475656.000000,1673606981.520110
1673608517.457417,,,,9.074655,9.077657,2475657.000000,1673606981.521117
1673608517.457448,,,,9.078284,9.081551,2475658.000000,1673606981.522124
1673608517.457460,,,,9.024915,9.028662,2475659.000000,1673606981.523131
1673608517.462934,,,,9.000465,9.003371,2475660.000000,1673606981.524138
1673608517.463054,,,,8.961856,8.965579,2475661.000000,1673606981.525146
1673608517.463068,,,,8.945508,8.949280,2475662.000000,1673606981.526153
1673608517.463077,,,,8.980968,8.986639,2475663.000000,1673606981.527160
1673608517.464848,,,,9.037848,9.043494,2475664.000000,1673606981.528167
1673608517.465101,,,,9.081242,9.084821,2475665.000000,1673606981.529174
1673608517.465368,,,,9.156656,9.163409,2475666.000000,1673606981.530181
1673608517.465382,,,,9.185914,9.189998,2475667.000000,1673606981.531188
1673608517.479034,,,,9.169999,9.173554,2475668.000000,1673606981.532195
1673608517.479607,,,,9.124346,9.130377,2475669.000000,1673606981.533202
1673608517.480115,,,,9.061769,9.064747,2475670.000000,1673606981.534209
1673608517.480833,,,,9.049268,9.051044,2475671.000000,1673606981.535216
1673608517.481200,,,,9.037175,9.038110,2475672.000000,1673606981.536223
1673608517.481235,,,,9.031357,9.032291,2475673.000000,1673606981.537230
1673608517.481509,,,,9.049099,9.050659,2475674.000000,1673606981.538238
1673608517.486188,,,,9.072106,9.075950,2475675.000000,1673606981.539245
1673608517.486403,,,,9.092661,9.094100,2475676.000000,1673606981.540252
1673608517.486526,,,,9.123938,9.124463,2475677.000000,1673606981.541259
1673608517.486761,,,,9.127808,9.132757,2475678.000000,1673606981.542266
1673608517.486892,,,,9.119514,9.122876,2475679.000000,1673606981.543273
1673608517.486954,,,,9.118913,9.124944,2475680.000000,1673606981.544280
1673608517.490809,52.692505,2309390.000000,1673608517.480257,,,,
1673608517.490823,52.728683,2309391.000000,1673608517.481257,,,,
1673608517.490829,52.710594,2309392.000000,1673608517.482257,,,,
1673608517.490834,52.764870,2309393.000000,1673608517.483257,,,,
1673608517.490840,52.819138,2309394.000000,1673608517.484257,,,,
1673608517.490869,52.801048,2309395.000000,1673608517.485257,,,,
1673608517.490877,52.801048,2309396.000000,1673608517.486257,,,,
1673608517.490881,52.801048,2309397.000000,1673608517.487257,,,,
1673608517.490888,52.819138,2309398.000000,1673608517.488257,,,,
1673608517.490910,52.855316,2309399.000000,1673608517.489257,,,,
1673608517.492277,,,,9.127375,9.130858,2475681.000000,1673606981.545287
1673608517.492285,,,,9.138049,9.144970,2475682.000000,1673606981.546294
1673608517.492409,,,,9.146271,9.150787,2475683.000000,1673606981.547301
1673608517.492524,,,,9.132856,9.132998,2475684.000000,1673606981.548308
1673608517.492531,,,,9.087443,9.087994,2475685.000000,1673606981.549315
1673608517.494429,,,,9.054508,9.055010,2475686.000000,1673606981.550323
1673608517.494525,,,,9.040781,9.042653,2475687.000000,1673606981.551330
1673608517.494641,,,,8.997315,8.999644,2475688.000000,1673606981.552337
1673608517.499737,,,,8.926517,8.928436,2475689.000000,1673606981.553344
1673608517.499970,,,,8.896297,8.899877,2475690.000000,1673606981.554351
1673608517.499981,,,,8.890455,8.890909,2475691.000000,1673606981.555358
1673608517.502509,,,,8.921515,8.924230,2475692.000000,1673606981.556365
1673608517.502645,,,,8.974236,8.974523,2475693.000000,1673606981.557372
1673608517.502693,,,,9.047441,9.049433,2475694.000000,1673606981.558379
1673608517.502876,,,,9.114225,9.117732,2475695.000000,1673606981.559386
1673608517.503036,,,,9.096891,9.102250,2475696.000000,1673606981.560393
1673608517.503048,,,,9.041695,9.047533,2475697.000000,1673606981.561400
1673608517.503302,,,,9.030828,9.036066,2475698.000000,1673606981.562407
1673608517.503457,,,,9.075423,9.080830,2475699.000000,1673606981.563415
1673608517.507735,,,,9.084414,9.089244,2475700.000000,1673606981.564422
1673608517.507744,,,,9.140670,9.144489,2475701.000000,1673606981.565429
1673608517.507879,,,,9.137256,9.142278,2475702.000000,1673606981.566436
1673608517.507888,,,,9.079005,9.082970,2475703.000000,1673606981.567443
1673608517.507893,,,,9.053547,9.057270,2475704.000000,1673606981.568450
1673608517.508069,,,,9.058307,9.062078,2475705.000000,1673606981.569457
1673608517.508155,,,,9.099632,9.103019,2475706.000000,1673606981.570464
1673608517.509844,,,,9.124611,9.128671,2475707.000000,1673606981.571471
1673608517.509855,,,,9.118552,9.123021,2475708.000000,1673606981.572478
1673608517.509861,,,,9.086169,9.090831,2475709.000000,1673606981.573485
1673608517.509895,,,,9.041887,9.048399,2475710.000000,1673606981.574492
1673608517.514903,,,,9.040781,9.045345,2475711.000000,1673606981.575500
1673608517.515447,,,,9.050686,9.052005,2475712.000000,1673606981.576507
1673608517.517390,,,,9.063596,9.065011,2475713.000000,1673606981.577514
1673608517.517835,,,,9.092059,9.095230,2475714.000000,1673606981.578521
1673608517.518227,,,,9.107734,9.112059,2475715.000000,1673606981.579528
1673608517.518240,,,,9.107542,9.110592,2475716.000000,1673606981.580535
1673608517.524036,,,,9.139636,9.142349,2475718.000000,1673606981.582549
1673608517.524058,,,,9.138266,9.140882,2475719.000000,1673606981.583556
1673608517.524204,,,,9.125452,9.127108,2475720.000000,1673606981.584563
1673608517.524218,,,,9.107493,9.108164,2475721.000000,1673606981.585570
1673608517.524225,,,,9.089487,9.089027,2475722.000000,1673606981.586577
1673608517.524272,,,,9.062802,9.065395,2475723.000000,1673606981.587584
1673608517.524282,,,,9.041142,9.046764,2475724.000000,1673606981.588592
1673608517.524290,,,,9.012798,9.015102,2475725.000000,1673606981.589599
1673608517.524297,,,,9.008735,9.013180,2475726.000000,1673606981.590606
1673608517.524330,,,,8.997989,9.002409,2475727.000000,1673606981.591613
1673608517.525583,,,,8.989334,8.990389,2475728.000000,1673606981.592620
1673608517.525602,,,,8.983493,8.986230,2475729.000000,1673606981.593627
1673608517.526329,,,,8.985656,8.991976,2475730.000000,1673606981.594634
1673608517.526344,,,,9.010009,9.012891,2475731.000000,1673606981.595641
1673608517.526527,,,,9.020058,9.020007,2475732.000000,1673606981.596648
1673608517.526544,,,,8.996763,8.999404,2475733.000000,1673606981.597655
1673608517.526868,,,,8.956711,8.959497,2475734.000000,1673606981.598662
1673608517.527227,,,,8.920867,8.920575,2475735.000000,1673606981.599669
1673608517.527244,,,,8.916804,8.919325,2475736.000000,1673606981.600677
1673608517.527576,,,,8.969934,8.974667,2475737.000000,1673606981.601684
1673608517.539187,,,,9.026910,9.033734,2475738.000000,1673606981.602691
1673608517.539196,,,,9.096243,9.100183,2475739.000000,1673606981.603698
1673608517.539483,,,,9.176514,9.180213,2475740.000000,1673606981.604705
1673608517.539806,,,,9.228610,9.231564,2475741.000000,1673606981.605712
1673608517.539813,,,,9.195699,9.199133,2475742.000000,1673606981.606719
1673608517.539835,,,,9.130404,9.134656,2475743.000000,1673606981.607726
1673608517.539841,,,,9.064341,9.067367,2475744.000000,1673606981.608733
1673608517.539848,,,,9.015467,9.017146,2475745.000000,1673606981.609740
1673608517.539852,,,,9.002869,9.003732,2475746.000000,1673606981.610747
1673608517.539870,,,,8.980415,8.983369,2475747.000000,1673606981.611754
1673608517.539898,,,,8.945340,8.948679,2475748.000000,1673606981.612761
1673608517.546091,,,,8.943585,8.948150,2475749.000000,1673606981.613769
1673608517.546207,,,,9.006235,9.010992,2475750.000000,1673606981.614776
1673608517.546216,,,,9.062105,9.067030,2475751.000000,1673606981.615783
1673608517.546220,,,,9.117398,9.121338,2475752.000000,1673606981.616790
1673608517.554617,52.837227,2309400.000000,1673608517.494122,,,,
1673608517.554631,52.909592,2309401.000000,1673608517.495122,,,,
1673608517.555041,52.981945,2309418.000000,1673608517.512122,,,,
1673608517.555049,52.981945,2309419.000000,1673608517.513122,,,,
1673608517.555118,52.981945,2309420.000000,1673608517.514122,,,,
1673608517.555611,52.927681,2309421.000000,1673608517.515122,,,,
1673608517.555619,52.963856,2309422.000000,1673608517.516122,,,,
1673608517.555622,52.981945,2309423.000000,1673608517.517122,,,,
1673608517.555658,52.963856,2309424.000000,1673608517.518122,,,,
1673608517.555664,52.963856,2309425.000000,1673608517.519122,,,,
1673608517.555673,53.000034,2309426.000000,1673608517.520122,,,,
1673608517.555678,52.945770,2309427.000000,1673608517.521122,,,,
1673608517.555715,52.222164,2309451.000000,1673608517.545122,,,,
1673608517.555720,52.131710,2309452.000000,1673608517.546122,,,,
1673608517.555723,52.077446,2309453.000000,1673608517.547122,,,,
1673608517.555732,52.005081,2309454.000000,1673608517.548122,,,,
1673608517.555750,52.041267,2309455.000000,1673608517.549122,,,,
1673608517.555755,51.896545,2309456.000000,1673608517.550122,,,,
1673608517.555762,51.769913,2309457.000000,1673608517.551122,,,,
1673608517.555773,51.769913,2309458.000000,1673608517.552122,,,,
1673608517.555777,51.661369,2309459.000000,1673608517.553122,,,,
1673608517.555779,51.607094,2309460.000000,1673608517.554122,,,,
1673608517.562298,,,,9.157786,9.163529,2475753.000000,1673606981.617797
1673608517.562863,,,,9.198078,9.202307,2475754.000000,1673606981.618804
1673608517.562958,,,,9.175048,9.179516,2475755.000000,1673606981.619811
1673608517.562972,,,,9.135934,9.138720,2475756.000000,1673606981.620818
1673608517.568235,,,,9.101291,9.103524,2475757.000000,1673606981.621825
1673608517.568401,,,,9.020635,9.021569,2475758.000000,1673606981.622832
1673608517.568743,,,,8.905962,8.906728,2475759.000000,1673606981.623839
1673608517.568883,,,,8.842038,8.842804,2475760.000000,1673606981.624846
1673608517.569462,,,,8.829345,8.828669,2475761.000000,1673606981.625854
1673608517.569477,,,,8.873098,8.875235,2475762.000000,1673606981.626861
1673608517.569860,,,,8.989791,8.991351,2475763.000000,1673606981.627868
1673608517.570128,,,,9.089944,9.091816,2475764.000000,1673606981.628875
1673608517.570749,,,,9.117903,9.118622,2475765.000000,1673606981.629882
1673608517.570758,,,,9.111532,9.112059,2475766.000000,1673606981.630889
1673608517.571740,,,,9.113913,9.118910,2475767.000000,1673606981.631896
1673608517.571759,,,,9.064533,9.068593,2475768.000000,1673606981.632903
1673608517.571767,,,,8.998686,9.002001,2475769.000000,1673606981.633910
1673608517.571951,,,,9.057249,9.063184,2475770.000000,1673606981.634917
1673608517.571966,,,,9.104488,9.108260,2475771.000000,1673606981.635924
1673608517.571982,,,,9.087900,9.090037,2475772.000000,1673606981.636931
1673608517.571990,,,,9.093910,9.098763,2475773.000000,1673606981.637938
1673608517.572044,,,,9.126846,9.133021,2475774.000000,1673606981.638946
1673608517.572073,,,,9.087852,9.089893,2475775.000000,1673606981.639953
1673608517.572084,,,,9.041839,9.044216,2475776.000000,1673606981.640960
1673608517.572092,,,,9.029698,9.033398,2475777.000000,1673606981.641967
1673608517.575633,,,,9.018448,9.021378,2475778.000000,1673606981.642974
1673608517.575671,,,,9.010682,9.010126,2475779.000000,1673606981.643981
1673608517.575867,,,,9.041262,9.041162,2475780.000000,1673606981.644988
1673608517.576055,,,,9.101820,9.103379,2475781.000000,1673606981.645995
1673608517.576848,,,,9.115451,9.117780,2475782.000000,1673606981.647002
1673608517.576867,,,,9.102613,9.105904,2475783.000000,1673606981.648009
1673608517.576898,,,,9.105691,9.108356,2475784.000000,1673606981.649016
1673608517.576919,,,,9.160431,9.163601,2475785.000000,1673606981.650023
1673608517.576929,,,,9.233177,9.235939,2475786.000000,1673606981.651031
1673608517.577003,,,,9.197093,9.199950,2475787.000000,1673606981.652038
1673608517.577015,,,,9.075784,9.077657,2475788.000000,1673606981.653045
1673608517.577633,,,,8.976593,8.981374,2475789.000000,1673606981.654052
1673608517.577995,,,,8.902355,8.905887,2475790.000000,1673606981.655059
1673608517.578278,,,,8.866848,8.872302,2475791.000000,1673606981.656066
1673608517.578302,,,,8.915505,8.919541,2475792.000000,1673606981.657073
1673608517.578311,,,,8.997484,8.998395,2475793.000000,1673606981.658080
1673608517.578334,,,,9.060951,9.061982,2475794.000000,1673606981.659087
1673608517.582767,,,,9.104609,9.106914,2475795.000000,1673606981.660094
1673608517.583210,,,,9.095810,9.102634,2475796.000000,1673606981.661101
1673608517.583222,,,,9.117182,9.121314,2475797.000000,1673606981.662108
1673608517.583562,,,,9.113215,9.114991,2475798.000000,1673606981.663116
1673608517.583838,,,,9.080496,9.081984,2475799.000000,1673606981.664123
1673608517.584063,,,,9.067274,9.070612,2475800.000000,1673606981.665130
1673608517.584384,,,,9.083646,9.085542,2475801.000000,1673606981.666137
1673608517.606289,,,,9.119393,9.120136,2475802.000000,1673606981.667144
1673608517.606539,,,,9.163820,9.165765,2475803.000000,1673606981.668151
1673608517.606688,,,,9.141920,9.141748,2475804.000000,1673606981.669158
1673608517.606799,,,,9.047441,9.049169,2475805.000000,1673606981.670165
1673608517.614648,,,,9.003879,9.006761,2475806.000000,1673606981.671172
1673608517.614967,,,,9.018640,9.023445,2475807.000000,1673606981.672179
1673608517.614991,,,,9.040156,9.042966,2475808.000000,1673606981.673186
1673608517.618779,51.625195,2309512.000000,1673608517.608472,,,,
1673608517.618791,51.679459,2309513.000000,1673608517.609472,,,,
1673608517.618799,51.733727,2309514.000000,1673608517.610472,,,,
1673608517.618809,51.860359,2309515.000000,1673608517.611472,,,,
1673608517.618814,51.950813,2309516.000000,1673608517.612472,,,,
1673608517.618820,51.968903,2309517.000000,1673608517.613472,,,,
1673608517.618823,52.041267,2309518.000000,1673608517.614472,,,,
1673608517.618850,52.095531,2309519.000000,1673608517.615472,,,,
1673608517.618885,52.077446,2309520.000000,1673608517.616472,,,,
1673608517.618893,52.167889,2309521.000000,1673608517.617472,,,,
1673608517.619977,,,,9.052874,9.056861,2475809.000000,1673606981.674193
1673608517.619986,,,,9.048041,9.053183,2475810.000000,1673606981.675200
1673608517.620000,,,,9.031261,9.037027,2475811.000000,1673606981.676208
1673608517.620006,,,,9.016861,9.019190,2475812.000000,1673606981.677215
1673608517.620012,,,,8.992748,8.996375,2475813.000000,1673606981.678222
1673608517.621995,,,,8.987123,8.990317,2475814.000000,1673606981.679229
1673608517.622068,,,,9.049965,9.053448,2475815.000000,1673606981.680236
1673608517.622216,,,,9.124659,9.127492,2475816.000000,1673606981.681243
1673608517.627476,,,,9.186683,9.190262,2475817.000000,1673606981.682250
1673608517.627487,,,,9.190578,9.194325,2475818.000000,1673606981.683257
1673608517.627492,,,,9.110451,9.114150,2475819.000000,1673606981.684264
1673608517.630122,,,,9.042031,9.047413,2475820.000000,1673606981.685271
1673608517.630397,,,,9.023279,9.028325,2475821.000000,1673606981.686278
1673608517.630792,,,,9.004504,9.006617,2475822.000000,1673606981.687285
1673608517.631211,,,,8.989551,8.990028,2475823.000000,1673606981.688293
1673608517.631686,,,,9.026814,9.029575,2475824.000000,1673606981.689300
1673608517.631759,,,,9.069774,9.076406,2475825.000000,1673606981.690307
1673608517.631768,,,,9.046358,9.048375,2475826.000000,1673606981.691314
1673608517.635478,,,,9.062538,9.066718,2475827.000000,1673606981.692321
1673608517.635609,,,,9.096795,9.101793,2475828.000000,1673606981.693328
1673608517.635662,,,,9.132015,9.134295,2475829.000000,1673606981.694335
1673608517.635677,,,,9.114634,9.116193,2475830.000000,1673606981.695342
1673608517.637107,,,,9.055999,9.058304,2475831.000000,1673606981.696349
1673608517.637306,,,,9.023761,9.025825,2475832.000000,1673606981.697356
1673608517.637707,,,,9.010538,9.013227,2475833.000000,1673606981.698363
1673608517.637725,,,,9.047994,9.053328,2475834.000000,1673606981.699370
1673608517.642754,,,,9.060999,9.065925,2475835.000000,1673606981.700377
1673608517.643093,,,,9.044436,9.048230,2475836.000000,1673606981.701385
1673608517.643472,,,,9.034338,9.039576,2475837.000000,1673606981.702392
1673608517.643488,,,,9.052633,9.055852,2475838.000000,1673606981.703399
1673608517.643519,,,,9.104585,9.107467,2475839.000000,1673606981.704406
1673608517.643552,,,,9.062899,9.067823,2475840.000000,1673606981.705413
1673608517.645089,,,,9.009721,9.012218,2475841.000000,1673606981.706420
1673608517.645399,,,,9.012365,9.016473,2475842.000000,1673606981.707427
1673608517.645709,,,,8.983781,8.987312,2475843.000000,1673606981.708434
1673608517.646100,,,,8.903245,8.904396,2475844.000000,1673606981.709441
1673608517.646127,,,,8.854803,8.858118,2475845.000000,1673606981.710448
1673608517.646614,,,,8.860068,8.863167,2475846.000000,1673606981.711455
1673608517.646827,,,,8.960582,8.965242,2475847.000000,1673606981.712462
1673608517.647158,,,,9.079174,9.083498,2475848.000000,1673606981.713470
1673608517.650269,,,,9.146511,9.149201,2475849.000000,1673606981.714477
1673608517.650532,,,,9.171874,9.174347,2475850.000000,1673606981.715484
1673608517.650551,,,,9.128144,9.131916,2475851.000000,1673606981.716491
1673608517.652371,,,,9.104512,9.110303,2475852.000000,1673606981.717498
1673608517.652658,,,,9.122038,9.124415,2475853.000000,1673606981.718505
1673608517.652961,,,,9.119226,9.120954,2475854.000000,1673606981.719512
1673608517.653158,,,,9.121581,9.123790,2475855.000000,1673606981.720519
1673608517.653243,,,,9.192982,9.196152,2475856.000000,1673606981.721526
1673608517.666198,,,,9.235390,9.239137,2475857.000000,1673606981.722533
1673608517.666215,,,,9.190554,9.194710,2475858.000000,1673606981.723540
1673608517.666221,,,,9.158507,9.164010,2475859.000000,1673606981.724547
1673608517.673596,,,,9.124851,9.127541,2475860.000000,1673606981.725554
1673608517.673733,,,,9.075976,9.080950,2475861.000000,1673606981.726562
1673608517.673874,,,,8.949595,8.951011,2475862.000000,1673606981.727569
1673608517.673974,,,,8.980536,8.983898,2475863.000000,1673606981.728576
1673608517.679693,,,,9.052994,9.057654,2475864.000000,1673606981.729583
1673608517.679878,,,,9.100113,9.102899,2475865.000000,1673606981.730590
1673608517.679884,,,,9.079342,9.084796,2475866.000000,1673606981.731597
1673608517.682093,52.204075,2309522.000000,1673608517.621660,,,,
1673608517.682212,52.222164,2309523.000000,1673608517.622660,,,,
1673608517.682292,52.312618,2309524.000000,1673608517.623660,,,,
1673608517.682649,,,,8.987820,8.992553,2475867.000000,1673606981.732604
1673608517.682657,,,,8.954668,8.960290,2475868.000000,1673606981.733611
1673608517.682754,,,,8.929353,8.934302,2475869.000000,1673606981.734618
1673608517.682760,,,,8.954428,8.958344,2475870.000000,1673606981.735625
1673608517.682766,,,,9.011692,9.014237,2475871.000000,1673606981.736632
1673608517.682818,,,,9.093935,9.094773,2475872.000000,1673606981.737639
1673608517.682903,52.330708,2309525.000000,1673608517.624660,,,,
1673608517.682986,52.457340,2309526.000000,1673608517.625660,,,,
1673608517.683271,52.493519,2309527.000000,1673608517.626660,,,,
1673608517.683286,52.511608,2309528.000000,1673608517.627660,,,,
1673608517.683290,55.243210,2309573.000000,1673608517.672660,,,,
1673608517.683297,55.333664,2309574.000000,1673608517.673660,,,,
1673608517.683301,55.387939,2309575.000000,1673608517.674660,,,,
1673608517.683304,55.460297,2309576.000000,1673608517.675660,,,,
1673608517.683321,55.550751,2309577.000000,1673608517.676660,,,,
1673608517.683324,55.623104,2309578.000000,1673608517.677660,,,,
1673608517.683337,55.731647,2309579.000000,1673608517.678660,,,,
1673608517.683342,55.840191,2309580.000000,1673608517.679660,,,,
1673608517.683345,55.966824,2309581.000000,1673608517.680660,,,,
1673608517.683359,56.003002,2309582.000000,1673608517.681660,,,,
1673608517.687526,,,,9.184495,9.188603,2475873.000000,1673606981.738647
1673608517.687922,,,,9.227096,9.230795,2475874.000000,1673606981.739654
1673608517.688309,,,,9.158099,9.161125,2475875.000000,1673606981.740661
1673608517.688330,,,,9.148002,9.151894,2475876.000000,1673606981.741668
1673608517.688554,,,,9.164373,9.168169,2475877.000000,1673606981.742675
1673608517.688766,,,,9.141799,9.145643,2475878.000000,1673606981.743682
1673608517.689048,,,,9.122591,9.127252,2475879.000000,1673606981.744689
1673608517.689400,,,,9.089391,9.090205,2475880.000000,1673606981.745696
1673608517.689871,,,,9.045950,9.047533,2475881.000000,1673606981.746703
1673608517.690124,,,,9.014144,9.018228,2475882.000000,1673606981.747710
1673608517.690138,,,,9.009913,9.014911,2475883.000000,1673606981.748717
1673608517.695752,,,,9.063476,9.068280,2475884.000000,1673606981.749724
1673608517.695824,,,,9.111821,9.114078,2475885.000000,1673606981.750731
1673608517.695841,,,,9.128938,9.135233,2475886.000000,1673606981.751739
1673608517.695855,,,,9.122327,9.127757,2475887.000000,1673606981.752746
1673608517.697328,,,,9.034074,9.039240,2475888.000000,1673606981.753753
1673608517.697352,,,,8.897739,8.902232,2475889.000000,1673606981.754760
1673608517.697709,,,,8.783956,8.785203,2475890.000000,1673606981.755767
1673608517.697808,,,,8.740154,8.744742,2475891.000000,1673606981.756774
1673608517.703277,,,,8.799823,8.805517,2475892.000000,1673606981.757781
1673608517.703303,,,,8.920026,8.923700,2475893.000000,1673606981.758788
1673608517.703312,,,,9.045012,9.047365,2475894.000000,1673606981.759795
1673608517.703557,,,,9.121533,9.126771,2475895.000000,1673606981.760802
1673608517.703891,,,,9.207550,9.212956,2475896.000000,1673606981.761809
1673608517.704027,,,,9.226663,9.229592,2475897.000000,1673606981.762816
1673608517.704968,,,,9.196251,9.200383,2475898.000000,1673606981.763824
1673608517.705860,,,,9.195770,9.198339,2475899.000000,1673606981.764831
1673608517.706070,,,,9.103094,9.105952,2475900.000000,1673606981.765838
1673608517.706090,,,,9.010249,9.013227,2475901.000000,1673606981.766845
1673608517.706127,,,,8.884325,8.887784,2475902.000000,1673606981.767852
1673608517.706143,,,,8.849226,8.853358,2475903.000000,1673606981.768859
1673608517.706151,,,,8.915241,8.919181,2475904.000000,1673606981.769866
1673608517.706211,,,,9.016572,9.021378,2475905.000000,1673606981.770873
1673608517.710463,,,,9.105546,9.110712,2475906.000000,1673606981.771880
1673608517.710472,,,,9.071721,9.073497,2475907.000000,1673606981.772887
1673608517.710489,,,,8.880262,8.885283,2475908.000000,1673606981.773894
1673608517.712386,,,,8.708060,8.713129,2475909.000000,1673606981.774901
1673608517.712396,,,,8.604566,8.604106,2475910.000000,1673606981.775908
1673608517.712776,,,,8.639135,8.641417,2475911.000000,1673606981.776916
1673608517.712792,,,,8.856439,8.860763,2475912.000000,1673606981.777923
1673608517.726746,,,,9.100282,9.106193,2475913.000000,1673606981.778930
1673608517.726764,,,,9.329364,9.334217,2475914.000000,1673606981.779937
1673608517.726823,,,,9.400428,9.405521,2475915.000000,1673606981.780944
1673608517.726837,,,,9.411318,9.414657,2475916.000000,1673606981.781951
1673608517.734351,,,,9.284744,9.288588,2475917.000000,1673606981.782958
1673608517.734491,,,,9.193919,9.196224,2475918.000000,1673606981.783965
1673608517.734581,,,,9.192020,9.193604,2475919.000000,1673606981.784972
1673608517.734589,,,,9.214113,9.217933,2475920.000000,1673606981.785979
1673608517.734595,,,,9.191323,9.196104,2475921.000000,1673606981.786986
1673608517.734624,,,,9.191443,9.197330,2475922.000000,1673606981.787993
1673608517.734754,,,,9.163676,9.167905,2475923.000000,1673606981.789001
1673608517.736837,60.308453,2309634.000000,1673608517.726521,,,,
1673608517.736850,60.398895,2309635.000000,1673608517.727521,,,,
1673608517.736855,60.579803,2309636.000000,1673608517.728521,,,,
1673608517.736859,60.742607,2309637.000000,1673608517.729521,,,,
1673608517.736879,60.778801,2309638.000000,1673608517.730521,,,,
1673608517.736897,60.977779,2309639.000000,1673608517.731521,,,,
1673608517.736902,61.086330,2309640.000000,1673608517.732521,,,,
1673608517.736907,61.212955,2309641.000000,1673608517.733521,,,,
1673608517.736912,61.357681,2309642.000000,1673608517.734521,,,,
1673608517.736922,61.484306,2309643.000000,1673608517.735521,,,,
1673608517.740248,,,,9.132183,9.137926,2475924.000000,1673606981.790008
1673608517.740310,,,,9.107734,9.111914,2475925.000000,1673606981.791015
1673608517.740485,,,,9.109153,9.112491,2475926.000000,1673606981.792022
1673608517.740819,,,,9.106483,9.108260,2475927.000000,1673606981.793029
1673608517.740833,,,,9.098166,9.100927,2475928.000000,1673606981.794036
1673608517.740837,,,,9.078453,9.082994,2475929.000000,1673606981.795043
1673608517.740841,,,,9.051287,9.054986,2475930.000000,1673606981.796050
1673608517.741950,,,,9.049483,9.051813,2475931.000000,1673606981.797057
1673608517.742101,,,,9.061889,9.064818,2475932.000000,1673606981.798064
1673608517.742209,,,,9.093910,9.096384,2475933.000000,1673606981.799071
1673608517.747349,,,,9.147497,9.147735,2475934.000000,1673606981.800078
1673608517.747356,,,,9.185674,9.186560,2475935.000000,1673606981.801085
1673608517.747366,,,,9.200530,9.200936,2475936.000000,1673606981.802093
1673608517.747371,,,,9.190794,9.192474,2475937.000000,1673606981.803100
1673608517.749891,,,,9.154781,9.157784,2475938.000000,1673606981.804107
1673608517.750210,,,,9.119514,9.126146,2475939.000000,1673606981.805114
1673608517.750225,,,,9.077130,9.081383,2475940.000000,1673606981.806121
1673608517.750232,,,,9.031453,9.033254,2475941.000000,1673606981.807128
1673608517.755361,,,,9.004624,9.008852,2475942.000000,1673606981.808135
1673608517.755401,,,,9.010009,9.013204,2475943.000000,1673606981.809142
1673608517.755409,,,,9.064581,9.068016,2475944.000000,1673606981.810149
1673608517.755611,,,,9.124562,9.126651,2475945.000000,1673606981.811156
1673608517.755896,,,,9.111532,9.114126,2475946.000000,1673606981.812163
1673608517.756166,,,,9.029314,9.032701,2475947.000000,1673606981.813170
1673608517.757463,,,,8.981882,8.985461,2475948.000000,1673606981.814178
1673608517.758170,,,,8.988373,8.992456,2475949.000000,1673606981.815185
1673608517.758186,,,,9.015347,9.019094,2475950.000000,1673606981.816192
1673608517.758337,,,,9.027198,9.031931,2475951.000000,1673606981.817199
1673608517.758349,,,,9.038569,9.039912,2475952.000000,1673606981.818206
1673608517.758354,,,,9.060494,9.062199,2475953.000000,1673606981.819213
1673608517.758541,,,,9.100498,9.104486,2475954.000000,1673606981.820220
1673608517.762338,,,,9.169759,9.172208,2475955.000000,1673606981.821227
1673608517.762537,,,,9.169566,9.173626,2475956.000000,1673606981.822234
1673608517.762622,,,,9.140886,9.144730,2475957.000000,1673606981.823241
1673608517.762631,,,,9.105282,9.106529,2475958.000000,1673606981.824248
1673608517.764583,,,,9.108816,9.109631,2475959.000000,1673606981.825255
1673608517.764653,,,,9.114946,9.117732,2475960.000000,1673606981.826262
1673608517.764754,,,,9.090184,9.093571,2475961.000000,1673606981.827270
1673608517.764761,,,,9.065134,9.069579,2475962.000000,1673606981.828277
1673608517.769683,,,,9.068645,9.072248,2475963.000000,1673606981.829284
1673608517.769825,,,,9.068645,9.069386,2475964.000000,1673606981.830291
1673608517.769933,,,,9.069366,9.072103,2475965.000000,1673606981.831298
1673608517.770029,,,,9.070928,9.075805,2475966.000000,1673606981.832305
1673608517.772013,,,,9.089416,9.094244,2475967.000000,1673606981.833312
1673608517.772022,,,,9.120187,9.125113,2475968.000000,1673606981.834319
1673608517.786416,,,,9.108720,9.114895,2475969.000000,1673606981.835326
1673608517.786480,,,,9.057080,9.060636,2475970.000000,1673606981.836333
1673608517.786519,,,,9.033088,9.034311,2475971.000000,1673606981.837340
1673608517.786682,,,,9.005586,9.007361,2475972.000000,1673606981.838347
1673608517.786761,,,,8.998734,9.004573,2475973.000000,1673606981.839355
1673608517.786927,,,,8.986425,8.989668,2475974.000000,1673606981.840362
1673608517.787031,,,,8.927983,8.930961,2475975.000000,1673606981.841369
1673608517.787150,,,,8.911587,8.913868,2475976.000000,1673606981.842376
1673608517.792247,,,,8.935435,8.938822,2475977.000000,1673606981.843383
1673608517.792513,,,,8.943129,8.949809,2475978.000000,1673606981.844390
1673608517.792521,,,,9.011572,9.019238,2475979.000000,1673606981.845397
1673608517.794867,,,,9.090328,9.096601,2475980.000000,1673606981.846404
1673608517.795208,,,,9.122831,9.127108,2475981.000000,1673606981.847411
1673608517.795367,,,,9.000200,9.000607,2475982.000000,1673606981.848418
1673608517.795399,,,,8.891562,8.893674,2475983.000000,1673606981.849425
1673608517.795509,,,,8.908125,8.913243,2475984.000000,1673606981.850432
1673608517.795619,,,,8.958995,8.962502,2475985.000000,1673606981.851439
1673608517.795718,,,,9.039411,9.043494,2475986.000000,1673606981.852447
1673608517.795849,,,,9.107999,9.109895,2475987.000000,1673606981.853454
1673608517.804913,,,,9.204810,9.206057,2475988.000000,1673606981.854461
1673608517.804942,,,,9.239236,9.242815,2475989.000000,1673606981.855468
1673608517.805269,,,,9.156945,9.160500,2475990.000000,1673606981.856475
1673608517.807543,,,,9.074870,9.079026,2475991.000000,1673606981.857482
1673608517.807567,,,,9.062754,9.067391,2475992.000000,1673606981.858489
1673608517.807786,,,,9.095426,9.099125,2475993.000000,1673606981.859496
1673608517.808084,,,,9.103478,9.105255,2475994.000000,1673606981.860503
1673608517.811990,,,,9.079125,9.079940,2475995.000000,1673606981.861510
1673608517.812202,,,,9.092781,9.096552,2475996.000000,1673606981.862517
1673608517.813106,67.399773,2309695.000000,1673608517.800725,,,,
1673608517.813120,67.472130,2309696.000000,1673608517.801725,,,,
1673608517.813129,67.544502,2309697.000000,1673608517.802725,,,,
1673608517.813139,67.653038,2309698.000000,1673608517.803725,,,,
1673608517.813182,67.707306,2309699.000000,1673608517.804725,,,,
1673608517.813190,67.743484,2309700.000000,1673608517.805725,,,,
1673608517.813213,67.852036,2309701.000000,1673608517.806725,,,,
1673608517.813216,67.924393,2309702.000000,1673608517.807725,,,,
1673608517.813228,67.996750,2309703.000000,1673608517.808725,,,,
1673608517.813241,68.087212,2309704.000000,1673608517.809725,,,,
1673608517.813266,,,,9.165407,9.169491,2475997.000000,1673606981.863524
1673608517.813270,,,,9.183750,9.187233,2475998.000000,1673606981.864532
1673608517.813274,,,,9.148026,9.151388,2475999.000000,1673606981.865539
1673608517.813312,,,,9.122567,9.126747,2476000.000000,1673606981.866546
1673608517.813340,,,,9.120187,9.124656,2476001.000000,1673606981.867553
1673608517.814943,,,,9.121846,9.125906,2476002.000000,1673606981.868560
1673608517.815226,,,,9.100162,9.104822,2476003.000000,1673606981.869567
1673608517.815285,,,,9.101964,9.105783,2476004.000000,1673606981.870574
1673608517.815457,,,,9.134515,9.140330,2476005.000000,1673606981.871581
1673608517.815575,,,,9.173942,9.175838,2476006.000000,1673606981.872588
1673608517.815853,,,,9.130981,9.132300,2476007.000000,1673606981.873595
1673608517.815865,,,,9.031693,9.035273,2476008.000000,1673606981.874602
1673608517.819168,,,,8.901538,8.904492,2476009.000000,1673606981.875609
1673608517.819309,,,,8.751574,8.755633,2476010.000000,1673606981.876616
1673608517.819350,,,,8.594877,8.599394,2476011.000000,1673606981.877624
1673608517.822475,,,,8.658993,8.662741,2476012.000000,1673606981.878631
1673608517.822663,,,,8.918583,8.918532,2476013.000000,1673606981.879638
1673608517.822815,,,,9.037127,9.038254,2476014.000000,1673606981.880645
1673608517.822984,,,,8.981112,8.983153,2476015.000000,1673606981.881652
1673608517.826848,,,,8.954764,8.961589,2476016.000000,1673606981.882659
1673608517.827110,,,,8.915891,8.920311,2476017.000000,1673606981.883666
1673608517.827323,,,,8.959188,8.960747,2476018.000000,1673606981.884673
1673608517.827615,,,,9.086169,9.088619,2476019.000000,1673606981.885680
1673608517.829708,,,,9.282990,9.287266,2476020.000000,1673606981.886687
1673608517.829876,,,,9.350856,9.355516,2476021.000000,1673606981.887694
1673608517.829981,,,,9.322080,9.325899,2476022.000000,1673606981.888701
1673608517.830127,,,,9.280394,9.283323,2476023.000000,1673606981.889709
1673608517.831993,,,,9.246568,9.250796,2476024.000000,1673606981.890716
1673608517.832122,,,,9.126053,9.132421,2476025.000000,1673606981.891723
1673608517.846405,,,,9.158291,9.162255,2476026.000000,1673606981.892730
1673608517.846504,,,,9.159685,9.161389,2476027.000000,1673606981.893737
1673608517.846812,,,,9.113913,9.118742,2476028.000000,1673606981.894744
1673608517.846922,,,,9.084991,9.086095,2476029.000000,1673606981.895751
1673608517.846930,,,,9.063908,9.067271,2476030.000000,1673606981.896758
1673608517.846934,,,,9.000777,9.004429,2476031.000000,1673606981.897765
1673608517.847056,,,,8.951663,8.954617,2476032.000000,1673606981.898772
1673608517.847152,,,,8.986089,8.987985,2476033.000000,1673606981.899779
1673608517.853592,,,,9.050950,9.055947,2476034.000000,1673606981.900786
1673608517.853602,,,,9.103118,9.106457,2476035.000000,1673606981.901793
1673608517.853769,,,,9.118985,9.121531,2476036.000000,1673606981.902801
1673608517.855271,68.159561,2309705.000000,1673608517.794641,,,,
1673608517.857807,68.195740,2309706.000000,1673608517.795641,,,,
1673608517.857827,71.922302,2309756.000000,1673608517.845641,,,,
1673608517.857886,72.030853,2309757.000000,1673608517.846641,,,,
1673608517.857915,72.139389,2309758.000000,1673608517.847641,,,,
1673608517.857930,72.193657,2309759.000000,1673608517.848641,,,,
1673608517.857946,72.320297,2309760.000000,1673608517.849641,,,,
1673608517.858032,72.392654,2309761.000000,1673608517.850641,,,,
1673608517.858065,72.428825,2309762.000000,1673608517.851641,,,,
1673608517.858071,72.555466,2309763.000000,1673608517.852641,,,,
1673608517.858076,72.591644,2309764.000000,1673608517.853641,,,,
1673608517.858129,72.754448,2309765.000000,1673608517.854641,,,,
1673608517.860199,,,,9.120667,9.124103,2476037.000000,1673606981.903808
1673608517.860433,,,,9.110931,9.114534,2476038.000000,1673606981.904815
1673608517.860770,,,,9.130572,9.131964,2476039.000000,1673606981.905822
1673608517.861442,,,,9.178846,9.182040,2476040.000000,1673606981.906829
1673608517.861463,,,,9.192621,9.197042,2476041.000000,1673606981.907836
1673608517.861472,,,,9.180697,9.186248,2476042.000000,1673606981.908843
1673608517.861500,,,,9.138506,9.143095,2476043.000000,1673606981.909850
1673608517.861516,,,,9.041983,9.046019,2476044.000000,1673606981.910857
1673608517.862534,,,,9.019457,9.023396,2476045.000000,1673606981.911864
1673608517.862755,,,,8.969333,8.971878,2476046.000000,1673606981.912871
1673608517.862951,,,,8.953562,8.955770,2476047.000000,1673606981.913878
1673608517.863207,,,,9.037992,9.041836,2476048.000000,1673606981.914886
1673608517.863218,,,,9.091915,9.096360,2476049.000000,1673606981.915893
1673608517.863357,,,,9.090714,9.097489,2476050.000000,1673606981.916900
1673608517.867228,,,,9.050469,9.054337,2476051.000000,1673606981.917907
1673608517.867505,,,,9.034531,9.037460,2476052.000000,1673606981.918914
1673608517.867635,,,,8.990104,8.992986,2476053.000000,1673606981.919921
1673608517.867640,,,,8.968250,8.972792,2476054.000000,1673606981.920928
1673608517.867664,,,,8.931877,8.936803,2476055.000000,1673606981.921935
1673608517.869864,,,,8.997244,9.002818,2476056.000000,1673606981.922942
1673608517.869877,,,,9.200963,9.205936,2476057.000000,1673606981.923949
1673608517.870057,,,,9.284648,9.288011,2476058.000000,1673606981.924956
1673608517.870256,,,,9.230268,9.233054,2476059.000000,1673606981.925963
1673608517.870497,,,,9.163436,9.164948,2476060.000000,1673606981.926970
1673608517.870506,,,,9.126846,9.130954,2476061.000000,1673606981.927978
1673608517.882334,,,,9.077707,9.081094,2476062.000000,1673606981.928985
1673608517.882640,,,,9.072322,9.072632,2476063.000000,1673606981.929992
1673608517.882739,,,,9.097998,9.102154,2476064.000000,1673606981.930999
1673608517.884817,,,,9.102565,9.107538,2476065.000000,1673606981.932006
1673608517.884912,,,,9.062322,9.068209,2476066.000000,1673606981.933013
1673608517.885034,,,,9.052921,9.054385,2476067.000000,1673606981.934020
1673608517.885230,,,,9.068115,9.068833,2476068.000000,1673606981.935027
1673608517.885242,,,,9.031141,9.033254,2476069.000000,1673606981.936034
1673608517.885247,,,,8.983084,8.985436,2476070.000000,1673606981.937041
1673608517.885497,,,,8.963611,8.967238,2476071.000000,1673606981.938048
1673608517.885607,,,,8.941278,8.945625,2476072.000000,1673606981.939055
1673608517.889766,,,,8.972458,8.976518,2476073.000000,1673606981.940063
1673608517.889984,,,,9.048282,9.051452,2476074.000000,1673606981.941070
1673608517.889994,,,,9.184495,9.188507,2476075.000000,1673606981.942077
1673608517.890001,,,,9.193439,9.197378,2476076.000000,1673606981.943084
1673608517.892206,,,,9.157930,9.160933,2476077.000000,1673606981.944091
1673608517.892330,,,,9.087420,9.089508,2476078.000000,1673606981.945098
1673608517.892396,,,,9.018255,9.021449,2476079.000000,1673606981.946105
1673608517.892518,,,,9.020274,9.024286,2476080.000000,1673606981.947112
1673608517.899910,,,,9.029314,9.032291,2476081.000000,1673606981.948119
1673608517.899924,,,,9.071914,9.075156,2476082.000000,1673606981.949126
1673608517.911319,72.700180,2309766.000000,1673608517.850278,,,,
1673608517.911514,72.808731,2309767.000000,1673608517.851278,,,,
1673608517.912485,,,,9.126077,9.129752,2476083.000000,1673606981.950133
1673608517.912840,,,,9.172043,9.176751,2476084.000000,1673606981.951140
1673608517.913548,,,,9.188270,9.193483,2476085.000000,1673606981.952147
1673608517.913569,,,,9.134130,9.137806,2476086.000000,1673606981.953155
1673608517.914536,76.300117,2309817.000000,1673608517.901278,,,,
1673608517.914561,76.390564,2309818.000000,1673608517.902278,,,,
1673608517.914572,76.444847,2309819.000000,1673608517.903278,,,,
1673608517.914599,76.499115,2309820.000000,1673608517.904278,,,,
1673608517.914623,76.517204,2309821.000000,1673608517.905278,,,,
1673608517.914635,76.589561,2309822.000000,1673608517.906278,,,,
1673608517.914649,76.589561,2309823.000000,1673608517.907278,,,,
1673608517.914662,76.643829,2309824.000000,1673608517.908278,,,,
1673608517.914670,76.643829,2309825.000000,1673608517.909278,,,,
1673608517.914728,76.716202,2309826.000000,1673608517.910278,,,,
1673608517.915346,,,,9.098575,9.102345,2476087.000000,1673606981.954162
1673608517.915367,,,,9.085328,9.087369,2476088.000000,1673606981.955169
1673608517.915443,,,,9.086314,9.086792,2476089.000000,1673606981.956176
1673608517.915455,,,,9.104417,9.106481,2476090.000000,1673606981.957183
1673608517.919873,,,,9.100065,9.102562,2476091.000000,1673606981.958190
1673608517.919977,,,,9.047585,9.049480,2476092.000000,1673606981.959197
1673608517.920049,,,,8.992099,8.995390,2476093.000000,1673606981.960204
1673608517.920193,,,,8.962120,8.966180,2476094.000000,1673606981.961211
1673608517.922437,,,,8.913583,8.919974,2476095.000000,1673606981.962218
1673608517.922624,,,,8.884951,8.888409,2476096.000000,1673606981.963225
1673608517.922879,,,,8.994767,8.998226,2476097.000000,1673606981.964232
1673608517.923011,,,,9.004432,9.010222,2476098.000000,1673606981.965240
1673608517.923240,,,,9.013856,9.019623,2476099.000000,1673606981.966247
1673608517.923483,,,,8.963250,8.966036,2476100.000000,1673606981.967254
1673608517.923501,,,,8.948345,8.952165,2476101.000000,1673606981.968261
1673608517.927771,,,,9.038305,9.042340,2476102.000000,1673606981.969268
1673608517.927904,,,,9.222648,9.226540,2476103.000000,1673606981.970275
1673608517.928011,,,,9.303713,9.309648,2476104.000000,1673606981.971282
1673608517.928073,,,,9.277629,9.281303,2476105.000000,1673606981.972289
1673608517.928097,,,,9.211108,9.213798,2476106.000000,1673606981.973296
1673608517.928122,,,,9.132376,9.138046,2476107.000000,1673606981.974303
1673608517.930121,,,,9.056215,9.061790,2476108.000000,1673606981.975310
1673608517.930317,,,,9.037151,9.042460,2476109.000000,1673606981.976317
1673608517.930830,,,,9.014072,9.018517,2476110.000000,1673606981.977324
1673608517.931552,,,,9.019794,9.024334,2476111.000000,1673606981.978332
1673608517.931699,,,,8.986955,8.990558,2476112.000000,1673606981.979339
1673608517.931725,,,,8.950557,8.956371,2476113.000000,1673606981.980346
1673608517.931734,,,,9.017342,9.019094,2476114.000000,1673606981.981353
1673608517.935065,,,,9.101195,9.103812,2476115.000000,1673606981.982360
1673608517.935545,,,,9.157666,9.160164,2476116.000000,1673606981.983367
1673608517.935561,,,,9.127375,9.129392,2476117.000000,1673606981.984374
1673608517.935797,,,,9.008855,9.013997,2476118.000000,1673606981.985381
1673608517.937268,,,,8.978348,8.982744,2476119.000000,1673606981.986388
1673608517.937321,,,,8.949115,8.955122,2476120.000000,1673606981.987395
1673608517.937523,,,,8.941254,8.946347,2476121.000000,1673606981.988402
1673608517.937677,,,,8.947335,8.951756,2476122.000000,1673606981.989409
1673608517.942325,,,,8.979285,8.984812,2476123.000000,1673606981.990417
1673608517.942835,,,,8.976665,8.980629,2476124.000000,1673606981.991424
1673608517.942880,,,,8.998037,9.001184,2476125.000000,1673606981.992431
1673608517.942888,,,,9.062778,9.065684,2476126.000000,1673606981.993438
1673608517.944447,,,,9.134587,9.137686,2476127.000000,1673606981.994445
1673608517.944601,,,,9.145286,9.147951,2476128.000000,1673606981.995452
1673608517.950002,,,,9.129274,9.135065,2476129.000000,1673606981.996459
1673608517.950030,,,,9.128865,9.131867,2476130.000000,1673606981.997466
1673608517.950174,,,,9.099248,9.103211,2476131.000000,1673606981.998473
1673608517.950304,,,,9.034050,9.038687,2476132.000000,1673606981.999480
1673608517.952108,,,,8.985079,8.989428,2476133.000000,1673606982.000487
1673608517.952115,,,,9.053835,9.053976,2476134.000000,1673606982.001494
1673608517.952125,,,,9.091242,9.094076,2476135.000000,1673606982.002501
1673608517.952130,,,,9.152738,9.156653,2476136.000000,1673606982.003509
1673608517.966592,,,,9.256833,9.262696,2476137.000000,1673606982.004516
1673608517.966607,,,,9.238395,9.241445,2476138.000000,1673606982.005523
1673608517.966614,,,,9.196444,9.198772,2476139.000000,1673606982.006530
1673608517.975380,,,,9.151632,9.155187,2476140.000000,1673606982.007537
1673608517.975795,,,,9.087732,9.090350,2476141.000000,1673606982.008544
1673608517.976032,,,,9.038569,9.040778,2476142.000000,1673606982.009551
1673608517.976049,,,,9.075063,9.078811,2476143.000000,1673606982.010558
1673608517.978188,78.380478,2309861.000000,1673608517.950455,,,,
1673608517.978722,78.452850,2309862.000000,1673608517.951455,,,,
1673608517.978754,78.470940,2309863.000000,1673608517.952455,,,,
1673608517.978768,78.579468,2309864.000000,1673608517.953455,,,,
1673608517.978775,78.615646,2309865.000000,1673608517.954455,,,,
1673608517.978786,78.778465,2309866.000000,1673608517.955455,,,,
1673608517.978797,78.868912,2309867.000000,1673608517.956455,,,,
1673608517.978862,78.887001,2309868.000000,1673608517.957455,,,,
1673608517.978937,79.013641,2309869.000000,1673608517.958455,,,,
1673608517.978944,79.067909,2309870.000000,1673608517.959455,,,,
1673608517.978948,79.827698,2309878.000000,1673608517.967455,,,,
1673608517.978976,79.900055,2309879.000000,1673608517.968455,,,,
1673608517.978986,79.936234,2309880.000000,1673608517.969455,,,,
1673608517.978994,80.044769,2309881.000000,1673608517.970455,,,,
1673608517.979028,80.117142,2309882.000000,1673608517.971455,,,,
1673608517.979076,80.243767,2309883.000000,1673608517.972455,,,,
1673608517.979083,80.279938,2309884.000000,1673608517.973455,,,,
1673608517.979089,80.442757,2309885.000000,1673608517.974455,,,,
1673608517.979094,80.478935,2309886.000000,1673608517.975455,,,,
1673608517.979127,80.533203,2309887.000000,1673608517.976455,,,,
1673608517.979775,,,,9.144396,9.145980,2476144.000000,1673606982.011565
1673608517.980253,,,,9.103888,9.106289,2476145.000000,1673606982.012572
1673608517.980264,,,,9.044916,9.047726,2476146.000000,1673606982.013579
1673608517.983947,,,,8.961832,8.966829,2476149.000000,1673606982.016601
1673608517.983962,,,,8.937335,8.940866,2476150.000000,1673606982.017608
1673608517.983975,,,,8.971641,8.974643,2476151.000000,1673606982.018615
1673608517.983984,,,,9.102133,9.107491,2476152.000000,1673606982.019622
1673608517.983994,,,,9.150526,9.154009,2476153.000000,1673606982.020629
1673608517.984001,,,,9.186106,9.189517,2476154.000000,1673606982.021636
1673608517.984009,,,,9.255391,9.260052,2476155.000000,1673606982.022643
1673608517.984049,,,,9.298280,9.301474,2476156.000000,1673606982.023650
1673608517.984058,,,,9.264767,9.266928,2476157.000000,1673606982.024657
1673608517.984084,,,,9.181250,9.184468,2476158.000000,1673606982.025664
1673608517.987752,,,,9.084294,9.086816,2476159.000000,1673606982.026671
1673608517.987787,,,,9.054148,9.056597,2476160.000000,1673606982.027678
1673608517.988243,,,,9.054292,9.055419,2476161.000000,1673606982.028686
1673608517.988428,,,,9.038810,9.042172,2476162.000000,1673606982.029693
1673608517.988447,,,,9.047705,9.050323,2476163.000000,1673606982.030700
1673608517.988458,,,,9.083453,9.084508,2476164.000000,1673606982.031707
1673608517.989610,,,,9.097901,9.102178,2476165.000000,1673606982.032714
1673608517.990106,,,,9.099921,9.102081,2476166.000000,1673606982.033721
1673608517.990144,,,,9.116461,9.117996,2476167.000000,1673606982.034728
1673608517.990151,,,,9.110018,9.112563,2476168.000000,1673606982.035735
1673608517.995289,,,,9.103238,9.107203,2476169.000000,1673606982.036742
1673608517.995479,,,,9.125259,9.128238,2476170.000000,1673606982.037749
1673608517.995489,,,,9.151440,9.153384,2476171.000000,1673606982.038756
1673608517.995635,,,,9.144853,9.147061,2476172.000000,1673606982.039763
1673608517.995773,,,,9.116220,9.120111,2476173.000000,1673606982.040771
1673608517.995796,,,,9.116437,9.118958,2476174.000000,1673606982.041778
1673608517.995810,,,,9.122110,9.124415,2476175.000000,1673606982.042785
1673608517.997000,,,,9.116894,9.118646,2476176.000000,1673606982.043792
1673608517.997171,,,,9.137424,9.136315,2476177.000000,1673606982.044799
1673608517.997335,,,,9.169927,9.171607,2476178.000000,1673606982.045806
1673608517.997399,,,,9.179447,9.182064,2476179.000000,1673606982.046813
1673608518.002939,,,,9.137352,9.143576,2476180.000000,1673606982.047820
1673608518.003176,,,,9.101556,9.105159,2476181.000000,1673606982.048827
1673608518.003385,,,,9.057922,9.059674,2476182.000000,1673606982.049834
1673608518.003428,,,,9.007004,9.009092,2476183.000000,1673606982.050841
1673608518.003563,,,,8.996547,9.001592,2476184.000000,1673606982.051848
1673608518.003629,,,,8.998830,9.001015,2476185.000000,1673606982.052855
1673608518.003845,,,,9.024482,9.025248,2476186.000000,1673606982.053863
1673608518.003850,,,,9.061384,9.062487,2476187.000000,1673606982.054870
1673608518.003862,,,,9.095160,9.098042,2476188.000000,1673606982.055877
1673608518.003925,,,,9.053884,9.057174,2476189.000000,1673606982.056884
1673608518.004856,,,,9.079198,9.084941,2476190.000000,1673606982.057891
1673608518.004950,,,,9.150526,9.152110,2476191.000000,1673606982.058898
1673608518.005034,,,,9.154902,9.158553,2476192.000000,1673606982.059905
1673608518.005333,,,,9.129611,9.133286,2476193.000000,1673606982.060912
1673608518.005340,,,,9.101243,9.103932,2476194.000000,1673606982.061919
1673608518.005342,,,,9.043930,9.048110,2476195.000000,1673606982.062926
1673608518.005369,,,,9.012606,9.017987,2476196.000000,1673606982.063933
1673608518.005374,,,,8.992171,8.997025,2476197.000000,1673606982.064940
1673608518.010665,,,,8.973395,8.977095,2476198.000000,1673606982.065948
1673608518.010677,,,,8.970920,8.972335,2476199.000000,1673606982.066955
1673608518.010960,,,,8.918054,8.919518,2476200.000000,1673606982.067962
1673608518.010970,,,,8.827998,8.829943,2476201.000000,1673606982.068969
1673608518.010990,,,,8.773979,8.777678,2476202.000000,1673606982.069976
1673608518.011101,,,,8.831869,8.834775,2476203.000000,1673606982.070983
1673608518.011400,,,,8.866535,8.868527,2476204.000000,1673606982.071990
1673608518.011641,,,,8.874012,8.875451,2476205.000000,1673606982.072997
1673608518.011649,,,,8.985969,8.987600,2476206.000000,1673606982.074004
1673608518.011652,,,,9.098334,9.100279,2476207.000000,1673606982.075011
1673608518.011754,,,,9.214643,9.216009,2476208.000000,1673606982.076018
1673608518.011760,,,,9.142617,9.143046,2476209.000000,1673606982.077025
1673608518.011781,,,,9.107974,9.112323,2476210.000000,1673606982.078032
1673608518.011835,,,,9.155502,9.158360,2476211.000000,1673606982.079040
1673608518.012314,,,,9.190241,9.195023,2476212.000000,1673606982.080047
1673608518.012461,,,,9.216108,9.219904,2476213.000000,1673606982.081054
1673608518.012531,,,,9.194569,9.199493,2476214.000000,1673606982.082061
1673608518.012632,,,,9.150118,9.155307,2476215.000000,1673606982.083068
1673608518.012842,,,,9.095137,9.099773,2476216.000000,1673606982.084075
1673608518.012847,,,,9.028424,9.030176,2476217.000000,1673606982.085082
1673608518.012861,,,,8.973539,8.977599,2476218.000000,1673606982.086089
1673608518.026990,,,,8.992772,8.996351,2476219.000000,1673606982.087096
1673608518.027026,,,,9.130741,9.135089,2476220.000000,1673606982.088103
1673608518.027073,,,,9.233394,9.238920,2476221.000000,1673606982.089110
1673608518.027395,,,,9.227937,9.233318,2476222.000000,1673606982.090117
1673608518.028273,,,,9.168004,9.172616,2476223.000000,1673606982.091125
1673608518.028298,,,,9.162018,9.165668,2476224.000000,1673606982.092132
1673608518.028440,,,,9.124851,9.127829,2476225.000000,1673606982.093139
1673608518.033823,,,,9.003446,9.006473,2476226.000000,1673606982.094146
1673608518.033845,,,,8.862063,8.864537,2476227.000000,1673606982.095153
1673608518.034071,,,,8.811026,8.815903,2476228.000000,1673606982.096160
1673608518.040168,,,,8.869204,8.873744,2476229.000000,1673606982.097167
1673608518.040926,,,,8.943537,8.946395,2476230.000000,1673606982.098174
1673608518.040945,,,,9.042392,9.045802,2476231.000000,1673606982.099181
1673608518.041080,,,,9.171370,9.172376,2476232.000000,1673606982.100188
1673608518.041093,,,,9.241327,9.245507,2476233.000000,1673606982.101195
1673608518.041100,,,,9.221974,9.227188,2476234.000000,1673606982.102202
1673608518.041140,,,,9.181346,9.186248,2476235.000000,1673606982.103209
1673608518.042500,,,,9.159493,9.162279,2476236.000000,1673606982.104217
1673608518.043125,,,,9.127496,9.132589,2476237.000000,1673606982.105224
1673608518.043279,80.533203,2309888.000000,1673608517.982148,,,,
1673608518.043444,,,,9.106676,9.112659,2476238.000000,1673606982.106231
1673608518.043459,,,,9.092612,9.097634,2476239.000000,1673606982.107238
1673608518.043642,,,,9.090425,9.096288,2476240.000000,1673606982.108245
1673608518.043649,,,,9.130260,9.137277,2476241.000000,1673606982.109252
1673608518.043658,,,,9.158628,9.163000,2476242.000000,1673606982.110259
1673608518.043679,,,,9.200410,9.203557,2476243.000000,1673606982.111266
1673608518.043705,80.605560,2309889.000000,1673608517.983148,,,,
1673608518.043910,80.696022,2309890.000000,1673608517.984148,,,,
