__time,/gdx/grip_force_stream/grip_force,/gdx/grip_force_stream/header/seq,/gdx/grip_force_stream/header/stamp,/shimmer0/emg_stream/emg_ch1,/shimmer0/emg_stream/emg_ch2,/shimmer0/emg_stream/header/seq,/shimmer0/emg_stream/header/stamp
1673607483.706581,,,,3.155584,3.158851,1455433.000000,1673606971.720183
1673607483.707123,,,,3.154526,3.155437,1455434.000000,1673606971.721190
1673607483.707280,,,,3.150295,3.151374,1455435.000000,1673606971.722198
1673607483.709394,,,,3.148228,3.150316,1455436.000000,1673606971.723205
1673607483.710274,,,,3.151473,3.149643,1455437.000000,1673606971.724212
1673607483.710297,,,,3.146930,3.145436,1455438.000000,1673606971.725219
1673607483.710433,,,,3.139116,3.140892,1455439.000000,1673606971.726226
1673607483.710674,,,,3.140222,3.141157,1455440.000000,1673606971.727233
1673607483.710690,0.538678,1592102.000000,1673607483.649669,,,,
1673607483.711033,,,,3.147795,3.149090,1455441.000000,1673606971.728240
1673607483.711048,,,,3.148276,3.150244,1455442.000000,1673606971.729247
1673607483.712857,0.556767,1592103.000000,1673607483.650669,,,,
1673607483.712871,0.592954,1592104.000000,1673607483.651670,,,,
1673607483.712878,0.611043,1592105.000000,1673607483.652669,,,,
1673607483.712930,0.556767,1592106.000000,1673607483.653669,,,,
1673607483.712947,0.592954,1592107.000000,1673607483.654670,,,,
1673607483.712956,0.538678,1592108.000000,1673607483.655669,,,,
1673607483.713005,0.538678,1592109.000000,1673607483.656669,,,,
1673607483.713016,0.556767,1592110.000000,1673607483.657669,,,,
1673607483.713022,0.574856,1592152.000000,1673607483.699669,,,,
1673607483.713035,0.556767,1592153.000000,1673607483.700670,,,,
1673607483.713104,0.611043,1592154.000000,1673607483.701669,,,,
1673607483.713111,0.611043,1592155.000000,1673607483.702669,,,,
1673607483.713145,0.592954,1592156.000000,1673607483.703669,,,,
1673607483.713155,0.592954,1592157.000000,1673607483.704669,,,,
1673607483.713191,0.629132,1592158.000000,1673607483.705669,,,,
1673607483.713199,0.538678,1592159.000000,1673607483.706669,,,,
1673607483.713214,0.574856,1592160.000000,1673607483.707669,,,,
1673607483.713223,0.574856,1592161.000000,1673607483.708669,,,,
1673607483.713923,,,,3.145511,3.145821,1455443.000000,1673606971.730254
1673607483.714154,,,,3.146304,3.146999,1455444.000000,1673606971.731261
1673607483.714198,,,,3.158108,3.157504,1455445.000000,1673606971.732268
1673607483.716593,,,,3.176283,3.176496,1455446.000000,1673606971.733275
1673607483.716806,,,,3.185707,3.185415,1455447.000000,1673606971.734282
1673607483.717287,,,,3.194241,3.193661,1455448.000000,1673606971.735290
1673607483.717309,,,,3.190106,3.189478,1455449.000000,1673606971.736297
1673607483.717315,,,,3.182822,3.183997,1455450.000000,1673606971.737304
1673607483.717412,,,,3.176427,3.178684,1455451.000000,1673606971.738311
1673607483.717422,,,,3.165873,3.166159,1455452.000000,1673606971.739318
1673607483.717429,,,,3.147482,3.149234,1455453.000000,1673606971.740325
1673607483.721746,,,,3.131952,3.131925,1455454.000000,1673606971.741332
1673607483.722021,,,,3.133851,3.134642,1455455.000000,1673606971.742339
1673607483.722295,,,,3.135943,3.137406,1455456.000000,1673606971.743346
1673607483.722477,,,,3.138155,3.139594,1455457.000000,1673606971.744353
1673607483.722694,,,,3.137650,3.136541,1455458.000000,1673606971.745360
1673607483.722709,,,,3.137938,3.137455,1455459.000000,1673606971.746367
1673607483.723829,,,,3.132385,3.133800,1455460.000000,1673606971.747375
1673607483.724004,,,,3.124307,3.124352,1455461.000000,1673606971.748382
1673607483.724310,,,,3.123995,3.124136,1455462.000000,1673606971.749389
1673607483.724325,,,,3.125918,3.128536,1455463.000000,1673606971.750396
1673607483.729153,,,,3.130414,3.132382,1455464.000000,1673606971.751403
1673607483.729165,,,,3.131567,3.131901,1455465.000000,1673606971.752410
1673607483.729192,,,,3.143468,3.143729,1455466.000000,1673606971.753417
1673607483.729197,,,,3.156762,3.158201,1455467.000000,1673606971.754424
1673607483.731370,,,,3.168830,3.170342,1455468.000000,1673606971.755431
1673607483.731483,,,,3.181307,3.183636,1455469.000000,1673606971.756438
1673607483.731535,,,,3.187630,3.191113,1455470.000000,1673606971.757445
1673607483.736556,,,,3.189842,3.194551,1455471.000000,1673606971.758452
1673607483.736634,,,,3.196164,3.198590,1455472.000000,1673606971.759459
1673607483.736734,,,,3.200324,3.202917,1455473.000000,1673606971.760467
1673607483.736772,,,,3.198040,3.200320,1455474.000000,1673606971.761474
1673607483.738877,,,,3.190804,3.192243,1455475.000000,1673606971.762481
1673607483.738886,,,,3.182485,3.184141,1455476.000000,1673606971.763488
1673607483.738980,,,,3.163253,3.166039,1455477.000000,1673606971.764495
1673607483.739039,,,,3.144237,3.146999,1455478.000000,1673606971.765502
1673607483.753255,,,,3.131904,3.133343,1455479.000000,1673606971.766509
1673607483.753464,,,,3.123033,3.123968,1455480.000000,1673606971.767516
1673607483.753489,,,,3.125413,3.123415,1455481.000000,1673606971.768523
1673607483.760854,,,,3.119860,3.120049,1455482.000000,1673606971.769530
1673607483.761175,,,,3.123081,3.123535,1455483.000000,1673606971.770537
1673607483.761822,,,,3.121831,3.124593,1455484.000000,1673606971.771544
1673607483.762234,,,,3.118009,3.120049,1455485.000000,1673606971.772552
1673607483.762391,,,,3.115965,3.119040,1455486.000000,1673606971.773559
1673607483.762468,,,,3.118393,3.122405,1455487.000000,1673606971.774566
1673607483.762783,,,,3.125317,3.125530,1455488.000000,1673606971.775573
1673607483.762990,,,,3.132385,3.130074,1455489.000000,1673606971.776580
1673607483.766663,0.538678,1592170.000000,1673607483.713085,,,,
1673607483.767142,0.592954,1592171.000000,1673607483.714085,,,,
1673607483.767860,,,,3.144670,3.146446,1455490.000000,1673606971.777587
1673607483.767961,,,,3.155416,3.159307,1455491.000000,1673606971.778594
1673607483.767975,,,,3.164142,3.166928,1455492.000000,1673606971.779601
1673607483.768034,,,,3.170465,3.174140,1455493.000000,1673606971.780608
1673607483.768041,,,,3.183663,3.184598,1455494.000000,1673606971.781615
1673607483.768082,,,,3.193977,3.196546,1455495.000000,1673606971.782622
1673607483.769134,0.520589,1592172.000000,1673607483.715085,,,,
1673607483.769149,0.574856,1592173.000000,1673607483.716085,,,,
1673607483.769166,0.484411,1592174.000000,1673607483.717085,,,,
1673607483.769176,0.520589,1592175.000000,1673607483.718085,,,,
1673607483.769212,0.520589,1592176.000000,1673607483.719085,,,,
1673607483.769228,0.520589,1592177.000000,1673607483.720085,,,,
1673607483.769237,0.556767,1592178.000000,1673607483.721085,,,,
1673607483.769320,0.502500,1592179.000000,1673607483.722085,,,,
1673607483.769341,0.520589,1592213.000000,1673607483.756085,,,,
1673607483.769359,0.520589,1592214.000000,1673607483.757085,,,,
1673607483.769367,0.484411,1592215.000000,1673607483.758085,,,,
1673607483.769374,0.520589,1592216.000000,1673607483.759085,,,,
1673607483.769407,0.556767,1592217.000000,1673607483.760085,,,,
1673607483.769419,0.556767,1592218.000000,1673607483.761085,,,,
1673607483.769427,0.502500,1592219.000000,1673607483.762085,,,,
1673607483.769431,0.484411,1592220.000000,1673607483.763085,,,,
1673607483.769436,0.538678,1592221.000000,1673607483.764085,,,,
1673607483.769459,0.520589,1592222.000000,1673607483.765085,,,,
1673607483.769565,,,,3.194121,3.198469,1455496.000000,1673606971.783629
1673607483.769838,,,,3.189577,3.189358,1455497.000000,1673606971.784636
1673607483.769851,,,,3.183904,3.183276,1455498.000000,1673606971.785644
1673607483.770014,,,,3.170994,3.171063,1455499.000000,1673606971.786651
1673607483.770030,,,,3.161642,3.160894,1455500.000000,1673606971.787658
1673607483.770036,,,,3.173350,3.173972,1455501.000000,1673606971.788665
1673607483.770256,,,,3.183086,3.182362,1455502.000000,1673606971.789672
1673607483.770460,,,,3.183759,3.183348,1455503.000000,1673606971.790679
1673607483.773973,,,,3.192150,3.194335,1455504.000000,1673606971.791686
1673607483.774215,,,,3.199578,3.201955,1455505.000000,1673606971.792693
1673607483.774247,,,,3.186596,3.187867,1455506.000000,1673606971.793700
1673607483.776621,,,,3.170201,3.169044,1455507.000000,1673606971.794707
1673607483.776729,,,,3.164912,3.165534,1455508.000000,1673606971.795714
1673607483.776736,,,,3.157868,3.160437,1455509.000000,1673606971.796721
1673607483.776836,,,,3.153781,3.154114,1455510.000000,1673606971.797729
1673607483.781735,,,,3.145848,3.148561,1455511.000000,1673606971.798736
1673607483.781814,,,,3.129981,3.132743,1455512.000000,1673606971.799743
1673607483.781827,,,,3.134092,3.134690,1455513.000000,1673606971.800750
1673607483.781863,,,,3.129933,3.130387,1455514.000000,1673606971.801757
1673607483.783747,,,,3.130005,3.129016,1455515.000000,1673606971.802764
1673607483.783756,,,,3.140583,3.140243,1455516.000000,1673606971.803771
1673607483.789372,,,,3.147266,3.148970,1455517.000000,1673606971.804778
1673607483.789630,,,,3.140270,3.143248,1455518.000000,1673606971.805785
1673607483.790067,,,,3.129260,3.133103,1455519.000000,1673606971.806792
1673607483.790610,,,,3.134308,3.137334,1455520.000000,1673606971.807799
1673607483.790624,,,,3.138828,3.140003,1455521.000000,1673606971.808806
1673607483.790787,,,,3.148252,3.148393,1455522.000000,1673606971.809813
1673607483.790805,,,,3.171355,3.171688,1455523.000000,1673606971.810821
1673607483.791003,,,,3.176091,3.175847,1455524.000000,1673606971.811828
1673607483.791385,,,,3.169407,3.168419,1455525.000000,1673606971.812835
1673607483.791604,,,,3.155897,3.154788,1455526.000000,1673606971.813842
1673607483.792039,,,,3.132697,3.133031,1455527.000000,1673606971.814849
1673607483.796715,,,,3.120124,3.122020,1455528.000000,1673606971.815856
1673607483.796728,,,,3.110989,3.111563,1455529.000000,1673606971.816863
1673607483.796960,,,,3.115196,3.113654,1455530.000000,1673606971.817870
1673607483.797116,,,,3.125750,3.125434,1455531.000000,1673606971.818877
1673607483.798959,,,,3.142025,3.142166,1455532.000000,1673606971.819884
1673607483.799157,,,,3.149790,3.152816,1455533.000000,1673606971.820891
1673607483.799250,,,,3.159214,3.162288,1455534.000000,1673606971.821898
1673607483.799257,,,,3.166282,3.169356,1455535.000000,1673606971.822906
1673607483.812711,,,,3.166138,3.169140,1455536.000000,1673606971.823913
1673607483.812725,,,,3.164864,3.166856,1455537.000000,1673606971.824920
1673607483.812733,,,,3.164743,3.167241,1455538.000000,1673606971.825927
1673607483.821005,,,,3.166763,3.166784,1455539.000000,1673606971.826934
1673607483.821224,,,,3.163469,3.165702,1455540.000000,1673606971.827941
1673607483.821446,,,,3.159359,3.161255,1455541.000000,1673606971.828948
1673607483.823779,1.262282,1592274.000000,1673607483.812270,,,,
1673607483.823804,1.244192,1592275.000000,1673607483.813270,,,,
1673607483.823810,1.226103,1592276.000000,1673607483.814270,,,,
1673607483.823818,1.262282,1592277.000000,1673607483.815270,,,,
1673607483.823829,1.316557,1592278.000000,1673607483.816270,,,,
1673607483.823845,1.316557,1592279.000000,1673607483.817270,,,,
1673607483.823853,1.352735,1592280.000000,1673607483.818270,,,,
1673607483.823863,1.388913,1592281.000000,1673607483.819270,,,,
1673607483.823878,1.388913,1592282.000000,1673607483.820270,,,,
1673607483.823906,1.425100,1592283.000000,1673607483.821270,,,,
1673607483.826829,,,,3.164960,3.163635,1455542.000000,1673606971.829955
1673607483.826905,,,,3.165753,3.164933,1455543.000000,1673606971.830962
1673607483.827082,,,,3.161065,3.163130,1455544.000000,1673606971.831969
1673607483.827106,,,,3.152819,3.154668,1455545.000000,1673606971.832976
1673607483.829446,,,,3.147843,3.147263,1455546.000000,1673606971.833983
1673607483.829741,,,,3.148636,3.149138,1455547.000000,1673606971.834991
1673607483.829978,,,,3.143516,3.144330,1455548.000000,1673606971.835998
1673607483.829986,,,,3.131784,3.132959,1455549.000000,1673606971.837005
1673607483.830015,,,,3.131640,3.133776,1455550.000000,1673606971.838012
1673607483.830019,,,,3.133058,3.133776,1455551.000000,1673606971.839019
1673607483.830094,,,,3.133106,3.132935,1455552.000000,1673606971.840026
1673607483.830215,,,,3.137722,3.139474,1455553.000000,1673606971.841033
1673607483.830357,,,,3.140439,3.142215,1455554.000000,1673606971.842040
1673607483.830512,,,,3.139982,3.142046,1455555.000000,1673606971.843047
1673607483.834210,,,,3.140943,3.141517,1455556.000000,1673606971.844054
1673607483.834470,,,,3.142097,3.144402,1455557.000000,1673606971.845061
1673607483.834477,,,,3.147122,3.146374,1455558.000000,1673606971.846068
1673607483.834586,,,,3.149358,3.148946,1455559.000000,1673606971.847075
1673607483.834705,,,,3.149910,3.151759,1455560.000000,1673606971.848083
1673607483.834867,,,,3.147386,3.152143,1455561.000000,1673606971.849090
1673607483.834997,,,,3.149959,3.152696,1455562.000000,1673606971.850097
1673607483.835115,,,,3.153757,3.155990,1455563.000000,1673606971.851104
1673607483.836547,,,,3.162267,3.164236,1455564.000000,1673606971.852111
1673607483.836704,,,,3.171499,3.172530,1455565.000000,1673606971.853118
1673607483.836786,,,,3.179528,3.180247,1455566.000000,1673606971.854125
1673607483.836861,,,,3.185274,3.186040,1455567.000000,1673606971.855132
1673607483.836904,,,,3.180057,3.180872,1455568.000000,1673606971.856139
1673607483.836977,,,,3.171018,3.171905,1455569.000000,1673606971.857146
1673607483.837203,,,,3.165056,3.169332,1455570.000000,1673606971.858153
1673607483.842095,,,,3.168253,3.169404,1455571.000000,1673606971.859160
1673607483.842106,,,,3.165104,3.163418,1455572.000000,1673606971.860168
1673607483.842284,,,,3.156497,3.155918,1455573.000000,1673606971.861175
1673607483.842303,,,,3.153420,3.157264,1455574.000000,1673606971.862182
1673607483.842720,,,,3.154045,3.154764,1455575.000000,1673606971.863189
1673607483.842730,,,,3.152940,3.151686,1455576.000000,1673606971.864196
1673607483.843127,,,,3.146184,3.145700,1455577.000000,1673606971.865203
1673607483.844061,,,,3.139020,3.140147,1455578.000000,1673606971.866210
1673607483.844150,,,,3.133972,3.134858,1455579.000000,1673606971.867217
1673607483.844340,,,,3.131520,3.132358,1455580.000000,1673606971.868224
1673607483.844484,,,,3.136712,3.138729,1455581.000000,1673606971.869231
1673607483.849042,,,,3.154622,3.154908,1455582.000000,1673606971.870238
1673607483.849366,,,,3.178086,3.175198,1455583.000000,1673606971.871245
1673607483.849625,,,,3.187173,3.188998,1455584.000000,1673606971.872252
1673607483.851553,,,,3.194482,3.197051,1455585.000000,1673606971.873260
1673607483.851801,,,,3.187438,3.186233,1455586.000000,1673606971.874267
1673607483.851825,,,,3.173807,3.174693,1455587.000000,1673606971.875274
1673607483.851862,,,,3.158084,3.157649,1455588.000000,1673606971.876281
1673607483.857020,,,,3.134092,3.135579,1455589.000000,1673606971.877288
1673607483.857039,,,,3.113994,3.115794,1455590.000000,1673606971.878295
1673607483.857054,,,,3.116230,3.116082,1455591.000000,1673606971.879302
1673607483.858885,,,,3.122600,3.122165,1455592.000000,1673606971.880309
1673607483.859242,,,,3.133058,3.136228,1455593.000000,1673606971.881316
1673607483.859544,,,,3.139597,3.141373,1455594.000000,1673606971.882323
1673607483.859697,,,,3.136472,3.137118,1455595.000000,1673606971.883330
1673607483.872930,,,,3.139982,3.138488,1455596.000000,1673606971.884337
1673607483.873070,,,,3.135895,3.137406,1455597.000000,1673606971.885345
1673607483.873269,,,,3.141136,3.139498,1455598.000000,1673606971.886352
1673607483.873392,,,,3.139693,3.139210,1455599.000000,1673606971.887359
1673607483.873518,,,,3.130317,3.131877,1455600.000000,1673606971.888366
1673607483.873648,,,,3.127312,3.129112,1455601.000000,1673606971.889373
1673607483.873759,,,,3.129019,3.132863,1455602.000000,1673606971.890380
1673607483.880566,,,,3.137313,3.140748,1455603.000000,1673606971.891387
1673607483.880766,,,,3.141160,3.143513,1455604.000000,1673606971.892394
1673607483.881033,,,,3.142097,3.144547,1455605.000000,1673606971.893401
1673607483.881166,,,,3.144069,3.144715,1455606.000000,1673606971.894408
1673607483.881194,,,,3.148685,3.146662,1455607.000000,1673606971.895415
1673607483.881225,,,,3.152988,3.151566,1455608.000000,1673606971.896422
1673607483.881230,,,,3.153901,3.154018,1455609.000000,1673606971.897429
1673607483.887369,,,,3.154406,3.154379,1455610.000000,1673606971.898437
1673607483.887737,,,,3.153132,3.157264,1455611.000000,1673606971.899444
1673607483.887776,,,,3.164647,3.165822,1455612.000000,1673606971.900451
1673607483.887789,,,,3.175321,3.175270,1455613.000000,1673606971.901458
1673607483.888775,1.823075,1592299.000000,1673607483.841423,,,,
1673607483.888989,1.804986,1592300.000000,1673607483.842423,,,,
1673607483.889481,,,,3.188544,3.191401,1455614.000000,1673606971.902465
1673607483.889925,,,,3.194914,3.198662,1455615.000000,1673606971.903472
1673607483.889944,,,,3.186837,3.188276,1455616.000000,1673606971.904479
1673607483.890410,,,,3.167965,3.169380,1455617.000000,1673606971.905486
1673607483.890721,,,,3.153853,3.156230,1455618.000000,1673606971.906493
1673607483.891057,1.895440,1592301.000000,1673607483.843423,,,,
1673607483.891080,1.895440,1592302.000000,1673607483.844423,,,,
1673607483.891118,1.931618,1592303.000000,1673607483.845423,,,,
1673607483.891155,1.967796,1592304.000000,1673607483.846423,,,,
1673607483.891168,2.076339,1592305.000000,1673607483.847423,,,,
1673607483.891176,2.058249,1592306.000000,1673607483.848423,,,,
1673607483.891266,2.112517,1592307.000000,1673607483.849423,,,,
1673607483.891278,2.076339,1592308.000000,1673607483.850423,,,,
1673607483.891294,2.709497,1592335.000000,1673607483.877423,,,,
1673607483.891314,2.763764,1592336.000000,1673607483.878423,,,,
1673607483.891388,2.799942,1592337.000000,1673607483.879423,,,,
1673607483.891407,2.836128,1592338.000000,1673607483.880423,,,,
1673607483.891418,2.854218,1592339.000000,1673607483.881423,,,,
1673607483.891425,2.908485,1592340.000000,1673607483.882423,,,,
1673607483.891465,2.890396,1592341.000000,1673607483.883423,,,,
1673607483.891531,2.890396,1592342.000000,1673607483.884423,,,,
1673607483.891544,2.908485,1592343.000000,1673607483.885423,,,,
1673607483.891559,2.962760,1592344.000000,1673607483.886423,,,,
1673607483.891604,,,,3.137650,3.138945,1455619.000000,1673606971.907500
1673607483.894072,,,,3.117888,3.118847,1455620.000000,1673606971.908507
1673607483.894207,,,,3.124331,3.125506,1455621.000000,1673606971.909514
1673607483.894296,,,,3.134092,3.134113,1455622.000000,1673606971.910522
1673607483.894457,,,,3.139621,3.138801,1455623.000000,1673606971.911529
1673607483.896277,,,,3.145679,3.147431,1455624.000000,1673606971.912536
1673607483.896418,,,,3.146593,3.147888,1455625.000000,1673606971.913543
1673607483.896559,,,,3.147002,3.146782,1455626.000000,1673606971.914550
1673607483.896684,,,,3.143011,3.141325,1455627.000000,1673606971.915557
1673607483.901377,,,,3.140150,3.140508,1455628.000000,1673606971.916564
1673607483.901499,,,,3.138107,3.139762,1455629.000000,1673606971.917571
1673607483.901671,,,,3.141400,3.144042,1455630.000000,1673606971.918578
1673607483.903773,,,,3.154526,3.156182,1455631.000000,1673606971.919585
1673607483.903973,,,,3.162339,3.163659,1455632.000000,1673606971.920592
1673607483.904208,,,,3.161354,3.161759,1455633.000000,1673606971.921599
1673607483.904219,,,,3.158854,3.160101,1455634.000000,1673606971.922606
1673607483.909451,,,,3.159575,3.161519,1455635.000000,1673606971.923614
1673607483.909707,,,,3.157363,3.157673,1455636.000000,1673606971.924621
1673607483.909719,,,,3.150968,3.149475,1455637.000000,1673606971.925628
1673607483.912348,,,,3.143588,3.146085,1455638.000000,1673606971.926635
1673607483.912628,,,,3.143588,3.146830,1455639.000000,1673606971.927642
1673607483.912637,,,,3.145102,3.144571,1455640.000000,1673606971.928649
1673607483.912932,,,,3.144405,3.146013,1455641.000000,1673606971.929656
1673607483.913096,,,,3.144285,3.145051,1455642.000000,1673606971.930663
1673607483.913196,,,,3.142290,3.141806,1455643.000000,1673606971.931670
1673607483.913208,,,,3.138756,3.141758,1455644.000000,1673606971.932677
1673607483.916881,,,,3.139982,3.143417,1455645.000000,1673606971.933684
1673607483.917015,,,,3.146064,3.148850,1455646.000000,1673606971.934691
1673607483.917145,,,,3.151160,3.149595,1455647.000000,1673606971.935699
1673607483.917164,,,,3.158445,3.159548,1455648.000000,1673606971.936706
1673607483.919217,,,,3.160440,3.163635,1455649.000000,1673606971.937713
1673607483.919658,,,,3.160104,3.162072,1455650.000000,1673606971.938720
1673607483.919812,,,,3.157628,3.159187,1455651.000000,1673606971.939727
1673607483.933280,,,,3.152291,3.152696,1455652.000000,1673606971.940734
1673607483.933290,,,,3.152002,3.151037,1455653.000000,1673606971.941741
1673607483.933557,,,,3.151305,3.150244,1455654.000000,1673606971.942748
1673607483.933566,,,,3.156906,3.157649,1455655.000000,1673606971.943755
1673607483.933570,,,,3.162700,3.162841,1455656.000000,1673606971.944762
1673607483.933573,,,,3.157291,3.157841,1455657.000000,1673606971.945769
1673607483.933604,,,,3.155055,3.154956,1455658.000000,1673606971.946776
1673607483.933613,,,,3.154767,3.154595,1455659.000000,1673606971.947783
1673607483.940824,,,,3.155824,3.157841,1455660.000000,1673606971.948791
1673607483.940844,,,,3.157555,3.159404,1455661.000000,1673606971.949798
1673607483.940850,,,,3.150439,3.150677,1455662.000000,1673606971.950805
1673607483.940873,,,,3.142121,3.142166,1455663.000000,1673606971.951812
1673607483.943448,3.161748,1592355.000000,1673607483.892512,,,,
1673607483.944264,3.161748,1592356.000000,1673607483.893512,,,,
1673607483.944283,3.216015,1592357.000000,1673607483.894512,,,,
1673607483.944292,3.197926,1592358.000000,1673607483.895512,,,,
1673607483.944298,3.216015,1592359.000000,1673607483.896512,,,,
1673607483.944313,3.197926,1592360.000000,1673607483.897512,,,,
1673607483.944321,3.234104,1592361.000000,1673607483.898512,,,,
1673607483.944362,3.216015,1592362.000000,1673607483.899512,,,,
1673607483.944374,3.342647,1592363.000000,1673607483.900512,,,,
1673607483.944383,3.324558,1592364.000000,1673607483.901512,,,,
1673607483.944389,3.903440,1592396.000000,1673607483.933512,,,,
1673607483.944394,3.903440,1592397.000000,1673607483.934512,,,,
1673607483.944401,3.993894,1592398.000000,1673607483.935512,,,,
1673607483.944423,3.993894,1592399.000000,1673607483.936512,,,,
1673607483.944428,3.993894,1592400.000000,1673607483.937512,,,,
1673607483.944449,4.011983,1592401.000000,1673607483.938512,,,,
1673607483.944458,4.066250,1592402.000000,1673607483.939512,,,,
1673607483.944485,4.084348,1592403.000000,1673607483.940512,,,,
1673607483.944494,4.102437,1592404.000000,1673607483.941512,,,,
1673607483.944503,4.138615,1592405.000000,1673607483.942512,,,,
1673607483.946574,,,,3.143227,3.144282,1455664.000000,1673606971.952819
1673607483.946588,,,,3.141953,3.143200,1455665.000000,1673606971.953826
1673607483.946597,,,,3.142073,3.142046,1455666.000000,1673606971.954833
1673607483.949064,,,,3.146184,3.145893,1455667.000000,1673606971.955840
1673607483.949196,,,,3.151930,3.154355,1455668.000000,1673606971.956847
1673607483.949207,,,,3.152218,3.154595,1455669.000000,1673606971.957854
1673607483.954453,,,,3.148444,3.146422,1455670.000000,1673606971.958861
1673607483.954473,,,,3.147675,3.144859,1455671.000000,1673606971.959868
1673607483.954957,,,,3.156305,3.158105,1455672.000000,1673606971.960876
1673607483.955343,,,,3.172893,3.174910,1455673.000000,1673606971.961883
1673607483.955591,,,,3.188760,3.191642,1455674.000000,1673606971.962890
1673607483.955897,,,,3.198184,3.199695,1455675.000000,1673606971.963897
1673607483.956329,,,,3.208113,3.209288,1455676.000000,1673606971.964904
1673607483.956766,,,,3.208810,3.210826,1455677.000000,1673606971.965911
1673607483.957052,,,,3.200083,3.200224,1455678.000000,1673606971.966918
1673607483.957215,,,,3.179360,3.179213,1455679.000000,1673606971.967925
1673607483.957317,,,,3.152723,3.154475,1455680.000000,1673606971.968932
1673607483.962178,,,,3.123298,3.127718,1455681.000000,1673606971.969939
1673607483.962190,,,,3.120749,3.123054,1455682.000000,1673606971.970946
1673607483.962217,,,,3.140823,3.142431,1455683.000000,1673606971.971953
1673607483.962567,,,,3.154094,3.157360,1455684.000000,1673606971.972960
1673607483.962833,,,,3.161378,3.164716,1455685.000000,1673606971.973968
1673607483.963141,,,,3.159935,3.162120,1455686.000000,1673606971.974975
1673607483.963456,,,,3.152507,3.152985,1455687.000000,1673606971.975982
1673607483.964298,,,,3.136448,3.137310,1455688.000000,1673606971.976989
1673607483.964573,,,,3.115725,3.120097,1455689.000000,1673606971.977996
1673607483.964807,,,,3.103969,3.105865,1455690.000000,1673606971.979003
1673607483.965144,,,,3.115220,3.116251,1455691.000000,1673606971.980010
1673607483.965463,,,,3.126110,3.128127,1455692.000000,1673606971.981017
1673607483.965741,,,,3.134693,3.136974,1455693.000000,1673606971.982024
1673607483.966005,,,,3.137674,3.139522,1455694.000000,1673606971.983031
1673607483.966372,,,,3.138131,3.136757,1455695.000000,1673606971.984038
1673607483.969054,,,,3.135029,3.135868,1455696.000000,1673606971.985045
1673607483.969069,,,,3.128442,3.130242,1455697.000000,1673606971.986053
1673607483.969354,,,,3.125389,3.127694,1455698.000000,1673606971.987060
1673607483.972158,,,,3.132265,3.134161,1455699.000000,1673606971.988067
1673607483.972405,,,,3.139020,3.138416,1455700.000000,1673606971.989074
1673607483.972761,,,,3.146857,3.145195,1455701.000000,1673606971.990081
1673607483.973024,,,,3.151377,3.152071,1455702.000000,1673606971.991088
1673607483.973469,,,,3.158373,3.161880,1455703.000000,1673606971.992095
1673607483.973483,,,,3.170153,3.171496,1455704.000000,1673606971.993102
1673607483.973799,,,,3.175321,3.175006,1455705.000000,1673606971.994109
1673607483.973812,,,,3.174143,3.174789,1455706.000000,1673606971.995116
1673607483.973830,,,,3.171835,3.172530,1455707.000000,1673606971.996123
1673607483.974037,,,,3.175730,3.174741,1455708.000000,1673606971.997130
1673607483.974157,,,,3.185827,3.186473,1455709.000000,1673606971.998137
1673607483.976470,,,,3.184649,3.186786,1455710.000000,1673606971.999145
1673607483.976921,,,,3.187029,3.186593,1455711.000000,1673606972.000152
1673607483.976935,,,,3.189601,3.188973,1455712.000000,1673606972.001159
1673607483.980114,,,,3.193592,3.193902,1455713.000000,1673606972.002166
1673607483.980139,,,,3.193208,3.195152,1455714.000000,1673606972.003173
1673607483.980154,,,,3.176091,3.177001,1455715.000000,1673606972.004180
1673607483.980162,,,,3.151257,3.149451,1455716.000000,1673606972.005187
1673607483.980187,,,,3.128659,3.129761,1455717.000000,1673606972.006194
1673607483.980365,,,,3.137193,3.139570,1455718.000000,1673606972.007201
1673607483.980382,,,,3.145920,3.146710,1455719.000000,1673606972.008208
1673607483.980391,,,,3.136929,3.139786,1455720.000000,1673606972.009215
1673607483.992631,,,,3.121446,3.125891,1455721.000000,1673606972.010222
1673607483.992856,,,,3.115436,3.116443,1455722.000000,1673606972.011230
1673607483.992993,,,,3.109955,3.110914,1455723.000000,1673606972.012237
1673607484.000703,,,,3.107263,3.108317,1455724.000000,1673606972.013244
1673607484.001097,,,,3.122312,3.122573,1455725.000000,1673606972.014251
1673607484.001106,,,,3.134068,3.133776,1455726.000000,1673606972.015258
1673607484.001362,,,,3.139116,3.141638,1455727.000000,1673606972.016265
1673607484.007214,,,,3.148372,3.148465,1455728.000000,1673606972.017272
1673607484.007230,,,,3.154382,3.153922,1455729.000000,1673606972.018279
1673607484.007255,,,,3.160945,3.162889,1455730.000000,1673606972.019286
1673607484.008528,4.156704,1592406.000000,1673607483.947204,,,,
1673607484.009373,4.138615,1592407.000000,1673607483.948204,,,,
1673607484.009784,,,,3.163974,3.162721,1455731.000000,1673606972.020293
1673607484.009936,4.156704,1592408.000000,1673607483.949204,,,,
1673607484.010107,4.247158,1592409.000000,1673607483.950204,,,,
1673607484.010123,,,,3.161306,3.160485,1455732.000000,1673606972.021300
1673607484.010541,,,,3.159479,3.160990,1455733.000000,1673606972.022307
1673607484.011083,,,,3.160512,3.161134,1455734.000000,1673606972.023314
1673607484.011741,,,,3.155897,3.155461,1455735.000000,1673606972.024322
1673607484.011863,4.210971,1592410.000000,1673607483.951204,,,,
1673607484.011888,5.025028,1592457.000000,1673607483.998204,,,,
1673607484.012085,5.043117,1592458.000000,1673607483.999204,,,,
1673607484.012110,5.097393,1592459.000000,1673607484.000204,,,,
1673607484.012119,5.061214,1592460.000000,1673607484.001204,,,,
1673607484.012152,5.115481,1592461.000000,1673607484.002204,,,,
1673607484.012172,5.115481,1592462.000000,1673607484.003204,,,,
1673607484.012189,5.169749,1592463.000000,1673607484.004204,,,,
1673607484.012208,5.151659,1592464.000000,1673607484.005204,,,,
1673607484.012221,5.242113,1592465.000000,1673607484.006204,,,,
1673607484.012266,5.260202,1592466.000000,1673607484.007204,,,,
1673607484.012298,,,,3.149430,3.148153,1455736.000000,1673606972.025329
1673607484.012534,,,,3.143684,3.146975,1455737.000000,1673606972.026336
1673607484.013899,,,,3.138635,3.141037,1455738.000000,1673606972.027343
1673607484.014146,,,,3.140078,3.140027,1455739.000000,1673606972.028350
1673607484.014300,,,,3.142530,3.141734,1455740.000000,1673606972.029357
1673607484.014463,,,,3.147531,3.145532,1455741.000000,1673606972.030364
1673607484.016485,,,,3.146208,3.145845,1455742.000000,1673606972.031371
1673607484.016697,,,,3.146473,3.149547,1455743.000000,1673606972.032378
1673607484.016837,,,,3.148276,3.152336,1455744.000000,1673606972.033385
1673607484.017023,,,,3.150439,3.151062,1455745.000000,1673606972.034392
1673607484.017068,,,,3.152218,3.152071,1455746.000000,1673606972.035399
1673607484.017076,,,,3.159959,3.160269,1455747.000000,1673606972.036407
1673607484.021650,,,,3.156810,3.159331,1455748.000000,1673606972.037414
1673607484.021962,,,,3.152026,3.152287,1455749.000000,1673606972.038421
1673607484.022068,,,,3.158277,3.156158,1455750.000000,1673606972.039428
1673607484.022087,,,,3.158541,3.157384,1455751.000000,1673606972.040435
1673607484.022260,,,,3.151209,3.150436,1455752.000000,1673606972.041442
1673607484.024052,,,,3.137938,3.142239,1455753.000000,1673606972.042449
1673607484.024209,,,,3.140703,3.142936,1455754.000000,1673606972.043456
1673607484.024523,,,,3.147026,3.147047,1455755.000000,1673606972.044463
1673607484.024589,,,,3.157820,3.159163,1455756.000000,1673606972.045470
1673607484.024851,,,,3.174047,3.174453,1455757.000000,1673606972.046477
1673607484.024865,,,,3.181452,3.180175,1455758.000000,1673606972.047484
1673607484.028924,,,,3.186236,3.187363,1455759.000000,1673606972.048491
1673607484.029081,,,,3.189962,3.190969,1455760.000000,1673606972.049499
1673607484.029166,,,,3.183976,3.184790,1455761.000000,1673606972.050506
1673607484.029278,,,,3.176018,3.177602,1455762.000000,1673606972.051513
1673607484.031345,,,,3.166523,3.170174,1455763.000000,1673606972.052520
1673607484.031352,,,,3.167676,3.171544,1455764.000000,1673606972.053527
1673607484.031534,,,,3.178302,3.178972,1455765.000000,1673606972.054534
1673607484.031546,,,,3.169888,3.172385,1455766.000000,1673606972.055541
1673607484.037244,,,,3.141448,3.144979,1455767.000000,1673606972.056548
1673607484.037252,,,,3.118922,3.118847,1455768.000000,1673606972.057555
1673607484.037812,,,,3.111878,3.112284,1455769.000000,1673606972.058562
1673607484.037817,,,,3.116663,3.117020,1455770.000000,1673606972.059569
1673607484.037827,,,,3.134068,3.134762,1455771.000000,1673606972.060576
1673607484.037889,,,,3.142674,3.145220,1455772.000000,1673606972.061584
1673607484.037894,,,,3.141640,3.143921,1455773.000000,1673606972.062591
1673607484.037916,,,,3.139693,3.140315,1455774.000000,1673606972.063598
1673607484.037920,,,,3.134909,3.134329,1455775.000000,1673606972.064605
1673607484.037998,,,,3.127601,3.127622,1455776.000000,1673606972.065612
1673607484.038006,,,,3.125125,3.126708,1455777.000000,1673606972.066619
1673607484.039047,,,,3.124884,3.128319,1455778.000000,1673606972.067626
1673607484.039225,,,,3.125822,3.130988,1455779.000000,1673606972.068633
1673607484.039383,,,,3.128731,3.132286,1455780.000000,1673606972.069640
1673607484.039451,,,,3.140631,3.139570,1455781.000000,1673606972.070647
1673607484.039610,,,,3.140463,3.140003,1455782.000000,1673606972.071654
1673607484.039724,,,,3.140054,3.141493,1455783.000000,1673606972.072661
1673607484.044414,,,,3.153565,3.152576,1455784.000000,1673606972.073668
1673607484.044729,,,,3.162580,3.165245,1455785.000000,1673606972.074676
1673607484.045226,,,,3.167725,3.172794,1455786.000000,1673606972.075683
1673607484.045624,,,,3.165128,3.166640,1455787.000000,1673606972.076690
1673607484.046089,,,,3.152050,3.153153,1455788.000000,1673606972.077697
1673607484.046572,,,,3.144405,3.148321,1455789.000000,1673606972.078704
1673607484.047124,,,,3.146521,3.149090,1455790.000000,1673606972.079711
1673607484.047491,,,,3.151665,3.151013,1455791.000000,1673606972.080718
1673607484.047735,,,,3.148420,3.150100,1455792.000000,1673606972.081725
1673607484.047746,,,,3.146112,3.148032,1455793.000000,1673606972.082732
1673607484.047771,,,,3.149285,3.150869,1455794.000000,1673606972.083739
1673607484.061001,,,,3.154574,3.157889,1455795.000000,1673606972.084746
1673607484.061286,,,,3.175658,3.176977,1455796.000000,1673606972.085753
1673607484.061568,,,,3.193881,3.194286,1455797.000000,1673606972.086761
1673607484.062309,,,,3.194121,3.195897,1455798.000000,1673606972.087768
1673607484.062787,,,,3.179721,3.182651,1455799.000000,1673606972.088775
1673607484.062867,,,,3.168037,3.169741,1455800.000000,1673606972.089782
1673607484.062999,,,,3.152098,3.154187,1455801.000000,1673606972.090789
1673607484.063016,,,,3.151641,3.152336,1455802.000000,1673606972.091796
1673607484.068061,,,,3.147458,3.143970,1455803.000000,1673606972.092803
1673607484.068341,,,,3.138227,3.135267,1455804.000000,1673606972.093810
1673607484.068874,,,,3.141184,3.142719,1455805.000000,1673606972.094817
1673607484.069141,,,,3.148564,3.149739,1455806.000000,1673606972.095824
1673607484.069241,,,,3.149478,3.151134,1455807.000000,1673606972.096831
1673607484.069516,,,,3.151473,3.154860,1455808.000000,1673606972.097838
1673607484.069736,,,,3.148276,3.152864,1455809.000000,1673606972.098845
1673607484.074229,,,,3.150415,3.151182,1455810.000000,1673606972.099853
1673607484.074424,,,,3.155560,3.155221,1455811.000000,1673606972.100860
1673607484.074749,,,,3.168951,3.168779,1455812.000000,1673606972.101867
1673607484.074766,,,,3.180298,3.180824,1455813.000000,1673606972.102874
1673607484.074793,,,,3.185346,3.185752,1455814.000000,1673606972.103881
1673607484.074815,,,,3.178326,3.180583,1455815.000000,1673606972.104888
1673607484.074850,,,,3.155945,3.157865,1455816.000000,1673606972.105895
1673607484.075854,6.454146,1592518.000000,1673607484.065376,,,,
1673607484.075869,6.526511,1592519.000000,1673607484.066376,,,,
1673607484.075879,6.580778,1592520.000000,1673607484.067376,,,,
1673607484.075888,6.544600,1592521.000000,1673607484.068376,,,,
1673607484.075904,6.562689,1592522.000000,1673607484.069376,,,,
1673607484.075908,6.635053,1592523.000000,1673607484.070376,,,,
1673607484.075910,6.598875,1592524.000000,1673607484.071376,,,,
1673607484.075917,6.635053,1592525.000000,1673607484.072376,,,,
1673607484.075930,6.653142,1592526.000000,1673607484.073376,,,,
1673607484.075943,6.671231,1592527.000000,1673607484.074376,,,,
1673607484.076625,,,,3.131255,3.132406,1455817.000000,1673606972.106902
1673607484.076636,,,,3.118297,3.121468,1455818.000000,1673606972.107909
1673607484.076849,,,,3.121807,3.121708,1455819.000000,1673606972.108916
1673607484.076964,,,,3.126615,3.125410,1455820.000000,1673606972.109923
1673607484.077078,,,,3.129740,3.130579,1455821.000000,1673606972.110930
1673607484.077161,,,,3.134861,3.135916,1455822.000000,1673606972.111938
1673607484.077309,,,,3.133106,3.133752,1455823.000000,1673606972.112945
1673607484.082236,,,,3.134260,3.135123,1455824.000000,1673606972.113952
1673607484.082503,,,,3.139068,3.137479,1455825.000000,1673606972.114959
1673607484.082619,,,,3.149382,3.147311,1455826.000000,1673606972.115966
1673607484.082749,,,,3.155849,3.155461,1455827.000000,1673606972.116973
1673607484.082967,,,,3.154887,3.158081,1455828.000000,1673606972.117980
1673607484.083371,,,,3.162484,3.161880,1455829.000000,1673606972.118987
1673607484.083384,,,,3.165489,3.165846,1455830.000000,1673606972.119994
1673607484.083411,,,,3.177124,3.178997,1455831.000000,1673606972.121001
1673607484.083448,,,,3.186668,3.187243,1455832.000000,1673606972.122008
1673607484.083497,,,,3.184264,3.186569,1455833.000000,1673606972.123015
1673607484.085971,,,,3.181019,3.183612,1455834.000000,1673606972.124022
1673607484.085986,,,,3.190876,3.193998,1455835.000000,1673606972.125030
1673607484.086224,,,,3.198857,3.199455,1455836.000000,1673606972.126037
1673607484.086427,,,,3.194217,3.194815,1455837.000000,1673606972.127044
1673607484.086726,,,,3.176956,3.176520,1455838.000000,1673606972.128051
1673607484.086738,,,,3.137457,3.139354,1455839.000000,1673606972.129058
1673607484.086742,,,,3.108729,3.112525,1455840.000000,1673606972.130065
1673607484.088992,,,,3.112720,3.113558,1455841.000000,1673606972.131072
1673607484.089159,,,,3.123875,3.126444,1455842.000000,1673606972.132079
1673607484.089619,,,,3.135943,3.140123,1455843.000000,1673606972.133086
1673607484.089631,,,,3.143612,3.146205,1455844.000000,1673606972.134093
1673607484.093540,,,,3.147603,3.150629,1455845.000000,1673606972.135100
1673607484.093799,,,,3.146040,3.148489,1455846.000000,1673606972.136107
1673607484.093990,,,,3.142314,3.144162,1455847.000000,1673606972.137115
1673607484.094287,,,,3.138443,3.140556,1455848.000000,1673606972.138122
1673607484.094676,,,,3.143924,3.144691,1455849.000000,1673606972.139129
1673607484.094733,,,,3.152194,3.154427,1455850.000000,1673606972.140136
1673607484.094740,,,,3.155296,3.159884,1455851.000000,1673606972.141143
1673607484.096577,,,,3.138131,3.142527,1455852.000000,1673606972.142150
1673607484.096638,,,,3.126255,3.127814,1455853.000000,1673606972.143157
1673607484.096646,,,,3.128562,3.130266,1455854.000000,1673606972.144164
1673607484.101152,,,,3.135174,3.136204,1455855.000000,1673606972.145171
1673607484.101167,,,,3.138756,3.139762,1455856.000000,1673606972.146178
1673607484.101399,,,,3.147074,3.147023,1455857.000000,1673606972.147185
1673607484.101888,,,,3.156786,3.157072,1455858.000000,1673606972.148192
1673607484.102222,,,,3.159959,3.161231,1455859.000000,1673606972.149199
1673607484.102535,,,,3.155728,3.157096,1455860.000000,1673606972.150207
1673607484.102880,,,,3.149021,3.151446,1455861.000000,1673606972.151214
1673607484.104425,,,,3.142794,3.143801,1455862.000000,1673606972.152221
1673607484.104759,,,,3.141929,3.143368,1455863.000000,1673606972.153228
1673607484.104955,,,,3.143804,3.145003,1455864.000000,1673606972.154235
1673607484.105505,,,,3.146400,3.145821,1455865.000000,1673606972.155242
1673607484.106196,,,,3.145415,3.147383,1455866.000000,1673606972.156249
1673607484.106220,,,,3.144477,3.146109,1455867.000000,1673606972.157256
1673607484.106234,,,,3.143996,3.145965,1455868.000000,1673606972.158263
1673607484.106243,,,,3.148997,3.150965,1455869.000000,1673606972.159270
1673607484.108456,,,,3.160104,3.161856,1455870.000000,1673606972.160277
1673607484.108704,,,,3.171283,3.171977,1455871.000000,1673606972.161284
1673607484.108997,,,,3.174504,3.174789,1455872.000000,1673606972.162292
1673607484.109038,,,,3.179745,3.178155,1455873.000000,1673606972.163299
1673607484.120646,,,,3.183231,3.184189,1455874.000000,1673606972.164306
1673607484.120899,,,,3.180658,3.179453,1455875.000000,1673606972.165313
1673607484.121278,,,,3.173110,3.171712,1455876.000000,1673606972.166320
1673607484.127993,,,,3.152555,3.153081,1455877.000000,1673606972.167327
1673607484.128020,,,,3.121398,3.121251,1455878.000000,1673606972.168334
1673607484.128511,,,,3.109378,3.111298,1455879.000000,1673606972.169341
1673607484.128559,,,,3.125029,3.128055,1455880.000000,1673606972.170348
1673607484.129552,6.653142,1592528.000000,1673607484.068607,,,,
1673607484.131268,6.743596,1592529.000000,1673607484.069607,,,,
1673607484.131277,6.779774,1592530.000000,1673607484.070607,,,,
1673607484.131315,6.761685,1592531.000000,1673607484.071607,,,,
1673607484.131324,6.779774,1592532.000000,1673607484.072607,,,,
1673607484.131336,6.797863,1592533.000000,1673607484.073607,,,,
1673607484.131343,6.852130,1592534.000000,1673607484.074607,,,,
1673607484.131348,8.172713,1592579.000000,1673607484.119607,,,,
1673607484.131357,8.245070,1592580.000000,1673607484.120607,,,,
1673607484.131361,8.299345,1592581.000000,1673607484.121607,,,,
1673607484.131371,8.299345,1592582.000000,1673607484.122607,,,,
1673607484.131386,8.407880,1592583.000000,1673607484.123607,,,,
1673607484.131393,8.425977,1592584.000000,1673607484.124607,,,,
1673607484.131396,8.534512,1592585.000000,1673607484.125607,,,,
1673607484.131421,8.534512,1592586.000000,1673607484.126607,,,,
1673607484.131431,8.570698,1592587.000000,1673607484.127607,,,,
1673607484.131441,8.643054,1592588.000000,1673607484.128607,,,,
1673607484.133888,,,,3.137578,3.137262,1455881.000000,1673606972.171355
1673607484.134116,,,,3.146016,3.145244,1455882.000000,1673606972.172362
1673607484.134181,,,,3.143348,3.143753,1455883.000000,1673606972.173369
1673607484.136631,,,,3.139549,3.140315,1455884.000000,1673606972.174376
1673607484.136712,,,,3.141112,3.142599,1455885.000000,1673606972.175384
1673607484.136829,,,,3.147242,3.146782,1455886.000000,1673606972.176391
1673607484.136961,,,,3.158180,3.156663,1455887.000000,1673606972.177398
1673607484.137121,,,,3.155055,3.154571,1455888.000000,1673606972.178405
1673607484.137213,,,,3.143708,3.146302,1455889.000000,1673606972.179412
1673607484.137218,,,,3.142843,3.143849,1455890.000000,1673606972.180419
1673607484.143939,,,,3.148444,3.147816,1455891.000000,1673606972.181426
1673607484.144125,,,,3.144910,3.144402,1455892.000000,1673606972.182433
1673607484.144377,,,,3.142987,3.143417,1455893.000000,1673606972.183440
1673607484.149288,,,,3.141881,3.143970,1455894.000000,1673606972.184447
1673607484.149366,,,,3.135630,3.140195,1455895.000000,1673606972.185454
1673607484.149479,,,,3.136472,3.138873,1455896.000000,1673606972.186461
1673607484.149505,,,,3.138107,3.138103,1455897.000000,1673606972.187469
1673607484.151415,,,,3.131135,3.131396,1455898.000000,1673606972.188476
1673607484.151861,,,,3.118562,3.119737,1455899.000000,1673606972.189483
1673607484.151882,,,,3.121254,3.122189,1455900.000000,1673606972.190490
1673607484.152185,,,,3.137506,3.135483,1455901.000000,1673606972.191497
1673607484.156974,,,,3.150415,3.151951,1455902.000000,1673606972.192504
1673607484.157090,,,,3.185226,3.187435,1455903.000000,1673606972.193511
1673607484.157502,,,,3.219316,3.223015,1455904.000000,1673606972.194518
1673607484.157880,,,,3.242899,3.245877,1455905.000000,1673606972.195525
1673607484.158358,,,,3.253525,3.254796,1455906.000000,1673606972.196532
1673607484.158381,,,,3.247371,3.246959,1455907.000000,1673606972.197539
1673607484.159359,,,,3.230639,3.231092,1455908.000000,1673606972.198546
1673607484.159850,,,,3.196693,3.195464,1455909.000000,1673606972.199553
1673607484.160194,,,,3.144213,3.144643,1455910.000000,1673606972.200561
1673607484.160207,,,,3.095362,3.095167,1455911.000000,1673606972.201568
1673607484.160480,,,,3.085698,3.085791,1455912.000000,1673606972.202575
1673607484.160624,,,,3.099714,3.099927,1455913.000000,1673606972.203582
1673607484.160951,,,,3.127096,3.129064,1455914.000000,1673606972.204589
1673607484.161172,,,,3.141208,3.142792,1455915.000000,1673606972.205596
1673607484.163934,,,,3.146689,3.146542,1455916.000000,1673606972.206603
1673607484.164306,,,,3.147651,3.146662,1455917.000000,1673606972.207610
1673607484.164443,,,,3.141184,3.141950,1455918.000000,1673606972.208617
1673607484.166483,,,,3.139910,3.141565,1455919.000000,1673606972.209624
1673607484.166511,,,,3.158228,3.162120,1455920.000000,1673606972.210631
1673607484.166669,,,,3.178399,3.181713,1455921.000000,1673606972.211638
1673607484.166977,,,,3.195732,3.197051,1455922.000000,1673606972.212646
1673607484.180396,,,,3.200275,3.201042,1455923.000000,1673606972.213653
1673607484.181041,,,,3.204458,3.206836,1455924.000000,1673606972.214660
1673607484.181061,,,,3.212440,3.216235,1455925.000000,1673606972.215667
1673607484.187902,,,,3.191381,3.192483,1455926.000000,1673606972.216674
1673607484.188163,,,,3.108104,3.109784,1455927.000000,1673606972.217681
1673607484.188286,,,,3.096276,3.098244,1455928.000000,1673606972.218688
1673607484.188294,,,,3.100411,3.099639,1455929.000000,1673606972.219695
1673607484.188417,,,,3.106445,3.107957,1455930.000000,1673606972.220702
1673607484.188525,,,,3.106181,3.107188,1455931.000000,1673606972.221709
1673607484.188532,,,,3.098848,3.099735,1455932.000000,1673606972.222716
1673607484.194118,,,,3.109330,3.109880,1455933.000000,1673606972.223723
1673607484.194620,,,,3.114883,3.115650,1455934.000000,1673606972.224730
1673607484.194660,,,,3.128058,3.129786,1455935.000000,1673606972.225738
1673607484.194709,,,,3.137337,3.135700,1455936.000000,1673606972.226745
1673607484.194717,,,,3.136592,3.136565,1455937.000000,1673606972.227752
1673607484.195441,11.754553,1592640.000000,1673607484.184366,,,,
1673607484.195447,11.881185,1592641.000000,1673607484.185366,,,,
1673607484.195449,11.845007,1592642.000000,1673607484.186366,,,,
1673607484.195462,11.953549,1592643.000000,1673607484.187366,,,,
1673607484.195470,11.989727,1592644.000000,1673607484.188365,,,,
1673607484.195481,12.043995,1592645.000000,1673607484.189366,,,,
1673607484.195485,12.188724,1592646.000000,1673607484.190366,,,,
1673607484.195527,12.279169,1592647.000000,1673607484.191365,,,,
1673607484.195539,12.315347,1592648.000000,1673607484.192366,,,,
1673607484.195543,12.333445,1592649.000000,1673607484.193366,,,,
1673607484.196455,,,,3.131952,3.131613,1455938.000000,1673606972.228759
1673607484.196613,,,,3.126038,3.128271,1455939.000000,1673606972.229766
1673607484.196836,,,,3.130678,3.132118,1455940.000000,1673606972.230773
1673607484.196847,,,,3.139212,3.139522,1455941.000000,1673606972.231780
1673607484.196858,,,,3.135077,3.136445,1455942.000000,1673606972.232787
1673607484.196903,,,,3.134452,3.137190,1455943.000000,1673606972.233794
1673607484.201497,,,,3.138058,3.139883,1455944.000000,1673606972.234801
1673607484.201517,,,,3.145487,3.146734,1455945.000000,1673606972.235808
1673607484.201529,,,,3.154262,3.155268,1455946.000000,1673606972.236815
1673607484.201533,,,,3.161690,3.160101,1455947.000000,1673606972.237823
1673607484.203784,,,,3.167244,3.166832,1455948.000000,1673606972.238830
1673607484.204174,,,,3.162941,3.164500,1455949.000000,1673606972.239837
1673607484.204345,,,,3.150127,3.151494,1455950.000000,1673606972.240844
1673607484.204357,,,,3.142818,3.143921,1455951.000000,1673606972.241851
1673607484.209497,,,,3.140463,3.142647,1455952.000000,1673606972.242858
1673607484.209524,,,,3.139958,3.141037,1455953.000000,1673606972.243865
1673607484.209966,,,,3.138107,3.142166,1455954.000000,1673606972.244872
1673607484.211549,,,,3.137361,3.139402,1455955.000000,1673606972.245879
1673607484.211879,,,,3.135919,3.137406,1455956.000000,1673606972.246886
1673607484.211901,,,,3.138299,3.139113,1455957.000000,1673606972.247893
1673607484.217167,,,,3.147651,3.147143,1455958.000000,1673606972.248900
1673607484.217439,,,,3.149237,3.148777,1455959.000000,1673606972.249907
1673607484.217616,,,,3.149766,3.151951,1455960.000000,1673606972.250915
1673607484.217724,,,,3.155416,3.157673,1455961.000000,1673606972.251922
1673607484.217999,,,,3.163157,3.164284,1455962.000000,1673606972.252929
1673607484.218253,,,,3.187654,3.188156,1455963.000000,1673606972.253936
1673607484.218466,,,,3.211550,3.209672,1455964.000000,1673606972.254943
1673607484.219227,,,,3.217993,3.218856,1455965.000000,1673606972.255950
1673607484.220133,,,,3.221599,3.221428,1455966.000000,1673606972.256957
1673607484.220153,,,,3.216863,3.215322,1455967.000000,1673606972.257964
1673607484.220180,,,,3.191885,3.191209,1455968.000000,1673606972.258971
1673607484.220188,,,,3.156497,3.159115,1455969.000000,1673606972.259978
1673607484.220757,,,,3.126038,3.126877,1455970.000000,1673606972.260985
1673607484.220925,,,,3.106950,3.109231,1455971.000000,1673606972.261992
1673607484.220937,,,,3.110821,3.116491,1455972.000000,1673606972.263000
1673607484.224418,,,,3.123610,3.129617,1455973.000000,1673606972.264007
1673607484.224504,,,,3.113705,3.116780,1455974.000000,1673606972.265014
1673607484.224513,,,,3.093800,3.096369,1455975.000000,1673606972.266021
1673607484.226423,,,,3.095747,3.096081,1455976.000000,1673606972.267028
1673607484.226827,,,,3.106974,3.104399,1455977.000000,1673606972.268035
1673607484.226841,,,,3.111061,3.111034,1455978.000000,1673606972.269042
1673607484.227268,,,,3.109667,3.111226,1455979.000000,1673606972.270049
1673607484.240178,,,,3.113922,3.116371,1455980.000000,1673606972.271056
1673607484.240574,,,,3.122576,3.124064,1455981.000000,1673606972.272063
1673607484.240589,,,,3.125533,3.128415,1455982.000000,1673606972.273070
1673607484.240595,,,,3.128827,3.129593,1455983.000000,1673606972.274077
1673607484.247904,,,,3.131135,3.133055,1455984.000000,1673606972.275084
1673607484.247989,,,,3.130053,3.132118,1455985.000000,1673606972.276092
1673607484.247994,,,,3.124812,3.124809,1455986.000000,1673606972.277099
1673607484.248827,12.369622,1592650.000000,1673607484.188210,,,,
1673607484.249589,12.423889,1592651.000000,1673607484.189210,,,,
1673607484.249595,12.460068,1592652.000000,1673607484.190210,,,,
1673607484.249604,12.568610,1592653.000000,1673607484.191210,,,,
1673607484.249609,15.444943,1592701.000000,1673607484.239210,,,,
1673607484.249613,15.535389,1592702.000000,1673607484.240210,,,,
1673607484.249626,15.553486,1592703.000000,1673607484.241210,,,,
1673607484.249636,15.607753,1592704.000000,1673607484.242210,,,,
1673607484.249645,15.643931,1592705.000000,1673607484.243210,,,,
1673607484.249652,15.680109,1592706.000000,1673607484.244210,,,,
1673607484.249655,15.734385,1592707.000000,1673607484.245210,,,,
1673607484.249670,15.770563,1592708.000000,1673607484.246210,,,,
1673607484.249679,15.842927,1592709.000000,1673607484.247210,,,,
1673607484.249694,15.951462,1592710.000000,1673607484.248210,,,,
1673607484.254575,,,,3.121711,3.122213,1455987.000000,1673606972.278106
1673607484.254591,,,,3.125341,3.125386,1455988.000000,1673606972.279113
1673607484.254612,,,,3.134188,3.136108,1455989.000000,1673606972.280120
1673607484.256714,,,,3.144357,3.145772,1455990.000000,1673606972.281127
1673607484.257039,,,,3.150439,3.152744,1455991.000000,1673606972.282134
1673607484.257324,,,,3.158493,3.161808,1455992.000000,1673606972.283141
1673607484.257560,,,,3.168566,3.171063,1455993.000000,1673606972.284148
1673607484.257843,,,,3.174648,3.175198,1455994.000000,1673606972.285155
1673607484.258107,,,,3.177317,3.176761,1455995.000000,1673606972.286162
1673607484.258369,,,,3.169191,3.169140,1455996.000000,1673606972.287169
1673607484.258576,,,,3.149694,3.151374,1455997.000000,1673606972.288177
1673607484.262020,,,,3.120749,3.121900,1455998.000000,1673606972.289184
1673607484.262722,,,,3.115004,3.116323,1455999.000000,1673606972.290191
1673607484.262745,,,,3.124932,3.126444,1456000.000000,1673606972.291198
1673607484.262784,,,,3.133515,3.134786,1456001.000000,1673606972.292205
1673607484.262857,,,,3.145078,3.147191,1456002.000000,1673606972.293212
1673607484.262865,,,,3.161594,3.162120,1456003.000000,1673606972.294219
1673607484.262897,,,,3.175802,3.175967,1456004.000000,1673606972.295226
1673607484.263879,,,,3.178062,3.179261,1456005.000000,1673606972.296233
1673607484.264189,,,,3.164864,3.166688,1456006.000000,1673606972.297240
1673607484.264286,,,,3.147987,3.152047,1456007.000000,1673606972.298247
1673607484.264555,,,,3.140751,3.141926,1456008.000000,1673606972.299254
1673607484.269198,,,,3.139838,3.139786,1456009.000000,1673606972.300261
1673607484.269274,,,,3.155704,3.158394,1456010.000000,1673606972.301269
1673607484.269291,,,,3.163181,3.166880,1456011.000000,1673606972.302276
1673607484.271796,,,,3.157724,3.161231,1456012.000000,1673606972.303283
1673607484.272023,,,,3.144093,3.146277,1456013.000000,1673606972.304290
1673607484.272182,,,,3.127769,3.131012,1456014.000000,1673606972.305297
1673607484.272440,,,,3.133948,3.137551,1456015.000000,1673606972.306304
1673607484.272712,,,,3.143083,3.143489,1456016.000000,1673606972.307311
1673607484.272734,,,,3.162796,3.162505,1456017.000000,1673606972.308318
1673607484.272880,,,,3.195804,3.196979,1456018.000000,1673606972.309325
1673607484.276649,,,,3.212729,3.214240,1456019.000000,1673606972.310332
1673607484.276679,,,,3.226480,3.226092,1456020.000000,1673606972.311339
1673607484.277236,,,,3.226311,3.228184,1456021.000000,1673606972.312346
1673607484.279366,,,,3.221648,3.223928,1456022.000000,1673606972.313354
1673607484.279704,,,,3.203353,3.206667,1456023.000000,1673606972.314361
1673607484.280293,,,,3.156618,3.155028,1456024.000000,1673606972.315368
1673607484.280306,,,,3.091059,3.089878,1456025.000000,1673606972.316375
1673607484.280521,,,,3.066345,3.071295,1456026.000000,1673606972.317382
1673607484.280806,,,,3.100267,3.104062,1456027.000000,1673606972.318389
1673607484.281083,,,,3.134621,3.135315,1456028.000000,1673606972.319396
1673607484.281335,,,,3.131303,3.131589,1456029.000000,1673606972.320403
1673607484.283954,,,,3.122817,3.122718,1456030.000000,1673606972.321410
1673607484.284082,,,,3.108224,3.108630,1456031.000000,1673606972.322417
1673607484.284094,,,,3.092237,3.094518,1456032.000000,1673606972.323424
1673607484.286884,,,,3.097406,3.098365,1456033.000000,1673606972.324431
1673607484.286894,,,,3.105820,3.106250,1456034.000000,1673606972.325438
1673607484.286905,,,,3.112527,3.114592,1456035.000000,1673606972.326446
1673607484.286911,,,,3.115653,3.117092,1456036.000000,1673606972.327453
1673607484.287091,,,,3.116831,3.119040,1456037.000000,1673606972.328460
1673607484.287099,,,,3.118730,3.120506,1456038.000000,1673606972.329467
1673607484.287210,,,,3.121086,3.123800,1456039.000000,1673606972.330474
1673607484.287219,,,,3.116975,3.116732,1456040.000000,1673606972.331481
1673607484.300488,,,,3.114547,3.118030,1456041.000000,1673606972.332488
1673607484.300497,,,,3.119764,3.123583,1456042.000000,1673606972.333495
1673607484.300527,,,,3.129043,3.132863,1456043.000000,1673606972.334502
1673607484.307753,,,,3.139886,3.141565,1456044.000000,1673606972.335509
1673607484.308017,,,,3.150896,3.153321,1456045.000000,1673606972.336516
1673607484.308032,,,,3.167124,3.169813,1456046.000000,1673606972.337523
1673607484.313608,18.447901,1592762.000000,1673607484.302884,,,,
1673607484.313623,18.502176,1592763.000000,1673607484.303884,,,,
1673607484.313630,18.574532,1592764.000000,1673607484.304884,,,,
1673607484.313637,18.592621,1592765.000000,1673607484.305884,,,,
1673607484.313644,18.646896,1592766.000000,1673607484.306884,,,,
1673607484.313734,18.683075,1592767.000000,1673607484.307884,,,,
1673607484.313761,18.755430,1592768.000000,1673607484.308884,,,,
1673607484.313771,18.845884,1592769.000000,1673607484.309884,,,,
1673607484.313776,18.863974,1592770.000000,1673607484.310884,,,,
1673607484.313797,18.936338,1592771.000000,1673607484.311884,,,,
1673607484.314018,,,,3.168398,3.171448,1456047.000000,1673606972.338531
1673607484.314193,,,,3.158493,3.159908,1456048.000000,1673606972.339538
1673607484.314394,,,,3.158205,3.160149,1456049.000000,1673606972.340545
1673607484.314442,,,,3.157339,3.160437,1456050.000000,1673606972.341552
1673607484.316932,,,,3.150295,3.151639,1456051.000000,1673606972.342559
1673607484.316945,,,,3.140054,3.139738,1456052.000000,1673606972.343566
1673607484.316960,,,,3.138179,3.139618,1456053.000000,1673606972.344573
1673607484.317059,,,,3.139862,3.141758,1456054.000000,1673606972.345580
1673607484.322361,,,,3.140559,3.143104,1456055.000000,1673606972.346587
1673607484.322629,,,,3.143348,3.145532,1456056.000000,1673606972.347594
1673607484.322892,,,,3.146449,3.147696,1456057.000000,1673606972.348601
1673607484.322906,,,,3.146521,3.148970,1456058.000000,1673606972.349608
1673607484.322920,,,,3.142266,3.145003,1456059.000000,1673606972.350616
1673607484.323232,,,,3.143083,3.145580,1456060.000000,1673606972.351623
1673607484.323462,,,,3.147314,3.149571,1456061.000000,1673606972.352630
1673607484.324128,,,,3.143636,3.145268,1456062.000000,1673606972.353637
1673607484.324309,,,,3.136303,3.139450,1456063.000000,1673606972.354644
1673607484.324646,,,,3.139116,3.141253,1456064.000000,1673606972.355651
1673607484.324961,,,,3.144429,3.145148,1456065.000000,1673606972.356658
1673607484.325016,,,,3.151978,3.150869,1456066.000000,1673606972.357665
1673607484.325357,,,,3.159599,3.159932,1456067.000000,1673606972.358672
1673607484.329286,,,,3.157507,3.156399,1456068.000000,1673606972.359679
1673607484.329895,,,,3.158829,3.158851,1456069.000000,1673606972.360686
1673607484.329916,,,,3.161618,3.162769,1456070.000000,1673606972.361693
1673607484.330327,,,,3.164551,3.168106,1456071.000000,1673606972.362700
1673607484.330518,,,,3.170321,3.173828,1456072.000000,1673606972.363708
1673607484.330612,,,,3.167604,3.168298,1456073.000000,1673606972.364715
1673607484.330694,,,,3.157267,3.157793,1456074.000000,1673606972.365722
1673607484.331038,,,,3.161811,3.162769,1456075.000000,1673606972.366729
1673607484.331305,,,,3.174648,3.177338,1456076.000000,1673606972.367736
1673607484.331634,,,,3.172148,3.170991,1456077.000000,1673606972.368743
1673607484.331910,,,,3.175370,3.176064,1456078.000000,1673606972.369750
1673607484.336987,,,,3.179480,3.183877,1456079.000000,1673606972.370757
1673607484.337147,,,,3.177966,3.184141,1456080.000000,1673606972.371764
1673607484.337284,,,,3.184072,3.187074,1456081.000000,1673606972.372771
1673607484.337317,,,,3.185755,3.187916,1456082.000000,1673606972.373778
1673607484.338921,,,,3.202655,3.205105,1456083.000000,1673606972.374785
1673607484.339214,,,,3.224580,3.225299,1456084.000000,1673606972.375793
1673607484.339582,,,,3.210709,3.212509,1456085.000000,1673606972.376800
1673607484.339608,,,,3.188880,3.193926,1456086.000000,1673606972.377807
1673607484.344192,,,,3.178375,3.181088,1456087.000000,1673606972.378814
1673607484.344208,,,,3.178350,3.180968,1456088.000000,1673606972.379821
1673607484.344465,,,,3.170489,3.174958,1456089.000000,1673606972.380828
1673607484.346621,,,,3.138659,3.145388,1456090.000000,1673606972.381835
1673607484.346673,,,,3.137385,3.140243,1456091.000000,1673606972.382842
1673607484.346679,,,,3.141953,3.148513,1456092.000000,1673606972.383849
1673607484.360749,,,,3.135991,3.138344,1456093.000000,1673606972.384856
1673607484.360765,,,,3.128082,3.125843,1456094.000000,1673606972.385863
1673607484.360850,,,,3.109691,3.110072,1456095.000000,1673606972.386870
1673607484.361054,,,,3.086636,3.087595,1456096.000000,1673606972.387877
1673607484.361070,,,,3.076515,3.080599,1456097.000000,1673606972.388885
1673607484.361105,,,,3.095555,3.098316,1456098.000000,1673606972.389892
1673607484.361341,,,,3.101685,3.105240,1456099.000000,1673606972.390899
1673607484.367939,,,,3.107214,3.110505,1456100.000000,1673606972.391906
1673607484.368267,,,,3.118033,3.115794,1456101.000000,1673606972.392913
1673607484.368280,,,,3.124908,3.122477,1456102.000000,1673606972.393920
1673607484.368288,,,,3.131664,3.132214,1456103.000000,1673606972.394927
1673607484.368566,,,,3.136472,3.139185,1456104.000000,1673606972.395934
1673607484.369114,,,,3.138299,3.141325,1456105.000000,1673606972.396941
1673607484.369130,,,,3.142554,3.142671,1456106.000000,1673606972.397948
1673607484.369151,,,,3.145751,3.145941,1456107.000000,1673606972.398955
1673607484.374291,,,,3.147194,3.146902,1456108.000000,1673606972.399962
1673607484.374630,,,,3.136616,3.139811,1456109.000000,1673606972.400970
1673607484.374909,,,,3.136880,3.136950,1456110.000000,1673606972.401977
1673607484.375247,,,,3.150800,3.149547,1456111.000000,1673606972.402984
1673607484.376949,,,,3.157459,3.156278,1456112.000000,1673606972.403991
1673607484.377183,,,,3.161354,3.160942,1456113.000000,1673606972.404998
1673607484.377207,,,,3.171715,3.172914,1456114.000000,1673606972.406005
1673607484.379688,20.817707,1592813.000000,1673607484.357572,,,,
1673607484.380308,20.871983,1592814.000000,1673607484.358572,,,,
1673607484.380347,20.853886,1592815.000000,1673607484.359572,,,,
1673607484.380366,20.944338,1592816.000000,1673607484.360572,,,,
1673607484.380373,20.962427,1592817.000000,1673607484.361572,,,,
1673607484.380383,21.016703,1592818.000000,1673607484.362572,,,,
1673607484.380427,21.034792,1592819.000000,1673607484.363572,,,,
1673607484.380431,21.070971,1592820.000000,1673607484.364572,,,,
1673607484.380488,21.143335,1592821.000000,1673607484.365572,,,,
1673607484.380501,21.143335,1592822.000000,1673607484.366572,,,,
1673607484.380508,21.161423,1592823.000000,1673607484.367572,,,,
1673607484.380515,21.215691,1592824.000000,1673607484.368572,,,,
1673607484.380557,21.215691,1592825.000000,1673607484.369572,,,,
1673607484.380565,21.269958,1592826.000000,1673607484.370572,,,,
1673607484.380576,21.288055,1592827.000000,1673607484.371572,,,,
1673607484.380592,21.324234,1592828.000000,1673607484.372572,,,,
1673607484.380599,21.360411,1592829.000000,1673607484.373572,,,,
1673607484.380627,21.432775,1592830.000000,1673607484.374572,,,,
1673607484.380634,21.414686,1592831.000000,1673607484.375572,,,,
1673607484.380652,21.468954,1592832.000000,1673607484.376572,,,,
1673607484.382019,,,,3.178952,3.181809,1456115.000000,1673606972.407012
1673607484.382032,,,,3.173158,3.174140,1456116.000000,1673606972.408019
1673607484.382219,,,,3.163301,3.163827,1456117.000000,1673606972.409026
1673607484.382425,,,,3.159431,3.159596,1456118.000000,1673606972.410033
1673607484.382435,,,,3.161258,3.163178,1456119.000000,1673606972.411040
1673607484.382579,,,,3.164984,3.165654,1456120.000000,1673606972.412047
1673607484.382725,,,,3.165152,3.169260,1456121.000000,1673606972.413054
1673607484.382928,,,,3.149598,3.153802,1456122.000000,1673606972.414062
1673607484.383671,,,,3.133058,3.136950,1456123.000000,1673606972.415069
1673607484.383851,,,,3.139934,3.141878,1456124.000000,1673606972.416076
1673607484.389172,,,,3.147074,3.147744,1456125.000000,1673606972.417083
1673607484.389185,,,,3.148155,3.145725,1456126.000000,1673606972.418090
1673607484.389206,,,,3.145199,3.146566,1456127.000000,1673606972.419097
1673607484.389229,,,,3.142073,3.144883,1456128.000000,1673606972.420104
1673607484.391477,,,,3.150704,3.153922,1456129.000000,1673606972.421111
1673607484.391624,,,,3.158397,3.158706,1456130.000000,1673606972.422118
1673607484.391794,,,,3.160753,3.160293,1456131.000000,1673606972.423125
1673607484.391839,,,,3.169600,3.170799,1456132.000000,1673606972.424132
1673607484.396738,,,,3.188616,3.187771,1456133.000000,1673606972.425139
1673607484.396987,,,,3.208377,3.209432,1456134.000000,1673606972.426147
1673607484.396997,,,,3.218811,3.218038,1456135.000000,1673606972.427154
1673607484.397051,,,,3.244318,3.244988,1456136.000000,1673606972.428161
1673607484.397242,,,,3.268695,3.271240,1456137.000000,1673606972.429168
1673607484.397268,,,,3.272469,3.274918,1456138.000000,1673606972.430175
1673607484.397274,,,,3.254126,3.256936,1456139.000000,1673606972.431182
1673607484.399316,,,,3.215277,3.217630,1456140.000000,1673606972.432189
1673607484.399323,,,,3.174263,3.173828,1456141.000000,1673606972.433196
1673607484.399420,,,,3.134933,3.133223,1456142.000000,1673606972.434203
1673607484.399431,,,,3.110003,3.111995,1456143.000000,1673606972.435210
1673607484.399455,,,,3.116109,3.119304,1456144.000000,1673606972.436217
1673607484.399470,,,,3.119115,3.120049,1456145.000000,1673606972.437224
1673607484.399475,,,,3.099810,3.099615,1456146.000000,1673606972.438231
1673607484.404176,,,,3.094785,3.095456,1456147.000000,1673606972.439239
1673607484.404396,,,,3.106517,3.109543,1456148.000000,1673606972.440246
1673607484.405141,,,,3.119932,3.120073,1456149.000000,1673606972.441253
1673607484.405157,,,,3.126760,3.125074,1456150.000000,1673606972.442260
1673607484.405179,,,,3.126495,3.126420,1456151.000000,1673606972.443267
1673607484.405411,,,,3.127096,3.128031,1456152.000000,1673606972.444274
1673607484.405433,,,,3.133875,3.137671,1456153.000000,1673606972.445281
1673607484.407436,,,,3.145199,3.146926,1456154.000000,1673606972.446288
1673607484.408180,,,,3.155416,3.155221,1456155.000000,1673606972.447295
1673607484.408195,,,,3.158589,3.157721,1456156.000000,1673606972.448302
1673607484.408202,,,,3.157579,3.159596,1456157.000000,1673606972.449309
1673607484.408242,,,,3.149959,3.151134,1456158.000000,1673606972.450316
1673607484.408256,,,,3.143203,3.145171,1456159.000000,1673606972.451324
1673607484.408265,,,,3.135414,3.136926,1456160.000000,1673606972.452331
1673607484.408277,,,,3.135775,3.136829,1456161.000000,1673606972.453338
1673607484.408284,,,,3.143828,3.145292,1456162.000000,1673606972.454345
1673607484.408408,,,,3.162772,3.162505,1456163.000000,1673606972.455352
1673607484.408417,,,,3.169720,3.170222,1456164.000000,1673606972.456359
1673607484.420829,,,,3.168854,3.171664,1456165.000000,1673606972.457366
1673607484.421120,,,,3.161955,3.167697,1456166.000000,1673606972.458373
1673607484.421544,,,,3.159575,3.163082,1456167.000000,1673606972.459380
1673607484.421567,,,,3.168566,3.171905,1456168.000000,1673606972.460387
1673607484.421578,,,,3.172124,3.174693,1456169.000000,1673606972.461394
1673607484.422099,,,,3.158397,3.160750,1456170.000000,1673606972.462401
1673607484.422214,,,,3.150367,3.153225,1456171.000000,1673606972.463408
1673607484.428375,,,,3.154887,3.157312,1456172.000000,1673606972.464416
1673607484.429155,,,,3.158974,3.159307,1456173.000000,1673606972.465423
1673607484.429182,,,,3.152411,3.153706,1456174.000000,1673606972.466430
1673607484.429202,,,,3.144838,3.146590,1456175.000000,1673606972.467437
1673607484.429214,,,,3.145367,3.147143,1456176.000000,1673606972.468444
1673607484.429412,,,,3.150536,3.148585,1456177.000000,1673606972.469451
1673607484.429475,,,,3.152723,3.151999,1456178.000000,1673606972.470458
1673607484.433863,21.595585,1592833.000000,1673607484.372736,,,,
1673607484.433927,21.559408,1592834.000000,1673607484.373736,,,,
1673607484.433933,21.704128,1592835.000000,1673607484.374736,,,,
1673607484.433969,21.667942,1592836.000000,1673607484.375736,,,,
1673607484.434092,21.704128,1592837.000000,1673607484.376736,,,,
1673607484.434197,21.758396,1592838.000000,1673607484.377736,,,,
1673607484.435011,,,,3.153829,3.156759,1456179.000000,1673606972.471465
1673607484.435151,22.735262,1592868.000000,1673607484.407736,,,,
1673607484.435346,,,,3.159815,3.162529,1456180.000000,1673606972.472472
1673607484.435380,22.789530,1592869.000000,1673607484.408736,,,,
1673607484.435614,22.807619,1592870.000000,1673607484.409736,,,,
1673607484.435919,,,,3.180995,3.180655,1456181.000000,1673606972.473479
1673607484.436003,22.807619,1592871.000000,1673607484.410736,,,,
1673607484.436029,22.825716,1592872.000000,1673607484.411736,,,,
1673607484.436040,22.879982,1592873.000000,1673607484.412736,,,,
1673607484.436084,22.879982,1592874.000000,1673607484.413736,,,,
1673607484.436090,22.970436,1592875.000000,1673607484.414736,,,,
1673607484.436132,23.006615,1592876.000000,1673607484.415736,,,,
1673607484.436141,23.042793,1592877.000000,1673607484.416736,,,,
1673607484.436146,23.296057,1592884.000000,1673607484.423736,,,,
1673607484.436162,23.332233,1592885.000000,1673607484.424736,,,,
1673607484.436198,23.368412,1592886.000000,1673607484.425736,,,,
1673607484.436205,23.440777,1592887.000000,1673607484.426736,,,,
1673607484.436210,23.495043,1592888.000000,1673607484.427736,,,,
1673607484.436220,23.476955,1592889.000000,1673607484.428736,,,,
1673607484.436275,23.567408,1592890.000000,1673607484.429736,,,,
1673607484.436299,23.639765,1592891.000000,1673607484.430736,,,,
1673607484.436320,23.675951,1592892.000000,1673607484.431736,,,,
1673607484.436367,23.730219,1592893.000000,1673607484.432736,,,,
1673607484.436394,,,,3.197799,3.198061,1456182.000000,1673606972.474486
1673607484.436402,,,,3.210493,3.211716,1456183.000000,1673606972.475493
1673607484.436433,,,,3.217633,3.219337,1456184.000000,1673606972.476501
1673607484.436586,,,,3.217248,3.219216,1456185.000000,1673606972.477508
1673607484.436712,,,,3.213426,3.214456,1456186.000000,1673606972.478515
1673607484.436863,,,,3.195828,3.194767,1456187.000000,1673606972.479522
1673607484.437101,,,,3.173254,3.171616,1456188.000000,1673606972.480529
1673607484.437366,,,,3.160296,3.160028,1456189.000000,1673606972.481536
1673607484.437380,,,,3.140342,3.138007,1456190.000000,1673606972.482543
1673607484.437390,,,,3.131616,3.131276,1456191.000000,1673606972.483550
1673607484.437942,,,,3.138275,3.139234,1456192.000000,1673606972.484557
1673607484.437954,,,,3.141520,3.142623,1456193.000000,1673606972.485564
1673607484.437960,,,,3.145030,3.146926,1456194.000000,1673606972.486571
1673607484.438089,,,,3.140847,3.144138,1456195.000000,1673606972.487578
1673607484.438099,,,,3.133178,3.134594,1456196.000000,1673606972.488585
1673607484.438322,,,,3.134621,3.134425,1456197.000000,1673606972.489593
1673607484.438504,,,,3.149622,3.151254,1456198.000000,1673606972.490600
1673607484.438747,,,,3.160488,3.162072,1456199.000000,1673606972.491607
1673607484.441667,,,,3.166907,3.168851,1456200.000000,1673606972.492614
1673607484.441830,,,,3.180586,3.181112,1456201.000000,1673606972.493621
1673607484.441842,,,,3.198593,3.199167,1456202.000000,1673606972.494628
1673607484.441848,,,,3.208353,3.208999,1456203.000000,1673606972.495635
1673607484.449221,,,,3.203665,3.202124,1456204.000000,1673606972.496642
1673607484.449437,,,,3.192198,3.194527,1456205.000000,1673606972.497649
1673607484.449721,,,,3.189241,3.191401,1456206.000000,1673606972.498656
1673607484.449732,,,,3.190611,3.190320,1456207.000000,1673606972.499663
1673607484.449883,,,,3.181908,3.185656,1456208.000000,1673606972.500670
1673607484.450042,,,,3.175417,3.177554,1456209.000000,1673606972.501678
1673607484.450173,,,,3.178759,3.182002,1456210.000000,1673606972.502685
1673607484.451340,,,,3.176788,3.180439,1456211.000000,1673606972.503692
1673607484.451349,,,,3.164335,3.165798,1456212.000000,1673606972.504699
1673607484.451403,,,,3.169407,3.172313,1456213.000000,1673606972.505706
1673607484.451598,,,,3.162868,3.163178,1456214.000000,1673606972.506713
1673607484.456791,,,,3.142145,3.144402,1456215.000000,1673606972.507720
1673607484.456923,,,,3.145319,3.146518,1456216.000000,1673606972.508727
1673607484.457005,,,,3.165296,3.167048,1456217.000000,1673606972.509734
1673607484.457122,,,,3.170633,3.172217,1456218.000000,1673606972.510741
1673607484.457273,,,,3.160152,3.161832,1456219.000000,1673606972.511748
1673607484.457470,,,,3.149550,3.150100,1456220.000000,1673606972.512755
1673607484.464041,,,,3.146593,3.149210,1456221.000000,1673606972.513762
1673607484.464322,,,,3.142771,3.146061,1456222.000000,1673606972.514770
1673607484.464532,,,,3.131255,3.132310,1456223.000000,1673606972.515777
1673607484.464807,,,,3.146328,3.144763,1456224.000000,1673606972.516784
1673607484.471688,,,,3.160296,3.160028,1456225.000000,1673606972.517791
1673607484.472394,,,,3.155344,3.157144,1456226.000000,1673606972.518798
1673607484.472420,,,,3.153492,3.155677,1456227.000000,1673606972.519805
1673607484.474451,,,,3.170922,3.170390,1456228.000000,1673606972.520812
1673607484.475127,,,,3.180947,3.178828,1456229.000000,1673606972.521819
1673607484.475380,,,,3.169119,3.169741,1456230.000000,1673606972.522826
1673607484.476036,,,,3.164070,3.165293,1456231.000000,1673606972.523833
1673607484.476068,,,,3.177725,3.178275,1456232.000000,1673606972.524840
1673607484.476086,,,,3.209820,3.209288,1456233.000000,1673606972.525847
1673607484.476095,,,,3.261026,3.262874,1456234.000000,1673606972.526855
1673607484.476119,,,,3.313458,3.316340,1456235.000000,1673606972.527862
1673607484.488503,,,,3.347452,3.348795,1456236.000000,1673606972.528869
1673607484.488523,,,,3.345456,3.346271,1456237.000000,1673606972.529876
1673607484.488863,,,,3.312040,3.313648,1456238.000000,1673606972.530883
1673607484.489186,,,,3.280883,3.281409,1456239.000000,1673606972.531890
1673607484.489631,,,,3.225205,3.225058,1456240.000000,1673606972.532897
1673607484.489641,,,,3.156233,3.157745,1456241.000000,1673606972.533904
1673607484.489646,,,,3.131832,3.132142,1456242.000000,1673606972.534911
1673607484.495389,,,,3.117143,3.118174,1456243.000000,1673606972.535918
1673607484.495655,,,,3.106758,3.108149,1456244.000000,1673606972.536925
1673607484.495671,,,,3.107599,3.110818,1456245.000000,1673606972.537932
1673607484.495716,,,,3.111782,3.115602,1456246.000000,1673606972.538939
1673607484.498749,23.766396,1592894.000000,1673607484.438273,,,,
1673607484.498854,23.766396,1592895.000000,1673607484.439273,,,,
1673607484.499042,23.874939,1592896.000000,1673607484.440273,,,,
1673607484.499715,23.856850,1592897.000000,1673607484.441273,,,,
1673607484.499725,26.172390,1592945.000000,1673607484.489273,,,,
1673607484.499728,26.244745,1592946.000000,1673607484.490273,,,,
1673607484.499763,26.317110,1592947.000000,1673607484.491273,,,,
1673607484.499781,26.371376,1592948.000000,1673607484.492273,,,,
1673607484.499786,26.389465,1592949.000000,1673607484.493273,,,,
1673607484.499813,26.443733,1592950.000000,1673607484.494273,,,,
1673607484.499828,26.461830,1592951.000000,1673607484.495273,,,,
1673607484.499840,26.552277,1592952.000000,1673607484.496273,,,,
1673607484.499851,26.624640,1592953.000000,1673607484.497273,,,,
1673607484.499876,26.678907,1592954.000000,1673607484.498273,,,,
1673607484.501841,,,,3.111061,3.111827,1456247.000000,1673606972.539947
1673607484.501848,,,,3.104618,3.106707,1456248.000000,1673606972.540954
1673607484.501862,,,,3.108585,3.109760,1456249.000000,1673606972.541961
1673607484.502055,,,,3.125750,3.126708,1456250.000000,1673606972.542968
1673607484.504019,,,,3.136857,3.137647,1456251.000000,1673606972.543975
1673607484.504111,,,,3.138876,3.141517,1456252.000000,1673606972.544982
1673607484.509162,,,,3.134308,3.137094,1456253.000000,1673606972.545989
1673607484.509177,,,,3.133347,3.134017,1456254.000000,1673606972.546996
1673607484.509380,,,,3.137602,3.139185,1456255.000000,1673606972.548003
1673607484.509659,,,,3.136592,3.140580,1456256.000000,1673606972.549010
1673607484.511361,,,,3.142674,3.144017,1456257.000000,1673606972.550017
1673607484.511474,,,,3.148805,3.150412,1456258.000000,1673606972.551024
1673607484.511721,,,,3.147963,3.150893,1456259.000000,1673606972.552032
1673607484.512056,,,,3.155344,3.157624,1456260.000000,1673606972.553039
1673607484.516928,,,,3.170802,3.172169,1456261.000000,1673606972.554046
1673607484.517170,,,,3.190154,3.191305,1456262.000000,1673606972.555053
1673607484.517493,,,,3.198737,3.198301,1456263.000000,1673606972.556060
1673607484.517643,,,,3.210541,3.211187,1456264.000000,1673606972.557067
1673607484.517908,,,,3.213522,3.214216,1456265.000000,1673606972.558074
1673607484.518179,,,,3.212873,3.210706,1456266.000000,1673606972.559081
1673607484.518382,,,,3.220181,3.221380,1456267.000000,1673606972.560088
1673607484.519188,,,,3.236096,3.240781,1456268.000000,1673606972.561095
1673607484.519200,,,,3.228307,3.228760,1456269.000000,1673606972.562102
1673607484.519220,,,,3.191837,3.192892,1456270.000000,1673606972.563109
1673607484.519228,,,,3.155969,3.156711,1456271.000000,1673606972.564116
1673607484.525077,,,,3.134116,3.137479,1456272.000000,1673606972.565124
1673607484.525367,,,,3.127168,3.128247,1456273.000000,1673606972.566131
1673607484.525550,,,,3.134549,3.135195,1456274.000000,1673606972.567138
1673607484.525574,,,,3.138395,3.140051,1456275.000000,1673606972.568145
1673607484.525613,,,,3.141689,3.144162,1456276.000000,1673606972.569152
1673607484.525696,,,,3.146016,3.146446,1456277.000000,1673606972.570159
1673607484.525736,,,,3.143924,3.145027,1456278.000000,1673606972.571166
1673607484.526739,,,,3.147939,3.149186,1456279.000000,1673606972.572173
1673607484.526941,,,,3.155344,3.155797,1456280.000000,1673606972.573180
1673607484.527329,,,,3.159214,3.159163,1456281.000000,1673606972.574187
1673607484.527602,,,,3.158132,3.157120,1456282.000000,1673606972.575194
1673607484.527722,,,,3.161955,3.164885,1456283.000000,1673606972.576201
1673607484.527805,,,,3.169479,3.172049,1456284.000000,1673606972.577209
1673607484.527994,,,,3.168494,3.170222,1456285.000000,1673606972.578216
1673607484.531439,,,,3.166523,3.168875,1456286.000000,1673606972.579223
1673607484.531887,,,,3.164119,3.167818,1456287.000000,1673606972.580230
1673607484.532013,,,,3.165393,3.168900,1456288.000000,1673606972.581237
1673607484.534274,,,,3.170754,3.175535,1456289.000000,1673606972.582244
1673607484.534467,,,,3.175970,3.179742,1456290.000000,1673606972.583251
1673607484.534489,,,,3.181572,3.183420,1456291.000000,1673606972.584258
1673607484.534576,,,,3.182774,3.183156,1456292.000000,1673606972.585265
1673607484.551019,,,,3.188039,3.183949,1456293.000000,1673606972.586272
1673607484.551322,,,,3.184697,3.184406,1456294.000000,1673606972.587279
1673607484.551328,,,,3.168398,3.171616,1456295.000000,1673606972.588286
1673607484.551384,,,,3.164984,3.166712,1456296.000000,1673606972.589293
1673607484.558764,,,,3.153372,3.157480,1456297.000000,1673606972.590301
1673607484.558783,,,,3.143540,3.149475,1456298.000000,1673606972.591308
1673607484.558789,,,,3.156738,3.160365,1456299.000000,1673606972.592315
1673607484.561813,,,,3.173951,3.175270,1456300.000000,1673606972.593322
1673607484.561912,,,,3.196525,3.198782,1456301.000000,1673606972.594329
1673607484.562093,,,,3.215277,3.217774,1456302.000000,1673606972.595336
1673607484.562232,,,,3.226215,3.228785,1456303.000000,1673606972.596343
1673607484.562521,,,,3.240327,3.243377,1456304.000000,1673606972.597350
1673607484.562568,,,,3.248861,3.253330,1456305.000000,1673606972.598357
1673607484.562578,,,,3.235519,3.236886,1456306.000000,1673606972.599364
1673607484.565072,29.844683,1593006.000000,1673607484.554392,,,,
1673607484.565100,29.898949,1593007.000000,1673607484.555392,,,,
1673607484.565114,29.935127,1593008.000000,1673607484.556392,,,,
1673607484.565125,29.935127,1593009.000000,1673607484.557392,,,,
1673607484.565139,30.007492,1593010.000000,1673607484.558392,,,,
1673607484.565147,30.097946,1593011.000000,1673607484.559392,,,,
1673607484.565229,30.134123,1593012.000000,1673607484.560392,,,,
1673607484.565254,30.188391,1593013.000000,1673607484.561392,,,,
1673607484.565267,30.260756,1593014.000000,1673607484.562392,,,,
1673607484.565284,30.296934,1593015.000000,1673607484.563392,,,,
1673607484.566215,,,,3.199843,3.201186,1456307.000000,1673606972.600371
1673607484.566236,,,,3.177725,3.179021,1456308.000000,1673606972.601378
1673607484.566253,,,,3.169888,3.171784,1456309.000000,1673606972.602386
1673607484.569051,,,,3.166114,3.166279,1456310.000000,1673606972.603393
1673607484.569402,,,,3.165465,3.166808,1456311.000000,1673606972.604400
1673607484.569678,,,,3.169119,3.171664,1456312.000000,1673606972.605407
1673607484.569725,,,,3.177197,3.180703,1456313.000000,1673606972.606414
1673607484.571468,,,,3.165897,3.170414,1456314.000000,1673606972.607421
1673607484.571482,,,,3.148228,3.150653,1456315.000000,1673606972.608428
1673607484.571649,,,,3.144165,3.144643,1456316.000000,1673606972.609435
1673607484.571734,,,,3.143468,3.143777,1456317.000000,1673606972.610442
1673607484.577273,,,,3.141977,3.143705,1456318.000000,1673606972.611449
1673607484.577289,,,,3.128923,3.131661,1456319.000000,1673606972.612456
1673607484.577310,,,,3.120341,3.119905,1456320.000000,1673606972.613463
1673607484.577433,,,,3.116831,3.119280,1456321.000000,1673606972.614470
1673607484.577442,,,,3.129572,3.132238,1456322.000000,1673606972.615478
1673607484.577466,,,,3.138732,3.142575,1456323.000000,1673606972.616485
1673607484.579346,,,,3.149622,3.153225,1456324.000000,1673606972.617492
1673607484.579670,,,,3.150367,3.151903,1456325.000000,1673606972.618499
1673607484.579890,,,,3.148660,3.148585,1456326.000000,1673606972.619506
1673607484.579901,,,,3.140150,3.142888,1456327.000000,1673606972.620513
1673607484.580227,,,,3.155824,3.158274,1456328.000000,1673606972.621520
1673607484.580428,,,,3.179168,3.178708,1456329.000000,1673606972.622527
1673607484.580888,,,,3.202463,3.201859,1456330.000000,1673606972.623534
1673607484.580915,,,,3.221239,3.218904,1456331.000000,1673606972.624541
1673607484.584483,,,,3.230422,3.230636,1456332.000000,1673606972.625548
1673607484.584894,,,,3.230975,3.233400,1456333.000000,1673606972.626555
1673607484.585147,,,,3.233956,3.233713,1456334.000000,1673606972.627563
1673607484.585436,,,,3.229220,3.230587,1456335.000000,1673606972.628570
1673607484.585658,,,,3.213906,3.217413,1456336.000000,1673606972.629577
1673607484.585718,,,,3.192294,3.194767,1456337.000000,1673606972.630584
1673607484.585861,,,,3.165104,3.169380,1456338.000000,1673606972.631591
1673607484.586559,,,,3.164696,3.166568,1456339.000000,1673606972.632598
1673607484.586719,,,,3.185947,3.186810,1456340.000000,1673606972.633605
1673607484.586866,,,,3.191885,3.194118,1456341.000000,1673606972.634612
1673607484.587188,,,,3.183279,3.184526,1456342.000000,1673606972.635619
1673607484.587356,,,,3.184144,3.184141,1456343.000000,1673606972.636626
1673607484.587383,,,,3.207968,3.211043,1456344.000000,1673606972.637633
1673607484.587481,,,,3.224580,3.227558,1456345.000000,1673606972.638640
1673607484.591477,,,,3.233475,3.235420,1456346.000000,1673606972.639647
1673607484.591937,,,,3.224388,3.224577,1456347.000000,1673606972.640655
1673607484.591946,,,,3.221407,3.221092,1456348.000000,1673606972.641662
1673607484.591970,,,,3.222946,3.223592,1456349.000000,1673606972.642669
1673607484.593892,,,,3.198376,3.201474,1456350.000000,1673606972.643676
1673607484.594161,,,,3.200660,3.204600,1456351.000000,1673606972.644683
1673607484.594426,,,,3.228331,3.232679,1456352.000000,1673606972.645690
1673607484.594730,,,,3.237346,3.241646,1456353.000000,1673606972.646697
1673607484.607722,,,,3.230735,3.233016,1456354.000000,1673606972.647704
1673607484.607821,,,,3.212440,3.214697,1456355.000000,1673606972.648711
1673607484.615646,,,,3.140390,3.141878,1456356.000000,1673606972.649718
1673607484.615662,,,,3.083510,3.084469,1456357.000000,1673606972.650725
1673607484.615902,,,,3.069375,3.069203,1456358.000000,1673606972.651732
1673607484.615962,,,,3.094161,3.092667,1456359.000000,1673606972.652740
1673607484.618368,30.405476,1593016.000000,1673607484.557452,,,,
1673607484.620193,30.351200,1593017.000000,1673607484.558452,,,,
1673607484.620208,30.477833,1593018.000000,1673607484.559452,,,,
1673607484.620214,30.423565,1593019.000000,1673607484.560452,,,,
1673607484.620291,31.635607,1593067.000000,1673607484.608452,,,,
1673607484.620320,31.744141,1593068.000000,1673607484.609452,,,,
1673607484.620342,31.780327,1593069.000000,1673607484.610452,,,,
1673607484.620347,31.726051,1593070.000000,1673607484.611452,,,,
1673607484.620358,31.834593,1593071.000000,1673607484.612452,,,,
1673607484.620392,31.834593,1593072.000000,1673607484.613452,,,,
1673607484.620399,31.906958,1593073.000000,1673607484.614452,,,,
1673607484.620409,31.925047,1593074.000000,1673607484.615452,,,,
1673607484.620432,31.979315,1593075.000000,1673607484.616452,,,,
1673607484.620451,32.033581,1593076.000000,1673607484.617452,,,,
1673607484.621959,,,,3.110292,3.111923,1456360.000000,1673606972.653747
1673607484.622094,,,,3.103681,3.104254,1456361.000000,1673606972.654754
1673607484.622113,,,,3.098320,3.098244,1456362.000000,1673606972.655761
1673607484.622122,,,,3.104810,3.106178,1456363.000000,1673606972.656768
1673607484.624279,,,,3.115677,3.117765,1456364.000000,1673606972.657775
1673607484.624502,,,,3.128226,3.131012,1456365.000000,1673606972.658782
1673607484.624685,,,,3.135582,3.135820,1456366.000000,1673606972.659789
1673607484.625185,,,,3.140294,3.138897,1456367.000000,1673606972.660796
1673607484.625196,,,,3.147819,3.148489,1456368.000000,1673606972.661803
1673607484.625203,,,,3.151521,3.155869,1456369.000000,1673606972.662810
1673607484.625234,,,,3.155464,3.158201,1456370.000000,1673606972.663817
1673607484.637864,,,,3.156185,3.156999,1456371.000000,1673606972.664824
1673607484.638900,,,,3.158829,3.160437,1456372.000000,1673606972.665832
1673607484.639083,,,,3.159575,3.160630,1456373.000000,1673606972.666839
1673607484.639113,,,,3.153156,3.155485,1456374.000000,1673606972.667846
1673607484.644165,,,,3.152074,3.155413,1456375.000000,1673606972.668853
1673607484.644228,,,,3.149694,3.152071,1456376.000000,1673606972.669860
1673607484.644238,,,,3.152459,3.152576,1456377.000000,1673606972.670867
1673607484.644249,,,,3.154526,3.155076,1456378.000000,1673606972.671874
1673607484.646436,,,,3.154622,3.154740,1456379.000000,1673606972.672881
1673607484.646454,,,,3.154406,3.153874,1456380.000000,1673606972.673888
1673607484.646472,,,,3.156690,3.155677,1456381.000000,1673606972.674895
1673607484.651927,,,,3.154695,3.154067,1456382.000000,1673606972.675902
1673607484.651939,,,,3.155849,3.157961,1456383.000000,1673606972.676909
1673607484.652084,,,,3.157628,3.161159,1456384.000000,1673606972.677917
1673607484.652262,,,,3.160272,3.163875,1456385.000000,1673606972.678924
1673607484.652341,,,,3.165561,3.167938,1456386.000000,1673606972.679931
1673607484.652405,,,,3.169479,3.171256,1456387.000000,1673606972.680938
1673607484.652444,,,,3.167292,3.167746,1456388.000000,1673606972.681945
1673607484.654254,,,,3.166667,3.167770,1456389.000000,1673606972.682952
1673607484.654259,,,,3.170537,3.173972,1456390.000000,1673606972.683959
1673607484.654417,,,,3.171739,3.174862,1456391.000000,1673606972.684966
1673607484.654604,,,,3.162123,3.162360,1456392.000000,1673606972.685973
1673607484.654683,,,,3.161955,3.163707,1456393.000000,1673606972.686980
1673607484.654791,,,,3.166234,3.168803,1456394.000000,1673606972.687987
1673607484.654800,,,,3.166354,3.169020,1456395.000000,1673606972.688994
1673607484.668039,,,,3.164191,3.168202,1456396.000000,1673606972.690001
1673607484.668356,,,,3.163878,3.167217,1456397.000000,1673606972.691009
1673607484.668677,,,,3.166523,3.169957,1456398.000000,1673606972.692016
1673607484.669031,,,,3.164142,3.165726,1456399.000000,1673606972.693023
1673607484.675469,,,,3.166354,3.166039,1456400.000000,1673606972.694030
1673607484.675486,,,,3.164696,3.166808,1456401.000000,1673606972.695037
1673607484.675910,,,,3.169407,3.171856,1456402.000000,1673606972.696044
1673607484.681628,,,,3.179528,3.181785,1456403.000000,1673606972.697051
1673607484.682267,,,,3.180466,3.178155,1456404.000000,1673606972.698058
1673607484.682284,,,,3.180610,3.179069,1456405.000000,1673606972.699065
1673607484.684273,33.516975,1593108.000000,1673607484.653382,,,,
1673607484.684511,,,,3.174961,3.176905,1456406.000000,1673606972.700072
1673607484.684720,,,,3.171114,3.173131,1456407.000000,1673606972.701079
1673607484.685068,,,,3.168061,3.168010,1456408.000000,1673606972.702086
1673607484.685478,33.625519,1593109.000000,1673607484.654382,,,,
1673607484.685498,33.679783,1593110.000000,1673607484.655382,,,,
1673607484.685507,33.697872,1593111.000000,1673607484.656382,,,,
1673607484.685513,33.734058,1593112.000000,1673607484.657382,,,,
1673607484.685518,33.806416,1593113.000000,1673607484.658382,,,,
1673607484.685586,33.806416,1593114.000000,1673607484.659382,,,,
1673607484.685596,33.878780,1593115.000000,1673607484.660382,,,,
1673607484.685603,33.933048,1593116.000000,1673607484.661382,,,,
1673607484.685609,34.023502,1593117.000000,1673607484.662382,,,,
1673607484.685622,34.294853,1593128.000000,1673607484.673382,,,,
1673607484.685641,34.258667,1593129.000000,1673607484.674382,,,,
1673607484.685666,34.331032,1593130.000000,1673607484.675382,,,,
1673607484.685675,34.331032,1593131.000000,1673607484.676382,,,,
1673607484.685681,34.331032,1593132.000000,1673607484.677382,,,,
1673607484.685717,34.367210,1593133.000000,1673607484.678382,,,,
1673607484.685723,34.385300,1593134.000000,1673607484.679382,,,,
1673607484.685727,34.493843,1593135.000000,1673607484.680382,,,,
1673607484.685755,34.493843,1593136.000000,1673607484.681382,,,,
1673607484.685776,34.457664,1593137.000000,1673607484.682382,,,,
1673607484.685801,,,,3.180730,3.183011,1456409.000000,1673606972.703094
1673607484.686084,,,,3.212608,3.215418,1456410.000000,1673606972.704101
1673607484.686213,,,,3.234028,3.236309,1456411.000000,1673606972.705108
1673607484.686267,,,,3.237129,3.241863,1456412.000000,1673606972.706115
1673607484.688968,,,,3.234918,3.240540,1456413.000000,1673606972.707122
1673607484.688984,,,,3.244847,3.244771,1456414.000000,1673606972.708129
1673607484.689224,,,,3.244053,3.243329,1456415.000000,1673606972.709136
1673607484.689324,,,,3.228571,3.228568,1456416.000000,1673606972.710143
1673607484.691823,,,,3.213882,3.217053,1456417.000000,1673606972.711150
1673607484.691889,,,,3.193688,3.195849,1456418.000000,1673606972.712157
1673607484.692019,,,,3.188279,3.188565,1456419.000000,1673606972.713164
1673607484.692198,,,,3.185659,3.187363,1456420.000000,1673606972.714171
1673607484.692359,,,,3.171162,3.173179,1456421.000000,1673606972.715178
1673607484.692545,,,,3.152002,3.153706,1456422.000000,1673606972.716186
1673607484.692833,,,,3.118345,3.118799,1456423.000000,1673606972.717193
1673607484.692866,,,,3.088487,3.088796,1456424.000000,1673606972.718200
1673607484.696814,,,,3.101877,3.103221,1456425.000000,1673606972.719207
1673607484.696837,,,,3.136135,3.136950,1456426.000000,1673606972.720214
1673607484.696855,,,,3.153661,3.154764,1456427.000000,1673606972.721221
1673607484.698967,,,,3.155103,3.157192,1456428.000000,1673606972.722228
1673607484.698978,,,,3.145006,3.144522,1456429.000000,1673606972.723235
1673607484.699003,,,,3.137073,3.137118,1456430.000000,1673606972.724242
1673607484.699013,,,,3.146689,3.144643,1456431.000000,1673606972.725249
1673607484.704057,,,,3.158301,3.156711,1456432.000000,1673606972.726256
1673607484.704070,,,,3.159431,3.158490,1456433.000000,1673606972.727263
1673607484.704222,,,,3.161210,3.160077,1456434.000000,1673606972.728271
1673607484.706711,,,,3.156089,3.155869,1456435.000000,1673606972.729278
1673607484.706837,,,,3.143348,3.143417,1456436.000000,1673606972.730285
1673607484.706928,,,,3.126014,3.125386,1456437.000000,1673606972.731292
1673607484.707057,,,,3.128226,3.128031,1456438.000000,1673606972.732299
1673607484.707063,,,,3.148083,3.149691,1456439.000000,1673606972.733306
1673607484.707215,,,,3.153901,3.155437,1456440.000000,1673606972.734313
1673607484.707323,,,,3.152699,3.152336,1456441.000000,1673606972.735320
1673607484.711587,,,,3.168999,3.166784,1456442.000000,1673606972.736327
1673607484.711596,,,,3.190683,3.190223,1456443.000000,1673606972.737334
1673607484.711602,,,,3.195275,3.196714,1456444.000000,1673606972.738341
1673607484.711616,,,,3.190154,3.190800,1456445.000000,1673606972.739348
1673607484.714273,,,,3.192679,3.192219,1456446.000000,1673606972.740355
1673607484.714282,,,,3.198833,3.199263,1456447.000000,1673606972.741363
1673607484.714707,,,,3.178711,3.177121,1456448.000000,1673606972.742370
1673607484.715019,,,,3.160032,3.159812,1456449.000000,1673606972.743377
1673607484.715238,,,,3.162796,3.162913,1456450.000000,1673606972.744384
1673607484.715275,,,,3.156690,3.154788,1456451.000000,1673606972.745391
1673607484.715283,,,,3.147410,3.147864,1456452.000000,1673606972.746398
1673607484.728261,,,,3.148757,3.148609,1456453.000000,1673606972.747405
1673607484.728970,,,,3.144141,3.147600,1456454.000000,1673606972.748412
1673607484.729812,,,,3.144694,3.147527,1456455.000000,1673606972.749419
1673607484.729823,,,,3.161594,3.160461,1456456.000000,1673606972.750426
1673607484.735616,,,,3.173446,3.173299,1456457.000000,1673606972.751433
1673607484.735625,,,,3.199025,3.200897,1456458.000000,1673606972.752440
1673607484.735640,,,,3.249967,3.253642,1456459.000000,1673606972.753448
1673607484.738201,34.421486,1593138.000000,1673607484.677665,,,,
1673607484.739186,34.457664,1593139.000000,1673607484.678665,,,,
1673607484.739199,34.584297,1593189.000000,1673607484.728665,,,,
1673607484.739205,34.548107,1593190.000000,1673607484.729665,,,,
1673607484.739208,34.602383,1593191.000000,1673607484.730665,,,,
1673607484.739373,34.584297,1593192.000000,1673607484.731665,,,,
1673607484.739383,34.566208,1593193.000000,1673607484.732665,,,,
1673607484.739398,34.584297,1593194.000000,1673607484.733665,,,,
1673607484.739419,34.656651,1593195.000000,1673607484.734665,,,,
1673607484.739425,34.656651,1593196.000000,1673607484.735665,,,,
1673607484.739431,34.620472,1593197.000000,1673607484.736665,,,,
1673607484.739445,34.692829,1593198.000000,1673607484.737665,,,,
1673607484.741670,,,,3.306342,3.308094,1456460.000000,1673606972.754455
1673607484.741767,,,,3.344014,3.344347,1456461.000000,1673606972.755462
1673607484.741868,,,,3.346562,3.347833,1456462.000000,1673606972.756469
1673607484.744305,,,,3.315430,3.314826,1456463.000000,1673606972.757476
1673607484.744313,,,,3.237706,3.239266,1456464.000000,1673606972.758483
1673607484.744471,,,,3.152411,3.154475,1456465.000000,1673606972.759490
1673607484.744672,,,,3.080962,3.081921,1456466.000000,1673606972.760497
1673607484.744684,,,,3.045118,3.044225,1456467.000000,1673606972.761504
1673607484.744778,,,,3.056705,3.056390,1456468.000000,1673606972.762511
1673607484.744837,,,,3.085145,3.086224,1456469.000000,1673606972.763518
1673607484.749144,,,,3.092478,3.096610,1456470.000000,1673606972.764525
1673607484.749152,,,,3.086492,3.091032,1456471.000000,1673606972.765532
1673607484.749156,,,,3.097166,3.100096,1456472.000000,1673606972.766540
1673607484.749193,,,,3.117720,3.121155,1456473.000000,1673606972.767547
1673607484.751768,,,,3.127985,3.131300,1456474.000000,1673606972.768554
1673607484.751776,,,,3.141544,3.144859,1456475.000000,1673606972.769561
1673607484.751809,,,,3.155103,3.157288,1456476.000000,1673606972.770568
1673607484.751857,,,,3.159094,3.160221,1456477.000000,1673606972.771575
1673607484.751973,,,,3.160344,3.161687,1456478.000000,1673606972.772582
1673607484.752212,,,,3.166715,3.168202,1456479.000000,1673606972.773589
1673607484.752236,,,,3.166523,3.169188,1456480.000000,1673606972.774596
1673607484.752299,,,,3.159935,3.162409,1456481.000000,1673606972.775603
1673607484.759291,,,,3.160584,3.163394,1456482.000000,1673606972.776610
1673607484.759828,,,,3.183615,3.185560,1456483.000000,1673606972.777617
1673607484.759860,,,,3.189601,3.192003,1456484.000000,1673606972.778625
1673607484.764315,,,,3.191957,3.193132,1456485.000000,1673606972.779632
1673607484.764325,,,,3.193760,3.195585,1456486.000000,1673606972.780639
1673607484.764711,,,,3.192029,3.193974,1456487.000000,1673606972.781646
1673607484.766768,,,,3.180779,3.184838,1456488.000000,1673606972.782653
1673607484.767382,,,,3.180346,3.181593,1456489.000000,1673606972.783660
1673607484.767401,,,,3.183808,3.184814,1456490.000000,1673606972.784667
1673607484.767686,,,,3.177918,3.180631,1456491.000000,1673606972.785674
1673607484.767917,,,,3.159815,3.159860,1456492.000000,1673606972.786681
1673607484.768160,,,,3.138058,3.138993,1456493.000000,1673606972.787688
1673607484.768642,,,,3.139357,3.142527,1456494.000000,1673606972.788695
1673607484.772034,,,,3.140751,3.140724,1456495.000000,1673606972.789702
1673607484.772419,,,,3.134861,3.134714,1456496.000000,1673606972.790709
1673607484.773002,,,,3.136352,3.137479,1456497.000000,1673606972.791717
1673607484.773020,,,,3.135342,3.137046,1456498.000000,1673606972.792724
1673607484.773039,,,,3.141905,3.143080,1456499.000000,1673606972.793731
1673607484.773186,,,,3.149285,3.148730,1456500.000000,1673606972.794738
1673607484.773240,,,,3.148083,3.146878,1456501.000000,1673606972.795745
1673607484.773460,,,,3.157099,3.153946,1456502.000000,1673606972.796752
1673607484.773900,,,,3.165801,3.168539,1456503.000000,1673606972.797759
1673607484.774430,,,,3.166114,3.166399,1456504.000000,1673606972.798766
1673607484.774534,,,,3.164166,3.166231,1456505.000000,1673606972.799773
1673607484.787850,,,,3.164984,3.167842,1456506.000000,1673606972.800780
1673607484.788462,,,,3.167604,3.168635,1456507.000000,1673606972.801787
1673607484.788492,,,,3.175321,3.175631,1456508.000000,1673606972.802794
1673607484.795301,,,,3.182197,3.182939,1456509.000000,1673606972.803802
1673607484.795681,,,,3.192078,3.193926,1456510.000000,1673606972.804809
1673607484.795826,,,,3.208521,3.211956,1456511.000000,1673606972.805816
1673607484.795931,,,,3.228210,3.230275,1456512.000000,1673606972.806823
1673607484.796143,,,,3.230470,3.233280,1456513.000000,1673606972.807830
1673607484.801549,,,,3.228451,3.229217,1456514.000000,1673606972.808837
1673607484.801788,,,,3.226864,3.228953,1456515.000000,1673606972.809844
1673607484.801885,,,,3.226287,3.227150,1456516.000000,1673606972.810851
1673607484.803234,35.651608,1593250.000000,1673607484.792664,,,,
1673607484.803247,35.615429,1593251.000000,1673607484.793664,,,,
1673607484.803252,35.669697,1593252.000000,1673607484.794664,,,,
1673607484.803261,35.651608,1593253.000000,1673607484.795664,,,,
1673607484.803270,35.687794,1593254.000000,1673607484.796664,,,,
1673607484.803294,35.705883,1593255.000000,1673607484.797664,,,,
1673607484.803298,35.723972,1593256.000000,1673607484.798664,,,,
1673607484.803313,35.742062,1593257.000000,1673607484.799664,,,,
1673607484.803320,35.742062,1593258.000000,1673607484.800664,,,,
1673607484.803324,35.742062,1593259.000000,1673607484.801664,,,,
1673607484.804179,,,,3.204819,3.203951,1456517.000000,1673606972.811858
1673607484.804308,,,,3.178519,3.179477,1456518.000000,1673606972.812865
1673607484.804511,,,,3.197198,3.200705,1456519.000000,1673606972.813872
1673607484.804515,,,,3.246289,3.247416,1456520.000000,1673606972.814879
1673607484.804692,,,,3.255016,3.256119,1456521.000000,1673606972.815886
1673607484.804812,,,,3.243741,3.245925,1456522.000000,1673606972.816894
1673607484.804822,,,,3.191092,3.191185,1456523.000000,1673606972.817901
1673607484.809104,,,,3.156065,3.156951,1456524.000000,1673606972.818908
1673607484.809288,,,,3.155656,3.156807,1456525.000000,1673606972.819915
1673607484.809648,,,,3.158373,3.157216,1456526.000000,1673606972.820922
1673607484.811250,,,,3.108897,3.108750,1456527.000000,1673606972.821929
1673607484.811603,,,,3.076731,3.076848,1456528.000000,1673606972.822936
1673607484.811836,,,,3.062499,3.062688,1456529.000000,1673606972.823943
1673607484.811842,,,,3.053989,3.054226,1456530.000000,1673606972.824950
1673607484.816441,,,,3.074207,3.074997,1456531.000000,1673606972.825957
1673607484.816485,,,,3.099233,3.097138,1456532.000000,1673606972.826964
1673607484.816701,,,,3.123634,3.124569,1456533.000000,1673606972.827971
1673607484.816710,,,,3.139309,3.142503,1456534.000000,1673606972.828979
1673607484.819076,,,,3.149766,3.149787,1456535.000000,1673606972.829986
1673607484.819347,,,,3.164311,3.162192,1456536.000000,1673606972.830993
1673607484.819416,,,,3.168734,3.170679,1456537.000000,1673606972.832000
1673607484.819426,,,,3.169119,3.168611,1456538.000000,1673606972.833007
1673607484.819430,,,,3.169696,3.171448,1456539.000000,1673606972.834014
1673607484.819437,,,,3.182461,3.184069,1456540.000000,1673606972.835021
1673607484.824342,,,,3.180298,3.184478,1456541.000000,1673606972.836028
1673607484.824433,,,,3.156570,3.157961,1456542.000000,1673606972.837035
1673607484.824542,,,,3.137578,3.137887,1456543.000000,1673606972.838042
1673607484.824555,,,,3.145751,3.146061,1456544.000000,1673606972.839049
1673607484.826667,,,,3.152579,3.154547,1456545.000000,1673606972.840056
1673607484.826742,,,,3.141496,3.141565,1456546.000000,1673606972.841063
1673607484.827210,,,,3.140775,3.141854,1456547.000000,1673606972.842071
1673607484.827322,,,,3.147098,3.149234,1456548.000000,1673606972.843078
1673607484.827467,,,,3.158469,3.157432,1456549.000000,1673606972.844085
1673607484.827525,,,,3.163373,3.162721,1456550.000000,1673606972.845092
1673607484.827631,,,,3.163638,3.162360,1456551.000000,1673606972.846099
1673607484.831590,,,,3.161113,3.161014,1456552.000000,1673606972.847106
1673607484.831933,,,,3.158661,3.159981,1456553.000000,1673606972.848113
1673607484.832171,,,,3.158782,3.161880,1456554.000000,1673606972.849120
1673607484.832555,,,,3.155800,3.158514,1456555.000000,1673606972.850127
1673607484.834241,,,,3.159551,3.159644,1456556.000000,1673606972.851134
1673607484.834335,,,,3.173038,3.171039,1456557.000000,1673606972.852141
1673607484.834709,,,,3.215421,3.214937,1456558.000000,1673606972.853148
1673607484.835058,,,,3.268599,3.269317,1456559.000000,1673606972.854156
1673607484.847916,,,,3.288841,3.291939,1456560.000000,1673606972.855163
1673607484.848516,,,,3.287326,3.288381,1456561.000000,1673606972.856170
1673607484.848731,,,,3.281052,3.281481,1456562.000000,1673606972.857177
1673607484.855299,,,,3.252852,3.253089,1456563.000000,1673606972.858184
1673607484.855457,,,,3.187390,3.189839,1456564.000000,1673606972.859191
1673607484.855597,,,,3.136111,3.138248,1456565.000000,1673606972.860198
1673607484.855933,35.796329,1593260.000000,1673607484.795374,,,,
1673607484.856106,35.796329,1593261.000000,1673607484.796374,,,,
1673607484.856119,35.832516,1593262.000000,1673607484.797374,,,,
1673607484.857152,37.189266,1593311.000000,1673607484.846374,,,,
1673607484.857165,37.261631,1593312.000000,1673607484.847374,,,,
1673607484.857170,37.297810,1593313.000000,1673607484.848374,,,,
1673607484.857174,37.352077,1593314.000000,1673607484.849374,,,,
1673607484.857185,37.370174,1593315.000000,1673607484.850374,,,,
1673607484.857190,37.424442,1593316.000000,1673607484.851374,,,,
1673607484.857205,37.460621,1593317.000000,1673607484.852374,,,,
1673607484.857209,37.424442,1593318.000000,1673607484.853374,,,,
1673607484.857224,37.460621,1593319.000000,1673607484.854374,,,,
1673607484.857229,37.532986,1593320.000000,1673607484.855374,,,,
1673607484.861504,,,,3.119764,3.122333,1456566.000000,1673606972.861205
1673607484.861791,,,,3.118514,3.121804,1456567.000000,1673606972.862212
1673607484.861887,,,,3.159455,3.163130,1456568.000000,1673606972.863219
1673607484.861987,,,,3.199266,3.202196,1456569.000000,1673606972.864226
1673607484.863817,,,,3.205084,3.207124,1456570.000000,1673606972.865233
1673607484.864017,,,,3.195732,3.195488,1456571.000000,1673606972.866241
1673607484.864189,,,,3.203377,3.203205,1456572.000000,1673606972.867248
1673607484.864203,,,,3.193833,3.195008,1456573.000000,1673606972.868255
1673607484.868955,,,,3.154214,3.154860,1456574.000000,1673606972.869262
1673607484.869068,,,,3.087453,3.087907,1456575.000000,1673606972.870269
1673607484.869204,,,,3.074087,3.074108,1456576.000000,1673606972.871276
1673607484.872211,,,,3.102815,3.104759,1456577.000000,1673606972.872283
1673607484.872704,,,,3.138251,3.139474,1456578.000000,1673606972.873290
1673607484.872915,,,,3.181380,3.182723,1456579.000000,1673606972.874297
1673607484.872941,,,,3.204915,3.203902,1456580.000000,1673606972.875304
1673607484.872958,,,,3.213353,3.212341,1456581.000000,1673606972.876311
1673607484.872978,,,,3.208425,3.210225,1456582.000000,1673606972.877318
1673607484.872992,,,,3.200251,3.201763,1456583.000000,1673606972.878325
1673607484.877008,,,,3.186380,3.189622,1456584.000000,1673606972.879333
1673607484.877721,,,,3.140991,3.143368,1456585.000000,1673606972.880340
1673607484.878648,,,,3.133515,3.133031,1456586.000000,1673606972.881347
1673607484.878801,,,,3.135414,3.139474,1456587.000000,1673606972.882354
1673607484.878916,,,,3.142506,3.145965,1456588.000000,1673606972.883361
1673607484.878933,,,,3.141400,3.143417,1456589.000000,1673606972.884368
1673607484.878941,,,,3.145872,3.151566,1456590.000000,1673606972.885375
1673607484.879207,,,,3.170802,3.174212,1456591.000000,1673606972.886382
1673607484.879604,,,,3.215445,3.213398,1456592.000000,1673606972.887389
1673607484.879986,,,,3.265930,3.268235,1456593.000000,1673606972.888396
1673607484.880010,,,,3.297952,3.300161,1456594.000000,1673606972.889403
1673607484.884784,,,,3.301943,3.302156,1456595.000000,1673606972.890410
1673607484.884800,,,,3.276772,3.277827,1456596.000000,1673606972.891418
1673607484.885265,,,,3.243933,3.245397,1456597.000000,1673606972.892425
1673607484.885450,,,,3.206069,3.208879,1456598.000000,1673606972.893432
1673607484.885736,,,,3.146136,3.148489,1456599.000000,1673606972.894439
1673607484.885750,,,,3.108464,3.106106,1456600.000000,1673606972.895446
1673607484.885755,,,,3.103969,3.102788,1456601.000000,1673606972.896453
1673607484.885792,,,,3.119595,3.119040,1456602.000000,1673606972.897460
1673607484.885972,,,,3.125582,3.125891,1456603.000000,1673606972.898467
1673607484.885979,,,,3.113393,3.114183,1456604.000000,1673606972.899474
1673607484.885991,,,,3.115052,3.116371,1456605.000000,1673606972.900481
1673607484.886915,,,,3.126303,3.126011,1456606.000000,1673606972.901488
1673607484.886930,,,,3.132890,3.134786,1456607.000000,1673606972.902495
1673607484.887005,,,,3.132649,3.135579,1456608.000000,1673606972.903502
1673607484.887015,,,,3.134068,3.137719,1456609.000000,1673606972.904510
1673607484.887020,,,,3.137986,3.139113,1456610.000000,1673606972.905517
1673607484.887084,,,,3.143948,3.143537,1456611.000000,1673606972.906524
1673607484.891503,,,,3.143780,3.146854,1456612.000000,1673606972.907531
1673607484.891978,,,,3.149261,3.149258,1456613.000000,1673606972.908538
1673607484.892002,,,,3.152483,3.152504,1456614.000000,1673606972.909545
1673607484.892217,,,,3.150271,3.150605,1456615.000000,1673606972.910552
1673607484.892417,,,,3.148324,3.149980,1456616.000000,1673606972.911559
1673607484.893908,,,,3.151617,3.153898,1456617.000000,1673606972.912566
1673607484.894313,,,,3.153805,3.153466,1456618.000000,1673606972.913573
1673607484.894357,,,,3.152291,3.153850,1456619.000000,1673606972.914580
1673607484.907740,,,,3.152699,3.153466,1456620.000000,1673606972.915587
1673607484.907747,,,,3.152098,3.154740,1456621.000000,1673606972.916595
1673607484.907750,,,,3.159406,3.161014,1456622.000000,1673606972.917602
1673607484.916608,,,,3.165705,3.166688,1456623.000000,1673606972.918609
1673607484.916619,,,,3.165320,3.167241,1456624.000000,1673606972.919616
1673607484.916807,,,,3.167797,3.168611,1456625.000000,1673606972.920623
1673607484.916884,,,,3.168037,3.170414,1456626.000000,1673606972.921630
1673607484.916970,,,,3.174023,3.176905,1456627.000000,1673606972.922637
1673607484.917659,,,,3.181957,3.183588,1456631.000000,1673606972.926665
1673607484.917665,,,,3.186885,3.187867,1456632.000000,1673606972.927672
1673607484.917728,,,,3.187510,3.187964,1456633.000000,1673606972.928679
1673607484.917732,,,,3.185947,3.183805,1456634.000000,1673606972.929687
1673607484.917780,,,,3.174768,3.175054,1456635.000000,1673606972.930694
1673607484.917822,,,,3.172965,3.173660,1456636.000000,1673606972.931701
1673607484.917828,,,,3.179384,3.179237,1456637.000000,1673606972.932708
1673607484.917868,,,,3.174191,3.174597,1456638.000000,1673606972.933715
1673607484.917909,,,,3.183639,3.184886,1456639.000000,1673606972.934722
1673607484.917915,,,,3.202703,3.202580,1456640.000000,1673606972.935729
1673607484.920691,38.383221,1593372.000000,1673607484.910399,,,,
1673607484.920699,38.401310,1593373.000000,1673607484.911400,,,,
1673607484.920702,38.383221,1593374.000000,1673607484.912400,,,,
1673607484.920742,38.347042,1593375.000000,1673607484.913399,,,,
1673607484.920760,38.383221,1593376.000000,1673607484.914399,,,,
1673607484.920765,38.365131,1593377.000000,1673607484.915400,,,,
1673607484.920768,38.383221,1593378.000000,1673607484.916399,,,,
1673607484.920798,38.347042,1593379.000000,1673607484.917399,,,,
1673607484.920801,38.292767,1593380.000000,1673607484.918400,,,,
1673607484.920820,38.328945,1593381.000000,1673607484.919399,,,,
1673607484.921319,,,,3.207656,3.209552,1456641.000000,1673606972.936736
1673607484.921776,,,,3.192390,3.192267,1456642.000000,1673606972.937743
1673607484.921789,,,,3.192054,3.192772,1456643.000000,1673606972.938750
1673607484.923936,,,,3.191765,3.193228,1456644.000000,1673606972.939757
1673607484.924156,,,,3.195059,3.195969,1456645.000000,1673606972.940764
1673607484.924453,,,,3.189313,3.188252,1456646.000000,1673606972.941772
1673607484.924656,,,,3.176547,3.177819,1456647.000000,1673606972.942779
1673607484.929660,,,,3.168999,3.170342,1456648.000000,1673606972.943786
1673607484.929965,,,,3.153445,3.152287,1456649.000000,1673606972.944793
1673607484.930226,,,,3.146569,3.144667,1456650.000000,1673606972.945800
1673607484.930734,,,,3.157579,3.156422,1456651.000000,1673606972.946807
1673607484.930753,,,,3.163950,3.166159,1456652.000000,1673606972.947814
1673607484.930909,,,,3.147651,3.149884,1456653.000000,1673606972.948821
1673607484.931178,,,,3.111974,3.113222,1456654.000000,1673606972.949828
1673607484.931456,,,,3.095483,3.099422,1456655.000000,1673606972.950835
1673607484.931589,,,,3.113850,3.113726,1456656.000000,1673606972.951842
1673607484.931835,,,,3.141761,3.141830,1456657.000000,1673606972.952849
1673607484.932019,,,,3.184817,3.184045,1456658.000000,1673606972.953856
1673607484.932347,,,,3.214435,3.212461,1456659.000000,1673606972.954864
1673607484.932710,,,,3.221335,3.221020,1456660.000000,1673606972.955871
1673607484.932832,,,,3.225061,3.228424,1456661.000000,1673606972.956878
1673607484.932977,,,,3.225855,3.224433,1456662.000000,1673606972.957885
1673607484.933152,,,,3.210324,3.209552,1456663.000000,1673606972.958892
1673607484.933490,,,,3.169816,3.170702,1456664.000000,1673606972.959899
1673607484.933505,,,,3.153084,3.151614,1456665.000000,1673606972.960906
1673607484.933512,,,,3.148973,3.151302,1456666.000000,1673606972.961913
1673607484.933693,,,,3.170922,3.171568,1456667.000000,1673606972.962920
1673607484.933910,,,,3.188952,3.188925,1456668.000000,1673606972.963927
1673607484.934211,,,,3.190659,3.192219,1456669.000000,1673606972.964934
1673607484.934339,,,,3.203449,3.205393,1456670.000000,1673606972.965941
1673607484.934744,,,,3.182654,3.182987,1456671.000000,1673606972.966949
1673607484.934834,,,,3.175417,3.174886,1456672.000000,1673606972.967956
1673607484.937236,,,,3.178807,3.183925,1456673.000000,1673606972.968963
1673607484.937246,,,,3.177749,3.179237,1456674.000000,1673606972.969970
1673607484.937444,,,,3.166378,3.167529,1456675.000000,1673606972.970977
1673607484.937586,,,,3.174624,3.173732,1456676.000000,1673606972.971984
1673607484.937594,,,,3.199578,3.197147,1456677.000000,1673606972.972991
1673607484.937598,,,,3.233259,3.231549,1456678.000000,1673606972.973998
1673607484.937986,,,,3.231528,3.232487,1456679.000000,1673606972.975005
1673607484.939427,,,,3.206887,3.205922,1456680.000000,1673606972.976012
1673607484.939665,,,,3.171475,3.172145,1456681.000000,1673606972.977019
1673607484.940049,,,,3.125798,3.127502,1456682.000000,1673606972.978026
1673607484.940120,,,,3.082741,3.084950,1456683.000000,1673606972.979033
1673607484.940260,,,,3.065264,3.068963,1456684.000000,1673606972.980041
1673607484.940470,,,,3.083126,3.085070,1456685.000000,1673606972.981048
1673607484.940641,,,,3.108633,3.109640,1456686.000000,1673606972.982055
1673607484.940931,,,,3.117792,3.117813,1456687.000000,1673606972.983062
1673607484.941270,,,,3.116254,3.116371,1456688.000000,1673606972.984069
1673607484.941278,,,,3.116566,3.118102,1456689.000000,1673606972.985076
1673607484.941281,,,,3.127216,3.128992,1456690.000000,1673606972.986083
1673607484.944657,,,,3.132265,3.134185,1456691.000000,1673606972.987090
1673607484.944748,,,,3.133755,3.137479,1456692.000000,1673606972.988097
1673607484.944759,,,,3.157339,3.158995,1456693.000000,1673606972.989104
1673607484.944776,,,,3.170297,3.170438,1456694.000000,1673606972.990111
1673607484.944869,,,,3.179240,3.178396,1456695.000000,1673606972.991118
1673607484.944882,,,,3.186067,3.185079,1456696.000000,1673606972.992126
1673607484.944889,,,,3.178567,3.179093,1456697.000000,1673606972.993133
1673607484.944932,,,,3.160392,3.159764,1456698.000000,1673606972.994140
1673607484.946201,,,,3.130149,3.130459,1456699.000000,1673606972.995147
1673607484.946479,,,,3.107743,3.107981,1456700.000000,1673606972.996154
1673607484.951710,,,,3.106205,3.108366,1456701.000000,1673606972.997161
1673607484.952008,,,,3.115509,3.116491,1456702.000000,1673606972.998168
1673607484.952235,,,,3.134621,3.135675,1456703.000000,1673606972.999175
1673607484.952465,,,,3.146400,3.149258,1456704.000000,1673606973.000182
1673607484.954427,,,,3.155296,3.154716,1456705.000000,1673606973.001189
1673607484.954439,,,,3.165441,3.163635,1456706.000000,1673606973.002196
1673607484.954458,,,,3.170730,3.170751,1456707.000000,1673606973.003203
1673607484.955039,,,,3.168902,3.167697,1456708.000000,1673606973.004210
1673607484.955051,,,,3.158084,3.156927,1456709.000000,1673606973.005218
1673607484.955457,,,,3.155151,3.153345,1456710.000000,1673606973.006225
1673607484.955473,,,,3.153012,3.151951,1456711.000000,1673606973.007232
1673607484.959099,,,,3.150896,3.152047,1456712.000000,1673606973.008239
1673607484.959265,,,,3.164142,3.164741,1456713.000000,1673606973.009246
1673607484.959761,,,,3.180658,3.182482,1456714.000000,1673606973.010253
1673607484.959904,,,,3.187991,3.187627,1456715.000000,1673606973.011260
1673607484.961574,,,,3.187558,3.188396,1456716.000000,1673606973.012267
1673607484.961721,,,,3.182678,3.184718,1456717.000000,1673606973.013274
1673607484.961838,,,,3.175610,3.174958,1456718.000000,1673606973.014281
1673607484.962000,,,,3.161787,3.161928,1456719.000000,1673606973.015288
1673607484.962162,,,,3.144069,3.147960,1456720.000000,1673606973.016295
1673607484.962247,,,,3.142001,3.144498,1456721.000000,1673606973.017303
1673607484.962379,,,,3.147002,3.150004,1456722.000000,1673606973.018310
1673607484.979237,,,,3.145150,3.146782,1456723.000000,1673606973.019317
1673607484.979409,,,,3.142097,3.143080,1456724.000000,1673606973.020324
1673607484.979536,,,,3.137457,3.140388,1456725.000000,1673606973.021331
1673607484.979770,,,,3.159863,3.163611,1456726.000000,1673606973.022338
1673607484.979789,,,,3.195996,3.196859,1456727.000000,1673606973.023345
1673607484.980536,,,,3.219844,3.222582,1456728.000000,1673606973.024352
1673607484.980553,,,,3.221335,3.222125,1456729.000000,1673606973.025359
1673607484.980567,,,,3.213738,3.213375,1456730.000000,1673606973.026366
1673607484.985443,38.455578,1593413.000000,1673607484.954593,,,,
1673607484.985863,,,,3.207464,3.208278,1456731.000000,1673606973.027373
1673607484.985960,38.491764,1593414.000000,1673607484.955593,,,,
1673607484.986045,,,,3.203689,3.203181,1456732.000000,1673606973.028380
1673607484.986308,38.509853,1593415.000000,1673607484.956593,,,,
1673607484.986328,38.509853,1593416.000000,1673607484.957593,,,,
1673607484.986334,38.564117,1593417.000000,1673607484.958593,,,,
1673607484.986341,38.582207,1593418.000000,1673607484.959593,,,,
1673607484.986386,38.636482,1593419.000000,1673607484.960593,,,,
1673607484.986400,38.618393,1593420.000000,1673607484.961593,,,,
1673607484.986404,38.600296,1593421.000000,1673607484.962593,,,,
1673607484.986424,38.618393,1593422.000000,1673607484.963593,,,,
1673607484.986462,38.962101,1593433.000000,1673607484.974593,,,,
1673607484.986483,38.962101,1593434.000000,1673607484.975593,,,,
1673607484.986490,39.052555,1593435.000000,1673607484.976593,,,,
1673607484.986495,39.052555,1593436.000000,1673607484.977593,,,,
1673607484.986500,39.070644,1593437.000000,1673607484.978593,,,,
1673607484.986534,39.124912,1593438.000000,1673607484.979593,,,,
1673607484.986542,39.143002,1593439.000000,1673607484.980593,,,,
1673607484.986548,39.143002,1593440.000000,1673607484.981593,,,,
1673607484.986562,39.143002,1593441.000000,1673607484.982593,,,,
1673607484.986568,39.197277,1593442.000000,1673607484.983593,,,,
1673607484.988902,,,,3.202920,3.203878,1456733.000000,1673606973.029387
1673607484.989016,,,,3.225302,3.227222,1456734.000000,1673606973.030395
1673607484.989187,,,,3.259944,3.259917,1456735.000000,1673606973.031402
1673607484.989364,,,,3.304828,3.305882,1456736.000000,1673606973.032409
1673607484.993512,,,,3.350577,3.350959,1456737.000000,1673606973.033416
1673607484.993567,,,,3.349928,3.350213,1456738.000000,1673606973.034423
1673607484.993577,,,,3.281869,3.283477,1456739.000000,1673606973.035430
1673607484.993599,,,,3.180827,3.179189,1456740.000000,1673606973.036437
1673607484.996972,,,,3.110556,3.111226,1456741.000000,1673606973.037444
1673607484.997262,,,,3.086251,3.087234,1456742.000000,1673606973.038451
1673607484.997391,,,,3.076442,3.076127,1456743.000000,1673606973.039458
1673607484.997400,,,,3.080938,3.080214,1456744.000000,1673606973.040465
1673607484.998906,,,,3.080626,3.081007,1456745.000000,1673606973.041472
1673607484.999189,,,,3.062860,3.064347,1456746.000000,1673606973.042480
1673607484.999435,,,,3.053508,3.055068,1456747.000000,1673606973.043487
1673607485.004838,,,,3.068822,3.069372,1456748.000000,1673606973.044494
1673607485.004935,,,,3.101877,3.100528,1456749.000000,1673606973.045501
1673607485.005041,,,,3.122913,3.127261,1456750.000000,1673606973.046508
1673607485.005347,,,,3.121591,3.124377,1456751.000000,1673606973.047515
1673607485.005450,,,,3.127505,3.128776,1456752.000000,1673606973.048522
1673607485.005622,,,,3.120581,3.122333,1456753.000000,1673606973.049529
1673607485.005750,,,,3.110412,3.110193,1456754.000000,1673606973.050536
1673607485.006347,,,,3.116686,3.118246,1456755.000000,1673606973.051543
1673607485.006379,,,,3.136712,3.138657,1456756.000000,1673606973.052550
1673607485.006409,,,,3.145319,3.145051,1456757.000000,1673606973.053557
1673607485.012053,,,,3.150704,3.150677,1456758.000000,1673606973.054564
1673607485.012066,,,,3.152146,3.153802,1456759.000000,1673606973.055572
1673607485.012178,,,,3.140150,3.144402,1456760.000000,1673606973.056579
1673607485.012474,,,,3.131015,3.137767,1456761.000000,1673606973.057586
1673607485.012479,,,,3.139453,3.142118,1456762.000000,1673606973.058593
1673607485.012552,,,,3.150848,3.152143,1456763.000000,1673606973.059600
1673607485.012559,,,,3.144333,3.145652,1456764.000000,1673606973.060607
1673607485.012564,,,,3.137337,3.141806,1456765.000000,1673606973.061614
1673607485.014102,,,,3.149237,3.147864,1456766.000000,1673606973.062621
1673607485.014335,,,,3.167316,3.165053,1456767.000000,1673606973.063628
1673607485.014471,,,,3.179144,3.178179,1456768.000000,1673606973.064635
1673607485.014700,,,,3.174648,3.174669,1456769.000000,1673606973.065642
1673607485.014709,,,,3.169143,3.167914,1456770.000000,1673606973.066649
1673607485.014713,,,,3.169672,3.168683,1456771.000000,1673606973.067657
1673607485.018878,,,,3.163998,3.166928,1456772.000000,1673606973.068664
1673607485.019214,,,,3.150367,3.155437,1456773.000000,1673606973.069671
1673607485.019223,,,,3.134068,3.136517,1456774.000000,1673606973.070678
1673607485.019233,,,,3.127889,3.128271,1456775.000000,1673606973.071685
1673607485.021266,,,,3.134068,3.132430,1456776.000000,1673606973.072692
1673607485.021584,,,,3.148059,3.147383,1456777.000000,1673606973.073699
1673607485.021591,,,,3.163998,3.167241,1456778.000000,1673606973.074706
1673607485.021749,,,,3.164599,3.166255,1456779.000000,1673606973.075713
1673607485.035491,,,,3.155464,3.156976,1456780.000000,1673606973.076720
1673607485.035613,,,,3.145439,3.147239,1456781.000000,1673606973.077727
1673607485.035923,,,,3.146593,3.145508,1456782.000000,1673606973.078734
1673607485.043096,,,,3.148612,3.146806,1456783.000000,1673606973.079741
1673607485.043663,,,,3.157315,3.160413,1456784.000000,1673606973.080749
1673607485.043682,,,,3.164263,3.166327,1456785.000000,1673606973.081756
1673607485.043793,,,,3.181043,3.183204,1456786.000000,1673606973.082763
1673607485.044241,,,,3.202151,3.204504,1456787.000000,1673606973.083770
1673607485.044256,,,,3.230110,3.232198,1456788.000000,1673606973.084777
1673607485.044290,,,,3.252948,3.253186,1456789.000000,1673606973.085784
1673607485.049306,,,,3.251939,3.253330,1456790.000000,1673606973.086791
1673607485.049323,,,,3.235254,3.236766,1456791.000000,1673606973.087798
1673607485.049474,39.197277,1593443.000000,1673607484.988406,,,,
1673607485.049476,,,,3.214243,3.216908,1456792.000000,1673606973.088805
1673607485.049486,,,,3.188087,3.187940,1456793.000000,1673606973.089812
1673607485.050049,39.251545,1593444.000000,1673607484.989406,,,,
1673607485.050057,39.323910,1593445.000000,1673607484.990406,,,,
1673607485.050724,39.179188,1593446.000000,1673607484.991406,,,,
1673607485.050738,39.341999,1593447.000000,1673607484.992406,,,,
1673607485.050752,39.341999,1593448.000000,1673607484.993406,,,,
