__time,/gdx/grip_force_stream/grip_force,/gdx/grip_force_stream/header/seq,/gdx/grip_force_stream/header/stamp,/shimmer0/emg_stream/emg_ch1,/shimmer0/emg_stream/emg_ch2,/shimmer0/emg_stream/header/seq,/shimmer0/emg_stream/header/stamp
1673607822.755748,,,,42.626621,42.639771,1789267.000000,1673607310.709380
1673607822.756368,,,,42.630085,42.645588,1789268.000000,1673607310.710387
1673607822.756398,,,,42.634819,42.650345,1789269.000000,1673607310.711394
1673607822.756764,,,,42.638618,42.654312,1789270.000000,1673607310.712401
1673607822.757150,,,,42.636311,42.652485,1789271.000000,1673607310.713408
1673607822.757422,,,,42.639580,42.656475,1789272.000000,1673607310.714416
1673607822.757849,,,,42.643883,42.658978,1789273.000000,1673607310.715423
1673607822.758276,,,,42.644341,42.660252,1789274.000000,1673607310.716430
1673607822.758488,,,,42.639843,42.654530,1789275.000000,1673607310.717437
1673607822.758631,,,,42.632153,42.650276,1789276.000000,1673607310.718444
1673607822.759073,,,,42.622341,42.638783,1789277.000000,1673607310.719451
1673607822.759147,,,,42.620972,42.635323,1789278.000000,1673607310.720458
1673607822.759271,,,,42.617462,42.632004,1789279.000000,1673607310.721465
1673607822.759281,,,,42.614456,42.627991,1789280.000000,1673607310.722472
1673607822.763035,,,,42.612606,42.627316,1789281.000000,1673607310.723479
1673607822.763291,,,,42.613232,42.628204,1789282.000000,1673607310.724486
1673607822.764174,,,,42.614552,42.632317,1789284.000000,1673607310.726501
1673607822.764413,,,,42.618519,42.636402,1789285.000000,1673607310.727508
1673607822.764424,,,,42.624699,42.640224,1789286.000000,1673607310.728515
1673607822.764451,,,,42.630348,42.643974,1789287.000000,1673607310.729522
1673607822.764500,,,,42.633064,42.649265,1789288.000000,1673607310.730529
1673607822.764507,,,,42.634987,42.653881,1789289.000000,1673607310.731536
1673607822.764530,,,,42.635708,42.654167,1789290.000000,1673607310.732543
1673607822.764537,,,,42.639988,42.659435,1789291.000000,1673607310.733550
1673607822.764597,,,,42.642513,42.660202,1789292.000000,1673607310.734557
1673607822.764605,,,,42.641071,42.657078,1789293.000000,1673607310.735564
1673607822.764625,,,,42.631741,42.648304,1789294.000000,1673607310.736571
1673607822.764634,,,,42.624889,42.644314,1789295.000000,1673607310.737578
1673607822.764774,,,,42.611477,42.629623,1789296.000000,1673607310.738585
1673607822.765087,,,,42.609119,42.625874,1789297.000000,1673607310.739593
1673607822.765234,,,,42.614674,42.631691,1789298.000000,1673607310.740600
1673607822.765744,,,,42.613590,42.628952,1789299.000000,1673607310.741607
1673607822.765760,,,,42.612270,42.629913,1789300.000000,1673607310.742614
1673607822.765770,,,,42.615925,42.632652,1789301.000000,1673607310.743621
1673607822.765780,,,,42.614311,42.630299,1789302.000000,1673607310.744628
1673607822.781560,,,,42.613663,42.629047,1789303.000000,1673607310.745635
1673607822.781731,,,,42.615517,42.628780,1789304.000000,1673607310.746642
1673607822.781899,,,,42.619099,42.635056,1789305.000000,1673607310.747649
1673607822.782132,,,,42.623016,42.637726,1789306.000000,1673607310.748656
1673607822.782139,,,,42.629097,42.644672,1789307.000000,1673607310.749663
1673607822.782218,,,,42.631500,42.647175,1789308.000000,1673607310.750670
1673607822.794961,-1.270335,1858610.000000,1673607822.734125,,,,
1673607822.795092,-1.234157,1858611.000000,1673607822.735125,,,,
1673607822.796561,-1.179881,1858661.000000,1673607822.785125,,,,
1673607822.796579,-1.161792,1858662.000000,1673607822.786125,,,,
1673607822.796587,-1.161792,1858663.000000,1673607822.787125,,,,
1673607822.796607,-1.161792,1858664.000000,1673607822.788125,,,,
1673607822.796615,-1.125614,1858665.000000,1673607822.789125,,,,
1673607822.796621,-1.179881,1858666.000000,1673607822.790125,,,,
1673607822.796664,-1.089428,1858667.000000,1673607822.791125,,,,
1673607822.796678,-1.107525,1858668.000000,1673607822.792125,,,,
1673607822.796744,-1.107525,1858669.000000,1673607822.793125,,,,
1673607822.796772,-1.071339,1858670.000000,1673607822.794125,,,,
1673607822.797809,,,,42.632343,42.648663,1789310.000000,1673607310.752685
1673607822.797890,,,,42.629627,42.645058,1789311.000000,1673607310.753692
1673607822.798079,,,,42.632221,42.648304,1789312.000000,1673607310.754699
1673607822.798093,,,,42.630253,42.649265,1789313.000000,1673607310.755706
1673607822.798097,,,,42.627296,42.644505,1789314.000000,1673607310.756713
1673607822.798127,,,,42.624409,42.642197,1789315.000000,1673607310.757720
1673607822.798162,,,,42.621380,42.640755,1789316.000000,1673607310.758727
1673607822.798169,,,,42.617199,42.631668,1789317.000000,1673607310.759734
1673607822.798208,,,,42.611645,42.626762,1789318.000000,1673607310.760741
1673607822.798284,,,,42.607029,42.623131,1789319.000000,1673607310.761748
1673607822.798294,,,,42.600441,42.618950,1789320.000000,1673607310.762755
1673607822.800510,,,,42.596764,42.616138,1789321.000000,1673607310.763762
1673607822.800735,,,,42.600201,42.618492,1789322.000000,1673607310.764770
1673607822.801063,,,,42.605537,42.622845,1789323.000000,1673607310.765777
1673607822.801106,,,,42.606499,42.622749,1789324.000000,1673607310.766784
1673607822.801477,,,,42.613304,42.627678,1789325.000000,1673607310.767791
1673607822.801818,,,,42.620682,42.633640,1789326.000000,1673607310.768798
1673607822.802144,,,,42.629387,42.644794,1789327.000000,1673607310.769805
1673607822.802336,,,,42.637077,42.654411,1789328.000000,1673607310.770812
1673607822.802631,,,,42.640446,42.657368,1789329.000000,1673607310.771819
1673607822.802865,,,,42.631767,42.648712,1789330.000000,1673607310.772826
1673607822.803448,,,,42.631599,42.649384,1789331.000000,1673607310.773833
1673607822.803459,,,,42.626839,42.644695,1789332.000000,1673607310.774840
1673607822.803473,,,,42.622726,42.639385,1789333.000000,1673607310.775847
1673607822.803563,,,,42.620541,42.637486,1789334.000000,1673607310.776855
1673607822.804046,,,,42.617893,42.633568,1789335.000000,1673607310.777862
1673607822.804308,,,,42.615517,42.631042,1789336.000000,1673607310.778869
1673607822.804480,,,,42.614891,42.631954,1789337.000000,1673607310.779876
1673607822.804878,,,,42.610588,42.628277,1789338.000000,1673607310.780883
1673607822.804950,,,,42.608349,42.627941,1789339.000000,1673607310.781890
1673607822.805143,,,,42.606861,42.621498,1789340.000000,1673607310.782897
1673607822.805315,,,,42.604816,42.620102,1789341.000000,1673607310.783904
1673607822.807294,,,,42.609673,42.625465,1789342.000000,1673607310.784911
1673607822.807585,,,,42.612366,42.629719,1789343.000000,1673607310.785918
1673607822.807805,,,,42.612724,42.628830,1789344.000000,1673607310.786925
1673607822.807813,,,,42.614311,42.629192,1789345.000000,1673607310.787932
1673607822.807897,,,,42.614937,42.632652,1789346.000000,1673607310.788939
1673607822.807907,,,,42.621380,42.636524,1789347.000000,1673607310.789947
1673607822.807920,,,,42.623615,42.638905,1789348.000000,1673607310.790954
1673607822.809643,,,,42.622608,42.639553,1789349.000000,1673607310.791961
1673607822.809809,,,,42.619579,42.635609,1789350.000000,1673607310.792968
1673607822.809973,,,,42.612389,42.629719,1789351.000000,1673607310.793975
1673607822.810199,,,,42.604218,42.618275,1789352.000000,1673607310.794982
1673607822.810211,,,,42.595562,42.609550,1789353.000000,1673607310.795989
1673607822.810418,,,,42.589550,42.605606,1789354.000000,1673607310.796996
1673607822.845809,,,,42.588470,42.603539,1789355.000000,1673607310.798003
1673607822.846186,,,,42.595032,42.611763,1789356.000000,1673607310.799010
1673607822.846199,,,,42.603592,42.619022,1789357.000000,1673607310.800017
1673607822.846314,,,,42.597870,42.614094,1789358.000000,1673607310.801024
1673607822.849015,-0.691452,1858722.000000,1673607822.838848,,,,
1673607822.849020,-0.709541,1858723.000000,1673607822.839849,,,,
1673607822.849023,-0.709541,1858724.000000,1673607822.840848,,,,
1673607822.849044,-0.763808,1858725.000000,1673607822.841848,,,,
1673607822.849065,-0.763808,1858726.000000,1673607822.842848,,,,
1673607822.849075,-0.745719,1858727.000000,1673607822.843848,,,,
1673607822.849080,-0.709541,1858728.000000,1673607822.844848,,,,
1673607822.849084,-0.727630,1858729.000000,1673607822.845848,,,,
1673607822.849087,-0.673355,1858730.000000,1673607822.846848,,,,
1673607822.849134,-0.691452,1858731.000000,1673607822.847848,,,,
1673607822.852134,,,,42.591042,42.609528,1789359.000000,1673607310.802032
1673607822.852352,,,,42.586834,42.605728,1789360.000000,1673607310.803039
1673607822.852607,,,,42.589405,42.606400,1789361.000000,1673607310.804046
1673607822.852654,,,,42.593060,42.611691,1789362.000000,1673607310.805053
1673607822.854411,,,,42.584190,42.603325,1789363.000000,1673607310.806060
1673607822.854581,,,,42.596260,42.610222,1789364.000000,1673607310.807067
1673607822.854747,,,,42.605705,42.619911,1789365.000000,1673607310.808074
1673607822.854890,,,,42.612797,42.626282,1789366.000000,1673607310.809081
1673607822.859640,,,,42.618328,42.634960,1789367.000000,1673607310.810088
1673607822.860154,,,,42.623497,42.640465,1789368.000000,1673607310.811095
1673607822.860240,,,,42.633160,42.648735,1789369.000000,1673607310.812102
1673607822.862163,,,,42.642609,42.659386,1789370.000000,1673607310.813109
1673607822.862784,,,,42.646358,42.663929,1789371.000000,1673607310.814116
1673607822.862950,,,,42.651310,42.667511,1789372.000000,1673607310.815124
1673607822.862968,,,,42.655399,42.671143,1789373.000000,1673607310.816131
1673607822.867341,,,,42.650471,42.665012,1789374.000000,1673607310.817138
1673607822.867369,,,,42.635036,42.650707,1789375.000000,1673607310.818145
1673607822.867471,,,,42.625755,42.640564,1789376.000000,1673607310.819152
1673607822.867728,,,,42.621887,42.636810,1789377.000000,1673607310.820159
1673607822.869562,,,,42.613590,42.626522,1789378.000000,1673607310.821166
1673607822.869841,,,,42.606258,42.621208,1789379.000000,1673607310.822173
1673607822.870111,,,,42.602749,42.618587,1789380.000000,1673607310.823180
1673607822.901537,,,,42.599792,42.615753,1789381.000000,1673607310.824187
1673607822.901549,,,,42.599815,42.614525,1789382.000000,1673607310.825194
1673607822.901702,,,,42.601570,42.614933,1789383.000000,1673607310.826201
1673607822.901711,,,,42.602604,42.618229,1789384.000000,1673607310.827209
1673607822.901869,,,,42.605873,42.624577,1789385.000000,1673607310.828216
1673607822.902010,,,,42.610706,42.629913,1789386.000000,1673607310.829223
1673607822.902128,,,,42.619167,42.633087,1789387.000000,1673607310.830230
1673607822.902241,,,,42.627487,42.641811,1789388.000000,1673607310.831237
1673607822.902391,,,,42.631260,42.651283,1789389.000000,1673607310.832244
1673607822.902565,,,,42.636791,42.653664,1789390.000000,1673607310.833251
1673607822.902574,,,,42.635685,42.650394,1789391.000000,1673607310.834258
1673607822.902861,,,,42.631935,42.648495,1789392.000000,1673607310.835265
1673607822.902937,,,,42.631477,42.648975,1789393.000000,1673607310.836272
1673607822.903018,,,,42.631332,42.651619,1789394.000000,1673607310.837279
1673607822.903107,,,,42.640469,42.657944,1789395.000000,1673607310.838286
1673607822.903155,,,,42.624989,42.639889,1789396.000000,1673607310.839293
1673607822.903258,,,,42.613159,42.627438,1789397.000000,1673607310.840301
1673607822.903372,,,,42.609264,42.624382,1789398.000000,1673607310.841308
1673607822.903672,,,,42.608521,42.623421,1789399.000000,1673607310.842315
1673607822.903681,,,,42.607388,42.619694,1789400.000000,1673607310.843322
1673607822.903685,,,,42.606213,42.619526,1789401.000000,1673607310.844329
1673607822.903871,,,,42.605900,42.623997,1789402.000000,1673607310.845336
1673607822.903888,,,,42.607868,42.623566,1789403.000000,1673607310.846343
1673607822.903987,,,,42.608734,42.626305,1789404.000000,1673607310.847350
1673607822.904538,,,,42.592388,42.609886,1789407.000000,1673607310.850371
1673607822.904547,,,,42.590031,42.605968,1789408.000000,1673607310.851378
1673607822.904556,,,,42.593159,42.608204,1789409.000000,1673607310.852386
1673607822.904561,,,,42.600754,42.615826,1789410.000000,1673607310.853393
1673607822.904572,,,,42.603951,42.620632,1789411.000000,1673607310.854400
1673607822.904578,,,,42.608448,42.624287,1789412.000000,1673607310.855407
1673607822.904630,,,,42.611355,42.625008,1789413.000000,1673607310.856414
1673607822.904635,,,,42.611668,42.628639,1789414.000000,1673607310.857421
1673607822.904696,,,,42.615898,42.632099,1789415.000000,1673607310.858428
1673607822.904700,,,,42.615204,42.629288,1789416.000000,1673607310.859435
1673607822.911552,-0.745719,1858732.000000,1673607822.851001,,,,
1673607822.911819,-0.691452,1858733.000000,1673607822.852001,,,,
1673607822.912696,-0.673355,1858734.000000,1673607822.853001,,,,
1673607822.912709,-0.727630,1858735.000000,1673607822.854001,,,,
1673607822.912719,-0.691452,1858736.000000,1673607822.855001,,,,
1673607822.912741,-0.655266,1858737.000000,1673607822.856001,,,,
1673607822.912750,-0.655266,1858738.000000,1673607822.857001,,,,
1673607822.912755,-0.619088,1858739.000000,1673607822.858001,,,,
1673607822.912760,-0.474367,1858783.000000,1673607822.902001,,,,
1673607822.912789,-0.420100,1858784.000000,1673607822.903001,,,,
1673607822.912798,-0.420100,1858785.000000,1673607822.904001,,,,
1673607822.912804,-0.438189,1858786.000000,1673607822.905001,,,,
1673607822.912808,-0.420100,1858787.000000,1673607822.906001,,,,
1673607822.912863,-0.456278,1858788.000000,1673607822.907001,,,,
1673607822.912868,-0.438189,1858789.000000,1673607822.908001,,,,
1673607822.912875,-0.383913,1858790.000000,1673607822.909001,,,,
1673607822.912882,-0.365824,1858791.000000,1673607822.910001,,,,
1673607822.912893,-0.383913,1858792.000000,1673607822.911001,,,,
1673607822.913533,,,,42.609119,42.622795,1789417.000000,1673607310.860442
1673607822.913608,,,,42.602821,42.617172,1789418.000000,1673607310.861449
1673607822.913701,,,,42.607533,42.623375,1789419.000000,1673607310.862456
1673607822.913919,,,,42.611595,42.625439,1789420.000000,1673607310.863463
1673607822.914044,,,,42.610394,42.623589,1789421.000000,1673607310.864470
1673607822.914245,,,,42.607533,42.623470,1789422.000000,1673607310.865478
1673607822.914386,,,,42.610226,42.627388,1789423.000000,1673607310.866485
1673607822.914393,,,,42.615517,42.632607,1789424.000000,1673607310.867492
1673607822.914508,,,,42.618496,42.634022,1789425.000000,1673607310.868499
1673607822.914673,,,,42.618641,42.633999,1789426.000000,1673607310.869506
1673607822.914874,,,,42.630085,42.645851,1789427.000000,1673607310.870513
1673607822.915064,,,,42.636669,42.652534,1789428.000000,1673607310.871520
1673607822.915442,,,,42.633427,42.647774,1789429.000000,1673607310.872527
1673607822.915563,,,,42.634483,42.650394,1789430.000000,1673607310.873534
1673607822.915573,,,,42.636574,42.648903,1789431.000000,1673607310.874541
1673607822.915640,,,,42.632874,42.646259,1789432.000000,1673607310.875548
1673607822.915651,,,,42.626308,42.641739,1789433.000000,1673607310.876555
1673607822.915769,,,,42.624336,42.640011,1789434.000000,1673607310.877563
1673607822.915991,,,,42.622944,42.638039,1789435.000000,1673607310.878570
1673607822.916085,,,,42.617893,42.633831,1789436.000000,1673607310.879577
1673607822.919779,,,,42.608952,42.624119,1789437.000000,1673607310.880584
1673607822.920366,,,,42.603111,42.619167,1789438.000000,1673607310.881591
1673607822.920383,,,,42.603062,42.618515,1789439.000000,1673607310.882598
1673607822.920392,,,,42.600704,42.617531,1789440.000000,1673607310.883605
1673607822.920399,,,,42.596741,42.613251,1789441.000000,1673607310.884612
1673607822.920404,,,,42.600082,42.616737,1789442.000000,1673607310.885619
1673607822.920484,,,,42.601933,42.616787,1789443.000000,1673607310.886626
1673607822.922118,,,,42.602654,42.616497,1789444.000000,1673607310.887633
1673607822.922438,,,,42.607918,42.622581,1789445.000000,1673607310.888640
1673607822.922456,,,,42.618568,42.633133,1789446.000000,1673607310.889647
1673607822.922465,,,,42.630878,42.644695,1789447.000000,1673607310.890655
1673607822.927359,,,,42.633640,42.650730,1789448.000000,1673607310.891662
1673607822.927372,,,,42.633980,42.648376,1789449.000000,1673607310.892669
1673607822.927415,,,,42.625851,42.641811,1789450.000000,1673607310.893676
1673607822.927500,,,,42.618641,42.636116,1789451.000000,1673607310.894683
1673607822.929573,,,,42.622005,42.636497,1789452.000000,1673607310.895690
1673607822.929891,,,,42.625057,42.642197,1789453.000000,1673607310.896697
1673607822.930267,,,,42.620995,42.636642,1789454.000000,1673607310.897704
1673607822.930278,,,,42.612030,42.625488,1789455.000000,1673607310.898711
1673607822.935088,,,,42.610561,42.622845,1789456.000000,1673607310.899718
1673607822.935105,,,,42.607124,42.622292,1789457.000000,1673607310.900725
1673607822.935113,,,,42.598663,42.616905,1789458.000000,1673607310.901732
1673607822.938935,,,,42.599144,42.614670,1789459.000000,1673607310.902740
1673607822.939596,,,,42.607269,42.620754,1789460.000000,1673607310.903747
1673607822.939846,,,,42.617680,42.633949,1789461.000000,1673607310.904754
1673607822.939969,,,,42.613400,42.628639,1789462.000000,1673607310.905761
1673607822.940046,,,,42.614891,42.630127,1789463.000000,1673607310.906768
1673607822.940320,,,,42.610394,42.625683,1789464.000000,1673607310.907775
1673607822.940739,,,,42.614746,42.629646,1789465.000000,1673607310.908782
1673607822.941191,,,,42.612965,42.628807,1789466.000000,1673607310.909789
1673607822.941770,,,,42.602558,42.616882,1789467.000000,1673607310.910796
1673607822.941885,,,,42.594334,42.610176,1789468.000000,1673607310.911803
1673607822.941913,,,,42.587627,42.603806,1789469.000000,1673607310.912810
1673607822.942459,,,,42.585705,42.601833,1789470.000000,1673607310.913817
1673607822.943750,,,,42.583588,42.599716,1789471.000000,1673607310.914824
1673607822.943775,,,,42.585922,42.604046,1789472.000000,1673607310.915832
1673607822.943781,,,,42.590679,42.607651,1789473.000000,1673607310.916839
1673607822.943818,,,,42.597099,42.611904,1789474.000000,1673607310.917846
1673607822.943824,,,,42.599262,42.614910,1789475.000000,1673607310.918853
1673607822.943838,,,,42.595081,42.610008,1789476.000000,1673607310.919860
1673607822.943869,,,,42.595295,42.609596,1789477.000000,1673607310.920867
1673607822.944083,,,,42.598663,42.615055,1789478.000000,1673607310.921874
1673607822.944092,,,,42.604313,42.620296,1789479.000000,1673607310.922881
1673607822.959131,,,,42.608566,42.626232,1789480.000000,1673607310.923888
1673607822.959148,,,,42.615803,42.632462,1789481.000000,1673607310.924895
1673607822.959183,,,,42.624817,42.640419,1789482.000000,1673607310.925902
1673607822.959237,,,,42.629940,42.647488,1789483.000000,1673607310.926909
1673607822.959248,,,,42.632008,42.647701,1789484.000000,1673607310.927917
1673607822.959260,,,,42.627270,42.644455,1789485.000000,1673607310.928924
1673607822.959267,,,,42.632969,42.646164,1789486.000000,1673607310.929931
1673607822.965695,-0.383913,1858793.000000,1673607822.905025,,,,
1673607822.966042,-0.402011,1858794.000000,1673607822.906025,,,,
1673607822.966120,-0.383913,1858795.000000,1673607822.907025,,,,
1673607822.966133,-0.365824,1858796.000000,1673607822.908026,,,,
1673607822.966153,-0.365824,1858797.000000,1673607822.909025,,,,
1673607822.966213,-0.383913,1858798.000000,1673607822.910025,,,,
1673607822.966456,,,,42.631527,42.645779,1789487.000000,1673607310.930938
1673607822.966578,,,,42.629219,42.645393,1789488.000000,1673607310.931945
1673607822.966593,,,,42.630108,42.644047,1789489.000000,1673607310.932952
1673607822.966630,-0.383913,1858799.000000,1673607822.911026,,,,
1673607822.966801,,,,42.625107,42.640224,1789490.000000,1673607310.933959
1673607822.966843,,,,42.616886,42.631714,1789491.000000,1673607310.934966
1673607822.966875,,,,42.615177,42.629166,1789492.000000,1673607310.935973
1673607822.966881,,,,42.613689,42.627869,1789493.000000,1673607310.936980
1673607822.967630,-0.365824,1858800.000000,1673607822.912025,,,,
1673607822.967642,-0.329646,1858801.000000,1673607822.913025,,,,
1673607822.967646,-0.347735,1858802.000000,1673607822.914025,,,,
1673607822.967692,0.032160,1858844.000000,1673607822.956025,,,,
1673607822.967696,0.014062,1858845.000000,1673607822.957026,,,,
1673607822.967702,0.014062,1858846.000000,1673607822.958025,,,,
1673607822.967709,-0.004027,1858847.000000,1673607822.959025,,,,
1673607822.967711,-0.022116,1858848.000000,1673607822.960025,,,,
1673607822.967736,-0.004027,1858849.000000,1673607822.961025,,,,
1673607822.967745,0.032160,1858850.000000,1673607822.962025,,,,
1673607822.967749,-0.004027,1858851.000000,1673607822.963025,,,,
1673607822.967755,0.032160,1858852.000000,1673607822.964025,,,,
1673607822.967762,0.032160,1858853.000000,1673607822.965025,,,,
1673607822.972580,,,,42.620033,42.634937,1789494.000000,1673607310.937987
1673607822.972625,,,,42.609142,42.622581,1789495.000000,1673607310.938994
1673607822.972783,,,,42.609264,42.623062,1789496.000000,1673607310.940001
1673607822.972791,,,,42.605106,42.620705,1789497.000000,1673607310.941009
1673607822.972900,,,,42.599697,42.616474,1789498.000000,1673607310.942016
1673607822.973173,,,,42.598206,42.612988,1789499.000000,1673607310.943023
1673607822.973335,,,,42.596378,42.614285,1789500.000000,1673607310.944030
1673607822.980303,,,,42.604023,42.619022,1789501.000000,1673607310.945037
1673607822.980327,,,,42.612534,42.627411,1789502.000000,1673607310.946044
1673607822.980335,,,,42.615730,42.629673,1789503.000000,1673607310.947051
1673607822.980348,,,,42.613735,42.629673,1789504.000000,1673607310.948058
1673607822.980657,,,,42.620922,42.635010,1789505.000000,1673607310.949065
1673607822.981227,,,,42.620972,42.639072,1789506.000000,1673607310.950072
1673607822.981362,,,,42.619888,42.640755,1789507.000000,1673607310.951079
1673607822.990692,,,,42.624409,42.641525,1789508.000000,1673607310.952086
1673607822.990721,,,,42.625370,42.643734,1789509.000000,1673607310.953094
1673607822.990788,,,,42.626476,42.645058,1789510.000000,1673607310.954101
1673607822.990808,,,,42.627705,42.645420,1789511.000000,1673607310.955108
1673607822.990830,,,,42.627056,42.642872,1789512.000000,1673607310.956115
1673607822.994757,,,,42.620541,42.637028,1789513.000000,1673607310.957122
1673607822.995439,,,,42.611115,42.626595,1789514.000000,1673607310.958129
1673607822.995462,,,,42.602772,42.617146,1789515.000000,1673607310.959136
1673607823.020094,,,,42.592628,42.608875,1789516.000000,1673607310.960143
1673607823.020219,,,,42.587437,42.605053,1789517.000000,1673607310.961150
1673607823.020558,,,,42.586906,42.605175,1789518.000000,1673607310.962157
1673607823.020891,,,,42.588757,42.606281,1789519.000000,1673607310.963164
1673607823.021188,,,,42.594048,42.610943,1789520.000000,1673607310.964171
1673607823.021362,,,,42.596981,42.613491,1789521.000000,1673607310.965178
1673607823.021642,,,,42.600513,42.617867,1789522.000000,1673607310.966186
1673607823.021741,,,,42.607006,42.623516,1789523.000000,1673607310.967193
1673607823.021753,,,,42.611595,42.627991,1789524.000000,1673607310.968200
1673607823.021872,,,,42.611523,42.628567,1789525.000000,1673607310.969207
1673607823.021940,,,,42.610588,42.629406,1789526.000000,1673607310.970214
1673607823.022170,,,,42.626431,42.646019,1789527.000000,1673607310.971221
1673607823.022531,,,,42.626621,42.645081,1789528.000000,1673607310.972228
1673607823.022812,,,,42.622509,42.639046,1789529.000000,1673607310.973235
1673607823.022819,,,,42.624409,42.638592,1789530.000000,1673607310.974242
1673607823.023395,,,,42.628353,42.642078,1789531.000000,1673607310.975249
1673607823.023608,,,,42.625900,42.639576,1789532.000000,1673607310.976256
1673607823.023679,,,,42.617126,42.631474,1789533.000000,1673607310.977263
1673607823.023694,,,,42.609505,42.625851,1789534.000000,1673607310.978271
1673607823.024108,,,,42.606884,42.621353,1789535.000000,1673607310.979278
1673607823.024192,,,,42.603062,42.616039,1789536.000000,1673607310.980285
1673607823.024203,,,,42.597820,42.611496,1789537.000000,1673607310.981292
1673607823.025668,,,,42.599262,42.612217,1789538.000000,1673607310.982299
1673607823.025691,,,,42.598446,42.612556,1789539.000000,1673607310.983306
1673607823.025867,,,,42.597363,42.611088,1789540.000000,1673607310.984313
1673607823.031312,0.104516,1858871.000000,1673607822.987417,,,,
1673607823.031323,0.122605,1858872.000000,1673607822.988417,,,,
1673607823.031334,0.122605,1858873.000000,1673607822.989418,,,,
1673607823.032438,0.194970,1858874.000000,1673607822.990417,,,,
1673607823.032449,0.176880,1858875.000000,1673607822.991417,,,,
1673607823.032468,0.158783,1858876.000000,1673607822.992417,,,,
1673607823.032477,0.194970,1858877.000000,1673607822.993418,,,,
1673607823.032484,0.213059,1858878.000000,1673607822.994417,,,,
1673607823.032487,0.249237,1858879.000000,1673607822.995417,,,,
1673607823.032490,0.213059,1858880.000000,1673607822.996418,,,,
1673607823.032499,0.448233,1858905.000000,1673607823.021417,,,,
1673607823.032504,0.393957,1858906.000000,1673607823.022418,,,,
1673607823.032507,0.466322,1858907.000000,1673607823.023417,,,,
1673607823.032511,0.448233,1858908.000000,1673607823.024417,,,,
1673607823.032516,0.430135,1858909.000000,1673607823.025417,,,,
1673607823.032523,0.484411,1858910.000000,1673607823.026417,,,,
1673607823.032536,0.412046,1858911.000000,1673607823.027417,,,,
1673607823.032540,0.484411,1858912.000000,1673607823.028417,,,,
1673607823.032544,0.466322,1858913.000000,1673607823.029418,,,,
1673607823.032549,0.484411,1858914.000000,1673607823.030417,,,,
1673607823.032964,,,,42.597294,42.611618,1789541.000000,1673607310.985320
1673607823.033106,,,,42.599216,42.613110,1789542.000000,1673607310.986327
1673607823.033307,,,,42.600491,42.616161,1789543.000000,1673607310.987334
1673607823.033428,,,,42.600754,42.617893,1789544.000000,1673607310.988341
1673607823.033560,,,,42.601860,42.618950,1789545.000000,1673607310.989348
1673607823.033887,,,,42.605034,42.622051,1789546.000000,1673607310.990355
1673607823.034251,,,,42.610176,42.623661,1789547.000000,1673607310.991363
1673607823.034261,,,,42.611622,42.625393,1789548.000000,1673607310.992370
1673607823.034267,,,,42.611935,42.630322,1789549.000000,1673607310.993377
1673607823.034278,,,,42.610706,42.628204,1789550.000000,1673607310.994384
1673607823.034287,,,,42.606861,42.623375,1789551.000000,1673607310.995391
1673607823.034304,,,,42.599190,42.616859,1789552.000000,1673607310.996398
1673607823.034310,,,,42.592438,42.608612,1789553.000000,1673607310.997405
1673607823.034314,,,,42.586235,42.601761,1789554.000000,1673607310.998412
1673607823.039458,,,,42.575993,42.591496,1789555.000000,1673607310.999419
1673607823.039598,,,,42.568829,42.584209,1789556.000000,1673607311.000426
1673607823.039817,,,,42.563324,42.579475,1789557.000000,1673607311.001433
1673607823.039833,,,,42.562313,42.576447,1789558.000000,1673607311.002440
1673607823.041970,,,,42.563442,42.577888,1789559.000000,1673607311.003448
1673607823.042408,,,,42.579624,42.597050,1789560.000000,1673607311.004455
1673607823.042419,,,,42.598087,42.614189,1789561.000000,1673607311.005462
1673607823.042576,,,,42.597363,42.615177,1789562.000000,1673607311.006469
1673607823.047073,,,,42.610947,42.628517,1789563.000000,1673607311.007476
1673607823.047377,,,,42.622559,42.640129,1789564.000000,1673607311.008483
1673607823.050431,,,,42.631428,42.647823,1789565.000000,1673607311.009490
1673607823.050582,,,,42.636406,42.650082,1789566.000000,1673607311.010497
1673607823.050956,,,,42.624096,42.638111,1789567.000000,1673607311.011504
1673607823.051298,,,,42.615032,42.631596,1789568.000000,1673607311.012511
1673607823.051469,,,,42.620178,42.637173,1789569.000000,1673607311.013518
1673607823.051673,,,,42.617317,42.633640,1789570.000000,1673607311.014525
1673607823.051690,,,,42.609673,42.625057,1789571.000000,1673607311.015532
1673607823.054919,,,,42.608303,42.621376,1789572.000000,1673607311.016540
1673607823.055202,,,,42.606018,42.621738,1789573.000000,1673607311.017547
1673607823.055264,,,,42.599216,42.614910,1789574.000000,1673607311.018554
1673607823.055466,,,,42.596088,42.612843,1789575.000000,1673607311.019561
1673607823.058472,,,,42.594528,42.611618,1789576.000000,1673607311.020568
1673607823.058843,,,,42.591785,42.608421,1789577.000000,1673607311.021575
1673607823.058864,,,,42.589718,42.605198,1789578.000000,1673607311.022582
1673607823.058877,,,,42.583469,42.600391,1789579.000000,1673607311.023589
1673607823.059074,,,,42.580345,42.594765,1789580.000000,1673607311.024596
1673607823.059223,,,,42.583782,42.599911,1789581.000000,1673607311.025603
1673607823.059535,,,,42.589577,42.606281,1789582.000000,1673607311.026610
1673607823.059865,,,,42.592026,42.608852,1789583.000000,1673607311.027617
1673607823.060635,,,,42.594864,42.611496,1789584.000000,1673607311.028625
1673607823.060648,,,,42.606068,42.620007,1789585.000000,1673607311.029632
1673607823.060653,,,,42.613518,42.629791,1789586.000000,1673607311.030639
1673607823.060685,,,,42.623688,42.639263,1789587.000000,1673607311.031646
1673607823.060692,,,,42.628040,42.644287,1789588.000000,1673607311.032653
1673607823.060743,,,,42.626141,42.641090,1789589.000000,1673607311.033660
1673607823.060780,,,,42.617294,42.633518,1789590.000000,1673607311.034667
1673607823.065461,,,,42.607990,42.623085,1789591.000000,1673607311.035674
1673607823.065480,,,,42.609528,42.625343,1789592.000000,1673607311.036681
1673607823.065506,,,,42.618279,42.637531,1789593.000000,1673607311.037688
1673607823.065515,,,,42.604431,42.619141,1789594.000000,1673607311.038695
1673607823.065573,,,,42.594501,42.609455,1789595.000000,1673607311.039702
1673607823.065660,,,,42.589550,42.605007,1789596.000000,1673607311.040709
1673607823.069675,,,,42.588806,42.603203,1789597.000000,1673607311.041717
1673607823.069858,,,,42.589119,42.606327,1789598.000000,1673607311.042724
1673607823.070250,,,,42.589863,42.606834,1789599.000000,1673607311.043731
1673607823.070340,,,,42.590008,42.607121,1789600.000000,1673607311.044738
1673607823.072333,,,,42.590897,42.608059,1789601.000000,1673607311.045745
1673607823.072840,,,,42.595947,42.614357,1789602.000000,1673607311.046752
1673607823.073102,,,,42.605465,42.620777,1789603.000000,1673607311.047759
1673607823.073117,,,,42.611404,42.624382,1789604.000000,1673607311.048766
1673607823.073123,,,,42.613953,42.627605,1789605.000000,1673607311.049773
1673607823.073649,,,,42.613037,42.628830,1789606.000000,1673607311.050780
1673607823.073662,,,,42.612797,42.627052,1789607.000000,1673607311.051787
1673607823.086199,,,,42.615032,42.630394,1789608.000000,1673607311.052794
1673607823.086213,,,,42.613495,42.631714,1789609.000000,1673607311.053802
1673607823.086237,,,,42.618568,42.633469,1789610.000000,1673607311.054809
1673607823.086251,,,,42.622295,42.637291,1789611.000000,1673607311.055816
1673607823.093444,,,,42.615585,42.633038,1789612.000000,1673607311.056823
1673607823.093462,,,,42.605320,42.620464,1789613.000000,1673607311.057830
1673607823.093472,,,,42.596260,42.611473,1789614.000000,1673607311.058837
1673607823.093737,,,,42.591164,42.608036,1789615.000000,1673607311.059844
1673607823.094980,0.466322,1858915.000000,1673607823.034493,,,,
1673607823.094990,0.520589,1858916.000000,1673607823.035493,,,,
1673607823.094998,0.484411,1858917.000000,1673607823.036493,,,,
1673607823.095004,0.538678,1858918.000000,1673607823.037493,,,,
1673607823.095999,0.936662,1858966.000000,1673607823.085493,,,,
1673607823.096017,0.954751,1858967.000000,1673607823.086493,,,,
1673607823.096023,0.972840,1858968.000000,1673607823.087493,,,,
1673607823.096030,0.936662,1858969.000000,1673607823.088493,,,,
1673607823.096039,0.918573,1858970.000000,1673607823.089493,,,,
1673607823.096043,0.954751,1858971.000000,1673607823.090493,,,,
1673607823.096072,0.990929,1858972.000000,1673607823.091493,,,,
1673607823.096077,0.972840,1858973.000000,1673607823.092493,,,,
1673607823.096098,0.954751,1858974.000000,1673607823.093493,,,,
1673607823.096123,0.972840,1858975.000000,1673607823.094493,,,,
1673607823.100428,,,,42.590729,42.605392,1789616.000000,1673607311.060851
1673607823.100628,,,,42.584309,42.600677,1789617.000000,1673607311.061858
1673607823.100811,,,,42.578781,42.596062,1789618.000000,1673607311.062865
1673607823.100886,,,,42.578251,42.594307,1789619.000000,1673607311.063872
1673607823.101282,,,,42.579838,42.595535,1789620.000000,1673607311.064879
1673607823.101343,,,,42.586403,42.600990,1789621.000000,1673607311.065886
1673607823.101475,,,,42.587364,42.600296,1789622.000000,1673607311.066894
1673607823.101489,,,,42.588612,42.602673,1789623.000000,1673607311.067901
1673607823.101495,,,,42.595779,42.610031,1789624.000000,1673607311.068908
1673607823.101499,,,,42.611935,42.626209,1789625.000000,1673607311.069915
1673607823.101515,,,,42.632248,42.647125,1789626.000000,1673607311.070922
1673607823.101526,,,,42.620731,42.637463,1789627.000000,1673607311.071929
1673607823.101530,,,,42.611115,42.629192,1789628.000000,1673607311.072936
1673607823.101538,,,,42.612103,42.628735,1789629.000000,1673607311.073943
1673607823.122654,,,,42.613712,42.628590,1789630.000000,1673607311.074950
1673607823.122691,,,,42.609360,42.621666,1789631.000000,1673607311.075957
1673607823.123223,,,,42.595848,42.610294,1789632.000000,1673607311.076964
1673607823.127775,,,,42.589165,42.605343,1789633.000000,1673607311.077971
1673607823.127970,,,,42.591209,42.607891,1789634.000000,1673607311.078979
1673607823.128490,,,,42.586716,42.605247,1789635.000000,1673607311.079986
1673607823.128714,,,,42.584068,42.601231,1789636.000000,1673607311.080993
1673607823.128787,,,,42.587917,42.601185,1789637.000000,1673607311.082000
1673607823.128962,,,,42.596210,42.608974,1789638.000000,1673607311.083007
1673607823.129215,,,,42.605732,42.620754,1789639.000000,1673607311.084014
1673607823.129587,,,,42.609119,42.622555,1789640.000000,1673607311.085021
1673607823.129754,,,,42.606354,42.622196,1789641.000000,1673607311.086028
1673607823.129870,,,,42.608181,42.623756,1789642.000000,1673607311.087035
1673607823.129993,,,,42.611042,42.627316,1789643.000000,1673607311.088042
1673607823.130879,,,,42.608349,42.626064,1789644.000000,1673607311.089049
1673607823.131186,,,,42.609650,42.628349,1789647.000000,1673607311.092071
1673607823.131273,,,,42.620636,42.636524,1789648.000000,1673607311.093078
1673607823.131283,,,,42.631069,42.644817,1789649.000000,1673607311.094085
1673607823.131333,,,,42.625229,42.641258,1789650.000000,1673607311.095092
1673607823.131509,,,,42.610706,42.628204,1789651.000000,1673607311.096099
1673607823.131525,,,,42.602581,42.619263,1789652.000000,1673607311.097106
1673607823.131534,,,,42.596809,42.611568,1789653.000000,1673607311.098113
1673607823.131546,,,,42.595730,42.611351,1789654.000000,1673607311.099120
1673607823.131686,,,,42.590969,42.607193,1789655.000000,1673607311.100127
1673607823.131773,,,,42.584694,42.600510,1789656.000000,1673607311.101134
1673607823.131885,,,,42.587963,42.602604,1789657.000000,1673607311.102141
1673607823.132105,,,,42.585514,42.600967,1789658.000000,1673607311.103148
1673607823.132228,,,,42.593254,42.607220,1789659.000000,1673607311.104156
1673607823.132247,,,,42.598927,42.613178,1789660.000000,1673607311.105163
1673607823.132445,,,,42.596115,42.612362,1789661.000000,1673607311.106170
1673607823.132453,,,,42.604794,42.620033,1789662.000000,1673607311.107177
1673607823.132747,,,,42.607006,42.623276,1789663.000000,1673607311.108184
1673607823.133000,,,,42.605610,42.621475,1789664.000000,1673607311.109191
1673607823.133226,,,,42.602318,42.618324,1789665.000000,1673607311.110198
1673607823.133401,,,,42.599144,42.617146,1789666.000000,1673607311.111205
1673607823.133739,,,,42.607342,42.622101,1789667.000000,1673607311.112212
1673607823.134144,,,,42.613232,42.628059,1789668.000000,1673607311.113219
1673607823.134163,,,,42.609985,42.628086,1789669.000000,1673607311.114226
1673607823.134169,,,,42.608181,42.625153,1789670.000000,1673607311.115233
1673607823.134269,,,,42.608974,42.625633,1789671.000000,1673607311.116241
1673607823.134368,,,,42.607174,42.623783,1789672.000000,1673607311.117248
1673607823.134382,,,,42.602676,42.620152,1789673.000000,1673607311.118255
1673607823.134419,,,,42.600971,42.619213,1789674.000000,1673607311.119262
1673607823.134684,,,,42.596836,42.613373,1789675.000000,1673607311.120269
1673607823.134923,,,,42.593685,42.608997,1789676.000000,1673607311.121276
1673607823.135139,,,,42.590729,42.608467,1789677.000000,1673607311.122283
1673607823.135151,,,,42.588856,42.605247,1789678.000000,1673607311.123290
1673607823.135466,,,,42.591763,42.607170,1789679.000000,1673607311.124297
1673607823.135486,,,,42.590919,42.608372,1789680.000000,1673607311.125304
1673607823.135498,,,,42.593567,42.610561,1789681.000000,1673607311.126311
1673607823.136069,,,,42.593422,42.608635,1789682.000000,1673607311.127318
1673607823.136139,,,,42.592964,42.607170,1789683.000000,1673607311.128325
1673607823.136193,,,,42.594456,42.608780,1789684.000000,1673607311.129333
1673607823.136212,,,,42.590801,42.608372,1789685.000000,1673607311.130340
1673607823.136356,,,,42.589287,42.606567,1789686.000000,1673607311.131347
1673607823.136452,,,,42.593399,42.610439,1789687.000000,1673607311.132354
1673607823.136461,,,,42.588326,42.604141,1789688.000000,1673607311.133361
1673607823.136469,,,,42.583347,42.599743,1789689.000000,1673607311.134368
1673607823.136844,,,,42.585201,42.601086,1789690.000000,1673607311.135375
1673607823.136995,,,,42.587387,42.603516,1789691.000000,1673607311.136382
1673607823.137128,,,,42.596569,42.613132,1789692.000000,1673607311.137389
1673607823.137143,,,,42.608761,42.624550,1789693.000000,1673607311.138396
1673607823.153560,,,,42.597027,42.615318,1789694.000000,1673607311.139403
1673607823.153806,,,,42.594769,42.611088,1789695.000000,1673607311.140410
1673607823.154329,,,,42.597195,42.610775,1789696.000000,1673607311.141418
1673607823.154794,,,,42.601017,42.616665,1789697.000000,1673607311.142425
1673607823.155155,,,,42.601765,42.616497,1789698.000000,1673607311.143432
1673607823.155188,,,,42.603832,42.618637,1789699.000000,1673607311.144439
1673607823.155202,,,,42.604912,42.619793,1789700.000000,1673607311.145446
1673607823.160423,1.117561,1858986.000000,1673607823.108718,,,,
1673607823.160723,1.081383,1858987.000000,1673607823.109718,,,,
1673607823.160740,,,,42.606716,42.620537,1789701.000000,1673607311.146453
1673607823.161188,1.135650,1858988.000000,1673607823.110718,,,,
1673607823.161475,,,,42.607773,42.622917,1789702.000000,1673607311.147460
1673607823.162089,1.153747,1858989.000000,1673607823.111718,,,,
1673607823.162111,1.189925,1858990.000000,1673607823.112718,,,,
1673607823.162391,,,,42.610756,42.625778,1789703.000000,1673607311.148467
1673607823.162629,,,,42.614170,42.632004,1789704.000000,1673607311.149474
1673607823.162638,,,,42.612293,42.630226,1789705.000000,1673607311.150481
1673607823.162782,1.189925,1858991.000000,1673607823.113718,,,,
1673607823.162796,1.208014,1858992.000000,1673607823.114718,,,,
1673607823.162803,1.153747,1858993.000000,1673607823.115718,,,,
1673607823.162811,1.208014,1858994.000000,1673607823.116718,,,,
1673607823.162828,1.189925,1858995.000000,1673607823.117718,,,,
1673607823.163023,1.461278,1859027.000000,1673607823.149718,,,,
1673607823.163078,1.515545,1859028.000000,1673607823.150718,,,,
1673607823.163220,1.479367,1859029.000000,1673607823.151718,,,,
1673607823.163259,,,,42.610489,42.626404,1789706.000000,1673607311.151488
1673607823.163368,1.533634,1859030.000000,1673607823.152718,,,,
1673607823.163383,1.569820,1859031.000000,1673607823.153718,,,,
1673607823.163401,1.533634,1859032.000000,1673607823.154718,,,,
1673607823.163418,1.569820,1859033.000000,1673607823.155718,,,,
1673607823.163429,1.605998,1859034.000000,1673607823.156718,,,,
1673607823.163434,1.624087,1859035.000000,1673607823.157718,,,,
1673607823.163446,1.624087,1859036.000000,1673607823.158718,,,,
1673607823.163825,,,,42.611141,42.629433,1789707.000000,1673607311.152495
1673607823.163898,,,,42.615105,42.630730,1789708.000000,1673607311.153502
1673607823.163937,,,,42.614651,42.631618,1789709.000000,1673607311.154510
1673607823.164490,,,,42.610996,42.626884,1789710.000000,1673607311.155517
1673607823.164971,,,,42.597485,42.613708,1789713.000000,1673607311.158538
1673607823.164989,,,,42.593277,42.607048,1789714.000000,1673607311.159545
1673607823.164997,,,,42.587509,42.602890,1789715.000000,1673607311.160552
1673607823.165103,,,,42.580944,42.597576,1789716.000000,1673607311.161559
1673607823.165179,,,,42.584431,42.598179,1789717.000000,1673607311.162566
1673607823.165190,,,,42.586281,42.600437,1789718.000000,1673607311.163573
1673607823.165212,,,,42.591930,42.606232,1789719.000000,1673607311.164580
1673607823.165258,,,,42.597172,42.613659,1789720.000000,1673607311.165587
1673607823.165337,,,,42.598614,42.614407,1789721.000000,1673607311.166595
1673607823.165343,,,,42.594528,42.611568,1789722.000000,1673607311.167602
1673607823.167265,,,,42.599289,42.615368,1789723.000000,1673607311.168609
1673607823.167420,,,,42.603012,42.618301,1789724.000000,1673607311.169616
1673607823.167486,,,,42.602821,42.618275,1789725.000000,1673607311.170623
1673607823.169829,,,,42.622318,42.634815,1789726.000000,1673607311.171630
1673607823.169949,,,,42.618065,42.632725,1789727.000000,1673607311.172637
1673607823.170081,,,,42.615082,42.629887,1789728.000000,1673607311.173644
1673607823.170211,,,,42.613277,42.629433,1789729.000000,1673607311.174651
1673607823.170395,,,,42.613758,42.628925,1789730.000000,1673607311.175658
1673607823.170501,,,,42.611763,42.626572,1789731.000000,1673607311.176665
1673607823.170604,,,,42.608902,42.623951,1789732.000000,1673607311.177672
1673607823.174538,,,,42.603664,42.617821,1789733.000000,1673607311.178679
1673607823.174729,,,,42.595417,42.609959,1789734.000000,1673607311.179687
1673607823.174791,,,,42.594360,42.610897,1789735.000000,1673607311.180694
1673607823.177094,,,,42.587677,42.607002,1789736.000000,1673607311.181701
1673607823.177108,,,,42.582916,42.601112,1789737.000000,1673607311.182708
1673607823.177128,,,,42.581497,42.597363,1789738.000000,1673607311.183715
1673607823.177141,,,,42.576931,42.591183,1789739.000000,1673607311.184722
1673607823.184529,,,,42.571136,42.586037,1789740.000000,1673607311.185729
1673607823.184760,,,,42.557072,42.574524,1789741.000000,1673607311.186736
1673607823.184771,,,,42.541470,42.558895,1789742.000000,1673607311.187743
1673607823.184924,,,,42.542408,42.558872,1789743.000000,1673607311.188750
1673607823.213380,,,,42.547409,42.562744,1789744.000000,1673607311.189757
1673607823.213506,,,,42.555149,42.569668,1789745.000000,1673607311.190764
1673607823.213712,,,,42.565990,42.580605,1789746.000000,1673607311.191772
1673607823.215511,2.709497,1859088.000000,1673607823.205361,,,,
1673607823.215518,2.745675,1859089.000000,1673607823.206361,,,,
1673607823.215526,2.745675,1859090.000000,1673607823.207361,,,,
1673607823.215533,2.799942,1859091.000000,1673607823.208361,,,,
1673607823.215552,2.836128,1859092.000000,1673607823.209361,,,,
1673607823.215559,2.908485,1859093.000000,1673607823.210361,,,,
1673607823.215562,2.818031,1859094.000000,1673607823.211361,,,,
1673607823.215566,2.908485,1859095.000000,1673607823.212361,,,,
1673607823.215584,2.908485,1859096.000000,1673607823.213361,,,,
1673607823.215588,2.890396,1859097.000000,1673607823.214361,,,,
1673607823.219821,,,,42.575127,42.588444,1789747.000000,1673607311.192779
1673607823.219917,,,,42.578445,42.594044,1789748.000000,1673607311.193786
1673607823.219949,,,,42.595875,42.612144,1789749.000000,1673607311.194793
1673607823.219963,,,,42.615948,42.631283,1789750.000000,1673607311.195800
1673607823.227701,,,,42.643257,42.661163,1789751.000000,1673607311.196807
1673607823.227719,,,,42.660854,42.677032,1789752.000000,1673607311.197814
1673607823.227738,,,,42.666096,42.682896,1789753.000000,1673607311.198821
1673607823.229851,,,,42.651192,42.666214,1789754.000000,1673607311.199828
1673607823.229869,,,,42.620804,42.637245,1789755.000000,1673607311.200835
1673607823.229881,,,,42.598518,42.612244,1789756.000000,1673607311.201842
1673607823.230197,,,,42.588516,42.604958,1789757.000000,1673607311.202849
1673607823.230521,,,,42.599216,42.616379,1789758.000000,1673607311.203856
1673607823.230540,,,,42.587845,42.602264,1789759.000000,1673607311.204864
1673607823.230546,,,,42.582413,42.598057,1789760.000000,1673607311.205871
1673607823.234674,,,,42.589024,42.606087,1789761.000000,1673607311.206878
1673607823.234681,,,,42.600105,42.615967,1789762.000000,1673607311.207885
1673607823.234704,,,,42.613064,42.628277,1789763.000000,1673607311.208892
1673607823.234714,,,,42.623039,42.637291,1789764.000000,1673607311.209899
1673607823.237285,,,,42.619843,42.635681,1789765.000000,1673607311.210906
1673607823.237521,,,,42.615204,42.631813,1789766.000000,1673607311.211913
1673607823.237579,,,,42.610516,42.625343,1789767.000000,1673607311.212920
1673607823.237711,,,,42.609409,42.627605,1789768.000000,1673607311.213927
1673607823.237825,,,,42.610828,42.628231,1789769.000000,1673607311.214934
1673607823.238085,,,,42.600609,42.616039,1789770.000000,1673607311.215941
1673607823.238092,,,,42.595177,42.612339,1789771.000000,1673607311.216949
1673607823.242562,,,,42.595680,42.615032,1789772.000000,1673607311.217956
1673607823.242908,,,,42.593132,42.610439,1789773.000000,1673607311.218963
1673607823.243072,,,,42.585514,42.603035,1789774.000000,1673607311.219970
1673607823.243293,,,,42.593639,42.609596,1789775.000000,1673607311.220977
1673607823.243310,,,,42.597942,42.613636,1789776.000000,1673607311.221984
1673607823.243502,,,,42.596260,42.614597,1789777.000000,1673607311.222991
1673607823.243513,,,,42.593807,42.610317,1789778.000000,1673607311.223998
1673607823.243520,,,,42.593662,42.608009,1789779.000000,1673607311.225005
1673607823.244845,,,,42.595921,42.611015,1789780.000000,1673607311.226012
1673607823.244923,,,,42.599865,42.616451,1789781.000000,1673607311.227019
1673607823.245047,,,,42.596859,42.611809,1789782.000000,1673607311.228026
1673607823.245059,,,,42.589119,42.601112,1789783.000000,1673607311.229033
1673607823.245274,,,,42.590992,42.605247,1789784.000000,1673607311.230041
1673607823.245470,,,,42.599697,42.615944,1789785.000000,1673607311.231048
1673607823.249679,,,,42.604263,42.622101,1789786.000000,1673607311.232055
1673607823.249695,,,,42.606236,42.624359,1789787.000000,1673607311.233062
1673607823.249846,,,,42.607006,42.624718,1789788.000000,1673607311.234069
1673607823.249918,,,,42.611958,42.627701,1789789.000000,1673607311.235076
1673607823.252659,,,,42.618015,42.634216,1789790.000000,1673607311.236083
1673607823.252710,,,,42.620682,42.637486,1789791.000000,1673607311.237090
1673607823.252723,,,,42.609074,42.622364,1789792.000000,1673607311.238097
1673607823.252735,,,,42.590153,42.602242,1789793.000000,1673607311.239104
1673607823.266039,,,,42.582699,42.596111,1789794.000000,1673607311.240111
1673607823.266498,,,,42.575943,42.586830,1789795.000000,1673607311.241118
1673607823.266518,,,,42.565968,42.579380,1789796.000000,1673607311.242126
1673607823.273659,,,,42.569550,42.586639,1789797.000000,1673607311.243133
1673607823.274070,,,,42.579887,42.592987,1789798.000000,1673607311.244140
1673607823.274249,,,,42.573444,42.586349,1789799.000000,1673607311.245147
1673607823.274475,,,,42.551205,42.563656,1789800.000000,1673607311.246154
1673607823.274613,,,,42.548008,42.561611,1789801.000000,1673607311.247161
1673607823.274836,,,,42.550102,42.565819,1789802.000000,1673607311.248168
1673607823.275005,,,,42.552143,42.565002,1789803.000000,1673607311.249175
1673607823.279229,2.926574,1859098.000000,1673607823.218306,,,,
1673607823.279245,2.926574,1859099.000000,1673607823.219306,,,,
1673607823.279257,2.926574,1859100.000000,1673607823.220306,,,,
1673607823.279265,2.980849,1859101.000000,1673607823.221306,,,,
1673607823.279276,2.980849,1859102.000000,1673607823.222306,,,,
1673607823.279283,3.035116,1859103.000000,1673607823.223306,,,,
1673607823.279911,,,,42.558369,42.572021,1789804.000000,1673607311.250182
1673607823.280174,3.089384,1859104.000000,1673607823.224306,,,,
1673607823.280356,3.071295,1859105.000000,1673607823.225306,,,,
1673607823.280568,,,,42.572964,42.586735,1789805.000000,1673607311.251189
1673607823.280717,3.740631,1859137.000000,1673607823.257306,,,,
1673607823.280833,,,,42.586090,42.600510,1789806.000000,1673607311.252196
1673607823.281026,3.758720,1859138.000000,1673607823.258306,,,,
1673607823.281179,,,,42.591858,42.606449,1789807.000000,1673607311.253203
1673607823.281191,3.722542,1859139.000000,1673607823.259306,,,,
1673607823.281198,3.794898,1859140.000000,1673607823.260306,,,,
1673607823.281220,3.812995,1859141.000000,1673607823.261306,,,,
1673607823.281225,3.831084,1859142.000000,1673607823.262306,,,,
1673607823.281230,3.867262,1859143.000000,1673607823.263306,,,,
1673607823.281241,3.867262,1859144.000000,1673607823.264306,,,,
1673607823.281249,3.939627,1859145.000000,1673607823.265306,,,,
1673607823.281275,3.921530,1859146.000000,1673607823.266306,,,,
1673607823.281281,4.011983,1859149.000000,1673607823.269306,,,,
1673607823.281315,4.048161,1859150.000000,1673607823.270306,,,,
1673607823.281349,,,,42.598736,42.613323,1789808.000000,1673607311.254210
1673607823.281359,,,,42.616692,42.630825,1789809.000000,1673607311.255218
1673607823.281363,,,,42.622246,42.636955,1789810.000000,1673607311.256225
1673607823.281501,4.048161,1859151.000000,1673607823.271306,,,,
1673607823.281508,4.120526,1859152.000000,1673607823.272306,,,,
1673607823.281513,4.102437,1859153.000000,1673607823.273306,,,,
1673607823.281528,4.210971,1859154.000000,1673607823.274306,,,,
1673607823.281569,4.156704,1859155.000000,1673607823.275306,,,,
1673607823.281575,4.210971,1859156.000000,1673607823.276306,,,,
1673607823.281582,4.265246,1859157.000000,1673607823.277306,,,,
1673607823.281621,4.247158,1859158.000000,1673607823.278306,,,,
1673607823.289846,,,,42.617439,42.636570,1789811.000000,1673607311.257232
1673607823.290158,,,,42.619217,42.637051,1789812.000000,1673607311.258239
1673607823.290164,,,,42.613400,42.627605,1789813.000000,1673607311.259246
1673607823.290465,,,,42.604286,42.619213,1789814.000000,1673607311.260253
1673607823.290478,,,,42.595562,42.612747,1789815.000000,1673607311.261260
1673607823.290481,,,,42.590679,42.605247,1789816.000000,1673607311.262267
1673607823.290576,,,,42.585442,42.600632,1789817.000000,1673607311.263274
1673607823.294737,,,,42.585224,42.600536,1789818.000000,1673607311.264281
1673607823.294750,,,,42.586136,42.601784,1789819.000000,1673607311.265288
1673607823.295117,,,,42.584934,42.603107,1789820.000000,1673607311.266295
1673607823.295146,,,,42.591713,42.607651,1789821.000000,1673607311.267303
1673607823.297117,,,,42.599407,42.616592,1789822.000000,1673607311.268310
1673607823.297127,,,,42.605873,42.624069,1789823.000000,1673607311.269317
1673607823.297131,,,,42.616764,42.634888,1789824.000000,1673607311.270324
1673607823.297163,,,,42.629169,42.647270,1789825.000000,1673607311.271331
1673607823.304597,,,,42.623016,42.639072,1789826.000000,1673607311.272338
1673607823.304610,,,,42.614170,42.629768,1789827.000000,1673607311.273345
1673607823.311054,,,,42.617798,42.633591,1789828.000000,1673607311.274352
1673607823.311639,,,,42.622150,42.637291,1789829.000000,1673607311.275359
1673607823.311868,,,,42.622414,42.637341,1789830.000000,1673607311.276366
1673607823.311961,,,,42.623329,42.640923,1789831.000000,1673607311.277373
1673607823.311971,,,,42.621094,42.638279,1789832.000000,1673607311.278380
1673607823.311983,,,,42.610130,42.627243,1789833.000000,1673607311.279387
1673607823.312247,,,,42.602245,42.616978,1789834.000000,1673607311.280395
1673607823.312261,,,,42.596115,42.610897,1789835.000000,1673607311.281402
1673607823.312723,,,,42.588638,42.607529,1789836.000000,1673607311.282409
1673607823.312819,,,,42.564671,42.581348,1789837.000000,1673607311.283416
1673607823.312833,,,,42.551952,42.567600,1789838.000000,1673607311.284423
1673607823.313009,,,,42.554283,42.570267,1789839.000000,1673607311.285430
1673607823.313019,,,,42.569405,42.584549,1789840.000000,1673607311.286437
1673607823.313031,,,,42.593639,42.609528,1789841.000000,1673607311.287444
1673607823.313038,,,,42.615562,42.632244,1789842.000000,1673607311.288451
1673607823.313154,,,,42.626213,42.642605,1789843.000000,1673607311.289458
1673607823.313390,,,,42.625347,42.641644,1789844.000000,1673607311.290465
1673607823.313550,,,,42.625973,42.642387,1789845.000000,1673607311.291472
1673607823.313782,,,,42.618736,42.635250,1789846.000000,1673607311.292480
1673607823.314058,,,,42.612125,42.629070,1789847.000000,1673607311.293487
1673607823.314166,,,,42.612797,42.628830,1789848.000000,1673607311.294494
1673607823.314345,,,,42.620083,42.634575,1789849.000000,1673607311.295501
1673607823.314543,,,,42.612511,42.628399,1789850.000000,1673607311.296508
1673607823.326095,,,,42.603832,42.621883,1789851.000000,1673607311.297515
1673607823.326113,,,,42.603832,42.619068,1789852.000000,1673607311.298522
1673607823.326125,,,,42.598206,42.614334,1789853.000000,1673607311.299529
1673607823.334692,4.283336,1859159.000000,1673607823.273763,,,,
1673607823.335637,4.229068,1859160.000000,1673607823.274763,,,,
1673607823.335650,4.247158,1859161.000000,1673607823.275763,,,,
1673607823.335655,4.319514,1859162.000000,1673607823.276763,,,,
1673607823.335660,6.164705,1859210.000000,1673607823.324763,,,,
1673607823.335663,6.218980,1859211.000000,1673607823.325763,,,,
1673607823.335678,6.200891,1859212.000000,1673607823.326763,,,,
1673607823.335691,6.291336,1859213.000000,1673607823.327763,,,,
1673607823.335695,6.273247,1859214.000000,1673607823.328763,,,,
1673607823.335698,6.309425,1859215.000000,1673607823.329763,,,,
1673607823.335705,6.381790,1859216.000000,1673607823.330763,,,,
1673607823.335708,6.381790,1859217.000000,1673607823.331763,,,,
1673607823.335717,6.472243,1859218.000000,1673607823.332763,,,,
1673607823.335730,6.472243,1859219.000000,1673607823.333763,,,,
1673607823.358350,,,,42.587627,42.603565,1789854.000000,1673607311.300536
1673607823.358377,,,,42.581089,42.596016,1789855.000000,1673607311.301543
1673607823.358388,,,,42.579311,42.597023,1789856.000000,1673607311.302550
1673607823.358624,,,,42.577290,42.596615,1789857.000000,1673607311.303557
1673607823.358644,,,,42.587650,42.604404,1789858.000000,1673607311.304564
1673607823.358799,,,,42.572651,42.588657,1789859.000000,1673607311.305572
1673607823.359330,,,,42.570148,42.585388,1789860.000000,1673607311.306579
1673607823.359568,,,,42.578178,42.594788,1789861.000000,1673607311.307586
1673607823.359587,,,,42.585873,42.601978,1789862.000000,1673607311.308593
1673607823.359903,,,,42.591427,42.605125,1789863.000000,1673607311.309600
1673607823.360475,,,,42.588711,42.606159,1789864.000000,1673607311.310607
1673607823.360992,,,,42.589165,42.606327,1789865.000000,1673607311.311614
1673607823.361015,,,,42.591835,42.608395,1789866.000000,1673607311.312621
1673607823.361028,,,,42.595249,42.611160,1789867.000000,1673607311.313628
1673607823.361035,,,,42.600296,42.614334,1789868.000000,1673607311.314635
1673607823.361053,,,,42.587124,42.604237,1789869.000000,1673607311.315642
1673607823.361066,,,,42.581760,42.600365,1789870.000000,1673607311.316649
1673607823.361234,,,,42.584526,42.604286,1789871.000000,1673607311.317657
1673607823.361571,,,,42.587029,42.603947,1789872.000000,1673607311.318664
1673607823.361761,,,,42.595081,42.610077,1789873.000000,1673607311.319671
1673607823.361778,,,,42.591644,42.606880,1789874.000000,1673607311.320678
1673607823.361808,,,,42.581017,42.597195,1789875.000000,1673607311.321685
1673607823.361823,,,,42.569813,42.586857,1789876.000000,1673607311.322692
1673607823.362067,,,,42.562386,42.579140,1789877.000000,1673607311.323699
1673607823.362477,,,,42.564117,42.581062,1789878.000000,1673607311.324706
1673607823.362564,,,,42.560749,42.576447,1789879.000000,1673607311.325713
1673607823.364263,,,,42.560509,42.577286,1789890.000000,1673607311.336791
1673607823.364280,,,,42.573372,42.588585,1789891.000000,1673607311.337798
1673607823.364335,,,,42.574524,42.591015,1789892.000000,1673607311.338805
1673607823.364755,,,,42.582100,42.597095,1789893.000000,1673607311.339812
1673607823.364780,,,,42.595009,42.610271,1789894.000000,1673607311.340819
1673607823.364792,,,,42.602772,42.618732,1789895.000000,1673607311.341826
1673607823.365117,,,,42.608013,42.623035,1789896.000000,1673607311.342834
1673607823.365136,,,,42.623257,42.639503,1789897.000000,1673607311.343841
1673607823.365226,,,,42.638809,42.656574,1789898.000000,1673607311.344848
1673607823.365456,,,,42.653210,42.668472,1789899.000000,1673607311.345855
1673607823.365529,,,,42.654026,42.671188,1789900.000000,1673607311.346862
1673607823.365873,,,,42.647778,42.664459,1789901.000000,1673607311.347869
1673607823.366010,,,,42.637272,42.652679,1789902.000000,1673607311.348876
1673607823.366016,,,,42.625420,42.641811,1789903.000000,1673607311.349883
1673607823.366085,,,,42.622101,42.637726,1789904.000000,1673607311.350890
1673607823.366095,,,,42.623425,42.639385,1789905.000000,1673607311.351897
1673607823.366111,,,,42.616501,42.634262,1789906.000000,1673607311.352904
1673607823.366116,,,,42.611523,42.627506,1789907.000000,1673607311.353911
1673607823.369809,,,,42.610008,42.625992,1789908.000000,1673607311.354918
1673607823.370061,,,,42.619362,42.633808,1789909.000000,1673607311.355926
1673607823.370078,,,,42.619987,42.634983,1789910.000000,1673607311.356933
1673607823.370084,,,,42.616238,42.630440,1789911.000000,1673607311.357940
1673607823.370138,,,,42.617943,42.632870,1789912.000000,1673607311.358947
1673607823.370155,,,,42.620636,42.637943,1789913.000000,1673607311.359954
1673607823.372330,,,,42.612846,42.628757,1789914.000000,1673607311.360961
1673607823.372345,,,,42.601692,42.618732,1789915.000000,1673607311.361968
1673607823.372352,,,,42.596809,42.613373,1789916.000000,1673607311.362975
1673607823.372715,,,,42.594048,42.610607,1789917.000000,1673607311.363982
1673607823.372723,,,,42.585632,42.601135,1789918.000000,1673607311.364989
1673607823.372726,,,,42.588638,42.603878,1789919.000000,1673607311.365996
1673607823.372805,,,,42.596088,42.608734,1789920.000000,1673607311.367003
1673607823.378381,,,,42.599575,42.618587,1789921.000000,1673607311.368011
1673607823.378398,,,,42.600658,42.618660,1789922.000000,1673607311.369018
1673607823.378403,,,,42.610588,42.628567,1789923.000000,1673607311.370025
1673607823.378407,,,,42.611282,42.628590,1789924.000000,1673607311.371032
1673607823.393656,,,,42.595295,42.612747,1789925.000000,1673607311.372039
1673607823.393669,,,,42.589863,42.603973,1789926.000000,1673607311.373046
1673607823.394008,,,,42.584240,42.596832,1789927.000000,1673607311.374053
1673607823.394535,,,,42.576954,42.592674,1789928.000000,1673607311.375060
1673607823.394969,,,,42.575367,42.588757,1789929.000000,1673607311.376067
1673607823.395233,,,,42.575752,42.588825,1789930.000000,1673607311.377074
1673607823.395652,,,,42.574215,42.590004,1789931.000000,1673607311.378081
1673607823.400168,,,,42.557888,42.575989,1789932.000000,1673607311.379088
1673607823.400562,,,,42.541855,42.558247,1789933.000000,1673607311.380095
1673607823.400680,,,,42.537167,42.554138,1789934.000000,1673607311.381103
1673607823.400926,,,,42.532959,42.549976,1789935.000000,1673607311.382110
1673607823.401603,,,,42.542145,42.559113,1789936.000000,1673607311.383117
1673607823.401619,,,,42.555534,42.569450,1789937.000000,1673607311.384124
1673607823.401633,,,,42.557457,42.574738,1789938.000000,1673607311.385131
1673607823.411140,7.014948,1859229.000000,1673607823.357975,,,,
1673607823.411655,,,,42.575272,42.590485,1789939.000000,1673607311.386138
1673607823.411788,,,,42.607246,42.623158,1789940.000000,1673607311.387145
1673607823.411813,,,,42.644459,42.657749,1789941.000000,1673607311.388152
1673607823.411843,,,,42.662296,42.676212,1789942.000000,1673607311.389159
1673607823.411877,,,,42.655853,42.670998,1789943.000000,1673607311.390166
1673607823.411887,,,,42.646191,42.661694,1789944.000000,1673607311.391173
1673607823.411921,,,,42.645493,42.661549,1789945.000000,1673607311.392180
1673607823.413336,7.051126,1859230.000000,1673607823.358975,,,,
1673607823.413354,7.195847,1859231.000000,1673607823.359975,,,,
1673607823.413376,7.195847,1859232.000000,1673607823.360975,,,,
1673607823.413382,7.232025,1859233.000000,1673607823.361975,,,,
1673607823.413387,7.322478,1859234.000000,1673607823.362975,,,,
1673607823.413425,7.304389,1859235.000000,1673607823.363975,,,,
1673607823.413432,7.376746,1859236.000000,1673607823.364975,,,,
1673607823.413441,7.376746,1859237.000000,1673607823.365975,,,,
1673607823.413447,7.503377,1859238.000000,1673607823.366975,,,,
1673607823.413472,9.583742,1859271.000000,1673607823.399975,,,,
1673607823.413483,9.656098,1859272.000000,1673607823.400975,,,,
1673607823.413488,9.764642,1859273.000000,1673607823.401975,,,,
1673607823.413531,9.800819,1859274.000000,1673607823.402975,,,,
1673607823.413536,9.873184,1859275.000000,1673607823.403975,,,,
1673607823.413548,9.963637,1859276.000000,1673607823.404975,,,,
1673607823.413554,9.999816,1859277.000000,1673607823.405975,,,,
1673607823.413594,10.072172,1859278.000000,1673607823.406975,,,,
1673607823.413600,10.144536,1859279.000000,1673607823.407975,,,,
1673607823.413607,10.198804,1859280.000000,1673607823.408975,,,,
1673607823.414496,,,,42.654438,42.668640,1789946.000000,1673607311.393188
1673607823.414749,,,,42.659149,42.673473,1789947.000000,1673607311.394195
1673607823.414806,,,,42.644363,42.661358,1789948.000000,1673607311.395202
1673607823.415019,,,,42.634987,42.653446,1789949.000000,1673607311.396209
1673607823.417861,,,,42.629963,42.646019,1789950.000000,1673607311.397216
1673607823.418085,,,,42.615490,42.631763,1789951.000000,1673607311.398223
1673607823.418210,,,,42.589165,42.606087,1789952.000000,1673607311.399230
1673607823.418445,,,,42.559357,42.576664,1789953.000000,1673607311.400237
1673607823.418619,,,,42.535507,42.554474,1789954.000000,1673607311.401244
1673607823.418939,,,,42.515026,42.530960,1789955.000000,1673607311.402251
1673607823.419248,,,,42.517670,42.533749,1789956.000000,1673607311.403258
1673607823.419377,,,,42.551685,42.566566,1789957.000000,1673607311.404265
1673607823.419532,,,,42.567699,42.582867,1789958.000000,1673607311.405272
1673607823.419697,,,,42.593182,42.607170,1789959.000000,1673607311.406280
1673607823.419719,,,,42.602631,42.618805,1789960.000000,1673607311.407287
1673607823.419726,,,,42.612415,42.631138,1789961.000000,1673607311.408294
1673607823.419734,,,,42.641937,42.656742,1789962.000000,1673607311.409301
1673607823.419742,,,,42.664341,42.680759,1789963.000000,1673607311.410308
1673607823.429615,,,,42.670303,42.686264,1789964.000000,1673607311.411315
1673607823.429763,,,,42.662708,42.676239,1789965.000000,1673607311.412322
1673607823.429968,,,,42.643520,42.658760,1789966.000000,1673607311.413329
1673607823.430082,,,,42.632896,42.648857,1789967.000000,1673607311.414336
1673607823.431850,,,,42.627945,42.643230,1789968.000000,1673607311.415343
1673607823.431978,,,,42.618496,42.638783,1789969.000000,1673607311.416350
1673607823.431997,,,,42.614506,42.634502,1789970.000000,1673607311.417357
1673607823.445974,,,,42.611309,42.627796,1789971.000000,1673607311.418365
1673607823.446126,,,,42.604961,42.622990,1789972.000000,1673607311.419372
1673607823.446320,,,,42.599072,42.618301,1789973.000000,1673607311.420379
1673607823.446767,,,,42.592052,42.609814,1789974.000000,1673607311.421386
1673607823.453719,,,,42.587555,42.605606,1789975.000000,1673607311.422393
1673607823.453963,,,,42.588348,42.604839,1789976.000000,1673607311.423400
1673607823.454009,,,,42.586689,42.605415,1789977.000000,1673607311.424407
1673607823.457000,13.418845,1859332.000000,1673607823.445975,,,,
1673607823.457019,13.418845,1859333.000000,1673607823.446975,,,,
1673607823.457093,13.509298,1859334.000000,1673607823.447975,,,,
1673607823.457105,13.581655,1859335.000000,1673607823.448975,,,,
1673607823.457115,13.581655,1859336.000000,1673607823.449975,,,,
1673607823.457121,13.617842,1859337.000000,1673607823.450975,,,,
1673607823.457135,13.635930,1859338.000000,1673607823.451975,,,,
1673607823.457149,13.744473,1859339.000000,1673607823.452975,,,,
1673607823.457157,13.834918,1859340.000000,1673607823.453975,,,,
1673607823.457190,13.853007,1859341.000000,1673607823.454975,,,,
1673607823.460601,,,,42.585102,42.602745,1789978.000000,1673607311.425414
1673607823.460985,,,,42.587677,42.605801,1789979.000000,1673607311.426421
1673607823.461251,,,,42.593613,42.613178,1789980.000000,1673607311.427428
1673607823.461454,,,,42.586521,42.604427,1789981.000000,1673607311.428435
1673607823.461659,,,,42.569767,42.588177,1789982.000000,1673607311.429442
1673607823.462554,,,,42.556255,42.571808,1789983.000000,1673607311.430449
1673607823.462571,,,,42.552410,42.569115,1789984.000000,1673607311.431457
1673607823.462595,,,,42.551136,42.565868,1789985.000000,1673607311.432464
1673607823.462634,,,,42.563805,42.577240,1789986.000000,1673607311.433471
1673607823.463035,,,,42.579044,42.593563,1789987.000000,1673607311.434478
1673607823.463044,,,,42.594841,42.610680,1789988.000000,1673607311.435485
1673607823.463052,,,,42.617580,42.634720,1789989.000000,1673607311.436492
1673607823.463071,,,,42.653259,42.672199,1789990.000000,1673607311.437499
1673607823.463192,,,,42.647034,42.663952,1789991.000000,1673607311.438506
1673607823.463215,,,,42.648258,42.661549,1789992.000000,1673607311.439513
1673607823.463317,,,,42.637753,42.652294,1789993.000000,1673607311.440520
1673607823.463397,,,,42.614311,42.630344,1789994.000000,1673607311.441527
1673607823.463406,,,,42.612965,42.625610,1789995.000000,1673607311.442534
1673607823.467403,,,,42.621140,42.633156,1789996.000000,1673607311.443542
1673607823.467805,,,,42.620468,42.636139,1789997.000000,1673607311.444549
1673607823.467822,,,,42.621742,42.638302,1789998.000000,1673607311.445556
1673607823.467906,,,,42.624626,42.639191,1789999.000000,1673607311.446563
1673607823.468338,,,,42.619579,42.636257,1790000.000000,1673607311.447570
1673607823.468532,,,,42.617222,42.631378,1790001.000000,1673607311.448577
1673607823.468857,,,,42.611958,42.628807,1790002.000000,1673607311.449584
1673607823.469840,,,,42.607197,42.624718,1790003.000000,1673607311.450591
1673607823.469853,,,,42.610008,42.623470,1790004.000000,1673607311.451598
1673607823.470020,,,,42.605946,42.621521,1790005.000000,1673607311.452605
1673607823.470114,,,,42.607628,42.623878,1790006.000000,1673607311.453612
1673607823.470171,,,,42.612606,42.628712,1790007.000000,1673607311.454619
1673607823.470333,,,,42.603832,42.619793,1790008.000000,1673607311.455626
1673607823.470443,,,,42.591042,42.607075,1790009.000000,1673607311.456634
1673607823.470551,,,,42.589886,42.605488,1790010.000000,1673607311.457641
1673607823.475094,,,,42.590271,42.604404,1790011.000000,1673607311.458648
1673607823.475102,,,,42.591595,42.605461,1790012.000000,1673607311.459655
1673607823.475105,,,,42.596954,42.610416,1790013.000000,1673607311.460662
1673607823.475217,,,,42.600273,42.613491,1790014.000000,1673607311.461669
1673607823.475337,,,,42.608109,42.623493,1790015.000000,1673607311.462676
1673607823.475446,,,,42.615372,42.631523,1790016.000000,1673607311.463683
1673607823.477223,,,,42.612003,42.628853,1790017.000000,1673607311.464690
1673607823.477238,,,,42.605392,42.621426,1790018.000000,1673607311.465697
1673607823.477391,,,,42.607800,42.622700,1790019.000000,1673607311.466704
1673607823.477548,,,,42.604649,42.619453,1790020.000000,1673607311.467711
1673607823.477674,,,,42.593712,42.609455,1790021.000000,1673607311.468719
1673607823.477754,,,,42.576546,42.591518,1790022.000000,1673607311.469726
1673607823.477901,,,,42.571064,42.588394,1790023.000000,1673607311.470733
1673607823.482179,,,,42.558754,42.577190,1790024.000000,1673607311.471740
1673607823.482287,,,,42.557217,42.575676,1790025.000000,1673607311.472747
1673607823.482495,,,,42.577194,42.593826,1790026.000000,1673607311.473754
1673607823.482606,,,,42.589237,42.604477,1790027.000000,1673607311.474761
1673607823.484342,,,,42.592987,42.607025,1790028.000000,1673607311.475768
1673607823.484676,,,,42.597435,42.612625,1790029.000000,1673607311.476775
1673607823.484731,,,,42.608349,42.625103,1790030.000000,1673607311.477782
1673607823.484737,,,,42.622128,42.639984,1790031.000000,1673607311.478789
1673607823.513619,,,,42.625515,42.642605,1790032.000000,1673607311.479796
1673607823.513984,,,,42.621502,42.636642,1790033.000000,1673607311.480803
1673607823.514128,,,,42.607727,42.625751,1790034.000000,1673607311.481811
1673607823.514606,,,,42.591427,42.607841,1790035.000000,1673607311.482818
1673607823.514621,,,,42.571014,42.587841,1790036.000000,1673607311.483825
1673607823.514701,,,,42.558922,42.577503,1790037.000000,1673607311.484832
1673607823.519695,,,,42.561810,42.580246,1790038.000000,1673607311.485839
1673607823.520001,,,,42.572216,42.590725,1790039.000000,1673607311.486846
1673607823.520012,,,,42.580608,42.596977,1790040.000000,1673607311.487853
1673607823.520064,,,,42.594479,42.610104,1790041.000000,1673607311.488860
1673607823.520070,,,,42.608543,42.625198,1790042.000000,1673607311.489867
1673607823.520987,16.928328,1859393.000000,1673607823.510757,,,,
1673607823.521015,16.982603,1859394.000000,1673607823.511757,,,,
1673607823.521019,17.109236,1859395.000000,1673607823.512757,,,,
1673607823.521022,17.181591,1859396.000000,1673607823.513757,,,,
1673607823.521029,17.235867,1859397.000000,1673607823.514757,,,,
1673607823.521060,17.326313,1859398.000000,1673607823.515757,,,,
1673607823.521084,17.380589,1859399.000000,1673607823.516757,,,,
1673607823.521093,17.434855,1859400.000000,1673607823.517757,,,,
1673607823.521098,17.507219,1859401.000000,1673607823.518757,,,,
1673607823.521102,17.597664,1859402.000000,1673607823.519757,,,,
1673607823.527321,,,,42.608902,42.626812,1790043.000000,1673607311.490874
1673607823.527414,,,,42.597244,42.613396,1790044.000000,1673607311.491881
1673607823.529689,,,,42.565487,42.580917,1790045.000000,1673607311.492888
1673607823.529855,,,,42.554211,42.572189,1790046.000000,1673607311.493896
1673607823.530146,,,,42.558346,42.574184,1790047.000000,1673607311.494903
1673607823.530157,,,,42.552792,42.569210,1790048.000000,1673607311.495910
1673607823.530164,,,,42.554573,42.573875,1790049.000000,1673607311.496917
1673607823.530168,,,,42.574574,42.593803,1790050.000000,1673607311.497924
1673607823.530175,,,,42.598999,42.616760,1790051.000000,1673607311.498931
1673607823.537469,,,,42.615757,42.632195,1790052.000000,1673607311.499938
1673607823.537820,,,,42.637077,42.653473,1790053.000000,1673607311.500945
1673607823.537898,,,,42.660831,42.676117,1790054.000000,1673607311.501952
1673607823.537977,,,,42.665760,42.680973,1790055.000000,1673607311.502959
1673607823.542230,,,,42.640110,42.655323,1790056.000000,1673607311.503966
1673607823.543081,,,,42.585754,42.600918,1790057.000000,1673607311.504973
1673607823.543097,,,,42.539547,42.555027,1790058.000000,1673607311.505980
1673607823.543122,,,,42.533825,42.549351,1790059.000000,1673607311.506988
1673607823.545735,,,,42.554573,42.570702,1790060.000000,1673607311.507995
1673607823.546139,,,,42.580223,42.595341,1790061.000000,1673607311.509002
1673607823.546252,,,,42.593807,42.607769,1790062.000000,1673607311.510009
1673607823.546489,,,,42.607559,42.621017,1790063.000000,1673607311.511016
1673607823.546505,,,,42.619194,42.634502,1790064.000000,1673607311.512023
1673607823.546683,,,,42.638523,42.657536,1790065.000000,1673607311.513030
1673607823.547711,,,,42.686722,42.703644,1790068.000000,1673607311.516051
1673607823.547763,,,,42.677685,42.693764,1790069.000000,1673607311.517058
1673607823.547770,,,,42.672588,42.690159,1790070.000000,1673607311.518065
1673607823.547857,,,,42.663330,42.680637,1790071.000000,1673607311.519073
1673607823.547866,,,,42.653259,42.668690,1790072.000000,1673607311.520080
1673607823.547937,,,,42.637489,42.651932,1790073.000000,1673607311.521087
1673607823.547945,,,,42.625443,42.639217,1790074.000000,1673607311.522094
1673607823.547950,,,,42.614723,42.628712,1790075.000000,1673607311.523101
1673607823.547997,,,,42.612270,42.626354,1790076.000000,1673607311.524108
1673607823.548008,,,,42.605370,42.620632,1790077.000000,1673607311.525115
1673607823.584070,17.651939,1859403.000000,1673607823.523195,,,,
1673607823.584871,,,,42.602749,42.617268,1790078.000000,1673607311.526122
1673607823.585042,17.905195,1859407.000000,1673607823.527195,,,,
1673607823.585428,17.923292,1859408.000000,1673607823.528195,,,,
1673607823.585619,,,,42.604889,42.618927,1790079.000000,1673607311.527129
1673607823.585633,,,,42.608109,42.623756,1790080.000000,1673607311.528136
1673607823.585684,,,,42.602531,42.618587,1790081.000000,1673607311.529143
1673607823.585691,,,,42.589382,42.607601,1790082.000000,1673607311.530150
1673607823.586088,,,,42.585823,42.600559,1790083.000000,1673607311.531157
1673607823.586099,,,,42.593494,42.607746,1790084.000000,1673607311.532165
1673607823.586232,18.068014,1859409.000000,1673607823.529195,,,,
1673607823.586479,,,,42.637272,42.652847,1790085.000000,1673607311.533172
1673607823.586858,,,,42.647514,42.664124,1790086.000000,1673607311.534179
1673607823.587180,,,,42.646454,42.662006,1790087.000000,1673607311.535186
1673607823.587198,,,,42.629627,42.645298,1790088.000000,1673607311.536193
1673607823.587339,18.086102,1859410.000000,1673607823.530195,,,,
1673607823.587356,18.140369,1859411.000000,1673607823.531195,,,,
1673607823.587373,18.230824,1859412.000000,1673607823.532195,,,,
1673607823.587391,18.285089,1859413.000000,1673607823.533195,,,,
1673607823.587422,18.375544,1859414.000000,1673607823.534195,,,,
1673607823.587430,18.393633,1859415.000000,1673607823.535195,,,,
1673607823.587469,18.447901,1859416.000000,1673607823.536195,,,,
1673607823.587506,20.853886,1859454.000000,1673607823.574195,,,,
1673607823.587513,20.944338,1859455.000000,1673607823.575195,,,,
1673607823.587555,20.962427,1859456.000000,1673607823.576195,,,,
1673607823.587562,21.034792,1859457.000000,1673607823.577195,,,,
1673607823.587568,21.125237,1859458.000000,1673607823.578195,,,,
1673607823.587607,21.161423,1859459.000000,1673607823.579195,,,,
1673607823.587616,21.251869,1859460.000000,1673607823.580195,,,,
1673607823.587629,21.288055,1859461.000000,1673607823.581195,,,,
1673607823.587683,21.396589,1859462.000000,1673607823.582195,,,,
1673607823.587712,21.396589,1859463.000000,1673607823.583195,,,,
1673607823.587718,,,,42.629242,42.645180,1790089.000000,1673607311.537200
1673607823.587909,,,,42.623425,42.638687,1790090.000000,1673607311.538207
1673607823.588252,,,,42.621262,42.638638,1790091.000000,1673607311.539214
1673607823.588594,,,,42.623161,42.640152,1790092.000000,1673607311.540221
1673607823.588682,,,,42.607582,42.621857,1790093.000000,1673607311.541228
1673607823.588852,,,,42.594936,42.610416,1790094.000000,1673607311.542235
1673607823.588872,,,,42.578876,42.594501,1790095.000000,1673607311.543242
1673607823.589025,,,,42.568851,42.582241,1790096.000000,1673607311.544250
1673607823.589388,,,,42.570271,42.583755,1790097.000000,1673607311.545257
1673607823.589669,,,,42.574646,42.589741,1790098.000000,1673607311.546264
1673607823.589686,,,,42.585800,42.601112,1790099.000000,1673607311.547271
1673607823.589903,,,,42.604095,42.618492,1790100.000000,1673607311.548278
1673607823.590047,,,,42.612343,42.628231,1790101.000000,1673607311.549285
1673607823.590239,,,,42.612869,42.628830,1790102.000000,1673607311.550292
1673607823.591177,,,,42.619289,42.635635,1790103.000000,1673607311.551299
1673607823.591624,,,,42.623665,42.640732,1790104.000000,1673607311.552306
1673607823.591790,,,,42.635323,42.651115,1790105.000000,1673607311.553313
1673607823.591808,,,,42.643402,42.657150,1790106.000000,1673607311.554320
1673607823.591826,,,,42.638329,42.653568,1790107.000000,1673607311.555327
1673607823.591829,,,,42.620132,42.637245,1790108.000000,1673607311.556334
1673607823.592037,,,,42.619579,42.635609,1790109.000000,1673607311.557342
1673607823.592046,,,,42.615658,42.630970,1790110.000000,1673607311.558349
1673607823.592063,,,,42.579479,42.594910,1790111.000000,1673607311.559356
1673607823.592073,,,,42.571808,42.589981,1790112.000000,1673607311.560363
1673607823.592082,,,,42.590248,42.605438,1790113.000000,1673607311.561370
1673607823.592089,,,,42.592533,42.606834,1790114.000000,1673607311.562377
1673607823.592101,,,,42.571064,42.585075,1790115.000000,1673607311.563384
1673607823.594769,,,,42.559021,42.571301,1790116.000000,1673607311.564391
1673607823.594981,,,,42.555752,42.571060,1790117.000000,1673607311.565398
1673607823.595112,,,,42.558971,42.574665,1790118.000000,1673607311.566405
1673607823.595500,,,,42.571880,42.586567,1790119.000000,1673607311.567412
1673607823.595513,,,,42.599575,42.614933,1790120.000000,1673607311.568419
1673607823.598889,,,,42.628258,42.643158,1790121.000000,1673607311.569427
1673607823.599079,,,,42.639317,42.656475,1790122.000000,1673607311.570434
1673607823.599270,,,,42.612797,42.629311,1790123.000000,1673607311.571441
1673607823.612139,,,,42.593662,42.610271,1790124.000000,1673607311.572448
1673607823.612301,,,,42.586834,42.604069,1790125.000000,1673607311.573455
1673607823.612313,,,,42.586834,42.601978,1790126.000000,1673607311.574462
1673607823.617357,,,,42.595898,42.611282,1790127.000000,1673607311.575469
1673607823.617368,,,,42.603252,42.620129,1790128.000000,1673607311.576476
1673607823.617373,,,,42.602749,42.620609,1790129.000000,1673607311.577483
1673607823.617382,,,,42.591091,42.606327,1790130.000000,1673607311.578490
1673607823.619416,,,,42.544453,42.556828,1790131.000000,1673607311.579497
1673607823.619645,,,,42.516277,42.528099,1790132.000000,1673607311.580504
1673607823.619861,,,,42.527359,42.544422,1790133.000000,1673607311.581511
1673607823.620168,,,,42.546398,42.563850,1790134.000000,1673607311.582519
1673607823.639328,21.505133,1859464.000000,1673607823.578839,,,,
1673607823.640295,25.539230,1859515.000000,1673607823.629839,,,,
1673607823.640306,25.539230,1859516.000000,1673607823.630839,,,,
1673607823.640314,25.665863,1859517.000000,1673607823.631839,,,,
1673607823.640337,25.756315,1859518.000000,1673607823.632839,,,,
1673607823.640340,25.828672,1859519.000000,1673607823.633839,,,,
1673607823.640358,25.901037,1859520.000000,1673607823.634839,,,,
1673607823.640387,26.009571,1859521.000000,1673607823.635839,,,,
1673607823.640396,26.063847,1859522.000000,1673607823.636839,,,,
1673607823.640400,26.136202,1859523.000000,1673607823.637839,,,,
1673607823.640412,26.299013,1859524.000000,1673607823.638839,,,,
1673607823.641813,,,,42.562866,42.582047,1790135.000000,1673607311.583526
1673607823.642128,,,,42.589310,42.605007,1790136.000000,1673607311.584533
1673607823.642138,,,,42.604912,42.620895,1790137.000000,1673607311.585540
1673607823.642453,,,,42.611549,42.627964,1790138.000000,1673607311.586547
1673607823.642463,,,,42.604359,42.619453,1790139.000000,1673607311.587554
1673607823.642498,,,,42.603519,42.618397,1790140.000000,1673607311.588561
1673607823.642504,,,,42.611572,42.627628,1790141.000000,1673607311.589568
1673607823.642510,,,,42.621094,42.636932,1790142.000000,1673607311.590575
1673607823.642514,,,,42.642632,42.656693,1790143.000000,1673607311.591582
1673607823.642536,,,,42.668571,42.685181,1790144.000000,1673607311.592589
1673607823.642562,,,,42.682709,42.698933,1790145.000000,1673607311.593596
1673607823.642599,,,,42.678837,42.695881,1790146.000000,1673607311.594604
1673607823.642640,,,,42.677395,42.696648,1790147.000000,1673607311.595611
1673607823.642644,,,,42.673042,42.689819,1790148.000000,1673607311.596618
1673607823.649654,,,,42.660999,42.677368,1790149.000000,1673607311.597625
1673607823.649670,,,,42.651169,42.669941,1790150.000000,1673607311.598632
1673607823.649697,,,,42.641670,42.658447,1790151.000000,1673607311.599639
1673607823.655055,,,,42.631695,42.645515,1790152.000000,1673607311.600646
1673607823.655295,,,,42.619194,42.634407,1790153.000000,1673607311.601653
1673607823.655587,,,,42.617149,42.631786,1790154.000000,1673607311.602660
1673607823.655768,,,,42.628712,42.644794,1790155.000000,1673607311.603667
1673607823.656365,,,,42.628231,42.643902,1790156.000000,1673607311.604674
1673607823.656481,,,,42.610107,42.625801,1790157.000000,1673607311.605681
1673607823.656507,,,,42.597557,42.614166,1790158.000000,1673607311.606688
1673607823.657071,,,,42.586617,42.602192,1790159.000000,1673607311.607696
1673607823.657266,,,,42.583084,42.599983,1790160.000000,1673607311.608703
1673607823.657504,,,,42.579624,42.596855,1790161.000000,1673607311.609710
1673607823.657744,,,,42.585560,42.601784,1790162.000000,1673607311.610717
1673607823.665210,,,,42.596741,42.612556,1790163.000000,1673607311.611724
1673607823.665537,,,,42.609627,42.626186,1790164.000000,1673607311.612731
1673607823.665781,,,,42.630733,42.647053,1790165.000000,1673607311.613738
1673607823.665981,,,,42.644989,42.662247,1790166.000000,1673607311.614745
1673607823.666008,,,,42.637608,42.655514,1790167.000000,1673607311.615752
1673607823.666016,,,,42.620876,42.637821,1790168.000000,1673607311.616759
1673607823.666308,,,,42.603542,42.617699,1790169.000000,1673607311.617766
1673607823.666539,,,,42.581593,42.596184,1790170.000000,1673607311.618773
1673607823.666647,,,,42.575848,42.588203,1790171.000000,1673607311.619781
1673607823.666937,,,,42.564621,42.578732,1790172.000000,1673607311.620788
1673607823.669564,,,,42.545006,42.562767,1790173.000000,1673607311.621795
1673607823.669926,,,,42.534233,42.551926,1790174.000000,1673607311.622802
1673607823.669945,,,,42.549404,42.565605,1790175.000000,1673607311.623809
1673607823.669957,,,,42.597099,42.612843,1790176.000000,1673607311.624816
1673607823.672346,,,,42.609142,42.624744,1790177.000000,1673607311.625823
1673607823.672711,,,,42.588684,42.605125,1790178.000000,1673607311.626830
1673607823.672867,,,,42.549210,42.567047,1790179.000000,1673607311.627837
1673607823.673232,,,,42.483173,42.501537,1790180.000000,1673607311.628844
1673607823.673433,,,,42.447830,42.463886,1790181.000000,1673607311.629851
1673607823.673785,,,,42.464828,42.482208,1790182.000000,1673607311.630858
1673607823.674024,,,,42.506107,42.523991,1790183.000000,1673607311.631866
1673607823.677018,,,,42.525818,42.541706,1790184.000000,1673607311.632873
1673607823.677456,,,,42.534138,42.548054,1790185.000000,1673607311.633880
1673607823.677487,,,,42.558949,42.574089,1790186.000000,1673607311.634887
1673607823.677493,,,,42.602581,42.617290,1790187.000000,1673607311.635894
1673607823.694383,,,,42.636909,42.652798,1790188.000000,1673607311.636901
1673607823.694587,,,,42.677372,42.694748,1790189.000000,1673607311.637908
1673607823.694986,,,,42.715405,42.731892,1790190.000000,1673607311.638915
1673607823.695215,,,,42.738964,42.753601,1790191.000000,1673607311.639922
1673607823.695379,,,,42.717133,42.731243,1790192.000000,1673607311.640929
1673607823.695389,,,,42.686939,42.702877,1790193.000000,1673607311.641936
1673607823.695392,,,,42.672661,42.688282,1790194.000000,1673607311.642943
1673607823.695425,,,,42.648762,42.666477,1790195.000000,1673607311.643950
1673607823.695451,,,,42.621407,42.636497,1790196.000000,1673607311.644958
1673607823.695764,,,,42.605515,42.622822,1790197.000000,1673607311.645965
1673607823.695771,,,,42.604263,42.622410,1790198.000000,1673607311.646972
1673607823.695945,,,,42.618088,42.635033,1790199.000000,1673607311.647979
1673607823.696110,,,,42.631165,42.646549,1790200.000000,1673607311.648986
1673607823.696212,,,,42.633713,42.647751,1790201.000000,1673607311.649993
1673607823.696342,,,,42.629433,42.643471,1790202.000000,1673607311.651000
1673607823.696479,,,,42.635323,42.651886,1790203.000000,1673607311.652007
1673607823.696491,,,,42.656960,42.672943,1790204.000000,1673607311.653014
1673607823.696635,,,,42.663090,42.679173,1790205.000000,1673607311.654021
1673607823.696752,,,,42.654099,42.672535,1790206.000000,1673607311.655028
1673607823.696877,,,,42.644051,42.661140,1790207.000000,1673607311.656035
1673607823.697107,,,,42.632919,42.650467,1790208.000000,1673607311.657043
1673607823.697310,,,,42.620514,42.637100,1790209.000000,1673607311.658050
1673607823.697695,,,,42.615517,42.631260,1790210.000000,1673607311.659057
1673607823.697949,,,,42.598541,42.617435,1790211.000000,1673607311.660064
1673607823.698051,,,,42.587749,42.605198,1790212.000000,1673607311.661071
1673607823.698063,,,,42.572601,42.587070,1790213.000000,1673607311.662078
1673607823.698704,,,,42.558033,42.573368,1790214.000000,1673607311.663085
1673607823.698846,,,,42.540077,42.558201,1790215.000000,1673607311.664092
1673607823.703223,26.335199,1859525.000000,1673607823.642562,,,,
1673607823.703566,26.443733,1859526.000000,1673607823.643562,,,,
1673607823.703598,26.552277,1859527.000000,1673607823.644562,,,,
1673607823.703947,30.622553,1859573.000000,1673607823.690562,,,,
1673607823.703955,30.640642,1859574.000000,1673607823.691562,,,,
1673607823.704128,30.803459,1859575.000000,1673607823.692562,,,,
1673607823.704134,30.911995,1859576.000000,1673607823.693562,,,,
1673607823.704137,31.038626,1859577.000000,1673607823.694562,,,,
1673607823.704148,31.110991,1859578.000000,1673607823.695562,,,,
1673607823.704165,31.273800,1859579.000000,1673607823.696562,,,,
1673607823.704170,31.436609,1859580.000000,1673607823.697562,,,,
1673607823.704173,31.508974,1859581.000000,1673607823.698562,,,,
1673607823.704177,31.635607,1859582.000000,1673607823.699562,,,,
1673607823.704198,31.744141,1859583.000000,1673607823.700562,,,,
1673607823.704213,31.870771,1859584.000000,1673607823.701562,,,,
1673607823.704217,32.015491,1859585.000000,1673607823.702562,,,,
1673607823.707631,,,,42.533222,42.548702,1790216.000000,1673607311.665099
1673607823.707756,,,,42.544258,42.558727,1790217.000000,1673607311.666106
1673607823.707831,,,,42.570053,42.586735,1790218.000000,1673607311.667113
1673607823.707841,,,,42.593880,42.611378,1790219.000000,1673607311.668120
1673607823.707959,,,,42.615273,42.633015,1790220.000000,1673607311.669127
1673607823.708113,,,,42.632801,42.648350,1790221.000000,1673607311.670135
1673607823.708257,,,,42.628231,42.645393,1790222.000000,1673607311.671142
1673607823.708387,,,,42.574333,42.590340,1790223.000000,1673607311.672149
1673607823.709812,,,,42.556808,42.570244,1790224.000000,1673607311.673156
1673607823.709825,,,,42.559189,42.574257,1790225.000000,1673607311.674163
1673607823.709903,,,,42.568012,42.584019,1790226.000000,1673607311.675170
1673607823.710184,,,,42.572147,42.591232,1790227.000000,1673607311.676177
1673607823.710194,,,,42.595875,42.614212,1790228.000000,1673607311.677184
1673607823.710198,,,,42.630348,42.647629,1790229.000000,1673607311.678191
1673607823.710306,,,,42.649750,42.666046,1790230.000000,1673607311.679198
1673607823.715153,,,,42.658066,42.674004,1790231.000000,1673607311.680205
1673607823.715166,,,,42.649147,42.665108,1790232.000000,1673607311.681212
1673607823.715177,,,,42.623810,42.642052,1790233.000000,1673607311.682220
1673607823.715183,,,,42.609818,42.625946,1790234.000000,1673607311.683227
1673607823.715196,,,,42.611042,42.625393,1790235.000000,1673607311.684234
1673607823.715250,,,,42.617485,42.632652,1790236.000000,1673607311.685241
1673607823.715257,,,,42.616886,42.633808,1790237.000000,1673607311.686248
1673607823.717372,,,,42.614170,42.630680,1790238.000000,1673607311.687255
1673607823.717585,,,,42.611309,42.627869,1790239.000000,1673607311.688262
1673607823.717842,,,,42.599503,42.619743,1790240.000000,1673607311.689269
1673607823.718311,,,,42.581642,42.597675,1790241.000000,1673607311.690276
1673607823.718366,,,,42.573059,42.589718,1790242.000000,1673607311.691283
1673607823.718705,,,,42.565510,42.582794,1790243.000000,1673607311.692290
1673607823.718930,,,,42.563732,42.582455,1790244.000000,1673607311.693297
1673607823.722667,,,,42.571159,42.590820,1790245.000000,1673607311.694304
1673607823.723222,,,,42.580345,42.594788,1790246.000000,1673607311.695312
1673607823.723925,,,,42.572338,42.588757,1790247.000000,1673607311.696319
1673607823.724212,,,,42.552338,42.569931,1790248.000000,1673607311.697326
1673607823.724238,,,,42.563251,42.578033,1790249.000000,1673607311.698333
1673607823.724271,,,,42.580898,42.594234,1790250.000000,1673607311.699340
1673607823.724605,,,,42.570248,42.586567,1790251.000000,1673607311.700347
1673607823.725174,,,,42.524643,42.541058,1790252.000000,1673607311.701354
1673607823.725194,,,,42.505962,42.521828,1790253.000000,1673607311.702361
1673607823.726065,,,,42.480213,42.495575,1790254.000000,1673607311.703368
1673607823.726087,,,,42.468002,42.483673,1790255.000000,1673607311.704375
1673607823.726098,,,,42.498295,42.513771,1790256.000000,1673607311.705382
1673607823.726111,,,,42.520893,42.537476,1790257.000000,1673607311.706389
1673607823.726122,,,,42.513943,42.529831,1790258.000000,1673607311.707397
1673607823.730514,,,,42.521397,42.537693,1790259.000000,1673607311.708404
1673607823.731354,,,,42.540268,42.557526,1790260.000000,1673607311.709411
1673607823.731370,,,,42.590488,42.607506,1790261.000000,1673607311.710418
1673607823.731398,,,,42.636356,42.654842,1790262.000000,1673607311.711425
1673607823.731406,,,,42.665134,42.683018,1790263.000000,1673607311.712432
1673607823.731497,,,,42.689247,42.705399,1790264.000000,1673607311.713439
1673607823.731509,,,,42.690186,42.706699,1790265.000000,1673607311.714446
1673607823.731522,,,,42.660976,42.675396,1790266.000000,1673607311.715453
1673607823.731534,,,,42.621525,42.637291,1790267.000000,1673607311.716460
1673607823.731549,,,,42.581787,42.598419,1790268.000000,1673607311.717467
1673607823.732728,,,,42.546711,42.562096,1790269.000000,1673607311.718474
1673607823.732737,,,,42.471729,42.487232,1790270.000000,1673607311.719481
1673607823.732745,,,,42.396843,42.412994,1790271.000000,1673607311.720489
1673607823.732885,,,,42.318420,42.333755,1790272.000000,1673607311.721496
1673607823.732908,,,,42.316235,42.333755,1790273.000000,1673607311.722503
1673607823.733416,,,,42.372585,42.386551,1790274.000000,1673607311.723510
1673607823.733432,,,,42.448410,42.462349,1790275.000000,1673607311.724517
1673607823.733443,,,,42.520844,42.537716,1790276.000000,1673607311.725524
1673607823.733459,,,,42.614288,42.627964,1790277.000000,1673607311.726531
1673607823.733465,,,,42.667465,42.680901,1790278.000000,1673607311.727538
1673607823.733616,,,,42.687851,42.706001,1790279.000000,1673607311.728545
1673607823.737131,,,,42.701267,42.720955,1790280.000000,1673607311.729552
1673607823.737343,,,,42.712181,42.728600,1790281.000000,1673607311.730559
1673607823.737360,,,,42.706604,42.724922,1790282.000000,1673607311.731566
1673607823.737368,,,,42.703457,42.718693,1790283.000000,1673607311.732574
1673607823.739556,,,,42.702183,42.717659,1790284.000000,1673607311.733581
1673607823.739753,,,,42.699657,42.715065,1790285.000000,1673607311.734588
1673607823.740037,,,,42.677830,42.695087,1790286.000000,1673607311.735595
1673607823.753855,,,,42.687035,42.703259,1790287.000000,1673607311.736602
1673607823.753875,,,,42.692276,42.707661,1790288.000000,1673607311.737609
1673607823.754220,,,,42.675903,42.692513,1790289.000000,1673607311.738616
1673607823.754528,,,,42.674438,42.691456,1790290.000000,1673607311.739623
1673607823.754623,,,,42.676311,42.690853,1790291.000000,1673607311.740630
1673607823.754813,,,,42.670181,42.685493,1790292.000000,1673607311.741637
1673607823.754828,,,,42.652729,42.667706,1790293.000000,1673607311.742644
1673607823.754868,,,,42.635948,42.652439,1790294.000000,1673607311.743651
1673607823.761257,,,,42.609432,42.625153,1790295.000000,1673607311.744658
1673607823.761266,,,,42.597652,42.614285,1790296.000000,1673607311.745666
1673607823.761568,,,,42.605682,42.621929,1790297.000000,1673607311.746673
1673607823.761580,,,,42.622269,42.637653,1790298.000000,1673607311.747680
1673607823.761598,,,,42.630707,42.649120,1790299.000000,1673607311.748687
1673607823.761601,,,,42.614819,42.634121,1790300.000000,1673607311.749694
1673607823.766675,33.788326,1859599.000000,1673607823.718901,,,,
1673607823.767184,33.933048,1859600.000000,1673607823.719901,,,,
1673607823.767198,,,,42.610874,42.626450,1790301.000000,1673607311.750701
1673607823.767288,34.041592,1859601.000000,1673607823.720901,,,,
1673607823.767407,34.150135,1859602.000000,1673607823.721901,,,,
1673607823.767547,34.258667,1859603.000000,1673607823.722901,,,,
1673607823.767878,,,,42.620178,42.633759,1790302.000000,1673607311.751708
1673607823.767936,,,,42.629459,42.643303,1790303.000000,1673607311.752715
1673607823.767944,34.403389,1859604.000000,1673607823.723901,,,,
1673607823.768028,,,,42.620491,42.637604,1790304.000000,1673607311.753722
1673607823.768038,,,,42.616116,42.630272,1790305.000000,1673607311.754729
1673607823.768127,34.530022,1859605.000000,1673607823.724901,,,,
1673607823.768144,34.692829,1859606.000000,1673607823.725901,,,,
1673607823.768157,34.765194,1859607.000000,1673607823.726901,,,,
1673607823.768166,34.964184,1859608.000000,1673607823.727901,,,,
1673607823.768519,37.894783,1859637.000000,1673607823.756901,,,,
1673607823.768534,37.949059,1859638.000000,1673607823.757901,,,,
1673607823.768541,37.985237,1859639.000000,1673607823.758901,,,,
1673607823.768553,38.129955,1859640.000000,1673607823.759901,,,,
1673607823.768560,38.238499,1859641.000000,1673607823.760900,,,,
1673607823.768568,38.310856,1859642.000000,1673607823.761901,,,,
1673607823.768588,38.347042,1859643.000000,1673607823.762901,,,,
1673607823.768598,38.491764,1859644.000000,1673607823.763901,,,,
1673607823.768605,38.527939,1859645.000000,1673607823.764901,,,,
1673607823.768611,38.636482,1859646.000000,1673607823.765901,,,,
1673607823.769388,,,,42.616837,42.630753,1790306.000000,1673607311.755736
1673607823.769555,,,,42.621861,42.635681,1790307.000000,1673607311.756743
1673607823.777841,,,,42.621021,42.637341,1790308.000000,1673607311.757751
1673607823.778045,,,,42.628040,42.643040,1790309.000000,1673607311.758758
1673607823.778069,,,,42.627007,42.641693,1790310.000000,1673607311.759765
1673607823.778329,,,,42.607101,42.623829,1790311.000000,1673607311.760772
1673607823.778838,,,,42.585945,42.600029,1790312.000000,1673607311.761779
1673607823.779129,,,,42.574982,42.589115,1790313.000000,1673607311.762786
1673607823.779367,,,,42.565464,42.582264,1790314.000000,1673607311.763793
1673607823.779938,,,,42.571522,42.588371,1790315.000000,1673607311.764800
1673607823.780036,,,,42.589287,42.606064,1790316.000000,1673607311.765807
1673607823.780273,,,,42.589237,42.604309,1790317.000000,1673607311.766814
1673607823.780366,,,,42.561062,42.577625,1790318.000000,1673607311.767821
1673607823.780640,,,,42.533848,42.550625,1790319.000000,1673607311.768828
1673607823.782033,,,,42.551685,42.568680,1790321.000000,1673607311.770843
1673607823.782058,,,,42.558323,42.573608,1790322.000000,1673607311.771850
1673607823.782366,,,,42.592628,42.610077,1790323.000000,1673607311.772857
1673607823.782738,,,,42.626572,42.643353,1790324.000000,1673607311.773864
1673607823.782855,,,,42.649700,42.666862,1790325.000000,1673607311.774871
1673607823.782986,,,,42.668404,42.688427,1790326.000000,1673607311.775878
1673607823.783083,,,,42.644676,42.662029,1790327.000000,1673607311.776885
1673607823.783097,,,,42.614601,42.627125,1790328.000000,1673607311.777892
1673607823.783136,,,,42.613209,42.627316,1790329.000000,1673607311.778899
1673607823.783476,,,,42.606426,42.621738,1790330.000000,1673607311.779906
1673607823.783819,,,,42.589577,42.606976,1790331.000000,1673607311.780913
1673607823.783964,,,,42.581978,42.598419,1790332.000000,1673607311.781920
1673607823.784046,,,,42.588829,42.604259,1790333.000000,1673607311.782928
1673607823.784389,,,,42.608593,42.623829,1790334.000000,1673607311.783935
1673607823.784403,,,,42.587749,42.604309,1790335.000000,1673607311.784942
1673607823.784418,,,,42.535339,42.549618,1790336.000000,1673607311.785949
1673607823.784476,,,,42.510674,42.524902,1790337.000000,1673607311.786956
1673607823.785032,,,,42.496681,42.512329,1790338.000000,1673607311.787963
1673607823.785244,,,,42.493439,42.507954,1790339.000000,1673607311.788970
1673607823.785253,,,,42.486538,42.503338,1790340.000000,1673607311.789977
1673607823.785309,,,,42.474758,42.491653,1790341.000000,1673607311.790984
1673607823.785502,,,,42.453697,42.470356,1790342.000000,1673607311.791991
1673607823.785593,,,,42.480766,42.495716,1790343.000000,1673607311.792998
1673607823.785678,,,,42.557335,42.573105,1790344.000000,1673607311.794005
1673607823.792522,,,,42.644894,42.658089,1790345.000000,1673607311.795012
1673607823.792650,,,,42.700668,42.714535,1790346.000000,1673607311.796020
1673607823.792949,,,,42.731247,42.748241,1790347.000000,1673607311.797027
1673607823.792959,,,,42.709755,42.729053,1790348.000000,1673607311.798034
1673607823.793024,,,,42.699680,42.720184,1790349.000000,1673607311.799041
1673607823.793067,,,,42.751896,42.767639,1790350.000000,1673607311.800048
1673607823.793073,,,,42.752186,42.765404,1790351.000000,1673607311.801055
1673607823.797051,,,,42.681480,42.695061,1790352.000000,1673607311.802062
1673607823.797267,,,,42.636791,42.652966,1790353.000000,1673607311.803069
1673607823.797313,,,,42.607845,42.625080,1790354.000000,1673607311.804076
1673607823.797401,,,,42.566399,42.582695,1790355.000000,1673607311.805083
1673607823.799686,,,,42.523270,42.540001,1790356.000000,1673607311.806090
1673607823.800205,,,,42.508366,42.524975,1790357.000000,1673607311.807097
1673607823.800220,,,,42.512478,42.529423,1790358.000000,1673607311.808105
1673607823.800283,,,,42.557697,42.575077,1790359.000000,1673607311.809112
1673607823.800457,,,,42.620781,42.637749,1790360.000000,1673607311.810119
1673607823.800515,,,,42.608448,42.624336,1790361.000000,1673607311.811126
1673607823.813599,,,,42.555340,42.570221,1790362.000000,1673607311.812133
1673607823.813614,,,,42.550797,42.566494,1790363.000000,1673607311.813140
1673607823.813626,,,,42.564526,42.581207,1790364.000000,1673607311.814147
1673607823.820248,38.745018,1859647.000000,1673607823.759815,,,,
1673607823.820465,38.708839,1859648.000000,1673607823.760815,,,,
1673607823.820475,38.871651,1859649.000000,1673607823.761815,,,,
1673607823.821241,38.907837,1859650.000000,1673607823.762815,,,,
1673607823.821251,43.647449,1859698.000000,1673607823.810815,,,,
1673607823.821259,43.792171,1859699.000000,1673607823.811815,,,,
1673607823.821276,43.900703,1859700.000000,1673607823.812815,,,,
1673607823.821282,44.045425,1859701.000000,1673607823.813815,,,,
1673607823.821291,44.172058,1859702.000000,1673607823.814815,,,,
1673607823.821308,44.226330,1859703.000000,1673607823.815815,,,,
1673607823.821313,44.389141,1859704.000000,1673607823.816815,,,,
1673607823.821318,44.461498,1859705.000000,1673607823.817815,,,,
1673607823.821326,44.588131,1859706.000000,1673607823.818815,,,,
1673607823.821350,44.696671,1859707.000000,1673607823.819815,,,,
1673607823.850063,,,,42.575535,42.591446,1790365.000000,1673607311.815154
1673607823.850235,,,,42.576809,42.592987,1790366.000000,1673607311.816161
1673607823.850299,,,,42.576809,42.592167,1790367.000000,1673607311.817168
1673607823.850525,,,,42.577122,42.592865,1790368.000000,1673607311.818175
1673607823.850646,,,,42.602341,42.618710,1790369.000000,1673607311.819182
1673607823.850746,,,,42.642967,42.657681,1790370.000000,1673607311.820189
1673607823.850888,,,,42.645901,42.660851,1790371.000000,1673607311.821197
1673607823.850895,,,,42.611862,42.627747,1790372.000000,1673607311.822204
1673607823.853822,,,,42.591618,42.609623,1790373.000000,1673607311.823211
1673607823.854056,,,,42.606308,42.625465,1790374.000000,1673607311.824218
1673607823.854167,,,,42.607845,42.626472,1790375.000000,1673607311.825225
1673607823.854192,,,,42.625011,42.641666,1790376.000000,1673607311.826232
1673607823.856918,,,,42.643280,42.661453,1790377.000000,1673607311.827239
1673607823.857013,,,,42.619987,42.636044,1790378.000000,1673607311.828246
1673607823.857105,,,,42.603710,42.617699,1790379.000000,1673607311.829253
1673607823.861473,,,,42.612679,42.626835,1790380.000000,1673607311.830260
1673607823.861743,,,,42.618927,42.634697,1790381.000000,1673607311.831267
1673607823.861877,,,,42.637970,42.651646,1790382.000000,1673607311.832274
1673607823.884631,48.043346,1859742.000000,1673607823.857280,,,,
1673607823.884647,48.151890,1859743.000000,1673607823.858280,,,,
1673607823.884798,48.151890,1859744.000000,1673607823.859280,,,,
1673607823.884811,48.278519,1859745.000000,1673607823.860280,,,,
1673607823.884831,48.278519,1859746.000000,1673607823.861280,,,,
1673607823.884840,48.350876,1859747.000000,1673607823.862280,,,,
1673607823.885226,48.441330,1859748.000000,1673607823.863280,,,,
1673607823.885238,48.531776,1859749.000000,1673607823.864280,,,,
1673607823.885273,48.640316,1859750.000000,1673607823.865280,,,,
1673607823.885286,48.694592,1859751.000000,1673607823.866280,,,,
1673607823.885334,49.291565,1859759.000000,1673607823.874280,,,,
1673607823.885339,49.345833,1859760.000000,1673607823.875280,,,,
1673607823.885373,49.436287,1859761.000000,1673607823.876280,,,,
1673607823.885380,49.526737,1859762.000000,1673607823.877280,,,,
1673607823.885401,49.544827,1859763.000000,1673607823.878280,,,,
1673607823.885405,49.635273,1859764.000000,1673607823.879280,,,,
1673607823.885426,49.725727,1859765.000000,1673607823.880280,,,,
1673607823.885432,49.779995,1859766.000000,1673607823.881280,,,,
1673607823.885435,49.888535,1859767.000000,1673607823.882280,,,,
1673607823.885463,49.960899,1859768.000000,1673607823.883280,,,,
1673607823.890073,,,,42.665737,42.677631,1790383.000000,1673607311.833282
1673607823.890262,,,,42.680714,42.695831,1790384.000000,1673607311.834289
1673607823.890369,,,,42.700836,42.717541,1790385.000000,1673607311.835296
1673607823.890385,,,,42.728119,42.744465,1790386.000000,1673607311.836303
1673607823.890595,,,,42.734203,42.749611,1790387.000000,1673607311.837310
1673607823.890766,,,,42.706196,42.721771,1790388.000000,1673607311.838317
1673607823.891002,,,,42.692299,42.708740,1790389.000000,1673607311.839324
1673607823.894750,,,,42.688141,42.703621,1790390.000000,1673607311.840331
1673607823.895206,,,,42.635395,42.654530,1790391.000000,1673607311.841338
1673607823.895316,,,,42.552216,42.569427,1790392.000000,1673607311.842345
1673607823.895413,,,,42.490505,42.506008,1790393.000000,1673607311.843352
1673607823.896920,,,,42.481152,42.496944,1790394.000000,1673607311.844359
1673607823.897281,,,,42.506420,42.524231,1790395.000000,1673607311.845366
1673607823.897501,,,,42.543442,42.560242,1790396.000000,1673607311.846374
1673607823.904838,,,,42.597725,42.614166,1790397.000000,1673607311.847381
1673607823.905538,,,,42.656746,42.670300,1790398.000000,1673607311.848388
1673607823.905812,,,,42.689487,42.704678,1790399.000000,1673607311.849395
1673607823.905840,,,,42.708672,42.724152,1790400.000000,1673607311.850402
1673607823.905850,,,,42.738121,42.753601,1790401.000000,1673607311.851409
1673607823.909777,,,,42.760120,42.778938,1790402.000000,1673607311.852416
1673607823.910124,,,,42.770214,42.790287,1790403.000000,1673607311.853423
1673607823.910405,,,,42.747856,42.763699,1790404.000000,1673607311.854430
1673607823.912638,,,,42.704105,42.718983,1790405.000000,1673607311.855437
1673607823.912759,,,,42.666962,42.684147,1790406.000000,1673607311.856444
1673607823.912772,,,,42.655254,42.670300,1790407.000000,1673607311.857451
1673607823.913126,,,,42.660229,42.677319,1790408.000000,1673607311.858459
1673607823.913420,,,,42.651550,42.666981,1790409.000000,1673607311.859466
1673607823.913427,,,,42.636143,42.651428,1790410.000000,1673607311.860473
1673607823.913443,,,,42.644413,42.658375,1790411.000000,1673607311.861480
1673607823.917014,,,,42.664005,42.680759,1790412.000000,1673607311.862487
1673607823.917176,,,,42.665325,42.681934,1790413.000000,1673607311.863494
1673607823.917251,,,,42.654701,42.670708,1790414.000000,1673607311.864501
1673607823.919477,,,,42.619793,42.636883,1790415.000000,1673607311.865508
1673607823.919568,,,,42.578011,42.593372,1790416.000000,1673607311.866515
1673607823.919743,,,,42.579933,42.594139,1790417.000000,1673607311.867522
1673607823.919756,,,,42.590248,42.608562,1790418.000000,1673607311.868529
1673607823.947407,,,,42.601379,42.618107,1790419.000000,1673607311.869536
1673607823.948016,,,,42.591499,42.606689,1790420.000000,1673607311.870543
1673607823.948163,,,,42.580223,42.594715,1790421.000000,1673607311.871551
1673607823.948178,,,,42.591427,42.607243,1790422.000000,1673607311.872558
1673607823.949523,51.209122,1859782.000000,1673607823.900847,,,,
1673607823.949619,51.317654,1859783.000000,1673607823.901847,,,,
1673607823.949890,,,,42.581474,42.598850,1790423.000000,1673607311.873565
1673607823.949903,,,,42.575222,42.591831,1790424.000000,1673607311.874572
1673607823.950242,,,,42.606213,42.623230,1790425.000000,1673607311.875579
1673607823.950297,51.426197,1859784.000000,1673607823.902847,,,,
1673607823.950328,51.570919,1859785.000000,1673607823.903847,,,,
1673607823.950338,51.570919,1859786.000000,1673607823.904847,,,,
1673607823.950471,51.715637,1859787.000000,1673607823.905847,,,,
1673607823.950624,,,,42.652969,42.669025,1790426.000000,1673607311.876586
1673607823.951692,51.751816,1859788.000000,1673607823.906847,,,,
1673607823.951726,51.842270,1859789.000000,1673607823.907847,,,,
1673607823.951740,51.914635,1859790.000000,1673607823.908847,,,,
1673607823.951751,51.986992,1859791.000000,1673607823.909847,,,,
1673607823.952001,54.266342,1859820.000000,1673607823.938847,,,,
1673607823.952016,54.320618,1859821.000000,1673607823.939847,,,,
1673607823.952042,54.374886,1859822.000000,1673607823.940847,,,,
1673607823.952062,54.447250,1859823.000000,1673607823.941847,,,,
1673607823.952073,54.483429,1859824.000000,1673607823.942847,,,,
1673607823.952082,54.519608,1859825.000000,1673607823.943847,,,,
1673607823.952088,54.573883,1859826.000000,1673607823.944847,,,,
1673607823.952111,54.628151,1859827.000000,1673607823.945847,,,,
1673607823.952120,54.700516,1859828.000000,1673607823.946847,,,,
1673607823.952137,54.754780,1859829.000000,1673607823.947847,,,,
1673607823.954777,,,,42.673935,42.689991,1790427.000000,1673607311.877593
1673607823.954986,,,,42.667587,42.681358,1790428.000000,1673607311.878600
1673607823.954995,,,,42.659557,42.675663,1790429.000000,1673607311.879607
1673607823.957549,,,,42.640278,42.656284,1790430.000000,1673607311.880614
1673607823.957716,,,,42.618568,42.633781,1790431.000000,1673607311.881621
1673607823.957726,,,,42.605106,42.621136,1790432.000000,1673607311.882628
1673607823.958208,,,,42.610008,42.626259,1790433.000000,1673607311.883636
1673607823.958223,,,,42.598541,42.614212,1790434.000000,1673607311.884643
1673607823.958352,,,,42.542240,42.556709,1790435.000000,1673607311.885650
1673607823.958361,,,,42.494999,42.511921,1790436.000000,1673607311.886657
1673607823.958628,,,,42.480576,42.497665,1790437.000000,1673607311.887664
1673607823.958700,,,,42.491272,42.508099,1790438.000000,1673607311.888671
1673607823.958752,,,,42.497356,42.513100,1790439.000000,1673607311.889678
1673607823.963119,,,,42.515724,42.530334,1790440.000000,1673607311.890685
1673607823.963432,,,,42.557289,42.572552,1790441.000000,1673607311.891692
1673607823.963614,,,,42.560917,42.578995,1790442.000000,1673607311.892699
1673607823.965031,,,,42.596741,42.613831,1790444.000000,1673607311.894713
1673607823.965053,,,,42.687710,42.703766,1790445.000000,1673607311.895720
1673607823.965205,,,,42.723625,42.738670,1790446.000000,1673607311.896728
1673607823.965219,,,,42.719513,42.735497,1790447.000000,1673607311.897735
1673607823.965257,,,,42.675255,42.690254,1790448.000000,1673607311.898742
1673607823.965267,,,,42.606644,42.623085,1790449.000000,1673607311.899749
1673607823.965466,,,,42.588612,42.602291,1790450.000000,1673607311.900756
1673607823.965476,,,,42.572628,42.586712,1790451.000000,1673607311.901763
1673607823.965479,,,,42.546661,42.562214,1790452.000000,1673607311.902770
1673607823.965522,,,,42.624264,42.641621,1790453.000000,1673607311.903777
1673607823.965535,,,,42.665737,42.682655,1790454.000000,1673607311.904784
1673607823.966414,,,,42.670376,42.687225,1790455.000000,1673607311.905791
1673607823.966485,,,,42.667393,42.685661,1790456.000000,1673607311.906798
1673607823.966604,,,,42.698261,42.713692,1790457.000000,1673607311.907805
1673607823.966962,,,,42.725307,42.740765,1790458.000000,1673607311.908813
1673607823.967090,,,,42.730671,42.748455,1790459.000000,1673607311.909820
1673607823.967190,,,,42.719490,42.735043,1790460.000000,1673607311.910827
1673607823.967314,,,,42.701675,42.717178,1790461.000000,1673607311.911834
1673607823.967325,,,,42.698959,42.716385,1790462.000000,1673607311.912841
1673607823.967330,,,,42.745575,42.763218,1790463.000000,1673607311.913848
1673607823.967335,,,,42.774494,42.790768,1790464.000000,1673607311.914855
1673607823.967338,,,,42.733795,42.749851,1790465.000000,1673607311.915862
1673607823.967355,,,,42.662010,42.679459,1790466.000000,1673607311.916869
1673607823.967386,,,,42.567532,42.582794,1790467.000000,1673607311.917876
1673607823.967625,,,,42.515434,42.530529,1790468.000000,1673607311.918883
1673607823.967798,,,,42.527935,42.541325,1790469.000000,1673607311.919890
1673607823.967926,,,,42.560631,42.573994,1790470.000000,1673607311.920897
1673607823.968242,,,,42.596401,42.611736,1790471.000000,1673607311.921905
1673607823.968313,,,,42.638954,42.652679,1790472.000000,1673607311.922912
1673607823.968407,,,,42.664703,42.679245,1790473.000000,1673607311.923919
1673607823.968416,,,,42.707520,42.723404,1790474.000000,1673607311.924926
1673607823.968453,,,,42.754398,42.772594,1790475.000000,1673607311.925933
1673607823.968526,,,,42.762642,42.780621,1790476.000000,1673607311.926940
1673607823.968530,,,,42.733242,42.749634,1790477.000000,1673607311.927947
1673607823.968535,,,,42.711052,42.725571,1790478.000000,1673607311.928954
1673607823.969776,,,,42.709873,42.725113,1790479.000000,1673607311.929961
1673607823.970165,,,,42.696892,42.713524,1790480.000000,1673607311.930968
1673607823.970233,,,,42.687565,42.704533,1790481.000000,1673607311.931975
1673607823.970240,,,,42.665688,42.682945,1790482.000000,1673607311.932982
1673607823.970246,,,,42.635590,42.652367,1790483.000000,1673607311.933990
1673607823.970251,,,,42.597603,42.612579,1790484.000000,1673607311.934997
1673607823.970315,,,,42.570679,42.587288,1790485.000000,1673607311.936004
1673607823.970318,,,,42.520409,42.538631,1790486.000000,1673607311.937011
1673607823.973157,,,,42.524689,42.543343,1790487.000000,1673607311.938018
1673607823.973490,,,,42.559402,42.577553,1790488.000000,1673607311.939025
1673607823.973495,,,,42.623497,42.636978,1790489.000000,1673607311.940032
1673607823.973554,,,,42.687397,42.699776,1790490.000000,1673607311.941039
1673607823.973696,,,,42.699345,42.716915,1790491.000000,1673607311.942046
1673607823.973791,,,,42.684921,42.704006,1790492.000000,1673607311.943053
1673607823.973853,,,,42.665257,42.679798,1790493.000000,1673607311.944060
1673607823.973860,,,,42.641407,42.656647,1790494.000000,1673607311.945067
1673607823.973870,,,,42.641117,42.657005,1790495.000000,1673607311.946074
1673607823.974138,,,,42.630276,42.643181,1790496.000000,1673607311.947082
1673607823.974248,,,,42.621502,42.637966,1790497.000000,1673607311.948089
1673607823.974256,,,,42.600849,42.618374,1790498.000000,1673607311.949096
1673607823.974350,,,,42.591835,42.607288,1790499.000000,1673607311.950103
1673607823.974355,,,,42.581234,42.595631,1790500.000000,1673607311.951110
1673607823.974420,,,,42.581955,42.600872,1790501.000000,1673607311.952117
1673607823.974427,,,,42.629795,42.649120,1790502.000000,1673607311.953124
1673607823.974464,,,,42.664604,42.682850,1790503.000000,1673607311.954131
1673607823.974515,,,,42.635395,42.651165,1790504.000000,1673607311.955138
1673607823.977660,,,,42.586929,42.603107,1790505.000000,1673607311.956145
1673607823.977898,,,,42.554451,42.572216,1790506.000000,1673607311.957152
1673607823.977997,,,,42.522575,42.539471,1790507.000000,1673607311.958159
1673607823.978006,,,,42.507740,42.523029,1790508.000000,1673607311.959167
1673607823.978071,,,,42.516106,42.530792,1790509.000000,1673607311.960174
1673607823.978124,,,,42.529305,42.545555,1790510.000000,1673607311.961181
1673607823.979994,,,,42.547554,42.563488,1790511.000000,1673607311.962188
1673607823.980463,,,,42.568153,42.585316,1790512.000000,1673607311.963195
1673607823.980473,,,,42.597099,42.612579,1790513.000000,1673607311.964202
1673607823.980582,,,,42.640614,42.655613,1790514.000000,1673607311.965209
1673607823.980595,,,,42.692806,42.709343,1790515.000000,1673607311.966216
1673607823.980603,,,,42.726990,42.743671,1790516.000000,1673607311.967223
1673607823.980611,,,,42.722713,42.736771,1790517.000000,1673607311.968230
1673607823.980614,,,,42.738266,42.752926,1790518.000000,1673607311.969237
1673607823.980619,,,,42.744759,42.759827,1790519.000000,1673607311.970244
1673607823.980630,,,,42.719250,42.735428,1790520.000000,1673607311.971251
1673607823.980644,,,,42.707928,42.725281,1790521.000000,1673607311.972259
1673607823.988311,,,,42.686890,42.706650,1790522.000000,1673607311.973266
1673607823.988337,,,,42.660591,42.676212,1790523.000000,1673607311.974273
1673607823.988349,,,,42.633713,42.650612,1790524.000000,1673607311.975280
1673607823.988601,,,,42.589600,42.606880,1790525.000000,1673607311.976287
1673607823.988615,,,,42.541637,42.556202,1790526.000000,1673607311.977294
1673607823.988636,,,,42.494713,42.509975,1790527.000000,1673607311.978301
1673607823.988644,,,,42.478798,42.495167,1790528.000000,1673607311.979308
1673607824.001281,,,,42.478100,42.497330,1790529.000000,1673607311.980315
1673607824.002527,,,,42.496681,42.516441,1790530.000000,1673607311.981322
1673607824.002556,,,,42.487476,42.504902,1790531.000000,1673607311.982329
1673607824.002567,,,,42.513390,42.529255,1790532.000000,1673607311.983336
1673607824.002581,,,,42.565945,42.582890,1790533.000000,1673607311.984344
1673607824.003552,,,,42.585201,42.603107,1790534.000000,1673607311.985351
1673607824.003565,,,,42.592941,42.611042,1790535.000000,1673607311.986358
1673607824.003571,,,,42.612797,42.628757,1790536.000000,1673607311.987365
1673607824.014516,54.863323,1859830.000000,1673607823.953746,,,,
1673607824.014908,,,,42.651550,42.666309,1790537.000000,1673607311.988372
1673607824.014981,54.953770,1859831.000000,1673607823.954746,,,,
1673607824.015496,,,,42.710690,42.725040,1790538.000000,1673607311.989379
1673607824.015691,54.989956,1859832.000000,1673607823.955746,,,,
1673607824.015794,,,,42.762161,42.777451,1790539.000000,1673607311.990386
1673607824.015812,,,,42.766418,42.781128,1790540.000000,1673607311.991393
1673607824.016091,,,,42.770096,42.786129,1790541.000000,1673607311.992400
1673607824.016322,,,,42.755985,42.771511,1790542.000000,1673607311.993407
1673607824.016581,58.716515,1859881.000000,1673607824.004746,,,,
1673607824.016597,58.752693,1859882.000000,1673607824.005746,,,,
1673607824.016605,58.843155,1859883.000000,1673607824.006746,,,,
1673607824.016613,58.915512,1859884.000000,1673607824.007746,,,,
1673607824.016619,58.987869,1859885.000000,1673607824.008746,,,,
1673607824.016624,59.024048,1859886.000000,1673607824.009746,,,,
1673607824.016673,59.078312,1859887.000000,1673607824.010746,,,,
1673607824.016695,59.168774,1859888.000000,1673607824.011746,,,,
1673607824.016701,59.186863,1859889.000000,1673607824.012746,,,,
1673607824.016713,59.223042,1859890.000000,1673607824.013746,,,,
1673607824.040231,,,,42.736343,42.750378,1790543.000000,1673607311.994414
1673607824.040828,,,,42.692467,42.706001,1790544.000000,1673607311.995421
1673607824.040877,,,,42.680904,42.696480,1790545.000000,1673607311.996428
1673607824.041104,,,,42.711342,42.728573,1790546.000000,1673607311.997436
1673607824.041415,,,,42.734009,42.749371,1790547.000000,1673607311.998443
1673607824.042312,,,,42.736801,42.751053,1790548.000000,1673607311.999450
1673607824.042335,,,,42.680714,42.695999,1790549.000000,1673607312.000457
1673607824.042555,,,,42.595249,42.609718,1790550.000000,1673607312.001464
1673607824.042567,,,,42.550220,42.567047,1790551.000000,1673607312.002471
1673607824.042614,,,,42.532261,42.545769,1790552.000000,1673607312.003478
1673607824.042828,,,,42.460888,42.474777,1790553.000000,1673607312.004485
1673607824.042847,,,,42.455044,42.469250,1790554.000000,1673607312.005492
1673607824.043371,,,,42.498436,42.513725,1790555.000000,1673607312.006499
1673607824.043686,,,,42.557793,42.572021,1790556.000000,1673607312.007506
1673607824.044136,,,,42.617126,42.633640,1790557.000000,1673607312.008513
1673607824.044311,,,,42.619026,42.636189,1790558.000000,1673607312.009521
1673607824.044322,,,,42.608639,42.626472,1790559.000000,1673607312.010528
1673607824.044595,,,,42.643860,42.661091,1790560.000000,1673607312.011535
1673607824.044831,,,,42.682228,42.701000,1790561.000000,1673607312.012542
1673607824.044849,,,,42.711796,42.727371,1790562.000000,1673607312.013549
1673607824.044952,,,,42.719009,42.734825,1790563.000000,1673607312.014556
1673607824.045171,,,,42.716244,42.731533,1790564.000000,1673607312.015563
1673607824.045546,,,,42.717926,42.733143,1790565.000000,1673607312.016570
1673607824.045707,,,,42.747955,42.764637,1790566.000000,1673607312.017577
1673607824.045875,,,,42.766586,42.784134,1790567.000000,1673607312.018584
1673607824.045994,,,,42.722134,42.739803,1790568.000000,1673607312.019591
1673607824.046127,,,,42.613880,42.631836,1790569.000000,1673607312.020598
1673607824.046361,,,,42.538826,42.553440,1790570.000000,1673607312.021605
1673607824.046614,,,,42.511948,42.526249,1790571.000000,1673607312.022613
1673607824.046627,,,,42.507740,42.524422,1790572.000000,1673607312.023620
1673607824.046825,,,,42.484276,42.501801,1790573.000000,1673607312.024627
1673607824.046860,,,,42.481586,42.499783,1790574.000000,1673607312.025634
1673607824.047153,,,,42.513535,42.529327,1790575.000000,1673607312.026641
1673607824.047161,,,,42.561951,42.577503,1790576.000000,1673607312.027648
1673607824.047315,,,,42.618374,42.631618,1790577.000000,1673607312.028655
1673607824.048120,,,,42.674702,42.689869,1790578.000000,1673607312.029662
1673607824.048183,,,,42.722301,42.739826,1790579.000000,1673607312.030669
1673607824.048568,,,,42.748123,42.764297,1790580.000000,1673607312.031676
1673607824.048579,,,,42.723289,42.740139,1790581.000000,1673607312.032683
1673607824.048584,,,,42.689968,42.708382,1790582.000000,1673607312.033690
1673607824.048777,,,,42.681580,42.697994,1790583.000000,1673607312.034698
1673607824.048798,,,,42.672588,42.688042,1790584.000000,1673607312.035705
1673607824.048804,,,,42.657490,42.673691,1790585.000000,1673607312.036712
1673607824.048839,,,,42.636116,42.652534,1790586.000000,1673607312.037719
1673607824.048847,,,,42.658260,42.676212,1790587.000000,1673607312.038726
1673607824.048853,,,,42.675735,42.689629,1790588.000000,1673607312.039733
1673607824.048858,,,,42.663811,42.679195,1790589.000000,1673607312.040740
1673607824.048866,,,,42.632153,42.649216,1790590.000000,1673607312.041747
1673607824.048884,,,,42.625538,42.641907,1790591.000000,1673607312.042754
1673607824.048902,,,,42.597462,42.611015,1790592.000000,1673607312.043761
1673607824.048910,,,,42.563202,42.579018,1790593.000000,1673607312.044768
1673607824.061338,,,,42.534595,42.549305,1790594.000000,1673607312.045775
1673607824.061353,,,,42.538681,42.552910,1790595.000000,1673607312.046782
1673607824.061932,,,,42.547047,42.564041,1790596.000000,1673607312.047790
1673607824.062147,,,,42.569740,42.584690,1790597.000000,1673607312.048797
1673607824.062357,,,,42.591187,42.609356,1790598.000000,1673607312.049804
1673607824.062620,,,,42.597507,42.613804,1790599.000000,1673607312.050811
1673607824.068753,,,,42.586258,42.601040,1790600.000000,1673607312.051818
1673607824.069092,,,,42.606308,42.622292,1790601.000000,1673607312.052825
1673607824.069626,,,,42.643520,42.661934,1790602.000000,1673607312.053832
1673607824.069648,,,,42.694054,42.710159,1790603.000000,1673607312.054839
1673607824.069771,,,,42.735695,42.753651,1790604.000000,1673607312.055846
1673607824.070170,,,,42.735455,42.751869,1790605.000000,1673607312.056853
1673607824.070221,,,,42.757233,42.773556,1790606.000000,1673607312.057860
1673607824.070309,,,,42.754108,42.770287,1790607.000000,1673607312.058867
1673607824.072697,61.755657,1859942.000000,1673607824.060277,,,,
