__time,/gdx/grip_force_stream/grip_force,/gdx/grip_force_stream/header/seq,/gdx/grip_force_stream/header/stamp,/shimmer0/emg_stream/emg_ch1,/shimmer0/emg_stream/emg_ch2,/shimmer0/emg_stream/header/seq,/shimmer0/emg_stream/header/stamp
1673607724.070111,,,,43.948563,43.965027,1691340.000000,1673607212.029632
1673607724.070126,,,,43.937721,43.954136,1691341.000000,1673607212.030639
1673607724.070134,,,,43.932358,43.947479,1691342.000000,1673607212.031646
1673607724.093098,0.068338,1759946.000000,1673607724.063376,,,,
1673607724.093622,0.050249,1759947.000000,1673607724.064376,,,,
1673607724.093637,0.086427,1759948.000000,1673607724.065377,,,,
1673607724.093643,0.050249,1759949.000000,1673607724.066376,,,,
1673607724.093677,0.068338,1759950.000000,1673607724.067376,,,,
1673607724.093697,0.086427,1759951.000000,1673607724.068377,,,,
1673607724.093704,0.068338,1759952.000000,1673607724.069376,,,,
1673607724.093729,0.086427,1759953.000000,1673607724.070376,,,,
1673607724.094005,0.086427,1759954.000000,1673607724.071377,,,,
1673607724.094015,0.122605,1759955.000000,1673607724.072376,,,,
1673607724.094020,0.158783,1759963.000000,1673607724.080376,,,,
1673607724.094024,0.213059,1759964.000000,1673607724.081377,,,,
1673607724.094066,0.249237,1759965.000000,1673607724.082376,,,,
1673607724.094075,0.285415,1759966.000000,1673607724.083376,,,,
1673607724.094083,0.158783,1759967.000000,1673607724.084376,,,,
1673607724.094089,0.303504,1759968.000000,1673607724.085377,,,,
1673607724.094117,0.231148,1759969.000000,1673607724.086376,,,,
1673607724.094120,0.267326,1759970.000000,1673607724.087376,,,,
1673607724.094139,0.267326,1759971.000000,1673607724.088377,,,,
1673607724.094185,0.267326,1759972.000000,1673607724.089376,,,,
1673607724.094191,,,,43.928947,43.945171,1691343.000000,1673607212.032653
1673607724.094466,,,,43.929981,43.946445,1691344.000000,1673607212.033660
1673607724.094625,,,,43.924572,43.940651,1691345.000000,1673607212.034667
1673607724.094823,,,,43.916325,43.932957,1691346.000000,1673607212.035674
1673607724.094929,,,,43.916084,43.935169,1691347.000000,1673607212.036681
1673607724.095095,,,,43.926205,43.944328,1691348.000000,1673607212.037688
1673607724.095302,,,,43.937191,43.954906,1691349.000000,1673607212.038695
1673607724.095426,,,,43.938538,43.955074,1691350.000000,1673607212.039702
1673607724.095440,,,,43.936905,43.954643,1691351.000000,1673607212.040709
1673607724.095849,,,,43.934666,43.953465,1691352.000000,1673607212.041717
1673607724.095864,,,,43.933296,43.949688,1691353.000000,1673607212.042724
1673607724.095873,,,,43.936207,43.952671,1691354.000000,1673607212.043731
1673607724.097430,,,,43.910580,43.926781,1691368.000000,1673607212.057830
1673607724.097537,,,,43.913609,43.930843,1691369.000000,1673607212.058837
1673607724.097548,,,,43.920315,43.938534,1691370.000000,1673607212.059844
1673607724.097565,,,,43.920052,43.938221,1691371.000000,1673607212.060851
1673607724.097585,,,,43.929619,43.944256,1691372.000000,1673607212.061858
1673607724.097733,,,,43.928009,43.944859,1691373.000000,1673607212.062865
1673607724.097772,,,,43.936230,43.952648,1691374.000000,1673607212.063872
1673607724.097780,,,,43.949406,43.964378,1691375.000000,1673607212.064879
1673607724.097825,,,,43.947529,43.962360,1691376.000000,1673607212.065886
1673607724.097877,,,,43.943058,43.959473,1691377.000000,1673607212.066894
1673607724.097887,,,,43.947048,43.964329,1691378.000000,1673607212.067901
1673607724.101655,,,,43.950077,43.965485,1691379.000000,1673607212.068908
1673607724.101969,,,,43.946110,43.962841,1691380.000000,1673607212.069915
1673607724.102078,,,,43.943802,43.961205,1691381.000000,1673607212.070922
1673607724.102231,,,,43.946663,43.963680,1691382.000000,1673607212.071929
1673607724.102496,,,,43.941639,43.958633,1691383.000000,1673607212.072936
1673607724.102690,,,,43.931519,43.950653,1691384.000000,1673607212.073943
1673607724.102789,,,,43.933224,43.951588,1691385.000000,1673607212.074950
1673607724.103061,,,,43.936951,43.953514,1691386.000000,1673607212.075957
1673607724.103273,,,,43.925293,43.942478,1691387.000000,1673607212.076964
1673607724.103458,,,,43.910725,43.928318,1691388.000000,1673607212.077971
1673607724.106264,,,,43.909714,43.927597,1691389.000000,1673607212.078979
1673607724.106275,,,,43.909184,43.926155,1691390.000000,1673607212.079986
1673607724.106524,,,,43.910385,43.927502,1691391.000000,1673607212.080993
1673607724.107548,,,,43.928394,43.943729,1691392.000000,1673607212.082000
1673607724.118365,,,,43.940197,43.955990,1691393.000000,1673607212.083007
1673607724.118515,,,,43.939522,43.956589,1691394.000000,1673607212.084014
1673607724.118624,,,,43.935940,43.957455,1691395.000000,1673607212.085021
1673607724.118631,,,,43.933273,43.955482,1691396.000000,1673607212.086028
1673607724.121342,,,,43.940750,43.960606,1691397.000000,1673607212.087035
1673607724.121355,,,,43.952747,43.968033,1691398.000000,1673607212.088042
1673607724.121366,,,,43.952888,43.970341,1691399.000000,1673607212.089049
1673607724.125762,,,,43.948780,43.966591,1691400.000000,1673607212.090056
1673607724.125890,,,,43.947239,43.966110,1691401.000000,1673607212.091063
1673607724.126038,,,,43.948586,43.967937,1691402.000000,1673607212.092071
1673607724.126152,,,,43.952480,43.968418,1691403.000000,1673607212.093078
1673607724.126243,,,,43.938828,43.951927,1691404.000000,1673607212.094085
1673607724.126458,,,,43.910267,43.925026,1691405.000000,1673607212.095092
1673607724.126464,,,,43.900219,43.914616,1691406.000000,1673607212.096099
1673607724.126469,,,,43.893463,43.907185,1691407.000000,1673607212.097106
1673607724.133162,,,,43.886971,43.899014,1691408.000000,1673607212.098113
1673607724.133272,,,,43.881874,43.896103,1691409.000000,1673607212.099120
1673607724.133281,,,,43.871441,43.888988,1691410.000000,1673607212.100127
1673607724.133425,,,,43.860935,43.876415,1691411.000000,1673607212.101134
1673607724.148685,,,,43.858917,43.871822,1691412.000000,1673607212.102141
1673607724.149424,,,,43.860382,43.873360,1691413.000000,1673607212.103148
1673607724.149682,,,,43.870117,43.886871,1691414.000000,1673607212.104156
1673607724.150054,,,,43.885551,43.906513,1691415.000000,1673607212.105163
1673607724.150442,,,,43.901299,43.921059,1691416.000000,1673607212.106170
1673607724.150457,,,,43.919235,43.935532,1691417.000000,1673607212.107177
1673607724.150714,,,,43.918682,43.935986,1691418.000000,1673607212.108184
1673607724.151030,,,,43.940845,43.957672,1691419.000000,1673607212.109191
1673607724.151896,,,,43.973396,43.988613,1691420.000000,1673607212.110198
1673607724.152036,,,,43.971497,43.987988,1691421.000000,1673607212.111205
1673607724.152063,,,,43.965271,43.980751,1691422.000000,1673607212.112212
1673607724.152075,,,,43.970055,43.985558,1691423.000000,1673607212.113219
1673607724.152083,,,,43.963226,43.977097,1691424.000000,1673607212.114226
1673607724.152090,,,,43.958298,43.972553,1691425.000000,1673607212.115233
1673607724.152750,,,,43.965321,43.980656,1691426.000000,1673607212.116241
1673607724.153000,,,,43.962074,43.976616,1691427.000000,1673607212.117248
1673607724.153190,,,,43.939548,43.959137,1691428.000000,1673607212.118255
1673607724.153591,,,,43.926373,43.946060,1691429.000000,1673607212.119262
1673607724.153781,,,,43.918201,43.934280,1691430.000000,1673607212.120269
1673607724.154047,,,,43.911301,43.927933,1691431.000000,1673607212.121276
1673607724.154055,,,,43.916374,43.934471,1691432.000000,1673607212.122283
1673607724.157742,0.810030,1760024.000000,1673607724.146679,,,,
1673607724.157751,0.864306,1760025.000000,1673607724.147679,,,,
1673607724.157756,0.846209,1760026.000000,1673607724.148679,,,,
1673607724.157813,0.954751,1760027.000000,1673607724.149679,,,,
1673607724.157827,0.900484,1760028.000000,1673607724.150679,,,,
1673607724.157840,0.882395,1760029.000000,1673607724.151679,,,,
1673607724.157846,0.918573,1760030.000000,1673607724.152679,,,,
1673607724.157957,0.918573,1760031.000000,1673607724.153679,,,,
1673607724.157970,0.936662,1760032.000000,1673607724.154679,,,,
1673607724.157986,0.954751,1760033.000000,1673607724.155679,,,,
1673607724.158641,,,,43.936687,43.954235,1691433.000000,1673607212.123290
1673607724.158890,,,,43.945484,43.961880,1691434.000000,1673607212.124297
1673607724.158898,,,,43.941902,43.958103,1691435.000000,1673607212.125304
1673607724.161105,,,,43.935364,43.951733,1691436.000000,1673607212.126311
1673607724.161256,,,,43.930340,43.948753,1691437.000000,1673607212.127318
1673607724.161484,,,,43.930702,43.949184,1691438.000000,1673607212.128325
1673607724.166512,,,,43.926567,43.945244,1691439.000000,1673607212.129333
1673607724.166808,,,,43.923801,43.940674,1691440.000000,1673607212.130340
1673607724.166830,,,,43.921326,43.937382,1691441.000000,1673607212.131347
1673607724.167134,,,,43.916950,43.932789,1691442.000000,1673607212.132354
1673607724.167377,,,,43.915989,43.933846,1691443.000000,1673607212.133361
1673607724.167399,,,,43.921444,43.936974,1691444.000000,1673607212.134368
1673607724.167407,,,,43.920197,43.936153,1691445.000000,1673607212.135375
1673607724.192180,,,,43.914280,43.930241,1691446.000000,1673607212.136382
1673607724.192354,,,,43.916927,43.931084,1691447.000000,1673607212.137389
1673607724.192549,,,,43.914257,43.930336,1691448.000000,1673607212.138396
1673607724.192567,,,,43.906322,43.926083,1691449.000000,1673607212.139403
1673607724.192577,,,,43.907982,43.925697,1691450.000000,1673607212.140410
1673607724.192799,,,,43.907406,43.922478,1691451.000000,1673607212.141418
1673607724.193019,,,,43.908272,43.921562,1691452.000000,1673607212.142425
1673607724.193266,,,,43.910194,43.923534,1691453.000000,1673607212.143432
1673607724.193635,,,,43.910507,43.924881,1691454.000000,1673607212.144439
1673607724.193727,,,,43.914787,43.930195,1691455.000000,1673607212.145446
1673607724.193919,,,,43.916443,43.934929,1691456.000000,1673607212.146453
1673607724.194275,,,,43.922119,43.941250,1691457.000000,1673607212.147460
1673607724.205444,,,,43.928658,43.945698,1691458.000000,1673607212.148467
1673607724.205944,,,,43.928707,43.946518,1691459.000000,1673607212.149474
1673607724.213095,,,,43.919018,43.937572,1691460.000000,1673607212.150481
1673607724.213115,,,,43.917477,43.932404,1691461.000000,1673607212.151488
1673607724.213124,,,,43.908798,43.925579,1691462.000000,1673607212.152495
1673607724.213129,,,,43.903320,43.924232,1691463.000000,1673607212.153502
1673607724.213326,,,,43.910072,43.926781,1691464.000000,1673607212.154510
1673607724.213338,,,,43.901180,43.915142,1691465.000000,1673607212.155517
1673607724.213392,,,,43.897453,43.912716,1691466.000000,1673607212.156524
1673607724.213398,,,,43.895817,43.908390,1691467.000000,1673607212.157531
1673607724.220231,,,,43.896011,43.908604,1691468.000000,1673607212.158538
1673607724.220244,,,,43.890362,43.902931,1691469.000000,1673607212.159545
1673607724.220551,,,,43.886200,43.901176,1691470.000000,1673607212.160552
1673607724.221908,,,,43.888462,43.905697,1691473.000000,1673607212.163573
1673607724.222267,,,,43.897453,43.913174,1691474.000000,1673607212.164580
1673607724.222397,,,,43.901371,43.918411,1691475.000000,1673607212.165587
1673607724.222557,,,,43.902550,43.919857,1691476.000000,1673607212.166595
1673607724.222637,,,,43.898945,43.914421,1691477.000000,1673607212.167602
1673607724.222650,,,,43.894833,43.909710,1691478.000000,1673607212.168609
1673607724.222712,,,,43.902164,43.918461,1691479.000000,1673607212.169616
1673607724.222728,,,,43.908344,43.926178,1691480.000000,1673607212.170623
1673607724.222812,,,,43.907574,43.926128,1691481.000000,1673607212.171630
1673607724.222837,,,,43.902958,43.919975,1691482.000000,1673607212.172637
1673607724.222886,,,,43.895000,43.910553,1691483.000000,1673607212.173644
1673607724.223575,,,,43.892307,43.907932,1691484.000000,1673607212.174651
1673607724.223599,0.972840,1760034.000000,1673607724.161498,,,,
1673607724.224411,0.990929,1760035.000000,1673607724.162498,,,,
1673607724.226321,1.027116,1760036.000000,1673607724.163498,,,,
1673607724.226350,1.009027,1760037.000000,1673607724.164498,,,,
1673607724.226411,1.063294,1760038.000000,1673607724.165498,,,,
1673607724.226423,1.099472,1760039.000000,1673607724.166498,,,,
1673607724.226563,1.877351,1760085.000000,1673607724.212498,,,,
1673607724.226579,1.895440,1760086.000000,1673607724.213498,,,,
1673607724.226610,1.949707,1760087.000000,1673607724.214498,,,,
1673607724.226639,1.967796,1760088.000000,1673607724.215498,,,,
1673607724.226678,2.003982,1760089.000000,1673607724.216498,,,,
1673607724.226727,2.076339,1760090.000000,1673607724.217498,,,,
1673607724.226740,2.112517,1760091.000000,1673607724.218498,,,,
1673607724.226802,2.184881,1760092.000000,1673607724.219498,,,,
1673607724.226825,2.184881,1760093.000000,1673607724.220498,,,,
1673607724.226880,2.275335,1760094.000000,1673607724.221498,,,,
1673607724.227592,,,,43.890144,43.906200,1691485.000000,1673607212.175658
1673607724.227600,,,,43.884182,43.902233,1691486.000000,1673607212.176665
1673607724.227623,,,,43.877068,43.896271,1691487.000000,1673607212.177672
1673607724.227653,,,,43.877453,43.895504,1691488.000000,1673607212.178679
1673607724.227702,,,,43.874733,43.892235,1691489.000000,1673607212.179687
1673607724.227707,,,,43.874687,43.889637,1691490.000000,1673607212.180694
1673607724.227730,,,,43.876537,43.889347,1691491.000000,1673607212.181701
1673607724.227736,,,,43.874447,43.891247,1691492.000000,1673607212.182708
1673607724.234175,,,,43.877499,43.892303,1691493.000000,1673607212.183715
1673607724.234186,,,,43.881897,43.895817,1691494.000000,1673607212.184722
1673607724.234368,,,,43.888508,43.902546,1691495.000000,1673607212.185729
1673607724.234377,,,,43.897453,43.913677,1691496.000000,1673607212.186736
1673607724.234603,,,,43.910385,43.926994,1691497.000000,1673607212.187743
1673607724.234610,,,,43.907719,43.924519,1691498.000000,1673607212.188750
1673607724.234616,,,,43.895721,43.912693,1691499.000000,1673607212.189757
1673607724.236075,,,,43.892021,43.908485,1691500.000000,1673607212.190764
1673607724.236273,,,,43.889400,43.905647,1691501.000000,1673607212.191772
1673607724.236287,,,,43.884975,43.901127,1691502.000000,1673607212.192779
1673607724.236294,,,,43.883724,43.899540,1691503.000000,1673607212.193786
1673607724.244060,,,,43.880600,43.897667,1691504.000000,1673607212.194793
1673607724.244107,,,,43.874039,43.893124,1691505.000000,1673607212.195800
1673607724.244258,,,,43.868893,43.886318,1691506.000000,1673607212.196807
1673607724.244360,,,,43.862232,43.881344,1691507.000000,1673607212.197814
1673607724.248936,,,,43.860935,43.880070,1691508.000000,1673607212.198821
1673607724.249085,,,,43.867764,43.884518,1691509.000000,1673607212.199828
1673607724.249547,,,,43.871319,43.886753,1691510.000000,1673607212.200835
1673607724.265843,,,,43.869831,43.885117,1691511.000000,1673607212.201842
1673607724.266078,,,,43.873871,43.890141,1691512.000000,1673607212.202849
1673607724.266512,,,,43.877163,43.895935,1691513.000000,1673607212.203856
1673607724.266652,,,,43.878075,43.896225,1691514.000000,1673607212.204864
1673607724.266672,,,,43.881947,43.898266,1691515.000000,1673607212.205871
1673607724.266942,,,,43.882835,43.898746,1691516.000000,1673607212.206878
1673607724.267447,,,,43.885696,43.904495,1691517.000000,1673607212.207885
1673607724.267667,,,,43.895744,43.913101,1691518.000000,1673607212.208892
1673607724.267683,,,,43.898052,43.914207,1691519.000000,1673607212.209899
1673607724.267733,,,,43.890144,43.907619,1691520.000000,1673607212.210906
1673607724.272941,,,,43.881611,43.899059,1691521.000000,1673607212.211913
1673607724.273126,,,,43.871368,43.891174,1691522.000000,1673607212.212920
1673607724.273483,,,,43.865120,43.883602,1691523.000000,1673607212.213927
1673607724.273497,,,,43.859276,43.874851,1691524.000000,1673607212.214934
1673607724.274142,,,,43.859325,43.875046,1691525.000000,1673607212.215941
1673607724.274284,,,,43.862473,43.877354,1691526.000000,1673607212.216949
1673607724.274292,,,,43.865982,43.884445,1691527.000000,1673607212.217956
1673607724.274306,,,,43.870335,43.888073,1691528.000000,1673607212.218963
1673607724.279397,,,,43.866680,43.884277,1691529.000000,1673607212.219970
1673607724.279680,,,,43.861656,43.878433,1691530.000000,1673607212.220977
1673607724.280174,,,,43.863964,43.880669,1691531.000000,1673607212.221984
1673607724.280491,,,,43.843697,43.860786,1691532.000000,1673607212.222991
1673607724.280516,,,,43.837013,43.855236,1691533.000000,1673607212.223998
1673607724.280582,,,,43.849205,43.866703,1691534.000000,1673607212.225005
1673607724.280591,2.329602,1760097.000000,1673607724.220575,,,,
1673607724.280935,,,,43.869423,43.886200,1691535.000000,1673607212.226012
1673607724.281126,2.365780,1760098.000000,1673607724.221575,,,,
1673607724.281579,,,,43.880936,43.893772,1691536.000000,1673607212.227019
1673607724.281915,,,,43.899879,43.913029,1691537.000000,1673607212.228026
1673607724.281931,,,,43.911827,43.928535,1691538.000000,1673607212.229033
1673607724.281945,,,,43.898006,43.914135,1691539.000000,1673607212.230041
1673607724.281950,,,,43.884087,43.897690,1691540.000000,1673607212.231048
1673607724.281954,,,,43.882427,43.896366,1691541.000000,1673607212.232055
1673607724.281959,,,,43.880455,43.895142,1691542.000000,1673607212.233062
1673607724.281962,,,,43.875214,43.892929,1691543.000000,1673607212.234069
1673607724.281972,,,,43.870022,43.887402,1691544.000000,1673607212.235076
1673607724.282025,,,,43.871105,43.889397,1691545.000000,1673607212.236083
1673607724.282336,2.456234,1760099.000000,1673607724.222575,,,,
1673607724.282349,2.510501,1760100.000000,1673607724.223575,,,,
1673607724.282354,2.510501,1760101.000000,1673607724.224576,,,,
1673607724.282361,2.564776,1760102.000000,1673607724.225575,,,,
1673607724.282366,2.510501,1760103.000000,1673607724.226575,,,,
1673607724.282372,2.564776,1760104.000000,1673607724.227575,,,,
1673607724.282377,2.619043,1760105.000000,1673607724.228575,,,,
1673607724.282399,2.691408,1760106.000000,1673607724.229575,,,,
1673607724.282403,3.849173,1760146.000000,1673607724.269575,,,,
1673607724.282405,3.957716,1760147.000000,1673607724.270576,,,,
1673607724.282409,3.939627,1760148.000000,1673607724.271575,,,,
1673607724.282418,3.993894,1760149.000000,1673607724.272575,,,,
1673607724.282428,3.975805,1760150.000000,1673607724.273575,,,,
1673607724.282437,3.993894,1760151.000000,1673607724.274575,,,,
1673607724.282443,3.993894,1760152.000000,1673607724.275575,,,,
1673607724.282447,4.030072,1760153.000000,1673607724.276575,,,,
1673607724.282459,4.084348,1760154.000000,1673607724.277575,,,,
1673607724.282461,4.030072,1760155.000000,1673607724.278575,,,,
1673607724.286206,,,,43.873028,43.892834,1691546.000000,1673607212.237090
1673607724.286336,,,,43.870720,43.888073,1691547.000000,1673607212.238097
1673607724.286504,,,,43.863941,43.879539,1691548.000000,1673607212.239104
1673607724.286588,,,,43.859131,43.875019,1691549.000000,1673607212.240111
1673607724.288990,,,,43.854683,43.871605,1691550.000000,1673607212.241118
1673607724.289122,,,,43.854900,43.869129,1691551.000000,1673607212.242126
1673607724.289140,,,,43.852810,43.868023,1691552.000000,1673607212.243133
1673607724.289171,,,,43.859829,43.877304,1691553.000000,1673607212.244140
1673607724.289253,,,,43.880047,43.895142,1691554.000000,1673607212.245147
1673607724.289273,,,,43.893871,43.908630,1691555.000000,1673607212.246154
1673607724.289278,,,,43.903751,43.919254,1691556.000000,1673607212.247161
1673607724.294487,,,,43.908871,43.925961,1691557.000000,1673607212.248168
1673607724.294494,,,,43.910892,43.926491,1691558.000000,1673607212.249175
1673607724.294994,,,,43.897404,43.909470,1691559.000000,1673607212.250182
1673607724.295004,,,,43.873772,43.890095,1691560.000000,1673607212.251189
1673607724.295007,,,,43.868820,43.885357,1691561.000000,1673607212.252196
1673607724.295008,,,,43.876247,43.889828,1691562.000000,1673607212.253203
1673607724.295024,,,,43.868988,43.885452,1691563.000000,1673607212.254210
1673607724.295061,,,,43.866703,43.883289,1691564.000000,1673607212.255218
1673607724.295129,,,,43.855022,43.873047,1691565.000000,1673607212.256225
1673607724.295134,,,,43.854301,43.873264,1691566.000000,1673607212.257232
1673607724.298207,,,,43.858868,43.875500,1691567.000000,1673607212.258239
1673607724.298231,,,,43.863773,43.878098,1691568.000000,1673607212.259246
1673607724.298607,,,,43.855862,43.874058,1691569.000000,1673607212.260253
1673607724.298925,,,,43.857162,43.870861,1691570.000000,1673607212.261260
1673607724.299127,,,,43.858990,43.876701,1691571.000000,1673607212.262267
1673607724.299605,,,,43.864349,43.882160,1691572.000000,1673607212.263274
1673607724.299622,,,,43.876968,43.892090,1691573.000000,1673607212.264281
1673607724.299853,,,,43.877979,43.894516,1691574.000000,1673607212.265288
1673607724.300130,,,,43.883411,43.902088,1691575.000000,1673607212.266295
1673607724.300396,,,,43.884998,43.903389,1691576.000000,1673607212.267303
1673607724.300717,,,,43.882908,43.899853,1691577.000000,1673607212.268310
1673607724.300974,,,,43.884857,43.901993,1691578.000000,1673607212.269317
1673607724.301230,,,,43.885696,43.901272,1691579.000000,1673607212.270324
1673607724.301665,,,,43.884350,43.897400,1691580.000000,1673607212.271331
1673607724.301677,,,,43.885098,43.901417,1691581.000000,1673607212.272338
1673607724.301842,,,,43.888680,43.904255,1691582.000000,1673607212.273345
1673607724.302138,,,,43.882092,43.899902,1691583.000000,1673607212.274352
1673607724.302456,,,,43.877331,43.895382,1691584.000000,1673607212.275359
1673607724.302713,,,,43.875626,43.895744,1691585.000000,1673607212.276366
1673607724.302989,,,,43.877621,43.896946,1691586.000000,1673607212.277373
1673607724.303361,,,,43.875359,43.894951,1691587.000000,1673607212.278380
1673607724.303549,,,,43.876179,43.894180,1691588.000000,1673607212.279387
1673607724.303851,,,,43.875214,43.890022,1691589.000000,1673607212.280395
1673607724.303864,,,,43.868843,43.886608,1691590.000000,1673607212.281402
1673607724.304166,,,,43.870911,43.889011,1691591.000000,1673607212.282409
1673607724.304396,,,,43.868725,43.886631,1691592.000000,1673607212.283416
1673607724.304708,,,,43.872452,43.889011,1691593.000000,1673607212.284423
1673607724.304733,,,,43.878414,43.894974,1691594.000000,1673607212.285430
1673607724.305073,,,,43.885960,43.900311,1691595.000000,1673607212.286437
1673607724.305511,,,,43.892212,43.908630,1691596.000000,1673607212.287444
1673607724.305520,,,,43.901539,43.915600,1691597.000000,1673607212.288451
1673607724.305703,,,,43.886948,43.901707,1691598.000000,1673607212.289458
1673607724.305734,,,,43.880527,43.898674,1691599.000000,1673607212.290465
1673607724.306048,,,,43.878555,43.896729,1691600.000000,1673607212.291472
1673607724.306060,,,,43.882210,43.899254,1691601.000000,1673607212.292480
1673607724.306065,,,,43.890915,43.906563,1691602.000000,1673607212.293487
1673607724.306360,,,,43.891418,43.905117,1691603.000000,1673607212.294494
1673607724.306913,,,,43.884975,43.899422,1691604.000000,1673607212.295501
1673607724.307077,,,,43.883053,43.899036,1691605.000000,1673607212.296508
1673607724.307227,,,,43.887474,43.902210,1691606.000000,1673607212.297515
1673607724.307606,,,,43.888340,43.903748,1691607.000000,1673607212.298522
1673607724.307824,,,,43.885216,43.899590,1691608.000000,1673607212.299529
1673607724.307834,,,,43.882595,43.898338,1691609.000000,1673607212.300536
1673607724.307838,,,,43.865959,43.881317,1691610.000000,1673607212.301543
1673607724.307859,,,,43.855934,43.872398,1691611.000000,1673607212.302550
1673607724.307907,,,,43.879616,43.895744,1691612.000000,1673607212.303557
1673607724.307919,,,,43.891804,43.909061,1691613.000000,1673607212.304564
1673607724.307935,,,,43.886345,43.903797,1691614.000000,1673607212.305572
1673607724.308041,,,,43.886177,43.905262,1691615.000000,1673607212.306579
1673607724.308248,,,,43.889473,43.906994,1691616.000000,1673607212.307586
1673607724.308265,,,,43.890194,43.908077,1691617.000000,1673607212.308593
1673607724.308479,,,,43.887333,43.906273,1691618.000000,1673607212.309600
1673607724.308685,,,,43.888992,43.908245,1691619.000000,1673607212.310607
1673607724.308939,,,,43.890072,43.909351,1691620.000000,1673607212.311614
1673607724.309090,,,,43.879494,43.898243,1691621.000000,1673607212.312621
1673607724.309234,,,,43.873653,43.890476,1691622.000000,1673607212.313628
1673607724.309385,,,,43.877258,43.893314,1691623.000000,1673607212.314635
1673607724.309933,,,,43.878147,43.896393,1691624.000000,1673607212.315642
1673607724.309947,,,,43.872593,43.889397,1691625.000000,1673607212.316649
1673607724.309954,,,,43.865261,43.880669,1691626.000000,1673607212.317657
1673607724.309989,,,,43.861103,43.878048,1691627.000000,1673607212.318664
1673607724.311355,,,,43.864540,43.882759,1691628.000000,1673607212.319671
1673607724.311590,,,,43.879807,43.896561,1691629.000000,1673607212.320678
1673607724.311765,,,,43.887981,43.903870,1691630.000000,1673607212.321685
1673607724.311914,,,,43.892067,43.907619,1691631.000000,1673607212.322692
1673607724.312224,,,,43.889854,43.908630,1691632.000000,1673607212.323699
1673607724.312234,,,,43.875961,43.890961,1691633.000000,1673607212.324706
1673607724.312244,,,,43.848171,43.864105,1691634.000000,1673607212.325713
1673607724.325233,,,,43.838047,43.854008,1691635.000000,1673607212.326720
1673607724.325533,,,,43.849731,43.864922,1691636.000000,1673607212.327727
1673607724.325951,,,,43.856655,43.872326,1691637.000000,1673607212.328734
1673607724.325975,,,,43.857426,43.871464,1691638.000000,1673607212.329741
1673607724.332396,,,,43.858746,43.874733,1691639.000000,1673607212.330749
1673607724.332611,,,,43.862305,43.878651,1691640.000000,1673607212.331756
1673607724.332810,,,,43.860550,43.875694,1691641.000000,1673607212.332763
1673607724.332893,,,,43.850094,43.865234,1691642.000000,1673607212.333770
1673607724.334953,4.120526,1760156.000000,1673607724.274489,,,,
1673607724.334959,4.138615,1760157.000000,1673607724.275489,,,,
1673607724.335328,4.138615,1760158.000000,1673607724.276489,,,,
1673607724.335387,4.084348,1760159.000000,1673607724.277489,,,,
1673607724.335462,4.102437,1760160.000000,1673607724.278489,,,,
1673607724.335471,4.102437,1760161.000000,1673607724.279489,,,,
1673607724.335483,4.120526,1760162.000000,1673607724.280489,,,,
1673607724.335804,4.446145,1760207.000000,1673607724.325489,,,,
1673607724.335811,4.482323,1760208.000000,1673607724.326489,,,,
1673607724.335819,4.482323,1760209.000000,1673607724.327489,,,,
1673607724.335828,4.482323,1760210.000000,1673607724.328489,,,,
1673607724.335832,4.518510,1760211.000000,1673607724.329489,,,,
1673607724.335837,4.536599,1760212.000000,1673607724.330489,,,,
1673607724.335840,4.500421,1760213.000000,1673607724.331489,,,,
1673607724.335844,4.482323,1760214.000000,1673607724.332489,,,,
1673607724.335882,4.464234,1760215.000000,1673607724.333489,,,,
1673607724.335888,4.500421,1760216.000000,1673607724.334489,,,,
1673607724.339124,,,,43.854733,43.871845,1691643.000000,1673607212.334777
1673607724.339139,,,,43.862282,43.877953,1691644.000000,1673607212.335784
1673607724.341343,,,,43.863506,43.879925,1691645.000000,1673607212.336791
1673607724.341442,,,,43.865120,43.881992,1691646.000000,1673607212.337798
1673607724.341456,,,,43.871368,43.888771,1691647.000000,1673607212.338805
1673607724.341550,,,,43.879253,43.895142,1691648.000000,1673607212.339812
1673607724.361768,,,,43.876034,43.891682,1691649.000000,1673607212.340819
1673607724.362212,,,,43.876392,43.892761,1691650.000000,1673607212.341826
1673607724.362463,,,,43.873917,43.891537,1691651.000000,1673607212.342834
1673607724.362478,,,,43.862137,43.881512,1691652.000000,1673607212.343841
1673607724.362485,,,,43.858891,43.876343,1691653.000000,1673607212.344848
1673607724.362793,,,,43.859974,43.877182,1691654.000000,1673607212.345855
1673607724.362805,,,,43.865887,43.880791,1691655.000000,1673607212.346862
1673607724.363532,,,,43.878414,43.894661,1691656.000000,1673607212.347869
1673607724.363747,,,,43.878101,43.895645,1691657.000000,1673607212.348876
1673607724.363868,,,,43.868317,43.884060,1691658.000000,1673607212.349883
1673607724.364157,,,,43.856609,43.871006,1691659.000000,1673607212.350890
1673607724.371794,,,,43.838867,43.854610,1691660.000000,1673607212.351897
1673607724.372208,,,,43.817757,43.834873,1691661.000000,1673607212.352904
1673607724.372379,,,,43.814850,43.831532,1691662.000000,1673607212.353911
1673607724.372479,,,,43.833313,43.848167,1691663.000000,1673607212.354918
1673607724.372843,,,,43.835236,43.850811,1691664.000000,1673607212.355926
1673607724.373332,,,,43.839733,43.857109,1691665.000000,1673607212.356933
1673607724.373477,,,,43.848217,43.863842,1691666.000000,1673607212.357940
1673607724.393175,,,,43.856728,43.872135,1691667.000000,1673607212.358947
1673607724.393190,,,,43.874660,43.887161,1691668.000000,1673607212.359954
1673607724.393818,,,,43.879303,43.893314,1691669.000000,1673607212.360961
1673607724.393970,,,,43.883366,43.900166,1691670.000000,1673607212.361968
1673607724.393990,,,,43.883583,43.902378,1691671.000000,1673607212.362975
1673607724.394133,,,,43.886585,43.904663,1691672.000000,1673607212.363982
1673607724.394149,,,,43.891563,43.909519,1691673.000000,1673607212.364989
1673607724.394156,,,,43.897358,43.912834,1691674.000000,1673607212.365996
1673607724.394172,,,,43.894642,43.911922,1691675.000000,1673607212.367003
1673607724.394181,,,,43.890240,43.907284,1691676.000000,1673607212.368011
1673607724.399305,5.133571,1760268.000000,1673607724.388688,,,,
1673607724.399313,5.224024,1760269.000000,1673607724.389688,,,,
1673607724.399333,5.260202,1760270.000000,1673607724.390688,,,,
1673607724.399349,5.205935,1760271.000000,1673607724.391688,,,,
1673607724.399359,5.260202,1760272.000000,1673607724.392688,,,,
1673607724.399396,5.296381,1760273.000000,1673607724.393688,,,,
1673607724.399403,5.314469,1760274.000000,1673607724.394688,,,,
1673607724.399408,5.386834,1760275.000000,1673607724.395688,,,,
1673607724.399487,5.386834,1760276.000000,1673607724.396688,,,,
1673607724.399517,5.350656,1760277.000000,1673607724.397688,,,,
1673607724.401164,,,,43.889999,43.907185,1691677.000000,1673607212.369018
1673607724.401666,,,,43.894279,43.908508,1691678.000000,1673607212.370025
1673607724.401677,,,,43.887306,43.902473,1691679.000000,1673607212.371032
1673607724.401899,,,,43.885674,43.902065,1691680.000000,1673607212.372039
1673607724.406330,,,,43.883629,43.899734,1691681.000000,1673607212.373046
1673607724.406551,,,,43.855549,43.870308,1691682.000000,1673607212.374053
1673607724.406726,,,,43.811653,43.829655,1691683.000000,1673607212.375060
1673607724.408913,,,,43.780663,43.798210,1691684.000000,1673607212.376067
1673607724.409338,,,,43.765926,43.781647,1691685.000000,1673607212.377074
1673607724.409650,,,,43.768909,43.785973,1691686.000000,1673607212.378081
1673607724.409893,,,,43.762947,43.778904,1691687.000000,1673607212.379088
1673607724.410252,,,,43.759026,43.774075,1691688.000000,1673607212.380095
1673607724.410265,,,,43.767273,43.782993,1691689.000000,1673607212.381103
1673607724.410537,,,,43.788452,43.804775,1691690.000000,1673607212.382110
1673607724.410786,,,,43.817303,43.831314,1691691.000000,1673607212.383117
1673607724.414369,,,,43.837326,43.851894,1691692.000000,1673607212.384124
1673607724.414841,,,,43.858265,43.873264,1691693.000000,1673607212.385131
1673607724.415035,,,,43.880264,43.896946,1691694.000000,1673607212.386138
1673607724.415126,,,,43.897717,43.914448,1691695.000000,1673607212.387145
1673607724.415272,,,,43.918873,43.932308,1691696.000000,1673607212.388152
1673607724.415395,,,,43.926517,43.940723,1691697.000000,1673607212.389159
1673607724.415569,,,,43.919304,43.936325,1691698.000000,1673607212.390166
1673607724.415583,,,,43.895962,43.912933,1691699.000000,1673607212.391173
1673607724.415993,,,,43.878101,43.894325,1691700.000000,1673607212.392180
1673607724.416230,,,,43.875767,43.890308,1691701.000000,1673607212.393188
1673607724.421956,,,,43.861103,43.876175,1691702.000000,1673607212.394195
1673607724.422266,,,,43.841125,43.858791,1691703.000000,1673607212.395202
1673607724.422279,,,,43.857304,43.876629,1691704.000000,1673607212.396209
1673607724.422336,,,,43.846992,43.864201,1691705.000000,1673607212.397216
1673607724.431878,,,,43.819008,43.833382,1691706.000000,1673607212.398223
1673607724.432293,,,,43.819225,43.835426,1691707.000000,1673607212.399230
1673607724.432755,,,,43.833458,43.848934,1691708.000000,1673607212.400237
1673607724.432993,,,,43.833313,43.847805,1691709.000000,1673607212.401244
1673607724.436312,,,,43.821510,43.838070,1691710.000000,1673607212.402251
1673607724.436594,,,,43.818985,43.838646,1691711.000000,1673607212.403258
1673607724.436977,,,,43.832569,43.851868,1691712.000000,1673607212.404265
1673607724.460270,,,,43.839394,43.857349,1691713.000000,1673607212.405272
1673607724.460321,,,,43.849106,43.864201,1691714.000000,1673607212.406280
1673607724.460408,,,,43.853699,43.870644,1691715.000000,1673607212.407287
1673607724.460421,,,,43.850887,43.869179,1691716.000000,1673607212.408294
1673607724.463260,7.141572,1760329.000000,1673607724.452428,,,,
1673607724.463273,7.213936,1760330.000000,1673607724.453428,,,,
1673607724.463278,7.250114,1760331.000000,1673607724.454428,,,,
1673607724.463357,7.250114,1760332.000000,1673607724.455428,,,,
1673607724.463373,7.286292,1760333.000000,1673607724.456428,,,,
1673607724.463386,7.340568,1760334.000000,1673607724.457428,,,,
1673607724.463502,7.431013,1760335.000000,1673607724.458428,,,,
1673607724.463518,7.412924,1760336.000000,1673607724.459428,,,,
1673607724.463531,7.485288,1760337.000000,1673607724.460428,,,,
1673607724.463563,7.575742,1760338.000000,1673607724.461428,,,,
1673607724.466842,,,,43.860214,43.875885,1691717.000000,1673607212.409301
1673607724.466856,,,,43.857716,43.871632,1691718.000000,1673607212.410308
1673607724.466878,,,,43.852402,43.868698,1691719.000000,1673607212.411315
1673607724.466930,,,,43.850910,43.865162,1691720.000000,1673607212.412322
1673607724.468798,,,,43.848843,43.865597,1691721.000000,1673607212.413329
1673607724.468987,,,,43.858147,43.874012,1691722.000000,1673607212.414336
1673607724.469127,,,,43.859711,43.875572,1691723.000000,1673607212.415343
1673607724.469532,,,,43.863819,43.879082,1691724.000000,1673607212.416350
1673607724.469550,,,,43.868702,43.885960,1691725.000000,1673607212.417357
1673607724.469559,,,,43.861416,43.879036,1691726.000000,1673607212.418365
1673607724.474332,,,,43.850239,43.866798,1691727.000000,1673607212.419372
1673607724.474659,,,,43.861153,43.876080,1691728.000000,1673607212.420379
1673607724.474885,,,,43.877209,43.890526,1691729.000000,1673607212.421386
1673607724.475275,,,,43.868675,43.884060,1691730.000000,1673607212.422393
1673607724.475508,,,,43.852615,43.869324,1691731.000000,1673607212.423400
1673607724.475801,,,,43.854542,43.873001,1691732.000000,1673607212.424407
1673607724.476084,,,,43.853218,43.869492,1691733.000000,1673607212.425414
1673607724.476396,,,,43.851200,43.867447,1691734.000000,1673607212.426421
1673607724.476809,,,,43.852833,43.870644,1691735.000000,1673607212.427428
1673607724.477382,,,,43.850380,43.867157,1691736.000000,1673607212.428435
1673607724.477394,,,,43.844177,43.860741,1691737.000000,1673607212.429442
1673607724.481987,,,,43.836437,43.851894,1691738.000000,1673607212.430449
1673607724.482002,,,,43.829369,43.845905,1691739.000000,1673607212.431457
1673607724.482236,,,,43.826508,43.841770,1691740.000000,1673607212.432464
1673607724.482359,,,,43.828312,43.846436,1691741.000000,1673607212.433471
1673607724.482561,,,,43.828094,43.847301,1691742.000000,1673607212.434478
1673607724.482785,,,,43.825787,43.840931,1691743.000000,1673607212.435485
1673607724.482913,,,,43.820477,43.837997,1691744.000000,1673607212.436492
1673607724.483100,,,,43.813381,43.830017,1691745.000000,1673607212.437499
1673607724.489168,,,,43.811436,43.827274,1691746.000000,1673607212.438506
1673607724.489245,,,,43.816437,43.831337,1691747.000000,1673607212.439513
1673607724.489265,,,,43.825909,43.839848,1691748.000000,1673607212.440520
1673607724.489538,,,,43.834465,43.849899,1691749.000000,1673607212.441527
1673607724.489594,,,,43.838768,43.856098,1691750.000000,1673607212.442534
1673607724.489936,,,,43.843384,43.858433,1691751.000000,1673607212.443542
1673607724.492414,,,,43.843506,43.857975,1691752.000000,1673607212.444549
1673607724.493615,,,,43.836678,43.854225,1691753.000000,1673607212.445556
1673607724.493633,,,,43.833817,43.849442,1691754.000000,1673607212.446563
1673607724.493640,,,,43.756744,43.776695,1691757.000000,1673607212.449584
1673607724.493646,,,,43.729771,43.747124,1691758.000000,1673607212.450591
1673607724.493715,,,,43.714985,43.730946,1691759.000000,1673607212.451598
1673607724.493721,,,,43.718662,43.733757,1691760.000000,1673607212.452605
1673607724.493733,,,,43.733303,43.748878,1691761.000000,1673607212.453612
1673607724.493792,,,,43.747585,43.764961,1691762.000000,1673607212.454619
1673607724.493798,,,,43.748234,43.766163,1691763.000000,1673607212.455626
1673607724.493802,,,,43.728134,43.746403,1691764.000000,1673607212.456634
1673607724.493806,,,,43.732677,43.747414,1691765.000000,1673607212.457641
1673607724.494011,,,,43.754604,43.770443,1691766.000000,1673607212.458648
1673607724.497416,,,,43.769291,43.786503,1691767.000000,1673607212.459655
1673607724.497428,,,,43.786457,43.801647,1691768.000000,1673607212.460662
1673607724.497512,,,,43.798069,43.810665,1691769.000000,1673607212.461669
1673607724.497755,,,,43.836319,43.850811,1691770.000000,1673607212.462676
1673607724.497768,,,,43.878845,43.890934,1691771.000000,1673607212.463683
1673607724.497839,,,,43.913078,43.928677,1691772.000000,1673607212.464690
1673607724.498228,,,,43.914497,43.931156,1691773.000000,1673607212.465697
1673607724.498347,,,,43.903969,43.921852,1691774.000000,1673607212.466704
1673607724.498428,,,,43.895123,43.912594,1691775.000000,1673607212.467711
1673607724.498596,,,,43.867256,43.884998,1691776.000000,1673607212.468719
1673607724.498612,,,,43.832832,43.851124,1691777.000000,1673607212.469726
1673607724.498622,,,,43.810234,43.827682,1691778.000000,1673607212.470733
1673607724.498716,,,,43.808239,43.825207,1691779.000000,1673607212.471740
1673607724.498940,,,,43.818096,43.835835,1691780.000000,1673607212.472747
1673607724.498951,,,,43.817421,43.833118,1691781.000000,1673607212.473754
1673607724.499134,,,,43.789967,43.807537,1691782.000000,1673607212.474761
1673607724.499283,,,,43.782059,43.798523,1691783.000000,1673607212.475768
1673607724.499419,,,,43.796242,43.811985,1691784.000000,1673607212.476775
1673607724.499722,,,,43.813072,43.828430,1691785.000000,1673607212.477782
1673607724.499777,,,,43.828217,43.844730,1691786.000000,1673607212.478789
1673607724.499788,,,,43.842762,43.858456,1691787.000000,1673607212.479796
1673607724.512663,,,,43.858990,43.874561,1691788.000000,1673607212.480803
1673607724.513257,,,,43.869038,43.886993,1691789.000000,1673607212.481811
1673607724.513285,,,,43.883511,43.900143,1691790.000000,1673607212.482818
1673607724.527223,7.557644,1760339.000000,1673607724.466049,,,,
1673607724.527247,7.630009,1760340.000000,1673607724.467049,,,,
1673607724.527256,7.648098,1760341.000000,1673607724.468049,,,,
1673607724.527289,7.720462,1760342.000000,1673607724.469049,,,,
1673607724.527296,7.792819,1760343.000000,1673607724.470049,,,,
1673607724.528586,10.253078,1760390.000000,1673607724.517049,,,,
1673607724.528604,10.325435,1760391.000000,1673607724.518049,,,,
1673607724.528623,10.343524,1760392.000000,1673607724.519049,,,,
1673607724.528675,10.452066,1760393.000000,1673607724.520049,,,,
1673607724.528684,10.506334,1760394.000000,1673607724.521049,,,,
1673607724.528696,10.596787,1760395.000000,1673607724.522049,,,,
1673607724.528707,10.687241,1760396.000000,1673607724.523049,,,,
1673607724.528724,10.651063,1760397.000000,1673607724.524049,,,,
1673607724.528732,10.705330,1760398.000000,1673607724.525049,,,,
1673607724.528747,10.813872,1760399.000000,1673607724.526049,,,,
1673607724.530263,,,,43.840214,43.856220,1691800.000000,1673607212.492888
1673607724.530280,,,,43.835838,43.849705,1691801.000000,1673607212.493896
1673607724.530506,,,,43.833385,43.846653,1691802.000000,1673607212.494903
1673607724.530521,,,,43.826054,43.843719,1691803.000000,1673607212.495910
1673607724.530526,,,,43.813744,43.830448,1691804.000000,1673607212.496917
1673607724.530564,,,,43.813046,43.830811,1691805.000000,1673607212.497924
1673607724.530572,,,,43.815689,43.832756,1691806.000000,1673607212.498931
1673607724.530581,,,,43.818310,43.834152,1691807.000000,1673607212.499938
1673607724.530613,,,,43.818096,43.835304,1691808.000000,1673607212.500945
1673607724.530618,,,,43.811989,43.830978,1691809.000000,1673607212.501952
1673607724.530632,,,,43.811699,43.831772,1691810.000000,1673607212.502959
1673607724.530752,,,,43.806580,43.824223,1691811.000000,1673607212.503966
1673607724.531115,,,,43.814995,43.832951,1691812.000000,1673607212.504973
1673607724.531218,,,,43.836533,43.854298,1691813.000000,1673607212.505980
1673607724.531225,,,,43.840668,43.858360,1691814.000000,1673607212.506988
1673607724.531481,,,,43.837688,43.855690,1691815.000000,1673607212.507995
1673607724.531666,,,,43.832687,43.850979,1691816.000000,1673607212.509002
1673607724.531900,,,,43.824127,43.841290,1691817.000000,1673607212.510009
1673607724.532118,,,,43.810787,43.828526,1691818.000000,1673607212.511016
1673607724.532383,,,,43.803116,43.820305,1691819.000000,1673607212.512023
1673607724.532606,,,,43.799728,43.816433,1691820.000000,1673607212.513030
1673607724.533109,,,,43.794319,43.810974,1691821.000000,1673607212.514037
1673607724.533128,,,,43.803768,43.820808,1691822.000000,1673607212.515044
1673607724.533163,,,,43.813622,43.829296,1691823.000000,1673607212.516051
1673607724.533175,,,,43.817135,43.833332,1691824.000000,1673607212.517058
1673607724.533188,,,,43.828480,43.845112,1691825.000000,1673607212.518065
1673607724.533226,,,,43.849491,43.865910,1691826.000000,1673607212.519073
1673607724.535682,,,,43.858387,43.874107,1691827.000000,1673607212.520080
1673607724.535692,,,,43.863293,43.879276,1691828.000000,1673607212.521087
1673607724.535814,,,,43.858532,43.874611,1691829.000000,1673607212.522094
1673607724.535831,,,,43.853580,43.871006,1691830.000000,1673607212.523101
1673607724.535852,,,,43.855381,43.873817,1691831.000000,1673607212.524108
1673607724.535929,,,,43.849781,43.866798,1691832.000000,1673607212.525115
1673607724.536150,,,,43.828167,43.845932,1691833.000000,1673607212.526122
1673607724.536272,,,,43.812901,43.830978,1691834.000000,1673607212.527129
1673607724.536516,,,,43.807781,43.823139,1691835.000000,1673607212.528136
1673607724.536527,,,,43.795185,43.811337,1691836.000000,1673607212.529143
1673607724.536588,,,,43.787060,43.805038,1691837.000000,1673607212.530150
1673607724.536736,,,,43.788548,43.805183,1691838.000000,1673607212.531157
1673607724.536896,,,,43.781937,43.798283,1691839.000000,1673607212.532165
1673607724.537058,,,,43.770664,43.787514,1691840.000000,1673607212.533172
1673607724.537472,,,,43.766384,43.783211,1691841.000000,1673607212.534179
1673607724.537484,,,,43.775040,43.793137,1691842.000000,1673607212.535186
1673607724.537915,,,,43.795666,43.814365,1691843.000000,1673607212.536193
1673607724.537934,,,,43.822903,43.843525,1691844.000000,1673607212.537200
1673607724.537943,,,,43.845573,43.862278,1691845.000000,1673607212.538207
1673607724.537964,,,,43.853241,43.872879,1691846.000000,1673607212.539214
1673607724.538022,,,,43.850334,43.868095,1691847.000000,1673607212.540221
1673607724.541539,,,,43.840141,43.855476,1691848.000000,1673607212.541228
1673607724.541814,,,,43.834492,43.849705,1691849.000000,1673607212.542235
1673607724.542143,,,,43.833290,43.848743,1691850.000000,1673607212.543242
1673607724.542150,,,,43.827087,43.843670,1691851.000000,1673607212.544250
1673607724.542186,,,,43.826462,43.841892,1691852.000000,1673607212.545257
1673607724.542193,,,,43.837494,43.851700,1691853.000000,1673607212.546264
1673607724.542199,,,,43.858170,43.874252,1691854.000000,1673607212.547271
1673607724.543978,,,,43.870983,43.888653,1691855.000000,1673607212.548278
1673607724.544060,,,,43.868362,43.885502,1691856.000000,1673607212.549285
1673607724.544645,,,,43.852737,43.869659,1691857.000000,1673607212.550292
1673607724.544669,,,,43.834465,43.851414,1691858.000000,1673607212.551299
1673607724.544677,,,,43.831535,43.849319,1691859.000000,1673607212.552306
1673607724.544683,,,,43.826317,43.845932,1691860.000000,1673607212.553313
1673607724.544796,,,,43.820091,43.838215,1691861.000000,1673607212.554320
1673607724.544875,,,,43.808094,43.825665,1691862.000000,1673607212.555327
1673607724.553466,,,,43.784412,43.799942,1691863.000000,1673607212.556334
1673607724.553601,,,,43.765228,43.780491,1691864.000000,1673607212.557342
1673607724.553784,,,,43.753716,43.770130,1691865.000000,1673607212.558349
1673607724.553953,,,,43.774822,43.790855,1691866.000000,1673607212.559356
1673607724.554061,,,,43.812229,43.827419,1691867.000000,1673607212.560363
1673607724.554307,,,,43.837833,43.856220,1691868.000000,1673607212.561370
1673607724.554436,,,,43.852760,43.869610,1691869.000000,1673607212.562377
1673607724.554442,,,,43.859779,43.877930,1691870.000000,1673607212.563384
1673607724.554483,,,,43.874519,43.891655,1691871.000000,1673607212.564391
1673607724.554487,,,,43.864830,43.881222,1691872.000000,1673607212.565398
1673607724.575740,,,,43.855476,43.873386,1691873.000000,1673607212.566405
1673607724.575949,,,,43.849033,43.867905,1691874.000000,1673607212.567412
1673607724.576135,,,,43.847351,43.862953,1691875.000000,1673607212.568419
1673607724.576602,,,,43.844322,43.859585,1691876.000000,1673607212.569427
1673607724.576609,,,,43.830189,43.849056,1691877.000000,1673607212.570434
1673607724.576644,,,,43.814392,43.832661,1691878.000000,1673607212.571441
1673607724.576649,,,,43.799488,43.813595,1691879.000000,1673607212.572448
1673607724.576659,,,,43.786842,43.805111,1691880.000000,1673607212.573455
1673607724.580088,,,,43.794102,43.812298,1691881.000000,1673607212.574462
1673607724.580329,,,,43.800785,43.817970,1691882.000000,1673607212.575469
1673607724.580407,,,,43.811050,43.829342,1691883.000000,1673607212.576476
1673607724.580416,,,,43.832085,43.848385,1691884.000000,1673607212.577483
1673607724.580625,,,,43.852089,43.868698,1691885.000000,1673607212.578490
1673607724.580753,11.157581,1760405.000000,1673607724.524945,,,,
1673607724.580763,11.248034,1760406.000000,1673607724.525945,,,,
1673607724.580792,11.320391,1760407.000000,1673607724.526945,,,,
1673607724.580796,11.356577,1760408.000000,1673607724.527945,,,,
1673607724.580799,,,,43.864445,43.881920,1691886.000000,1673607212.579497
1673607724.581501,11.374666,1760409.000000,1673607724.528945,,,,
1673607724.581509,11.465112,1760410.000000,1673607724.529945,,,,
1673607724.581516,11.573654,1760411.000000,1673607724.530945,,,,
1673607724.581523,11.646019,1760412.000000,1673607724.531945,,,,
1673607724.581526,11.682197,1760413.000000,1673607724.532945,,,,
1673607724.581534,11.718375,1760414.000000,1673607724.533945,,,,
1673607724.581617,14.431898,1760451.000000,1673607724.570945,,,,
1673607724.581656,14.504254,1760452.000000,1673607724.571945,,,,
1673607724.581666,14.576619,1760453.000000,1673607724.572945,,,,
1673607724.581671,14.648975,1760454.000000,1673607724.573945,,,,
1673607724.581675,14.721340,1760455.000000,1673607724.574945,,,,
1673607724.581696,14.793696,1760456.000000,1673607724.575945,,,,
1673607724.581726,14.829874,1760457.000000,1673607724.576945,,,,
1673607724.581729,14.920328,1760458.000000,1673607724.577945,,,,
1673607724.581731,14.974595,1760459.000000,1673607724.578945,,,,
1673607724.581743,15.028871,1760460.000000,1673607724.579945,,,,
1673607724.594610,,,,43.863628,43.880188,1691887.000000,1673607212.580504
1673607724.594841,,,,43.859974,43.878578,1691888.000000,1673607212.581511
1673607724.595260,,,,43.860237,43.878338,1691889.000000,1673607212.582519
1673607724.595450,,,,43.868797,43.884445,1691890.000000,1673607212.583526
1673607724.595814,,,,43.873844,43.891392,1691891.000000,1673607212.584533
1673607724.596129,,,,43.875961,43.892403,1691892.000000,1673607212.585540
1673607724.596518,,,,43.873917,43.888241,1691893.000000,1673607212.586547
1673607724.596741,,,,43.892117,43.906754,1691894.000000,1673607212.587554
1673607724.597159,,,,43.915867,43.931156,1691895.000000,1673607212.588561
1673607724.597185,,,,43.890720,43.907425,1691896.000000,1673607212.589568
1673607724.597194,,,,43.871681,43.888531,1691897.000000,1673607212.590575
1673607724.601379,,,,43.862137,43.880669,1691898.000000,1673607212.591582
1673607724.601633,,,,43.858124,43.872688,1691899.000000,1673607212.592589
1673607724.601973,,,,43.858940,43.874081,1691900.000000,1673607212.593596
1673607724.645257,18.791616,1760512.000000,1673607724.634972,,,,
1673607724.645271,18.900160,1760513.000000,1673607724.635972,,,,
1673607724.645280,18.972515,1760514.000000,1673607724.636972,,,,
1673607724.645289,19.044880,1760515.000000,1673607724.637972,,,,
1673607724.645303,19.099148,1760516.000000,1673607724.638972,,,,
1673607724.645309,19.261957,1760517.000000,1673607724.639972,,,,
1673607724.645337,19.261957,1760518.000000,1673607724.640972,,,,
1673607724.645359,19.424767,1760519.000000,1673607724.641972,,,,
1673607724.645389,19.442856,1760520.000000,1673607724.642972,,,,
1673607724.645418,19.623762,1760521.000000,1673607724.643972,,,,
1673607724.662033,,,,43.863773,43.878387,1691901.000000,1673607212.594604
1673607724.662065,,,,43.855236,43.872543,1691902.000000,1673607212.595611
1673607724.662500,,,,43.850357,43.867664,1691903.000000,1673607212.596618
1673607724.663149,,,,43.838337,43.852589,1691904.000000,1673607212.597625
1673607724.663181,,,,43.823288,43.838020,1691905.000000,1673607212.598632
1673607724.664013,,,,43.817448,43.832420,1691906.000000,1673607212.599639
1673607724.664147,,,,43.798119,43.813644,1691907.000000,1673607212.600646
1673607724.668973,,,,43.780930,43.795372,1691908.000000,1673607212.601653
1673607724.669393,,,,43.776287,43.790829,1691909.000000,1673607212.602660
1673607724.669637,,,,43.786049,43.803139,1691910.000000,1673607212.603667
1673607724.669822,,,,43.802326,43.817490,1691911.000000,1673607212.604674
1673607724.671049,,,,43.830162,43.843910,1691912.000000,1673607212.605681
1673607724.671271,,,,43.857376,43.872086,1691913.000000,1673607212.606688
1673607724.671314,,,,43.876801,43.893578,1691914.000000,1673607212.607696
1673607724.671323,,,,43.899929,43.915936,1691915.000000,1673607212.608703
1673607724.676305,,,,43.902718,43.918823,1691916.000000,1673607212.609710
1673607724.676399,,,,43.887909,43.903870,1691917.000000,1673607212.610717
1673607724.676411,,,,43.880527,43.898914,1691918.000000,1673607212.611724
1673607724.678764,,,,43.878773,43.895046,1691919.000000,1673607212.612731
1673607724.678795,,,,43.869469,43.886272,1691920.000000,1673607212.613738
1673607724.678800,,,,43.856823,43.874081,1691921.000000,1673607212.614745
1673607724.678808,,,,43.852425,43.870018,1691922.000000,1673607212.615752
1673607724.700675,,,,43.848312,43.865162,1691923.000000,1673607212.616759
1673607724.701331,,,,43.841366,43.857662,1691924.000000,1673607212.617766
1673607724.701352,,,,43.836220,43.852856,1691925.000000,1673607212.618773
1673607724.701371,,,,43.832062,43.850594,1691926.000000,1673607212.619781
1673607724.706476,,,,43.828987,43.847542,1691927.000000,1673607212.620788
1673607724.706651,,,,43.832687,43.848721,1691928.000000,1673607212.621795
1673607724.706788,,,,43.808044,43.821217,1691929.000000,1673607212.622802
1673607724.706842,,,,43.754242,43.770130,1691930.000000,1673607212.623809
1673607724.706957,,,,43.645435,43.662167,1691931.000000,1673607212.624816
1673607724.707080,,,,43.627548,43.645023,1691932.000000,1673607212.625823
1673607724.711080,22.572453,1760573.000000,1673607724.700134,,,,
1673607724.711087,22.662897,1760574.000000,1673607724.701134,,,,
1673607724.711090,22.735262,1760575.000000,1673607724.702134,,,,
1673607724.711093,22.699083,1760576.000000,1673607724.703134,,,,
1673607724.711106,22.735262,1760577.000000,1673607724.704134,,,,
1673607724.711112,22.789530,1760578.000000,1673607724.705134,,,,
1673607724.711116,22.825716,1760579.000000,1673607724.706134,,,,
1673607724.711124,22.898071,1760580.000000,1673607724.707134,,,,
1673607724.711128,22.916161,1760581.000000,1673607724.708134,,,,
1673607724.711140,22.916161,1760582.000000,1673607724.709134,,,,
1673607724.721687,,,,43.649811,43.662094,1691933.000000,1673607212.626830
1673607724.721878,,,,43.708492,43.723614,1691934.000000,1673607212.627837
1673607724.721885,,,,43.775761,43.792370,1691935.000000,1673607212.628844
1673607724.721901,,,,43.855984,43.871174,1691936.000000,1673607212.629851
1673607724.722050,,,,43.918850,43.934834,1691937.000000,1673607212.630858
1673607724.722153,,,,43.945438,43.959522,1691938.000000,1673607212.631866
1673607724.722267,,,,43.977100,43.992939,1691939.000000,1673607212.632873
1673607724.723508,,,,43.982750,43.997845,1691940.000000,1673607212.633880
1673607724.723666,,,,43.937866,43.954235,1691941.000000,1673607212.634887
1673607724.723777,,,,43.910820,43.929543,1691942.000000,1673607212.635894
1673607724.723858,,,,43.894951,43.913124,1691943.000000,1673607212.636901
1673607724.728776,,,,43.874687,43.891151,1691944.000000,1673607212.637908
1673607724.729106,,,,43.848915,43.863361,1691945.000000,1673607212.638915
1673607724.729449,,,,43.820595,43.835785,1691946.000000,1673607212.639922
1673607724.729735,,,,43.801773,43.819199,1691947.000000,1673607212.640929
1673607724.731370,,,,43.804081,43.823238,1691948.000000,1673607212.641936
1673607724.732001,,,,43.825909,43.841965,1691949.000000,1673607212.642943
1673607724.732028,,,,43.839874,43.854824,1691950.000000,1673607212.643950
1673607724.732067,,,,43.836029,43.853455,1691951.000000,1673607212.644958
1673607724.737069,,,,43.836800,43.851654,1691952.000000,1673607212.645965
1673607724.737224,,,,43.844322,43.858528,1691953.000000,1673607212.646972
1673607724.737522,,,,43.860310,43.878193,1691954.000000,1673607212.647979
1673607724.737531,,,,43.884327,43.902836,1691955.000000,1673607212.648986
1673607724.737811,,,,43.893776,43.911224,1691956.000000,1673607212.649993
1673607724.737832,,,,43.897163,43.911419,1691957.000000,1673607212.651000
1673607724.738932,,,,43.910267,43.923271,1691958.000000,1673607212.652007
1673607724.739302,,,,43.921085,43.935482,1691959.000000,1673607212.653014
1673607724.739788,,,,43.893364,43.906872,1691960.000000,1673607212.654021
1673607724.739873,,,,43.850262,43.868961,1691961.000000,1673607212.655028
1673607724.739900,,,,43.824200,43.842445,1691962.000000,1673607212.656035
1673607724.739945,,,,43.821991,43.837517,1691963.000000,1673607212.657043
1673607724.739960,,,,43.827133,43.845978,1691964.000000,1673607212.658050
1673607724.753317,,,,43.845573,43.866943,1691965.000000,1673607212.659057
1673607724.754108,,,,43.866463,43.883820,1691966.000000,1673607212.660064
1673607724.754133,,,,43.878460,43.892136,1691967.000000,1673607212.661071
1673607724.754430,,,,43.886780,43.902355,1691968.000000,1673607212.662078
1673607724.754776,,,,43.890434,43.907116,1691969.000000,1673607212.663085
1673607724.755069,,,,43.880623,43.895382,1691970.000000,1673607212.664092
1673607724.755501,,,,43.877884,43.895332,1691971.000000,1673607212.665099
1673607724.756389,,,,43.891754,43.907955,1691972.000000,1673607212.666106
1673607724.756413,,,,43.901947,43.917645,1691973.000000,1673607212.667113
1673607724.757106,,,,43.905937,43.920769,1691974.000000,1673607212.668120
1673607724.757253,,,,43.902092,43.916130,1691975.000000,1673607212.669127
1673607724.757269,,,,43.885746,43.896778,1691976.000000,1673607212.670135
1673607724.760644,,,,43.880409,43.894997,1691977.000000,1673607212.671142
1673607724.760866,,,,43.882069,43.898869,1691978.000000,1673607212.672149
1673607724.761268,,,,43.878605,43.892883,1691979.000000,1673607212.673156
1673607724.761472,,,,43.868675,43.882160,1691980.000000,1673607212.674163
1673607724.761579,,,,43.861946,43.877399,1691981.000000,1673607212.675170
1673607724.761667,,,,43.858025,43.876293,1691982.000000,1673607212.676177
1673607724.761797,,,,43.856895,43.870598,1691983.000000,1673607212.677184
1673607724.761942,,,,43.846798,43.865089,1691984.000000,1673607212.678191
1673607724.762106,,,,43.837471,43.856197,1691985.000000,1673607212.679198
1673607724.762263,,,,43.833530,43.851990,1691986.000000,1673607212.680205
1673607724.762347,,,,43.840282,43.856510,1691987.000000,1673607212.681212
1673607724.763175,23.006615,1760583.000000,1673607724.702633,,,,
1673607724.763183,23.006615,1760584.000000,1673607724.703633,,,,
1673607724.763946,23.097069,1760585.000000,1673607724.704633,,,,
1673607724.763952,23.097069,1760586.000000,1673607724.705633,,,,
1673607724.763955,24.688995,1760634.000000,1673607724.753633,,,,
1673607724.764019,24.688995,1760635.000000,1673607724.754633,,,,
1673607724.764024,24.670906,1760636.000000,1673607724.755633,,,,
1673607724.764056,24.725174,1760637.000000,1673607724.756633,,,,
1673607724.764062,24.707085,1760638.000000,1673607724.757633,,,,
1673607724.764067,24.743263,1760639.000000,1673607724.758633,,,,
1673607724.764076,24.779449,1760640.000000,1673607724.759633,,,,
1673607724.764080,24.797539,1760641.000000,1673607724.760633,,,,
1673607724.764098,24.779449,1760642.000000,1673607724.761633,,,,
1673607724.764108,24.797539,1760643.000000,1673607724.762633,,,,
1673607724.766162,,,,43.848049,43.863071,1691988.000000,1673607212.682220
1673607724.766427,,,,43.856968,43.869778,1691989.000000,1673607212.683227
1673607724.776624,,,,43.863026,43.881462,1691990.000000,1673607212.684234
1673607724.776942,,,,43.865288,43.879707,1691991.000000,1673607212.685241
1673607724.777020,,,,43.863628,43.879707,1691992.000000,1673607212.686248
1673607724.777108,,,,43.874973,43.890839,1691993.000000,1673607212.687255
1673607724.777204,,,,43.890720,43.905457,1691994.000000,1673607212.688262
1673607724.777323,,,,43.883148,43.898746,1691995.000000,1673607212.689269
1673607724.777439,,,,43.879013,43.897305,1691996.000000,1673607212.690276
1673607724.777644,,,,43.869709,43.887161,1691997.000000,1673607212.691283
1673607724.777709,,,,43.860527,43.876320,1691998.000000,1673607212.692290
1673607724.777805,,,,43.858604,43.874275,1691999.000000,1673607212.693297
1673607724.777976,,,,43.847641,43.866821,1692000.000000,1673607212.694304
1673607724.778114,,,,43.850670,43.866798,1692001.000000,1673607212.695312
1673607724.778234,,,,43.848194,43.865356,1692002.000000,1673607212.696319
1673607724.778560,,,,43.848240,43.865765,1692003.000000,1673607212.697326
1673607724.778616,,,,43.850548,43.868843,1692004.000000,1673607212.698333
1673607724.778738,,,,43.843819,43.861221,1692005.000000,1673607212.699340
1673607724.778750,,,,43.834805,43.850067,1692006.000000,1673607212.700347
1673607724.778757,,,,43.837063,43.851414,1692007.000000,1673607212.701354
1673607724.778870,,,,43.841896,43.859200,1692008.000000,1673607212.702361
1673607724.779482,,,,43.849445,43.866776,1692009.000000,1673607212.703368
1673607724.779499,,,,43.850719,43.868816,1692010.000000,1673607212.704375
1673607724.779720,,,,43.858963,43.875862,1692011.000000,1673607212.705382
1673607724.779732,,,,43.861416,43.875092,1692012.000000,1673607212.706389
1673607724.779742,,,,43.857258,43.872375,1692013.000000,1673607212.707397
1673607724.779757,,,,43.870094,43.884853,1692014.000000,1673607212.708404
1673607724.779766,,,,43.884926,43.899422,1692015.000000,1673607212.709411
1673607724.779974,,,,43.894711,43.912548,1692016.000000,1673607212.710418
1673607724.779989,,,,43.904377,43.921345,1692017.000000,1673607212.711425
1673607724.780169,,,,43.906925,43.920338,1692018.000000,1673607212.712432
1673607724.780185,,,,43.891346,43.907475,1692019.000000,1673607212.713439
1673607724.780345,,,,43.874519,43.892403,1692020.000000,1673607212.714446
1673607724.780415,,,,43.868099,43.883553,1692021.000000,1673607212.715453
1673607724.780667,,,,43.859276,43.873699,1692022.000000,1673607212.716460
1673607724.780756,,,,43.842064,43.858913,1692023.000000,1673607212.717467
1673607724.780971,,,,43.845791,43.863602,1692024.000000,1673607212.718474
1673607724.781157,,,,43.855263,43.873505,1692025.000000,1673607212.719481
1673607724.782612,,,,43.863869,43.881752,1692026.000000,1673607212.720489
1673607724.782806,,,,43.873486,43.890671,1692027.000000,1673607212.721496
1673607724.783199,,,,43.869976,43.888168,1692028.000000,1673607212.722503
1673607724.784366,,,,43.820763,43.833958,1692030.000000,1673607212.724517
1673607724.784613,,,,43.748833,43.764507,1692031.000000,1673607212.725524
1673607724.784730,,,,43.682865,43.697720,1692032.000000,1673607212.726531
1673607724.785167,,,,43.646904,43.660793,1692033.000000,1673607212.727538
1673607724.785188,,,,43.634354,43.652115,1692034.000000,1673607212.728545
1673607724.785201,,,,43.659164,43.676926,1692035.000000,1673607212.729552
1673607724.785210,,,,43.714554,43.730297,1692036.000000,1673607212.730559
1673607724.785215,,,,43.791866,43.808403,1692037.000000,1673607212.731566
1673607724.785257,,,,43.870815,43.886871,1692038.000000,1673607212.732574
1673607724.785268,,,,43.939548,43.956085,1692039.000000,1673607212.733581
1673607724.785340,,,,43.978374,43.994766,1692040.000000,1673607212.734588
1673607724.785412,,,,43.979576,43.994549,1692041.000000,1673607212.735595
1673607724.785419,,,,43.965366,43.981277,1692042.000000,1673607212.736602
1673607724.785448,,,,43.946568,43.963947,1692043.000000,1673607212.737609
1673607724.785652,,,,43.929234,43.945698,1692044.000000,1673607212.738616
1673607724.785669,,,,43.916061,43.932430,1692045.000000,1673607212.739623
1673607724.785681,,,,43.889977,43.905598,1692046.000000,1673607212.740630
1673607724.791713,,,,43.862667,43.875092,1692047.000000,1673607212.741637
1673607724.792038,,,,43.851727,43.866894,1692048.000000,1673607212.742644
1673607724.792315,,,,43.847931,43.862591,1692049.000000,1673607212.743651
1673607724.792408,,,,43.843723,43.859825,1692050.000000,1673607212.744658
1673607724.792423,,,,43.845909,43.864586,1692051.000000,1673607212.745666
1673607724.792510,,,,43.859058,43.875046,1692052.000000,1673607212.746673
1673607724.792525,,,,43.862305,43.881344,1692053.000000,1673607212.747680
1673607724.792539,,,,43.858459,43.879299,1692054.000000,1673607212.748687
1673607724.815763,,,,43.867016,43.886654,1692055.000000,1673607212.749694
1673607724.816224,,,,43.884735,43.902740,1692056.000000,1673607212.750701
1673607724.816307,,,,43.903919,43.918365,1692057.000000,1673607212.751708
1673607724.816313,,,,43.903461,43.919590,1692058.000000,1673607212.752715
1673607724.816327,,,,43.891541,43.906826,1692059.000000,1673607212.753722
1673607724.816450,,,,43.888149,43.905262,1692060.000000,1673607212.754729
1673607724.816456,,,,43.876419,43.891537,1692061.000000,1673607212.755736
1673607724.816580,,,,43.868629,43.885311,1692062.000000,1673607212.756743
1673607724.816688,,,,43.864662,43.881702,1692063.000000,1673607212.757751
1673607724.817034,,,,43.854973,43.870090,1692064.000000,1673607212.758758
1673607724.817076,,,,43.848049,43.864033,1692065.000000,1673607212.759765
1673607724.817173,,,,43.843674,43.859802,1692066.000000,1673607212.760772
1673607724.817426,,,,43.840717,43.855957,1692067.000000,1673607212.761779
1673607724.817543,,,,43.838554,43.855331,1692068.000000,1673607212.762786
1673607724.817550,,,,43.835140,43.851822,1692069.000000,1673607212.763793
1673607724.817664,,,,43.841248,43.856892,1692070.000000,1673607212.764800
1673607724.817834,,,,43.843384,43.858673,1692071.000000,1673607212.765807
1673607724.817958,,,,43.835140,43.851604,1692072.000000,1673607212.766814
1673607724.818248,,,,43.838360,43.856075,1692073.000000,1673607212.767821
1673607724.818355,,,,43.856922,43.873432,1692074.000000,1673607212.768828
1673607724.818510,,,,43.870430,43.888145,1692075.000000,1673607212.769835
1673607724.818521,,,,43.874928,43.889828,1692076.000000,1673607212.770843
1673607724.818760,,,,43.868027,43.883530,1692077.000000,1673607212.771850
1673607724.818768,,,,43.871441,43.887642,1692078.000000,1673607212.772857
1673607724.818894,,,,43.877331,43.891991,1692079.000000,1673607212.773864
1673607724.819064,,,,43.874134,43.886513,1692080.000000,1673607212.774871
1673607724.819180,,,,43.851849,43.867809,1692081.000000,1673607212.775878
1673607724.819297,,,,43.843361,43.861076,1692082.000000,1673607212.776885
1673607724.819670,,,,43.842232,43.858986,1692083.000000,1673607212.777892
1673607724.819684,,,,43.828938,43.848648,1692084.000000,1673607212.778899
1673607724.819690,,,,43.822712,43.841049,1692085.000000,1673607212.779906
1673607724.819805,,,,43.817757,43.835041,1692086.000000,1673607212.780913
1673607724.819915,,,,43.813793,43.826698,1692087.000000,1673607212.781920
1673607724.819920,,,,43.810307,43.824753,1692088.000000,1673607212.782928
1673607724.819993,,,,43.808407,43.825905,1692089.000000,1673607212.783935
1673607724.820000,,,,43.820690,43.838215,1692090.000000,1673607212.784942
1673607724.826639,24.833717,1760644.000000,1673607724.766098,,,,
1673607724.828157,24.815628,1760695.000000,1673607724.817098,,,,
1673607724.828181,24.851805,1760696.000000,1673607724.818098,,,,
1673607724.828188,24.833717,1760697.000000,1673607724.819098,,,,
1673607724.828199,24.833717,1760698.000000,1673607724.820098,,,,
1673607724.828206,24.887983,1760699.000000,1673607724.821098,,,,
1673607724.828227,24.815628,1760700.000000,1673607724.822098,,,,
1673607724.828273,24.797539,1760701.000000,1673607724.823098,,,,
1673607724.828347,24.743263,1760702.000000,1673607724.824098,,,,
1673607724.828382,24.743263,1760703.000000,1673607724.825098,,,,
1673607724.828388,24.725174,1760704.000000,1673607724.826098,,,,
1673607724.843410,,,,43.847691,43.865524,1692091.000000,1673607212.785949
1673607724.843714,,,,43.867256,43.883793,1692092.000000,1673607212.786956
1673607724.843946,,,,43.880264,43.895576,1692093.000000,1673607212.787963
1673607724.844280,,,,43.873219,43.891415,1692094.000000,1673607212.788970
1673607724.844412,,,,43.848724,43.867157,1692095.000000,1673607212.789977
1673607724.845030,,,,43.844780,43.860474,1692096.000000,1673607212.790984
1673607724.845255,,,,43.866344,43.885525,1692097.000000,1673607212.791991
1673607724.845271,,,,43.865913,43.884758,1692098.000000,1673607212.792998
1673607724.845342,,,,43.846031,43.863625,1692099.000000,1673607212.794005
1673607724.845508,,,,43.838459,43.855885,1692100.000000,1673607212.795012
1673607724.845565,,,,43.844803,43.858070,1692101.000000,1673607212.796020
1673607724.845806,,,,43.844467,43.860596,1692102.000000,1673607212.797027
1673607724.846363,,,,43.843987,43.860065,1692103.000000,1673607212.798034
1673607724.846547,,,,43.837688,43.851772,1692104.000000,1673607212.799041
1673607724.846776,,,,43.836632,43.851627,1692105.000000,1673607212.800048
1673607724.846794,,,,43.841991,43.858166,1692106.000000,1673607212.801055
1673607724.846869,,,,43.843002,43.860283,1692107.000000,1673607212.802062
1673607724.847127,,,,43.853268,43.867710,1692108.000000,1673607212.803069
1673607724.847532,,,,43.858650,43.873409,1692109.000000,1673607212.804076
1673607724.847640,,,,43.855888,43.874538,1692110.000000,1673607212.805083
1673607724.849263,,,,43.856392,43.873577,1692111.000000,1673607212.806090
1673607724.849404,,,,43.855381,43.873337,1692112.000000,1673607212.807097
1673607724.849702,,,,43.857571,43.875549,1692113.000000,1673607212.808105
1673607724.849983,,,,43.855190,43.871967,1692114.000000,1673607212.809112
1673607724.850245,,,,43.854202,43.869659,1692115.000000,1673607212.810119
1673607724.850496,,,,43.852135,43.868217,1692116.000000,1673607212.811126
1673607724.850743,,,,43.844059,43.860619,1692117.000000,1673607212.812133
1673607724.851810,,,,43.825451,43.845184,1692118.000000,1673607212.813140
1673607724.851820,,,,43.810570,43.830208,1692119.000000,1673607212.814147
1673607724.851889,,,,43.792542,43.812130,1692120.000000,1673607212.815154
1673607724.851897,,,,43.786194,43.804413,1692121.000000,1673607212.816161
1673607724.851905,,,,43.784077,43.800976,1692122.000000,1673607212.817168
1673607724.851955,,,,43.784245,43.801216,1692123.000000,1673607212.818175
1673607724.851979,,,,43.795280,43.813644,1692124.000000,1673607212.819182
1673607724.851983,,,,43.811146,43.827660,1692125.000000,1673607212.820189
1673607724.856144,,,,43.819874,43.837154,1692126.000000,1673607212.821197
1673607724.856365,,,,43.809536,43.825855,1692127.000000,1673607212.822204
1673607724.856551,,,,43.810665,43.824245,1692128.000000,1673607212.823211
1673607724.858588,,,,43.793118,43.809460,1692129.000000,1673607212.824218
1673607724.858839,,,,43.788094,43.806313,1692130.000000,1673607212.825225
1673607724.858848,,,,43.793884,43.810112,1692131.000000,1673607212.826232
1673607724.872498,,,,43.788620,43.804291,1692132.000000,1673607212.827239
1673607724.872771,,,,43.797516,43.813694,1692133.000000,1673607212.828246
1673607724.872779,,,,43.828072,43.844318,1692134.000000,1673607212.829253
1673607724.872876,,,,43.845959,43.864441,1692135.000000,1673607212.830260
1673607724.872993,,,,43.854900,43.871246,1692136.000000,1673607212.831267
1673607724.880719,,,,43.871586,43.889252,1692137.000000,1673607212.832274
1673607724.880910,,,,43.878727,43.898964,1692138.000000,1673607212.833282
1673607724.881406,,,,43.864037,43.884396,1692139.000000,1673607212.834289
1673607724.881423,,,,43.847977,43.862854,1692140.000000,1673607212.835296
1673607724.881711,,,,43.835693,43.852180,1692141.000000,1673607212.836303
1673607724.882206,,,,43.849876,43.867977,1692142.000000,1673607212.837310
1673607724.882797,24.580454,1760723.000000,1673607724.838674,,,,
1673607724.882813,24.580454,1760724.000000,1673607724.839674,,,,
1673607724.883174,24.598541,1760725.000000,1673607724.840674,,,,
1673607724.883193,24.526186,1760726.000000,1673607724.841674,,,,
1673607724.883234,24.598541,1760727.000000,1673607724.842674,,,,
1673607724.883276,24.526186,1760728.000000,1673607724.843674,,,,
1673607724.883379,24.526186,1760729.000000,1673607724.844674,,,,
1673607724.883484,24.544275,1760730.000000,1673607724.845674,,,,
1673607724.884408,24.544275,1760731.000000,1673607724.846674,,,,
1673607724.884418,24.471910,1760732.000000,1673607724.847674,,,,
1673607724.884454,24.435732,1760756.000000,1673607724.871674,,,,
1673607724.884462,24.417643,1760757.000000,1673607724.872674,,,,
1673607724.884494,24.381466,1760758.000000,1673607724.873674,,,,
1673607724.884504,24.417643,1760759.000000,1673607724.874674,,,,
1673607724.884548,24.417643,1760760.000000,1673607724.875674,,,,
1673607724.884559,24.381466,1760761.000000,1673607724.876674,,,,
1673607724.884570,24.363377,1760762.000000,1673607724.877674,,,,
1673607724.884579,24.363377,1760763.000000,1673607724.878674,,,,
1673607724.884601,24.363377,1760764.000000,1673607724.879674,,,,
1673607724.884625,24.363377,1760765.000000,1673607724.880674,,,,
1673607724.887656,,,,43.870598,43.889614,1692143.000000,1673607212.838317
1673607724.887682,,,,43.869663,43.888721,1692144.000000,1673607212.839324
1673607724.887925,,,,43.858025,43.872807,1692145.000000,1673607212.840331
1673607724.888223,,,,43.854923,43.867809,1692146.000000,1673607212.841338
1673607724.888714,,,,43.857834,43.872906,1692147.000000,1673607212.842345
1673607724.888901,,,,43.856174,43.872784,1692148.000000,1673607212.843352
1673607724.888915,,,,43.854855,43.870934,1692149.000000,1673607212.844359
1673607724.889114,,,,43.846607,43.863888,1692150.000000,1673607212.845366
1673607724.889131,,,,43.848072,43.866917,1692151.000000,1673607212.846374
1673607724.889147,,,,43.860214,43.873577,1692152.000000,1673607212.847381
1673607724.889163,,,,43.862835,43.876461,1692153.000000,1673607212.848388
1673607724.890240,,,,43.838409,43.854706,1692154.000000,1673607212.849395
1673607724.890257,,,,43.819584,43.834801,1692155.000000,1673607212.850402
1673607724.890266,,,,43.813118,43.829750,1692156.000000,1673607212.851409
1673607724.890460,,,,43.796459,43.814991,1692157.000000,1673607212.852416
1673607724.890467,,,,43.790447,43.809532,1692158.000000,1673607212.853423
1673607724.890478,,,,43.799366,43.814438,1692159.000000,1673607212.854430
1673607724.890577,,,,43.799969,43.815590,1692160.000000,1673607212.855437
1673607724.890624,,,,43.788094,43.804508,1692161.000000,1673607212.856444
1673607724.890631,,,,43.786049,43.805111,1692162.000000,1673607212.857451
1673607724.890943,,,,43.799488,43.817757,1692163.000000,1673607212.858459
1673607724.890956,,,,43.829922,43.847973,1692164.000000,1673607212.859466
1673607724.890963,,,,43.858578,43.875309,1692165.000000,1673607212.860473
1673607724.890979,,,,43.876369,43.895287,1692166.000000,1673607212.861480
1673607724.890988,,,,43.876179,43.894543,1692167.000000,1673607212.862487
1673607724.890996,,,,43.864735,43.878529,1692168.000000,1673607212.863494
1673607724.893720,,,,43.855213,43.869804,1692169.000000,1673607212.864501
1673607724.893882,,,,43.834492,43.855019,1692170.000000,1673607212.865508
1673607724.894076,,,,43.822205,43.839367,1692171.000000,1673607212.866515
1673607724.896352,,,,43.806339,43.823166,1692172.000000,1673607212.867522
1673607724.896359,,,,43.806049,43.823933,1692173.000000,1673607212.868529
1673607724.896446,,,,43.811966,43.830811,1692174.000000,1673607212.869536
1673607724.902440,,,,43.828121,43.843838,1692175.000000,1673607212.870543
1673607724.902740,,,,43.843891,43.858864,1692176.000000,1673607212.871551
1673607724.903072,,,,43.857616,43.871872,1692177.000000,1673607212.872558
1673607724.903218,,,,43.857258,43.872906,1692178.000000,1673607212.873565
1673607724.903890,,,,43.849133,43.865261,1692179.000000,1673607212.874572
1673607724.903961,,,,43.837063,43.854538,1692180.000000,1673607212.875579
1673607724.904413,,,,43.831173,43.850449,1692181.000000,1673607212.876586
1673607724.904551,,,,43.832664,43.849514,1692182.000000,1673607212.877593
1673607724.904574,,,,43.833385,43.850090,1692183.000000,1673607212.878600
1673607724.904597,,,,43.824680,43.842876,1692184.000000,1673607212.879607
1673607724.904858,,,,43.821918,43.839394,1692185.000000,1673607212.880614
1673607724.905131,,,,43.828335,43.845570,1692186.000000,1673607212.881621
1673607724.905155,,,,43.831844,43.849464,1692187.000000,1673607212.882628
1673607724.905277,,,,43.835979,43.852688,1692188.000000,1673607212.883636
1673607724.905554,,,,43.839516,43.856197,1692189.000000,1673607212.884643
1673607724.905565,,,,43.844250,43.859993,1692190.000000,1673607212.885650
1673607724.905659,,,,43.845596,43.861507,1692191.000000,1673607212.886657
1673607724.905664,,,,43.827568,43.844681,1692192.000000,1673607212.887664
1673607724.905668,,,,43.805256,43.821552,1692193.000000,1673607212.888671
1673607724.905699,,,,43.788452,43.805542,1692194.000000,1673607212.889678
1673607724.905730,,,,43.788620,43.802731,1692195.000000,1673607212.890685
1673607724.905756,,,,43.797226,43.813549,1692196.000000,1673607212.891692
1673607724.908898,,,,43.804176,43.823093,1692197.000000,1673607212.892699
1673607724.908909,,,,43.799007,43.814941,1692198.000000,1673607212.893706
1673607724.908912,,,,43.800449,43.817177,1692199.000000,1673607212.894713
1673607724.908933,,,,43.817471,43.833622,1692200.000000,1673607212.895720
1673607724.911012,,,,43.832016,43.847950,1692201.000000,1673607212.896728
1673607724.911210,,,,43.833458,43.849464,1692202.000000,1673607212.897735
1673607724.911295,,,,43.836872,43.855042,1692203.000000,1673607212.898742
1673607724.942252,,,,43.832352,43.851894,1692204.000000,1673607212.899749
1673607724.942532,,,,43.833984,43.851460,1692205.000000,1673607212.900756
1673607724.942850,,,,43.843025,43.856270,1692206.000000,1673607212.901763
1673607724.943299,,,,43.850166,43.864010,1692207.000000,1673607212.902770
1673607724.943786,,,,43.853794,43.868649,1692208.000000,1673607212.903777
1673607724.943813,,,,43.860264,43.878986,1692209.000000,1673607212.904784
1673607724.944377,,,,43.857906,43.874660,1692210.000000,1673607212.905791
1673607724.944396,,,,43.866154,43.881557,1692211.000000,1673607212.906798
1673607724.944416,,,,43.866463,43.882618,1692212.000000,1673607212.907805
1673607724.944429,,,,43.858723,43.875862,1692213.000000,1673607212.908813
1673607724.944841,,,,43.856079,43.874733,1692214.000000,1673607212.909820
1673607724.946838,,,,43.852375,43.870838,1692215.000000,1673607212.910827
1673607724.946853,,,,43.852642,43.869396,1692216.000000,1673607212.911834
1673607724.946861,,,,43.849133,43.864876,1692217.000000,1673607212.912841
1673607724.947016,,,,43.833843,43.849968,1692218.000000,1673607212.913848
1673607724.947345,,,,43.795353,43.811649,1692219.000000,1673607212.914855
1673607724.947358,,,,43.762779,43.777248,1692220.000000,1673607212.915862
1673607724.947393,,,,43.742222,43.758545,1692221.000000,1673607212.916869
1673607724.947708,,,,43.716499,43.732338,1692222.000000,1673607212.917876
1673607724.947781,,,,43.710682,43.726883,1692223.000000,1673607212.918883
1673607724.947998,,,,43.727077,43.742027,1692224.000000,1673607212.919890
1673607724.948435,,,,43.761383,43.778305,1692225.000000,1673607212.920897
1673607724.948517,,,,43.805618,43.821842,1692226.000000,1673607212.921905
1673607724.948588,,,,43.833458,43.851482,1692227.000000,1673607212.922912
1673607724.948725,,,,43.867714,43.883793,1692228.000000,1673607212.923919
1673607724.948922,24.363377,1760766.000000,1673607724.887776,,,,
1673607724.949016,,,,43.890385,43.904781,1692229.000000,1673607212.924926
1673607724.949135,24.309101,1760767.000000,1673607724.888776,,,,
1673607724.949363,,,,43.900002,43.913437,1692230.000000,1673607212.925933
1673607724.949471,24.309101,1760768.000000,1673607724.889776,,,,
1673607724.949477,24.363377,1760769.000000,1673607724.890776,,,,
1673607724.949545,24.291012,1760770.000000,1673607724.891776,,,,
1673607724.949605,,,,43.902527,43.919086,1692231.000000,1673607212.926940
1673607724.950716,24.272923,1760817.000000,1673607724.938776,,,,
1673607724.950722,24.272923,1760818.000000,1673607724.939776,,,,
1673607724.950730,24.272923,1760819.000000,1673607724.940776,,,,
1673607724.950736,24.218655,1760820.000000,1673607724.941776,,,,
1673607724.950740,24.327190,1760821.000000,1673607724.942775,,,,
1673607724.950743,24.309101,1760822.000000,1673607724.943776,,,,
1673607724.950757,24.291012,1760823.000000,1673607724.944776,,,,
1673607724.950763,24.309101,1760824.000000,1673607724.945776,,,,
1673607724.950768,24.291012,1760825.000000,1673607724.946776,,,,
1673607724.950774,24.399555,1760826.000000,1673607724.947776,,,,
1673607724.953644,,,,43.889927,43.906273,1692232.000000,1673607212.927947
1673607724.953819,,,,43.878796,43.897427,1692233.000000,1673607212.928954
1673607724.953971,,,,43.864880,43.881870,1692234.000000,1673607212.929961
1673607724.954085,,,,43.837906,43.854656,1692235.000000,1673607212.930968
1673607724.956408,,,,43.805233,43.820351,1692236.000000,1673607212.931975
1673607724.956422,,,,43.784412,43.801456,1692237.000000,1673607212.932982
1673607724.956636,,,,43.769989,43.785107,1692238.000000,1673607212.933990
1673607724.956750,,,,43.771046,43.789364,1692239.000000,1673607212.934997
1673607724.957026,,,,43.786312,43.803982,1692240.000000,1673607212.936004
1673607724.957031,,,,43.793213,43.809364,1692241.000000,1673607212.937011
1673607724.957033,,,,43.790737,43.806553,1692242.000000,1673607212.938018
1673607724.962000,,,,43.788139,43.805061,1692243.000000,1673607212.939025
1673607724.962142,,,,43.786457,43.804173,1692244.000000,1673607212.940032
1673607724.962418,,,,43.782322,43.798401,1692245.000000,1673607212.941039
1673607724.962429,,,,43.819202,43.834343,1692246.000000,1673607212.942046
1673607724.962577,,,,43.856464,43.872013,1692247.000000,1673607212.943053
1673607724.962710,,,,43.863506,43.880451,1692248.000000,1673607212.944060
1673607724.963056,,,,43.870312,43.887280,1692249.000000,1673607212.945067
1673607724.963064,,,,43.860191,43.875454,1692250.000000,1673607212.946074
1673607724.963089,,,,43.861946,43.876751,1692251.000000,1673607212.947082
1673607724.963149,,,,43.865070,43.881729,1692252.000000,1673607212.948089
1673607724.968609,,,,43.853699,43.873024,1692253.000000,1673607212.949096
1673607724.968895,,,,43.853531,43.871292,1692254.000000,1673607212.950103
1673607724.968905,,,,43.859493,43.878025,1692255.000000,1673607212.951110
1673607724.968923,,,,43.847450,43.864010,1692256.000000,1673607212.952117
1673607724.971359,,,,43.822372,43.838768,1692257.000000,1673607212.953124
1673607724.971591,,,,43.799030,43.814869,1692258.000000,1673607212.954131
1673607724.972008,,,,43.789871,43.807106,1692259.000000,1673607212.955138
1673607724.972301,,,,43.776768,43.797081,1692260.000000,1673607212.956145
1673607724.977110,,,,43.780567,43.800495,1692261.000000,1673607212.957152
1673607724.977185,,,,43.789776,43.809460,1692262.000000,1673607212.958159
1673607724.977513,,,,43.780567,43.800495,1692263.000000,1673607212.959167
1673607724.977721,,,,43.861752,43.879131,1692264.000000,1673607212.960174
1673607724.978007,,,,43.866344,43.882401,1692265.000000,1673607212.961181
1673607724.978124,,,,43.867523,43.882954,1692266.000000,1673607212.962188
1673607724.978297,,,,43.876080,43.892090,1692267.000000,1673607212.963195
1673607724.978738,,,,43.875526,43.890285,1692268.000000,1673607212.964202
1673607724.979042,,,,43.862930,43.878120,1692269.000000,1673607212.965209
1673607724.979059,,,,43.852234,43.868843,1692270.000000,1673607212.966216
1673607724.979330,,,,43.852016,43.869251,1692271.000000,1673607212.967223
1673607724.984073,,,,43.854374,43.871006,1692272.000000,1673607212.968230
1673607724.984852,,,,43.854012,43.867329,1692273.000000,1673607212.969237
1673607724.984865,,,,43.850285,43.864250,1692274.000000,1673607212.970244
1673607724.984874,,,,43.840908,43.856606,1692275.000000,1673607212.971251
1673607724.984934,,,,43.827881,43.843525,1692276.000000,1673607212.972259
1673607724.985023,,,,43.813622,43.833549,1692277.000000,1673607212.973266
1673607725.001145,,,,43.801533,43.816769,1692278.000000,1673607212.974273
1673607725.001167,,,,43.788860,43.803402,1692279.000000,1673607212.975280
1673607725.001424,,,,43.782562,43.798836,1692280.000000,1673607212.976287
1673607725.001436,,,,43.776024,43.792801,1692281.000000,1673607212.977294
1673607725.001442,,,,43.772633,43.788475,1692282.000000,1673607212.978301
1673607725.001462,,,,43.792542,43.810184,1692283.000000,1673607212.979308
1673607725.001605,,,,43.822807,43.841843,1692284.000000,1673607212.980315
1673607725.001737,,,,43.825211,43.843479,1692285.000000,1673607212.981322
1673607725.007829,,,,43.819611,43.836098,1692286.000000,1673607212.982329
1673607725.007985,,,,43.829659,43.846004,1692287.000000,1673607212.983336
1673607725.008118,,,,43.836872,43.851460,1692288.000000,1673607212.984344
1673607725.008518,,,,43.829681,43.844536,1692289.000000,1673607212.985351
1673607725.008526,,,,43.830452,43.846363,1692290.000000,1673607212.986358
1673607725.008544,,,,43.842690,43.858528,1692291.000000,1673607212.987365
1673607725.008546,,,,43.842495,43.858070,1692292.000000,1673607212.988372
1673607725.013057,24.309101,1760827.000000,1673607724.952616,,,,
1673607725.013849,24.381466,1760872.000000,1673607724.997616,,,,
1673607725.014184,,,,43.829971,43.846218,1692293.000000,1673607212.989379
1673607725.014192,24.345280,1760873.000000,1673607724.998616,,,,
1673607725.014198,24.327190,1760874.000000,1673607724.999616,,,,
1673607725.014201,24.327190,1760875.000000,1673607725.000616,,,,
1673607725.014311,24.309101,1760876.000000,1673607725.001616,,,,
1673607725.014323,24.254833,1760877.000000,1673607725.002616,,,,
1673607725.014340,24.327190,1760878.000000,1673607725.003616,,,,
1673607725.014344,24.309101,1760879.000000,1673607725.004616,,,,
1673607725.014348,24.309101,1760880.000000,1673607725.005616,,,,
1673607725.014361,24.309101,1760881.000000,1673607725.006616,,,,
1673607725.014366,24.272923,1760882.000000,1673607725.007616,,,,
1673607725.014373,24.345280,1760883.000000,1673607725.008616,,,,
1673607725.014379,24.309101,1760884.000000,1673607725.009616,,,,
1673607725.014393,24.381466,1760885.000000,1673607725.010616,,,,
1673607725.014397,24.309101,1760886.000000,1673607725.011616,,,,
1673607725.014401,24.291012,1760887.000000,1673607725.012616,,,,
1673607725.014417,,,,43.831654,43.848984,1692294.000000,1673607212.990386
1673607725.014558,,,,43.840935,43.858650,1692295.000000,1673607212.991393
1673607725.014644,,,,43.846390,43.861149,1692296.000000,1673607212.992400
1673607725.014687,,,,43.840694,43.853962,1692297.000000,1673607212.993407
1673607725.014786,,,,43.829201,43.844078,1692298.000000,1673607212.994414
1673607725.014795,,,,43.817493,43.834946,1692299.000000,1673607212.995421
1673607725.025696,,,,43.815353,43.833405,1692300.000000,1673607212.996428
1673607725.026128,,,,43.801651,43.817177,1692301.000000,1673607212.997436
1673607725.026203,,,,43.801483,43.818573,1692302.000000,1673607212.998443
1673607725.034262,,,,43.816196,43.832829,1692303.000000,1673607212.999450
1673607725.034960,,,,43.834251,43.850666,1692304.000000,1673607213.000457
1673607725.035076,,,,43.856922,43.873745,1692305.000000,1673607213.001464
1673607725.035254,,,,43.871971,43.888962,1692306.000000,1673607213.002471
1673607725.035729,,,,43.879421,43.898506,1692307.000000,1673607213.003478
1673607725.036241,,,,43.881489,43.900070,1692308.000000,1673607213.004485
1673607725.036853,,,,43.876560,43.894398,1692309.000000,1673607213.005492
1673607725.037504,,,,43.880577,43.896801,1692310.000000,1673607213.006499
1673607725.037517,,,,43.881683,43.898773,1692311.000000,1673607213.007506
1673607725.037532,,,,43.876537,43.893532,1692312.000000,1673607213.008513
1673607725.037841,,,,43.857811,43.875237,1692313.000000,1673607213.009521
1673607725.038145,,,,43.842930,43.860619,1692314.000000,1673607213.010528
1673607725.038440,,,,43.837734,43.855789,1692315.000000,1673607213.011535
1673607725.038707,,,,43.830475,43.847420,1692316.000000,1673607213.012542
1673607725.038839,,,,43.824417,43.840763,1692317.000000,1673607213.013549
1673607725.039135,,,,43.821461,43.834919,1692318.000000,1673607213.014556
1673607725.039382,,,,43.800835,43.816555,1692319.000000,1673607213.015563
1673607725.039580,,,,43.781696,43.800087,1692320.000000,1673607213.016570
1673607725.039816,,,,43.776722,43.794125,1692321.000000,1673607213.017577
1673607725.040061,,,,43.784607,43.801815,1692322.000000,1673607213.018584
1673607725.040462,,,,43.792202,43.809559,1692323.000000,1673607213.019591
1673607725.041284,,,,43.809898,43.827515,1692324.000000,1673607213.020598
1673607725.041312,,,,43.824490,43.842686,1692325.000000,1673607213.021605
1673607725.041584,,,,43.820545,43.837204,1692326.000000,1673607213.022613
1673607725.041701,,,,43.842377,43.858746,1692327.000000,1673607213.023620
1673607725.041718,,,,43.854805,43.872856,1692328.000000,1673607213.024627
1673607725.041723,,,,43.860237,43.878025,1692329.000000,1673607213.025634
1673607725.041823,,,,43.855286,43.870934,1692330.000000,1673607213.026641
1673607725.041833,,,,43.841824,43.856148,1692331.000000,1673607213.027648
1673607725.041962,,,,43.833168,43.848526,1692332.000000,1673607213.028655
1673607725.042060,,,,43.829323,43.844440,1692333.000000,1673607213.029662
1673607725.042080,,,,43.810474,43.825207,1692334.000000,1673607213.030669
1673607725.042227,,,,43.788212,43.804821,1692335.000000,1673607213.031676
1673607725.042268,,,,43.774101,43.794075,1692336.000000,1673607213.032683
1673607725.042294,,,,43.759964,43.777824,1692337.000000,1673607213.033690
1673607725.042301,,,,43.770855,43.785805,1692338.000000,1673607213.034698
1673607725.043694,,,,43.783451,43.796623,1692339.000000,1673607213.035705
1673607725.043792,,,,43.792877,43.807537,1692340.000000,1673607213.036712
1673607725.043798,,,,43.809418,43.824894,1692341.000000,1673607213.037719
1673607725.046716,,,,43.820789,43.834873,1692342.000000,1673607213.038726
1673607725.046726,,,,43.836151,43.849129,1692343.000000,1673607213.039733
1673607725.046729,,,,43.859756,43.876198,1692344.000000,1673607213.040740
1673607725.046851,,,,43.863506,43.879036,1692345.000000,1673607213.041747
1673607725.046861,,,,43.839779,43.855740,1692346.000000,1673607213.042754
1673607725.046868,,,,43.846752,43.862976,1692347.000000,1673607213.043761
1673607725.046873,,,,43.874760,43.889397,1692348.000000,1673607213.044768
1673607725.046881,,,,43.886753,43.903702,1692349.000000,1673607213.045775
1673607725.066968,24.291012,1760888.000000,1673607725.006495,,,,
1673607725.067815,,,,43.883148,43.901199,1692350.000000,1673607213.046782
1673607725.067829,24.254833,1760910.000000,1673607725.028494,,,,
1673607725.068047,,,,43.865406,43.883003,1692351.000000,1673607213.047790
1673607725.068060,24.236744,1760911.000000,1673607725.029495,,,,
1673607725.068214,,,,43.859299,43.876968,1692352.000000,1673607213.048797
1673607725.068711,24.291012,1760912.000000,1673607725.030494,,,,
1673607725.068733,24.236744,1760913.000000,1673607725.031494,,,,
1673607725.068954,,,,43.867065,43.885189,1692353.000000,1673607213.049804
1673607725.068966,,,,43.872475,43.886967,1692354.000000,1673607213.050811
1673607725.069057,,,,43.868221,43.881870,1692355.000000,1673607213.051818
1673607725.069366,,,,43.846149,43.861847,1692356.000000,1673607213.052825
1673607725.069605,24.272923,1760914.000000,1673607725.032495,,,,
1673607725.069630,24.254833,1760915.000000,1673607725.033494,,,,
1673607725.069639,24.218655,1760916.000000,1673607725.034494,,,,
1673607725.069647,24.200558,1760917.000000,1673607725.035495,,,,
1673607725.069655,24.164379,1760918.000000,1673607725.036494,,,,
1673607725.069664,24.146292,1760919.000000,1673607725.037494,,,,
1673607725.069671,24.019659,1760939.000000,1673607725.057494,,,,
1673607725.069684,23.983480,1760940.000000,1673607725.058495,,,,
1673607725.069826,23.929205,1760941.000000,1673607725.059494,,,,
1673607725.069836,23.929205,1760942.000000,1673607725.060494,,,,
1673607725.069844,23.911118,1760943.000000,1673607725.061494,,,,
1673607725.069851,23.893028,1760944.000000,1673607725.062495,,,,
1673607725.069857,23.820671,1760945.000000,1673607725.063494,,,,
1673607725.069902,23.838760,1760946.000000,1673607725.064494,,,,
1673607725.069916,23.766396,1760947.000000,1673607725.065495,,,,
1673607725.069931,23.874939,1760948.000000,1673607725.066494,,,,
1673607725.073823,,,,43.826126,43.841965,1692357.000000,1673607213.053832
1673607725.073980,,,,43.827183,43.842133,1692358.000000,1673607213.054839
1673607725.074236,,,,43.823769,43.836723,1692359.000000,1673607213.055846
1673607725.081317,,,,43.820427,43.835064,1692360.000000,1673607213.056853
1673607725.081840,,,,43.814995,43.829029,1692361.000000,1673607213.057860
1673607725.081885,,,,43.805210,43.822105,1692362.000000,1673607213.058867
1673607725.081984,,,,43.804008,43.819679,1692363.000000,1673607213.059875
1673607725.089940,,,,43.817951,43.833672,1692364.000000,1673607213.060882
1673607725.089979,,,,43.844036,43.863094,1692365.000000,1673607213.061889
1673607725.090005,,,,43.851273,43.870739,1692366.000000,1673607213.062896
1673607725.090491,,,,43.847569,43.864971,1692367.000000,1673607213.063903
1673607725.090891,,,,43.843891,43.859924,1692368.000000,1673607213.064910
1673607725.091275,,,,43.846294,43.862232,1692369.000000,1673607213.065917
1673607725.091617,,,,43.853241,43.868912,1692370.000000,1673607213.066924
1673607725.092162,,,,43.850887,43.868889,1692371.000000,1673607213.067931
1673607725.092674,,,,43.853916,43.867397,1692372.000000,1673607213.068938
1673607725.092775,,,,43.859566,43.874466,1692373.000000,1673607213.069945
1673607725.092794,,,,43.870071,43.884323,1692374.000000,1673607213.070952
1673607725.096318,,,,43.863941,43.878098,1692375.000000,1673607213.071959
1673607725.096574,,,,43.853554,43.866676,1692376.000000,1673607213.072967
1673607725.096994,,,,43.841774,43.858383,1692377.000000,1673607213.073974
1673607725.099392,,,,43.834972,43.852348,1692378.000000,1673607213.074981
1673607725.099494,,,,43.822231,43.839943,1692379.000000,1673607213.075988
1673607725.099509,,,,43.810402,43.829414,1692380.000000,1673607213.076995
1673607725.103847,,,,43.814224,43.831963,1692381.000000,1673607213.078002
1673607725.104139,,,,43.820114,43.837517,1692382.000000,1673607213.079009
1673607725.104403,,,,43.821316,43.838600,1692383.000000,1673607213.080016
1673607725.104486,,,,43.816822,43.832371,1692384.000000,1673607213.081023
1673607725.106193,,,,43.820763,43.834053,1692385.000000,1673607213.082030
1673607725.106791,,,,43.832062,43.847855,1692386.000000,1673607213.083037
1673607725.107038,,,,43.833504,43.848286,1692387.000000,1673607213.084044
1673607725.107198,,,,43.835667,43.851627,1692388.000000,1673607213.085052
1673607725.127698,,,,43.846725,43.865742,1692389.000000,1673607213.086059
1673607725.128081,,,,43.855648,43.873096,1692390.000000,1673607213.087066
1673607725.128095,,,,43.865143,43.882641,1692391.000000,1673607213.088073
1673607725.132509,23.856850,1760949.000000,1673607725.071787,,,,
1673607725.132638,23.838760,1760950.000000,1673607725.072787,,,,
1673607725.132652,23.838760,1760951.000000,1673607725.073787,,,,
1673607725.132689,23.784485,1760952.000000,1673607725.074787,,,,
1673607725.134229,23.820671,1760953.000000,1673607725.075787,,,,
1673607725.134239,23.169424,1761000.000000,1673607725.122787,,,,
1673607725.134245,23.133245,1761001.000000,1673607725.123787,,,,
1673607725.134268,23.115156,1761002.000000,1673607725.124787,,,,
1673607725.134279,23.115156,1761003.000000,1673607725.125787,,,,
1673607725.134287,23.097069,1761004.000000,1673607725.126787,,,,
1673607725.134293,23.115156,1761005.000000,1673607725.127787,,,,
1673607725.134368,23.024704,1761006.000000,1673607725.128787,,,,
1673607725.134378,23.115156,1761007.000000,1673607725.129787,,,,
1673607725.134391,23.078970,1761008.000000,1673607725.130787,,,,
1673607725.134397,23.042793,1761009.000000,1673607725.131787,,,,
1673607725.149477,,,,43.861225,43.877785,1692392.000000,1673607213.089080
1673607725.149647,,,,43.853916,43.871052,1692393.000000,1673607213.090087
1673607725.149668,,,,43.850719,43.869202,1692394.000000,1673607213.091094
1673607725.149711,,,,43.831676,43.850498,1692395.000000,1673607213.092101
1673607725.152186,,,,43.790112,43.805664,1692396.000000,1673607213.093108
1673607725.152544,,,,43.761166,43.777534,1692397.000000,1673607213.094115
1673607725.153758,,,,43.748642,43.765877,1692398.000000,1673607213.095122
1673607725.153875,,,,43.740875,43.756618,1692399.000000,1673607213.096129
1673607725.154153,,,,43.744556,43.761765,1692400.000000,1673607213.097136
1673607725.154178,,,,43.752056,43.766933,1692401.000000,1673607213.098144
1673607725.154187,,,,43.763954,43.779869,1692402.000000,1673607213.099151
1673607725.154675,,,,43.783886,43.799294,1692403.000000,1673607213.100158
1673607725.155018,,,,43.801361,43.819439,1692404.000000,1673607213.101165
1673607725.155175,,,,43.816795,43.834465,1692405.000000,1673607213.102172
1673607725.156690,,,,43.839779,43.858238,1692406.000000,1673607213.103179
1673607725.157476,,,,43.873196,43.889301,1692407.000000,1673607213.104186
1673607725.157486,,,,43.901466,43.915649,1692408.000000,1673607213.105193
1673607725.157491,,,,43.889591,43.904636,1692409.000000,1673607213.106200
1673607725.157597,,,,43.870358,43.883385,1692410.000000,1673607213.107207
1673607725.157607,,,,43.868221,43.882545,1692411.000000,1673607213.108214
1673607725.157615,,,,43.865238,43.880188,1692412.000000,1673607213.109221
1673607725.157624,,,,43.858650,43.875259,1692413.000000,1673607213.110229
1673607725.158762,,,,43.865501,43.882832,1692414.000000,1673607213.111236
1673607725.158775,,,,43.870285,43.887688,1692415.000000,1673607213.112243
1673607725.158792,,,,43.867714,43.881031,1692416.000000,1673607213.113250
1673607725.163986,,,,43.858147,43.872448,1692417.000000,1673607213.114257
1673607725.164157,,,,43.842041,43.860115,1692418.000000,1673607213.115264
1673607725.164326,,,,43.832951,43.850906,1692419.000000,1673607213.116271
1673607725.164582,,,,43.822613,43.837227,1692420.000000,1673607213.117278
1673607725.164595,,,,43.800640,43.817131,1692421.000000,1673607213.118285
1673607725.164869,,,,43.779751,43.795086,1692422.000000,1673607213.119292
1673607725.164982,,,,43.769028,43.787441,1692423.000000,1673607213.120299
1673607725.168178,,,,43.777515,43.794411,1692424.000000,1673607213.121306
1673607725.168449,,,,43.786697,43.805061,1692425.000000,1673607213.122313
1673607725.168456,,,,43.792252,43.811527,1692426.000000,1673607213.123321
1673607725.168503,,,,43.820114,43.835258,1692427.000000,1673607213.124328
1673607725.168586,,,,43.841148,43.853962,1692428.000000,1673607213.125335
1673607725.168751,,,,43.852352,43.866463,1692429.000000,1673607213.126342
1673607725.168762,,,,43.880383,43.895790,1692430.000000,1673607213.127349
1673607725.168766,,,,43.892090,43.904949,1692431.000000,1673607213.128356
1673607725.186654,23.024704,1761010.000000,1673607725.125863,,,,
1673607725.188095,23.024704,1761011.000000,1673607725.126863,,,,
1673607725.188118,22.590542,1761061.000000,1673607725.176863,,,,
1673607725.188126,22.572453,1761062.000000,1673607725.177863,,,,
1673607725.188138,22.536274,1761063.000000,1673607725.178863,,,,
1673607725.188187,22.518177,1761064.000000,1673607725.179863,,,,
1673607725.188196,22.481998,1761065.000000,1673607725.180863,,,,
1673607725.188230,22.518177,1761066.000000,1673607725.181863,,,,
1673607725.188245,22.463909,1761067.000000,1673607725.182863,,,,
1673607725.188253,22.500088,1761068.000000,1673607725.183863,,,,
1673607725.188290,22.445820,1761069.000000,1673607725.184863,,,,
1673607725.188296,22.463909,1761070.000000,1673607725.185863,,,,
1673607725.203282,,,,43.882069,43.894901,1692432.000000,1673607213.129363
1673607725.203328,,,,43.859779,43.875092,1692433.000000,1673607213.130370
1673607725.203413,,,,43.842041,43.860668,1692434.000000,1673607213.131377
1673607725.203427,,,,43.835739,43.852951,1692435.000000,1673607213.132384
1673607725.204131,,,,43.827518,43.845619,1692436.000000,1673607213.133391
1673607725.204719,,,,43.819511,43.836601,1692437.000000,1673607213.134398
1673607725.207162,,,,43.812782,43.828716,1692438.000000,1673607213.135406
1673607725.207652,,,,43.807732,43.822060,1692439.000000,1673607213.136413
1673607725.207681,,,,43.800472,43.818260,1692440.000000,1673607213.137420
1673607725.207695,,,,43.797710,43.814968,1692441.000000,1673607213.138427
1673607725.207744,,,,43.794582,43.811287,1692442.000000,1673607213.139434
1673607725.207876,,,,43.797829,43.814415,1692443.000000,1673607213.140441
1673607725.208164,,,,43.797588,43.813354,1692444.000000,1673607213.141448
1673607725.208184,,,,43.793068,43.807274,1692445.000000,1673607213.142455
1673607725.208229,,,,43.801003,43.816818,1692446.000000,1673607213.143462
1673607725.208505,,,,43.832256,43.848934,1692447.000000,1673607213.144469
1673607725.208906,,,,43.843723,43.860619,1692448.000000,1673607213.145476
1673607725.209276,,,,43.844395,43.859753,1692449.000000,1673607213.146483
1673607725.209724,,,,43.851151,43.865452,1692450.000000,1673607213.147491
1673607725.209925,,,,43.857353,43.873867,1692451.000000,1673607213.148498
1673607725.210034,,,,43.863148,43.882038,1692452.000000,1673607213.149505
1673607725.210208,,,,43.858337,43.876942,1692453.000000,1673607213.150512
1673607725.210217,,,,43.845718,43.863407,1692454.000000,1673607213.151519
1673607725.210229,,,,43.847111,43.861629,1692455.000000,1673607213.152526
1673607725.210288,,,,43.856728,43.870331,1692456.000000,1673607213.153533
1673607725.211289,,,,43.859539,43.875813,1692457.000000,1673607213.154540
1673607725.211469,,,,43.830692,43.847519,1692458.000000,1673607213.155547
1673607725.211725,,,,43.798191,43.815590,1692459.000000,1673607213.156554
1673607725.211782,,,,43.786987,43.803715,1692460.000000,1673607213.157561
1673607725.211879,,,,43.785496,43.802418,1692461.000000,1673607213.158568
1673607725.212042,,,,43.767899,43.784821,1692462.000000,1673607213.159575
1673607725.216593,,,,43.769703,43.786598,1692463.000000,1673607213.160583
1673607725.216690,,,,43.799175,43.816170,1692464.000000,1673607213.161590
1673607725.216993,,,,43.830330,43.844368,1692465.000000,1673607213.162597
1673607725.217003,,,,43.844925,43.862423,1692466.000000,1673607213.163604
1673607725.217123,,,,43.846992,43.862686,1692467.000000,1673607213.164611
1673607725.217151,,,,43.852257,43.867329,1692468.000000,1673607213.165618
1673607725.217229,,,,43.850933,43.867207,1692469.000000,1673607213.166625
1673607725.217235,,,,43.854542,43.870331,1692470.000000,1673607213.167632
1673607725.218485,,,,43.861198,43.877735,1692471.000000,1673607213.168639
1673607725.218637,,,,43.861416,43.877785,1692472.000000,1673607213.169646
1673607725.218767,,,,43.857906,43.874348,1692473.000000,1673607213.170653
1673607725.240601,,,,43.847519,43.864635,1692474.000000,1673607213.171660
1673607725.241047,,,,43.834682,43.851437,1692475.000000,1673607213.172668
1673607725.241425,,,,43.822037,43.839729,1692476.000000,1673607213.173675
1673607725.241837,,,,43.818264,43.838120,1692477.000000,1673607213.174682
1673607725.243003,,,,43.818913,43.838165,1692478.000000,1673607213.175689
1673607725.243024,,,,43.812759,43.832298,1692479.000000,1673607213.176696
1673607725.243033,,,,43.816555,43.831459,1692480.000000,1673607213.177703
1673607725.251821,22.518177,1761071.000000,1673607725.191048,,,,
1673607725.252247,22.463909,1761072.000000,1673607725.192048,,,,
1673607725.252272,22.445820,1761073.000000,1673607725.193048,,,,
1673607725.252280,22.391544,1761075.000000,1673607725.195048,,,,
1673607725.252287,22.409643,1761076.000000,1673607725.196048,,,,
1673607725.252294,22.427732,1761077.000000,1673607725.197048,,,,
1673607725.252310,22.427732,1761078.000000,1673607725.198048,,,,
1673607725.252318,22.409643,1761079.000000,1673607725.199048,,,,
1673607725.252416,22.409643,1761080.000000,1673607725.200048,,,,
1673607725.252430,22.391544,1761081.000000,1673607725.201048,,,,
1673607725.252445,22.355368,1761082.000000,1673607725.202048,,,,
1673607725.252471,22.319189,1761083.000000,1673607725.203048,,,,
1673607725.252478,22.355368,1761084.000000,1673607725.204048,,,,
1673607725.252554,22.337278,1761085.000000,1673607725.205048,,,,
1673607725.253960,21.740307,1761122.000000,1673607725.242048,,,,
1673607725.253985,21.649853,1761123.000000,1673607725.243048,,,,
1673607725.253992,21.686031,1761124.000000,1673607725.244048,,,,
1673607725.254004,21.595585,1761125.000000,1673607725.245048,,,,
1673607725.254013,21.595585,1761126.000000,1673607725.246048,,,,
1673607725.254038,21.613674,1761127.000000,1673607725.247048,,,,
1673607725.254081,21.577496,1761128.000000,1673607725.248048,,,,
1673607725.254089,21.541309,1761129.000000,1673607725.249048,,,,
1673607725.254097,21.487043,1761130.000000,1673607725.250048,,,,
1673607725.254122,21.432775,1761131.000000,1673607725.251048,,,,
1673607725.254782,,,,43.828575,43.842686,1692481.000000,1673607213.178710
1673607725.255233,,,,43.825714,43.838909,1692482.000000,1673607213.179717
1673607725.255255,,,,43.826557,43.842999,1692483.000000,1673607213.180724
1673607725.255272,,,,43.836414,43.852085,1692484.000000,1673607213.181731
1673607725.255280,,,,43.839561,43.851101,1692485.000000,1673607213.182738
1673607725.255409,,,,43.836391,43.848694,1692486.000000,1673607213.183745
1673607725.255655,,,,43.834179,43.849319,1692487.000000,1673607213.184752
1673607725.255803,,,,43.835667,43.851627,1692488.000000,1673607213.185760
1673607725.255864,,,,43.831676,43.847782,1692489.000000,1673607213.186767
1673607725.255934,,,,43.822952,43.839031,1692490.000000,1673607213.187774
1673607725.256182,,,,43.807854,43.824368,1692491.000000,1673607213.188781
1673607725.256383,,,,43.808239,43.825279,1692492.000000,1673607213.189788
1673607725.256692,,,,43.822109,43.838360,1692493.000000,1673607213.190795
1673607725.256922,,,,43.821198,43.838886,1692494.000000,1673607213.191802
1673607725.284246,,,,43.825523,43.843216,1692495.000000,1673607213.192809
1673607725.284612,,,,43.843025,43.856197,1692496.000000,1673607213.193816
1673607725.284763,,,,43.849251,43.864876,1692497.000000,1673607213.194823
1673607725.284976,,,,43.836678,43.854801,1692498.000000,1673607213.195830
1673607725.306818,20.745350,1761183.000000,1673607725.296383,,,,
1673607725.306837,20.727261,1761184.000000,1673607725.297383,,,,
1673607725.306845,20.745350,1761185.000000,1673607725.298383,,,,
1673607725.306848,20.654898,1761186.000000,1673607725.299383,,,,
1673607725.306852,20.709164,1761187.000000,1673607725.300383,,,,
1673607725.306858,20.709164,1761188.000000,1673607725.301383,,,,
1673607725.306867,20.636808,1761189.000000,1673607725.302383,,,,
1673607725.306880,20.636808,1761190.000000,1673607725.303383,,,,
1673607725.306885,20.618719,1761191.000000,1673607725.304383,,,,
1673607725.306899,20.636808,1761192.000000,1673607725.305383,,,,
1673607725.314550,,,,43.834179,43.850643,1692499.000000,1673607213.196837
1673607725.314806,,,,43.830715,43.846413,1692500.000000,1673607213.197845
1673607725.315583,,,,43.800327,43.817394,1692501.000000,1673607213.198852
1673607725.315593,,,,43.769436,43.786743,1692502.000000,1673607213.199859
1673607725.315747,,,,43.766815,43.782944,1692503.000000,1673607213.200866
1673607725.315759,,,,43.776047,43.792946,1692504.000000,1673607213.201873
1673607725.315770,,,,43.792782,43.808907,1692505.000000,1673607213.202880
1673607725.315779,,,,43.812229,43.827877,1692506.000000,1673607213.203887
1673607725.315786,,,,43.826797,43.842590,1692507.000000,1673607213.204894
1673607725.315792,,,,43.848412,43.863720,1692508.000000,1673607213.205901
1673607725.319761,,,,43.862522,43.880142,1692509.000000,1673607213.206908
1673607725.320231,,,,43.863605,43.881222,1692510.000000,1673607213.207915
1673607725.320262,,,,43.861198,43.878265,1692511.000000,1673607213.208922
1673607725.320842,,,,43.866272,43.884396,1692512.000000,1673607213.209929
1673607725.320868,,,,43.865601,43.882210,1692513.000000,1673607213.210937
1673607725.320878,,,,43.863846,43.878288,1692514.000000,1673607213.211944
1673607725.321093,,,,43.857979,43.873577,1692515.000000,1673607213.212951
1673607725.322023,,,,43.849781,43.864056,1692516.000000,1673607213.213958
1673607725.322042,,,,43.844322,43.858986,1692517.000000,1673607213.214965
1673607725.322055,,,,43.851849,43.868481,1692518.000000,1673607213.215972
1673607725.323056,,,,43.855408,43.873386,1692519.000000,1673607213.216979
1673607725.323071,,,,43.848412,43.861847,1692520.000000,1673607213.217986
1673607725.323145,,,,43.837353,43.853142,1692521.000000,1673607213.218993
1673607725.323426,,,,43.830933,43.848454,1692522.000000,1673607213.220000
1673607725.323488,,,,43.833744,43.854321,1692523.000000,1673607213.221007
1673607725.323499,,,,43.839203,43.859009,1692524.000000,1673607213.222014
1673607725.323812,,,,43.830307,43.847446,1692525.000000,1673607213.223022
1673607725.324031,,,,43.827374,43.843937,1692526.000000,1673607213.224029
1673607725.324044,,,,43.825813,43.843960,1692527.000000,1673607213.225036
1673607725.324318,,,,43.832016,43.847519,1692528.000000,1673607213.226043
1673607725.325336,,,,43.837254,43.852829,1692529.000000,1673607213.227050
1673607725.325349,,,,43.837494,43.855907,1692530.000000,1673607213.228057
1673607725.325355,,,,43.832062,43.850067,1692531.000000,1673607213.229064
1673607725.325634,,,,43.825714,43.842373,1692532.000000,1673607213.230071
1673607725.325651,,,,43.824127,43.839775,1692533.000000,1673607213.231078
1673607725.325657,,,,43.826653,43.844658,1692534.000000,1673607213.232085
1673607725.325987,,,,43.836750,43.855137,1692535.000000,1673607213.233092
1673607725.326035,,,,43.849686,43.865116,1692536.000000,1673607213.234099
1673607725.326191,,,,43.854324,43.870766,1692537.000000,1673607213.235106
1673607725.326207,,,,43.854252,43.872375,1692538.000000,1673607213.236114
1673607725.326334,,,,43.853123,43.871773,1692539.000000,1673607213.237121
1673607725.326780,,,,43.842232,43.862255,1692540.000000,1673607213.238128
1673607725.327054,,,,43.836319,43.851940,1692541.000000,1673607213.239135
1673607725.327069,,,,43.843143,43.861629,1692542.000000,1673607213.240142
1673607725.327076,,,,43.850861,43.869370,1692543.000000,1673607213.241149
1673607725.327082,,,,43.844009,43.861919,1692544.000000,1673607213.242156
1673607725.331632,,,,43.835739,43.854465,1692545.000000,1673607213.243163
1673607725.331640,,,,43.842182,43.856628,1692546.000000,1673607213.244170
1673607725.331842,,,,43.848553,43.866558,1692547.000000,1673607213.245177
1673607725.332273,,,,43.849323,43.867569,1692548.000000,1673607213.246184
1673607725.332464,,,,43.847088,43.864273,1692549.000000,1673607213.247191
1673607725.332599,,,,43.835548,43.853069,1692550.000000,1673607213.248199
1673607725.332615,,,,43.836823,43.852879,1692551.000000,1673607213.249206
1673607725.334032,,,,43.832497,43.847397,1692562.000000,1673607213.260283
1673607725.334677,,,,43.831776,43.848213,1692563.000000,1673607213.261291
1673607725.334694,,,,43.831196,43.848454,1692564.000000,1673607213.262298
1673607725.334725,,,,43.827736,43.846653,1692565.000000,1673607213.263305
1673607725.334889,,,,43.835213,43.852253,1692566.000000,1673607213.264312
1673607725.334908,,,,43.847038,43.862518,1692567.000000,1673607213.265319
1673607725.334918,,,,43.851200,43.869682,1692568.000000,1673607213.266326
1673607725.334924,,,,43.844540,43.864368,1692569.000000,1673607213.267333
1673607725.335022,,,,43.847691,43.865067,1692570.000000,1673607213.268340
1673607725.335092,,,,43.861416,43.878914,1692571.000000,1673607213.269347
1673607725.335113,,,,43.864830,43.883121,1692572.000000,1673607213.270354
1673607725.335153,,,,43.857353,43.872906,1692573.000000,1673607213.271361
1673607725.335249,,,,43.854683,43.873337,1692574.000000,1673607213.272368
1673607725.335260,,,,43.854614,43.873024,1692575.000000,1673607213.273376
1673607725.335298,,,,43.846054,43.863792,1692576.000000,1673607213.274383
1673607725.335304,,,,43.833530,43.851242,1692577.000000,1673607213.275390
1673607725.335368,,,,43.820885,43.840355,1692578.000000,1673607213.276397
1673607725.335376,,,,43.817181,43.833069,1692579.000000,1673607213.277404
1673607725.338958,,,,43.813213,43.828621,1692580.000000,1673607213.278411
1673607725.339668,,,,43.813866,43.828285,1692581.000000,1673607213.279418
1673607725.339681,,,,43.820354,43.834896,1692582.000000,1673607213.280425
1673607725.339690,,,,43.827038,43.842999,1692583.000000,1673607213.281432
1673607725.340157,,,,43.828960,43.846771,1692584.000000,1673607213.282439
1673607725.340268,,,,43.836006,43.851990,1692585.000000,1673607213.283446
1673607725.340379,,,,43.847206,43.861702,1692586.000000,1673607213.284453
1673607725.340583,,,,43.848915,43.866077,1692587.000000,1673607213.285460
1673607725.344372,,,,43.851318,43.869537,1692588.000000,1673607213.286468
1673607725.344592,,,,43.854443,43.871174,1692589.000000,1673607213.287475
1673607725.345103,,,,43.870144,43.886559,1692590.000000,1673607213.288482
1673607725.345121,,,,43.854492,43.870380,1692591.000000,1673607213.289489
1673607725.345646,,,,43.837639,43.852688,1692592.000000,1673607213.290496
1673607725.345660,,,,43.840427,43.855499,1692593.000000,1673607213.291503
1673607725.345913,,,,43.855789,43.873672,1692594.000000,1673607213.292510
1673607725.345934,,,,43.865982,43.882111,1692595.000000,1673607213.293517
1673607725.346343,,,,43.846462,43.860886,1692596.000000,1673607213.294524
1673607725.346528,,,,43.843433,43.858746,1692597.000000,1673607213.295531
1673607725.346538,,,,43.838146,43.853790,1692598.000000,1673607213.296538
1673607725.346626,,,,43.832592,43.847084,1692599.000000,1673607213.297545
1673607725.346637,,,,43.832302,43.847206,1692600.000000,1673607213.298553
1673607725.346725,,,,43.839420,43.857037,1692601.000000,1673607213.299560
1673607725.351186,,,,43.841438,43.857712,1692602.000000,1673607213.300567
1673607725.351610,,,,43.841728,43.858891,1692603.000000,1673607213.301574
1673607725.351683,,,,43.841248,43.857998,1692604.000000,1673607213.302581
1673607725.351697,,,,43.831341,43.848454,1692605.000000,1673607213.303588
1673607725.355763,,,,43.821579,43.837807,1692606.000000,1673607213.304595
1673607725.355833,,,,43.802517,43.820206,1692607.000000,1673607213.305602
1673607725.356065,,,,43.778355,43.796165,1692608.000000,1673607213.306609
1673607725.356245,,,,43.755516,43.771332,1692609.000000,1673607213.307616
1673607725.371588,,,,43.767033,43.782799,1692610.000000,1673607213.308623
1673607725.371814,,,,43.787033,43.802128,1692611.000000,1673607213.309630
1673607725.380130,20.618719,1761193.000000,1673607725.319085,,,,
1673607725.381860,20.600630,1761194.000000,1673607725.320085,,,,
1673607725.381873,20.600630,1761195.000000,1673607725.321085,,,,
1673607725.381913,20.510176,1761196.000000,1673607725.322085,,,,
1673607725.381919,20.094103,1761244.000000,1673607725.370085,,,,
1673607725.381988,20.112192,1761245.000000,1673607725.371085,,,,
1673607725.381997,20.112192,1761246.000000,1673607725.372085,,,,
1673607725.382003,20.076014,1761247.000000,1673607725.373085,,,,
1673607725.382028,20.039837,1761248.000000,1673607725.374085,,,,
1673607725.382043,20.057924,1761249.000000,1673607725.375085,,,,
1673607725.382048,20.076014,1761250.000000,1673607725.376085,,,,
1673607725.382089,20.112192,1761251.000000,1673607725.377085,,,,
1673607725.382186,20.076014,1761252.000000,1673607725.378085,,,,
1673607725.382194,20.057924,1761253.000000,1673607725.379085,,,,
1673607725.382972,,,,43.836945,43.851990,1692613.000000,1673607213.311645
1673607725.382987,,,,43.861561,43.878914,1692614.000000,1673607213.312652
1673607725.382998,,,,43.890507,43.907307,1692615.000000,1673607213.313659
1673607725.383007,,,,43.909161,43.927429,1692616.000000,1673607213.314666
1673607725.383014,,,,43.905048,43.919399,1692617.000000,1673607213.315673
1673607725.383019,,,,43.888630,43.902355,1692618.000000,1673607213.316680
1673607725.383025,,,,43.876442,43.889565,1692619.000000,1673607213.317687
1673607725.383097,,,,43.860477,43.875381,1692620.000000,1673607213.318694
1673607725.383137,,,,43.850334,43.866966,1692621.000000,1673607213.319701
1673607725.383142,,,,43.844444,43.865715,1692622.000000,1673607213.320708
1673607725.384488,,,,43.843266,43.863937,1692623.000000,1673607213.321715
1673607725.384730,,,,43.842064,43.860428,1692624.000000,1673607213.322722
1673607725.384743,,,,43.850334,43.864201,1692625.000000,1673607213.323730
1673607725.384970,,,,43.857544,43.871532,1692626.000000,1673607213.324737
1673607725.385147,,,,43.858170,43.872807,1692627.000000,1673607213.325744
1673607725.385206,,,,43.859203,43.876511,1692628.000000,1673607213.326751
1673607725.385436,,,,43.863701,43.880669,1692629.000000,1673607213.327758
1673607725.385683,,,,43.863434,43.879684,1692630.000000,1673607213.328765
1673607725.385761,,,,43.855335,43.870525,1692631.000000,1673607213.329772
1673607725.386051,,,,43.831989,43.848213,1692632.000000,1673607213.330779
1673607725.386093,,,,43.813141,43.827251,1692633.000000,1673607213.331786
1673607725.388838,,,,43.801941,43.816410,1692634.000000,1673607213.332793
1673607725.388871,,,,43.799534,43.817852,1692635.000000,1673607213.333800
1673607725.389156,,,,43.811459,43.828789,1692636.000000,1673607213.334807
1673607725.389173,,,,43.826244,43.839199,1692637.000000,1673607213.335814
1673607725.413463,,,,43.839226,43.850956,1692638.000000,1673607213.336822
1673607725.413497,,,,43.853050,43.868816,1692639.000000,1673607213.337829
1673607725.414428,,,,43.867355,43.882954,1692640.000000,1673607213.338836
1673607725.414470,,,,43.869083,43.884251,1692641.000000,1673607213.339843
1673607725.414851,,,,43.868050,43.884926,1692642.000000,1673607213.340850
1673607725.416362,,,,43.868629,43.887760,1692643.000000,1673607213.341857
1673607725.417030,,,,43.860142,43.877136,1692644.000000,1673607213.342864
1673607725.417509,,,,43.856438,43.872978,1692645.000000,1673607213.343871
1673607725.417544,,,,43.860455,43.875595,1692646.000000,1673607213.344878
1673607725.417980,,,,43.860504,43.877232,1692647.000000,1673607213.345885
1673607725.418018,,,,43.860382,43.877975,1692648.000000,1673607213.346892
1673607725.418115,,,,43.860645,43.878216,1692649.000000,1673607213.347899
1673607725.418305,,,,43.861176,43.876942,1692650.000000,1673607213.348907
1673607725.418837,,,,43.855526,43.872253,1692651.000000,1673607213.349914
1673607725.418908,,,,43.849491,43.864876,1692652.000000,1673607213.350921
1673607725.419043,,,,43.846920,43.861485,1692653.000000,1673607213.351928
1673607725.419675,,,,43.842041,43.856556,1692654.000000,1673607213.352935
1673607725.419802,,,,43.832809,43.847492,1692655.000000,1673607213.353942
1673607725.420079,,,,43.836174,43.852734,1692656.000000,1673607213.354949
1673607725.420671,,,,43.822372,43.836533,1692657.000000,1673607213.355956
1673607725.421097,,,,43.813816,43.829128,1692658.000000,1673607213.356963
1673607725.421144,,,,43.807323,43.825134,1692659.000000,1673607213.357970
1673607725.421232,,,,43.807686,43.825062,1692660.000000,1673607213.358977
1673607725.421462,,,,43.803646,43.819870,1692661.000000,1673607213.359984
1673607725.429881,,,,43.808575,43.827106,1692662.000000,1673607213.360991
1673607725.429896,,,,43.831535,43.851509,1692663.000000,1673607213.361999
1673607725.429993,,,,43.843143,43.859344,1692664.000000,1673607213.363006
1673607725.430166,,,,43.842159,43.860546,1692665.000000,1673607213.364013
1673607725.430690,,,,43.847137,43.864201,1692666.000000,1673607213.365020
1673607725.431273,,,,43.870598,43.887257,1692667.000000,1673607213.366027
1673607725.431287,,,,43.876488,43.892017,1692668.000000,1673607213.367034
1673607725.431714,,,,43.853458,43.869659,1692669.000000,1673607213.368041
1673607725.431736,,,,43.834419,43.848286,1692670.000000,1673607213.369048
1673607725.431831,,,,43.820740,43.836266,1692671.000000,1673607213.370055
1673607725.431844,,,,43.811146,43.827854,1692672.000000,1673607213.371062
1673607725.431852,,,,43.794029,43.809391,1692673.000000,1673607213.372069
1673607725.431930,,,,43.787586,43.802273,1692674.000000,1673607213.373076
1673607725.432606,,,,43.784607,43.800495,1692675.000000,1673607213.374084
1673607725.433253,,,,43.783813,43.800613,1692676.000000,1673607213.375091
1673607725.433322,,,,43.785736,43.803932,1692677.000000,1673607213.376098
1673607725.433545,,,,43.805283,43.821964,1692678.000000,1673607213.377105
1673607725.433554,,,,43.832424,43.849705,1692679.000000,1673607213.378112
1673607725.433565,,,,43.849827,43.867569,1692680.000000,1673607213.379119
1673607725.433573,,,,43.832664,43.853096,1692681.000000,1673607213.380126
1673607725.433595,,,,43.814873,43.834679,1692682.000000,1673607213.381133
1673607725.433824,,,,43.816219,43.833309,1692683.000000,1673607213.382140
1673607725.434025,,,,43.822639,43.837276,1692684.000000,1673607213.383147
1673607725.434433,,,,43.843338,43.859081,1692685.000000,1673607213.384154
1673607725.434444,,,,43.862137,43.879997,1692686.000000,1673607213.385161
1673607725.434710,,,,43.877621,43.895092,1692687.000000,1673607213.386168
1673607725.434807,20.076014,1761254.000000,1673607725.373647,,,,
1673607725.434823,,,,43.888222,43.904518,1692688.000000,1673607213.387176
1673607725.434960,20.003649,1761255.000000,1673607725.374647,,,,
1673607725.435144,,,,43.899784,43.915600,1692689.000000,1673607213.388183
1673607725.435534,20.003649,1761256.000000,1673607725.375647,,,,
1673607725.435549,20.057924,1761257.000000,1673607725.376647,,,,
1673607725.435783,,,,43.893559,43.911560,1692690.000000,1673607213.389190
1673607725.435825,,,,43.881584,43.900696,1692691.000000,1673607213.390197
1673607725.436114,,,,43.861153,43.877495,1692692.000000,1673607213.391204
1673607725.436626,,,,43.835499,43.850956,1692693.000000,1673607213.392211
1673607725.436636,,,,43.818409,43.836266,1692694.000000,1673607213.393218
1673607725.437188,20.039837,1761258.000000,1673607725.377647,,,,
1673607725.437207,20.076014,1761259.000000,1673607725.378647,,,,
1673607725.437217,19.931293,1761305.000000,1673607725.424647,,,,
1673607725.437228,19.949383,1761306.000000,1673607725.425647,,,,
1673607725.437233,19.895115,1761307.000000,1673607725.426647,,,,
1673607725.437240,19.913204,1761308.000000,1673607725.427647,,,,
1673607725.437247,19.895115,1761309.000000,1673607725.428647,,,,
1673607725.437277,19.931293,1761310.000000,1673607725.429647,,,,
1673607725.437286,19.913204,1761311.000000,1673607725.430647,,,,
