__time,/gdx/grip_force_stream/grip_force,/gdx/grip_force_stream/header/seq,/gdx/grip_force_stream/header/stamp,/shimmer0/emg_stream/emg_ch1,/shimmer0/emg_stream/emg_ch2,/shimmer0/emg_stream/header/seq,/shimmer0/emg_stream/header/stamp
1673612102.762673,,,,-5.600871,-5.603014,5897545.000000,1673606982.915526
1673612102.763045,,,,-5.596303,-5.600946,5897546.000000,1673606982.916533
1673612102.763184,-0.022116,4649117.000000,1673612102.701355,,,,
1673612102.763417,-0.022116,4649118.000000,1673612102.702355,,,,
1673612102.763430,,,,-5.588418,-5.592652,5897547.000000,1673606982.917541
1673612102.763768,0.014062,4649119.000000,1673612102.703355,,,,
1673612102.763781,-0.022116,4649120.000000,1673612102.704355,,,,
1673612102.763788,-0.094472,4649167.000000,1673612102.751355,,,,
1673612102.763794,-0.112561,4649168.000000,1673612102.752355,,,,
1673612102.763830,-0.148747,4649169.000000,1673612102.753355,,,,
1673612102.763927,-0.221104,4649170.000000,1673612102.754355,,,,
1673612102.763939,-0.184925,4649171.000000,1673612102.755355,,,,
1673612102.763949,-0.148747,4649172.000000,1673612102.756355,,,,
1673612102.763961,-0.221104,4649173.000000,1673612102.757355,,,,
1673612102.763980,-0.221104,4649174.000000,1673612102.758355,,,,
1673612102.763988,-0.203014,4649175.000000,1673612102.759355,,,,
1673612102.764004,-0.221104,4649176.000000,1673612102.760355,,,,
1673612102.764037,,,,-5.590077,-5.595008,5897548.000000,1673606982.918548
1673612102.764081,,,,-5.597914,-5.602918,5897549.000000,1673606982.919555
1673612102.764142,,,,-5.594549,-5.595850,5897550.000000,1673606982.920562
1673612102.764149,,,,-5.595414,-5.594936,5897551.000000,1673606982.921569
1673612102.764578,,,,-5.578586,-5.579863,5897552.000000,1673606982.922576
1673612102.764763,,,,-5.567599,-5.570199,5897553.000000,1673606982.923583
1673612102.764995,,,,-5.563897,-5.564501,5897554.000000,1673606982.924590
1673612102.765227,,,,-5.564450,-5.565943,5897555.000000,1673606982.925597
1673612102.769712,,,,-5.570508,-5.572242,5897556.000000,1673606982.926604
1673612102.769976,,,,-5.588611,-5.587748,5897557.000000,1673606982.927611
1673612102.769990,,,,-5.609478,-5.609168,5897558.000000,1673606982.928618
1673612102.772115,,,,-5.610223,-5.611404,5897559.000000,1673606982.929626
1673612102.772500,,,,-5.608612,-5.608928,5897560.000000,1673606982.930633
1673612102.772535,,,,-5.600102,-5.601547,5897561.000000,1673606982.931640
1673612102.777440,,,,-5.599068,-5.601379,5897562.000000,1673606982.932647
1673612102.777647,,,,-5.619959,-5.623617,5897563.000000,1673606982.933654
1673612102.778228,,,,-5.625224,-5.625540,5897564.000000,1673606982.934661
1673612102.778242,,,,-5.610536,-5.614120,5897565.000000,1673606982.935668
1673612102.780087,,,,-5.608588,-5.612991,5897566.000000,1673606982.936675
1673612102.780327,,,,-5.611497,-5.615659,5897567.000000,1673606982.937682
1673612102.780594,,,,-5.609814,-5.614866,5897568.000000,1673606982.938689
1673612102.785895,,,,-5.566084,-5.570871,5897569.000000,1673606982.939696
1673612102.786119,,,,-5.549208,-5.551471,5897570.000000,1673606982.940703
1673612102.786337,,,,-5.574427,-5.576906,5897571.000000,1673606982.941710
1673612102.786370,,,,-5.580797,-5.582291,5897572.000000,1673606982.942718
1673612102.786451,,,,-5.580797,-5.581233,5897573.000000,1673606982.943725
1673612102.786753,,,,-5.572287,-5.574742,5897574.000000,1673606982.944732
1673612102.786760,,,,-5.568320,-5.571160,5897575.000000,1673606982.945739
1673612102.786828,,,,-5.564810,-5.566712,5897576.000000,1673606982.946746
1673612102.787272,,,,-5.560796,-5.563563,5897577.000000,1673606982.947753
1673612102.787436,,,,-5.584332,-5.586762,5897578.000000,1673606982.948760
1673612102.787902,,,,-5.602482,-5.604985,5897579.000000,1673606982.949767
1673612102.787912,,,,-5.608660,-5.610466,5897580.000000,1673606982.950774
1673612102.787944,,,,-5.608035,-5.612318,5897581.000000,1673606982.951781
1673612102.787951,,,,-5.621714,-5.622559,5897582.000000,1673606982.952788
1673612102.787955,,,,-5.626402,-5.628665,5897583.000000,1673606982.953795
1673612102.792563,,,,-5.626402,-5.628448,5897584.000000,1673606982.954803
1673612102.792576,,,,-5.614334,-5.616500,5897585.000000,1673606982.955810
1673612102.792830,,,,-5.593250,-5.596426,5897586.000000,1673606982.956817
1673612102.792991,,,,-5.576158,-5.577868,5897587.000000,1673606982.957824
1673612102.793152,,,,-5.564378,-5.567289,5897588.000000,1673606982.958831
1673612102.793367,,,,-5.548126,-5.548369,5897589.000000,1673606982.959838
1673612102.793523,,,,-5.536202,-5.537551,5897590.000000,1673606982.960845
1673612102.794540,,,,-5.564907,-5.566208,5897591.000000,1673606982.961852
1673612102.794911,,,,-5.585774,-5.589070,5897592.000000,1673606982.962859
1673612102.794998,,,,-5.578562,-5.581017,5897593.000000,1673606982.963866
1673612102.808425,,,,-5.575292,-5.576521,5897594.000000,1673606982.964873
1673612102.808616,,,,-5.598972,-5.599191,5897595.000000,1673606982.965880
1673612102.808944,,,,-5.633518,-5.636719,5897596.000000,1673606982.966887
1673612102.809064,,,,-5.647510,-5.651937,5897597.000000,1673606982.967895
1673612102.816387,,,,-5.639240,-5.643017,5897598.000000,1673606982.968902
1673612102.816400,,,,-5.626523,-5.629122,5897599.000000,1673606982.969909
1673612102.816809,,,,-5.613733,-5.616933,5897600.000000,1673606982.970916
1673612102.816819,,,,-5.585341,-5.587291,5897601.000000,1673606982.971923
1673612102.816897,,,,-5.556012,-5.557625,5897602.000000,1673606982.972930
1673612102.817020,,,,-5.570460,-5.574261,5897603.000000,1673606982.973937
1673612102.817039,,,,-5.586711,-5.588229,5897604.000000,1673606982.974944
1673612102.818392,-0.094472,4649228.000000,1673612102.807229,,,,
1673612102.818412,-0.094472,4649229.000000,1673612102.808229,,,,
1673612102.818419,-0.112561,4649230.000000,1673612102.809229,,,,
1673612102.818425,-0.112561,4649231.000000,1673612102.810229,,,,
1673612102.818432,-0.112561,4649232.000000,1673612102.811229,,,,
1673612102.818477,-0.058294,4649233.000000,1673612102.812229,,,,
1673612102.818487,-0.058294,4649234.000000,1673612102.813229,,,,
1673612102.818500,-0.058294,4649235.000000,1673612102.814229,,,,
1673612102.818513,-0.022116,4649236.000000,1673612102.815229,,,,
1673612102.818521,-0.004027,4649237.000000,1673612102.816229,,,,
1673612102.822301,,,,-5.589091,-5.589479,5897605.000000,1673606982.975951
1673612102.822798,,,,-5.580245,-5.581425,5897606.000000,1673606982.976958
1673612102.823061,,,,-5.579716,-5.581113,5897607.000000,1673606982.977965
1673612102.823423,,,,-5.586134,-5.590176,5897608.000000,1673606982.978972
1673612102.824821,,,,-5.567551,-5.570848,5897609.000000,1673606982.979980
1673612102.825032,,,,-5.542333,-5.544715,5897610.000000,1673606982.980987
1673612102.825110,,,,-5.526778,-5.528488,5897611.000000,1673606982.981994
1673612102.829855,,,,-5.549472,-5.550846,5897612.000000,1673606982.983001
1673612102.829966,,,,-5.568585,-5.571160,5897613.000000,1673606982.984008
1673612102.829985,,,,-5.570316,-5.570367,5897614.000000,1673606982.985015
1673612102.830221,,,,-5.573369,-5.572843,5897615.000000,1673606982.986022
1673612102.834373,,,,-5.566686,-5.568107,5897616.000000,1673606982.987029
1673612102.835035,,,,-5.580917,-5.582147,5897617.000000,1673606982.988036
1673612102.835052,,,,-5.583971,-5.586594,5897618.000000,1673606982.989043
1673612102.835060,,,,-5.577912,-5.582075,5897619.000000,1673606982.990050
1673612102.835369,,,,-5.589813,-5.591498,5897620.000000,1673606982.991057
1673612102.835443,,,,-5.597578,-5.596931,5897621.000000,1673606982.992064
1673612102.835777,,,,-5.583057,-5.585104,5897622.000000,1673606982.993072
1673612102.837728,,,,-5.573681,-5.578757,5897623.000000,1673606982.994079
1673612102.838227,,,,-5.574355,-5.577819,5897624.000000,1673606982.995086
1673612102.838342,,,,-5.575749,-5.577266,5897625.000000,1673606982.996093
1673612102.838845,,,,-5.585966,-5.588277,5897626.000000,1673606982.997100
1673612102.838962,,,,-5.583971,-5.585560,5897627.000000,1673606982.998107
1673612102.839047,,,,-5.567888,-5.571352,5897628.000000,1673606982.999114
1673612102.839060,,,,-5.556372,-5.560030,5897629.000000,1673606983.000121
1673612102.841830,,,,-5.559810,-5.561592,5897630.000000,1673606983.001128
1673612102.841974,,,,-5.568056,-5.571448,5897631.000000,1673606983.002135
1673612102.841981,,,,-5.576518,-5.578300,5897632.000000,1673606983.003142
1673612102.842004,,,,-5.584259,-5.585032,5897633.000000,1673606983.004149
1673612102.844721,,,,-5.580845,-5.581666,5897634.000000,1673606983.005157
1673612102.844912,,,,-5.575484,-5.575006,5897635.000000,1673606983.006164
1673612102.844971,,,,-5.586183,-5.585560,5897636.000000,1673606983.007171
1673612102.844977,,,,-5.593683,-5.597003,5897637.000000,1673606983.008178
1673612102.849231,,,,-5.608252,-5.609553,5897638.000000,1673606983.009185
1673612102.849243,,,,-5.616738,-5.617582,5897639.000000,1673606983.010192
1673612102.849424,,,,-5.619094,-5.620684,5897640.000000,1673606983.011199
1673612102.852163,,,,-5.612771,-5.615251,5897641.000000,1673606983.012206
1673612102.852321,,,,-5.608732,-5.610442,5897642.000000,1673606983.013213
1673612102.852329,,,,-5.600511,-5.603903,5897643.000000,1673606983.014220
1673612102.856876,,,,-5.589404,-5.589647,5897644.000000,1673606983.015227
1673612102.856888,,,,-5.573922,-5.574838,5897645.000000,1673606983.016234
1673612102.856892,,,,-5.566734,-5.570199,5897646.000000,1673606983.017241
1673612102.856898,,,,-5.563608,-5.566063,5897647.000000,1673606983.018249
1673612102.856929,,,,-5.552910,-5.556664,5897648.000000,1673606983.019256
1673612102.856948,,,,-5.550674,-5.555269,5897649.000000,1673606983.020263
1673612102.856982,,,,-5.554954,-5.559212,5897650.000000,1673606983.021270
1673612102.869044,,,,-5.553656,-5.557769,5897651.000000,1673606983.022277
1673612102.869095,,,,-5.562286,-5.565871,5897652.000000,1673606983.023284
1673612102.869198,,,,-5.566661,-5.566328,5897653.000000,1673606983.024291
1673612102.869431,,,,-5.562190,-5.563395,5897654.000000,1673606983.025298
1673612102.869677,,,,-5.548054,-5.547336,5897655.000000,1673606983.026305
1673612102.870262,,,,-5.544136,-5.542480,5897656.000000,1673606983.027312
1673612102.870566,,,,-5.554184,-5.555534,5897657.000000,1673606983.028319
1673612102.870841,,,,-5.564281,-5.566689,5897658.000000,1673606983.029326
1673612102.876453,,,,-5.580461,-5.581786,5897659.000000,1673606983.030334
1673612102.876472,,,,-5.581591,-5.581017,5897660.000000,1673606983.031341
1673612102.876482,,,,-5.579812,-5.578829,5897661.000000,1673606983.032348
1673612102.881607,-0.022116,4649238.000000,1673612102.820864,,,,
1673612102.881622,-0.004027,4649239.000000,1673612102.821864,,,,
1673612102.882216,0.068338,4649253.000000,1673612102.835864,,,,
1673612102.882232,0.050249,4649254.000000,1673612102.836864,,,,
1673612102.882232,,,,-5.580509,-5.580801,5897662.000000,1673606983.033355
1673612102.882360,0.068338,4649255.000000,1673612102.837864,,,,
1673612102.882520,,,,-5.580437,-5.578685,5897663.000000,1673606983.034362
1673612102.882601,,,,-5.574282,-5.572098,5897664.000000,1673606983.035369
1673612102.882816,0.032160,4649256.000000,1673612102.838864,,,,
1673612102.882830,0.086427,4649257.000000,1673612102.839864,,,,
1673612102.882851,0.032160,4649258.000000,1673612102.840864,,,,
1673612102.882860,0.104516,4649259.000000,1673612102.841864,,,,
1673612102.882876,0.086427,4649260.000000,1673612102.842864,,,,
1673612102.882882,0.050249,4649261.000000,1673612102.843864,,,,
1673612102.882920,0.050249,4649262.000000,1673612102.844864,,,,
1673612102.882926,0.050249,4649263.000000,1673612102.845864,,,,
1673612102.882932,0.032160,4649264.000000,1673612102.846864,,,,
1673612102.882965,0.086427,4649265.000000,1673612102.847864,,,,
1673612102.882973,0.086427,4649266.000000,1673612102.848864,,,,
1673612102.882978,0.086427,4649267.000000,1673612102.849864,,,,
1673612102.882992,0.032160,4649268.000000,1673612102.850864,,,,
1673612102.882999,-0.004027,4649269.000000,1673612102.851864,,,,
1673612102.883028,0.104516,4649270.000000,1673612102.852864,,,,
1673612102.883960,0.050249,4649289.000000,1673612102.871864,,,,
1673612102.883971,0.050249,4649290.000000,1673612102.872864,,,,
1673612102.883976,0.032160,4649291.000000,1673612102.873864,,,,
1673612102.884007,0.050249,4649292.000000,1673612102.874864,,,,
1673612102.884018,-0.004027,4649293.000000,1673612102.875864,,,,
1673612102.884027,0.050249,4649294.000000,1673612102.876864,,,,
1673612102.884050,-0.004027,4649295.000000,1673612102.877864,,,,
1673612102.884057,0.032160,4649296.000000,1673612102.878864,,,,
1673612102.884076,0.014062,4649297.000000,1673612102.879864,,,,
1673612102.884092,0.014062,4649298.000000,1673612102.880864,,,,
1673612102.884953,,,,-5.567599,-5.567482,5897665.000000,1673606983.036376
1673612102.885052,,,,-5.560266,-5.561592,5897666.000000,1673606983.037383
1673612102.885269,,,,-5.546131,-5.546879,5897667.000000,1673606983.038390
1673612102.885284,,,,-5.539448,-5.541614,5897668.000000,1673606983.039397
1673612102.885501,,,,-5.534904,-5.539042,5897669.000000,1673606983.040404
1673612102.885740,,,,-5.532259,-5.535917,5897670.000000,1673606983.041411
1673612102.886029,,,,-5.540121,-5.541903,5897671.000000,1673606983.042418
1673612102.889606,,,,-5.543582,-5.544715,5897672.000000,1673606983.043426
1673612102.889956,,,,-5.547669,-5.545797,5897673.000000,1673606983.044433
1673612102.890097,,,,-5.556829,-5.559308,5897674.000000,1673606983.045440
1673612102.890183,,,,-5.568825,-5.572338,5897675.000000,1673606983.046447
1673612102.891951,,,,-5.580052,-5.581113,5897676.000000,1673606983.047454
1673612102.892297,,,,-5.598083,-5.599696,5897677.000000,1673606983.048461
1673612102.892305,,,,-5.607723,-5.610610,5897678.000000,1673606983.049468
1673612102.898653,,,,-5.597866,-5.598783,5897679.000000,1673606983.050475
1673612102.898965,,,,-5.583345,-5.584911,5897680.000000,1673606983.051482
1673612102.899022,,,,-5.583562,-5.584815,5897681.000000,1673606983.052489
1673612102.899214,,,,-5.589788,-5.589262,5897682.000000,1673606983.053496
1673612102.899537,,,,-5.582552,-5.584623,5897683.000000,1673606983.054503
1673612102.899713,,,,-5.578922,-5.580728,5897684.000000,1673606983.055511
1673612102.899725,,,,-5.569186,-5.570199,5897685.000000,1673606983.056518
1673612102.899930,,,,-5.561974,-5.564886,5897686.000000,1673606983.057525
1673612102.900157,,,,-5.559594,-5.561015,5897687.000000,1673606983.058532
1673612102.900716,,,,-5.547597,-5.549379,5897688.000000,1673606983.059539
1673612102.900851,,,,-5.535072,-5.539619,5897689.000000,1673606983.060546
1673612102.901155,,,,-5.532356,-5.536974,5897690.000000,1673606983.061553
1673612102.901533,,,,-5.530312,-5.534474,5897691.000000,1673606983.062560
1673612102.901541,,,,-5.528870,-5.532190,5897692.000000,1673606983.063567
1673612102.901546,,,,-5.540000,-5.541350,5897693.000000,1673606983.064574
1673612102.901821,,,,-5.585365,-5.586474,5897694.000000,1673606983.065581
1673612102.901832,,,,-5.615247,-5.615707,5897695.000000,1673606983.066588
1673612102.901841,,,,-5.619575,-5.621501,5897696.000000,1673606983.067595
1673612102.901847,,,,-5.625801,-5.627896,5897697.000000,1673606983.068603
1673612102.901964,,,,-5.637172,-5.639315,5897698.000000,1673606983.069610
1673612102.901974,,,,-5.637365,-5.640998,5897699.000000,1673606983.070617
1673612102.902266,,,,-5.578369,-5.582098,5897700.000000,1673606983.071624
1673612102.902274,,,,-5.555362,-5.556471,5897701.000000,1673606983.072631
1673612102.902277,,,,-5.550266,-5.552000,5897702.000000,1673606983.073638
1673612102.902291,,,,-5.559209,-5.560077,5897703.000000,1673606983.074645
1673612102.902502,,,,-5.564882,-5.566280,5897704.000000,1673606983.075652
1673612102.904571,,,,-5.548246,-5.549980,5897705.000000,1673606983.076659
1673612102.904724,,,,-5.538126,-5.541278,5897706.000000,1673606983.077666
1673612102.904902,,,,-5.535000,-5.537383,5897707.000000,1673606983.078673
1673612102.907294,,,,-5.527500,-5.527959,5897708.000000,1673606983.079680
1673612102.907439,,,,-5.536443,-5.534955,5897709.000000,1673606983.080688
1673612102.907637,,,,-5.545770,-5.544932,5897710.000000,1673606983.081695
1673612102.907690,,,,-5.538198,-5.539571,5897711.000000,1673606983.082702
1673612102.907894,,,,-5.516513,-5.516757,5897712.000000,1673606983.083709
1673612102.907907,,,,-5.514421,-5.515843,5897713.000000,1673606983.084716
1673612102.907917,,,,-5.532163,-5.534643,5897714.000000,1673606983.085723
1673612102.908088,,,,-5.551396,-5.552865,5897715.000000,1673606983.086730
1673612102.912831,,,,-5.560243,-5.561640,5897716.000000,1673606983.087737
1673612102.912843,,,,-5.563656,-5.566544,5897717.000000,1673606983.088744
1673612102.912849,,,,-5.566277,-5.570944,5897718.000000,1673606983.089751
1673612102.912916,,,,-5.569883,-5.574021,5897719.000000,1673606983.090758
1673612102.912922,,,,-5.572888,-5.576329,5897720.000000,1673606983.091765
1673612102.912937,,,,-5.570965,-5.573011,5897721.000000,1673606983.092772
1673612102.937902,,,,-5.575148,-5.576232,5897722.000000,1673606983.093780
1673612102.937924,,,,-5.574547,-5.577050,5897723.000000,1673606983.094787
1673612102.937943,,,,-5.558079,-5.561304,5897724.000000,1673606983.095794
1673612102.938499,,,,-5.547814,-5.548249,5897725.000000,1673606983.096801
1673612102.938881,,,,-5.544304,-5.543610,5897726.000000,1673606983.097808
1673612102.938938,,,,-5.534736,-5.537623,5897727.000000,1673606983.098815
1673612102.939120,,,,-5.528341,-5.532070,5897728.000000,1673606983.099822
1673612102.944396,,,,-5.519037,-5.520891,5897729.000000,1673606983.100829
1673612102.944405,,,,-5.519229,-5.518800,5897730.000000,1673606983.101836
1673612102.944408,,,,-5.533005,-5.536710,5897731.000000,1673606983.102843
1673612102.944454,,,,-5.547357,-5.546975,5897732.000000,1673606983.103850
1673612102.944577,,,,-5.549857,-5.549740,5897733.000000,1673606983.104857
1673612102.944614,,,,-5.550699,-5.552408,5897734.000000,1673606983.105865
1673612102.944711,,,,-5.552477,-5.555389,5897735.000000,1673606983.106872
1673612102.944953,,,,-5.559449,-5.560222,5897736.000000,1673606983.107879
1673612102.944961,,,,-5.569186,-5.569814,5897737.000000,1673606983.108886
1673612102.944993,,,,-5.569739,-5.571088,5897738.000000,1673606983.109893
1673612102.945001,,,,-5.569210,-5.569501,5897739.000000,1673606983.110900
1673612102.945005,,,,-5.569258,-5.569213,5897740.000000,1673606983.111907
1673612102.947108,-0.166836,4649350.000000,1673612102.936800,,,,
1673612102.947121,-0.166836,4649351.000000,1673612102.937800,,,,
1673612102.947129,-0.221104,4649352.000000,1673612102.938800,,,,
1673612102.947135,-0.184925,4649353.000000,1673612102.939800,,,,
1673612102.947143,-0.203014,4649354.000000,1673612102.940800,,,,
1673612102.947149,-0.184925,4649355.000000,1673612102.941800,,,,
1673612102.947152,-0.203014,4649356.000000,1673612102.942800,,,,
1673612102.947184,-0.221104,4649357.000000,1673612102.943800,,,,
1673612102.947192,-0.221104,4649358.000000,1673612102.944800,,,,
1673612102.947198,-0.184925,4649359.000000,1673612102.945800,,,,
1673612102.949993,,,,-5.566541,-5.569045,5897741.000000,1673606983.112914
1673612102.950128,,,,-5.564618,-5.566617,5897742.000000,1673606983.113921
1673612102.950350,,,,-5.566205,-5.567602,5897743.000000,1673606983.114928
1673612102.950516,,,,-5.562743,-5.564525,5897744.000000,1673606983.115935
1673612102.950694,,,,-5.549376,-5.549379,5897745.000000,1673606983.116942
1673612102.950852,,,,-5.538486,-5.538272,5897746.000000,1673606983.117949
1673612102.952736,,,,-5.536467,-5.539907,5897747.000000,1673606983.118957
1673612102.952742,,,,-5.533990,-5.537263,5897748.000000,1673606983.119964
1673612102.952768,,,,-5.531082,-5.534258,5897749.000000,1673606983.120971
1673612102.952843,,,,-5.527500,-5.529546,5897750.000000,1673606983.121978
1673612102.952848,,,,-5.523821,-5.529017,5897751.000000,1673606983.122985
1673612102.953007,,,,-5.523100,-5.524930,5897752.000000,1673606983.123992
1673612102.953017,,,,-5.523870,-5.525723,5897753.000000,1673606983.124999
1673612102.957680,,,,-5.536779,-5.537503,5897754.000000,1673606983.126006
1673612102.957696,,,,-5.553800,-5.556760,5897755.000000,1673606983.127013
1673612102.957737,,,,-5.561781,-5.566208,5897756.000000,1673606983.128020
1673612102.958014,,,,-5.567118,-5.572050,5897757.000000,1673606983.129027
1673612102.960124,,,,-5.579595,-5.583517,5897758.000000,1673606983.130034
1673612102.960235,,,,-5.591952,-5.594287,5897759.000000,1673606983.131042
1673612102.960243,,,,-5.596063,-5.597436,5897760.000000,1673606983.132049
1673612102.960275,,,,-5.597385,-5.599143,5897761.000000,1673606983.133056
1673612102.964766,,,,-5.603756,-5.605586,5897762.000000,1673606983.134063
1673612102.964939,,,,-5.606809,-5.607245,5897763.000000,1673606983.135070
1673612102.965066,,,,-5.588370,-5.589311,5897764.000000,1673606983.136077
1673612102.967486,,,,-5.565147,-5.568035,5897765.000000,1673606983.137084
1673612102.967609,,,,-5.559449,-5.560943,5897766.000000,1673606983.138091
1673612102.967619,,,,-5.560363,-5.564909,5897767.000000,1673606983.139098
1673612102.967638,,,,-5.579860,-5.584623,5897768.000000,1673606983.140105
1673612102.972314,,,,-5.597914,-5.600874,5897769.000000,1673606983.141112
1673612102.973026,,,,-5.600703,-5.605778,5897770.000000,1673606983.142119
1673612102.973133,,,,-5.604646,-5.608303,5897771.000000,1673606983.143126
1673612102.973197,,,,-5.605631,-5.606524,5897772.000000,1673606983.144134
1673612102.974599,,,,-5.600390,-5.602341,5897773.000000,1673606983.145141
1673612102.975175,,,,-5.592698,-5.595657,5897774.000000,1673606983.146148
1673612102.975252,,,,-5.589211,-5.592724,5897775.000000,1673606983.147155
1673612102.980233,,,,-5.594452,-5.596499,5897776.000000,1673606983.148162
1673612102.980433,,,,-5.604044,-5.605634,5897777.000000,1673606983.149169
1673612102.980748,,,,-5.609285,-5.609985,5897778.000000,1673606983.150176
1673612102.980851,,,,-5.596280,-5.595489,5897779.000000,1673606983.151183
1673612102.981236,,,,-5.591423,-5.592292,5897780.000000,1673606983.152190
1673612102.981696,,,,-5.590005,-5.593446,5897781.000000,1673606983.153197
1673612102.981720,,,,-5.593106,-5.596066,5897782.000000,1673606983.154204
1673612102.982584,,,,-5.595798,-5.598206,5897783.000000,1673606983.155211
1673612102.983126,,,,-5.591712,-5.588373,5897784.000000,1673606983.156219
1673612102.983159,,,,-5.551540,-5.552216,5897785.000000,1673606983.157226
1673612102.983315,,,,-5.525937,-5.528224,5897786.000000,1673606983.158233
1673612102.983655,,,,-5.489275,-5.489903,5897787.000000,1673606983.159240
1673612102.983957,,,,-5.465836,-5.467786,5897788.000000,1673606983.160247
1673612102.984258,,,,-5.459344,-5.461151,5897789.000000,1673606983.161254
1673612102.995837,,,,-5.462326,-5.462136,5897790.000000,1673606983.162261
1673612102.995902,,,,-5.478144,-5.479085,5897791.000000,1673606983.163268
1673612102.996020,,,,-5.495718,-5.498991,5897792.000000,1673606983.164275
1673612102.996159,,,,-5.511128,-5.515266,5897793.000000,1673606983.165282
1673612103.003468,,,,-5.516801,-5.520290,5897794.000000,1673606983.166289
1673612103.003958,,,,-5.532428,-5.532190,5897795.000000,1673606983.167296
1673612103.004012,,,,-5.543967,-5.543465,5897796.000000,1673606983.168303
1673612103.004021,,,,-5.549617,-5.550341,5897797.000000,1673606983.169311
1673612103.010042,,,,-5.557358,-5.559260,5897798.000000,1673606983.170318
1673612103.010065,,,,-5.560579,-5.563756,5897799.000000,1673606983.171325
1673612103.012479,,,,-5.559161,-5.563082,5897800.000000,1673606983.172332
1673612103.013085,,,,-5.550699,-5.552168,5897801.000000,1673606983.173339
1673612103.013225,,,,-5.538077,-5.541182,5897802.000000,1673606983.174346
1673612103.013347,0.086427,4649398.000000,1673612102.987474,,,,
1673612103.013585,,,,-5.517883,-5.520483,5897803.000000,1673606983.175353
1673612103.013598,,,,-5.509878,-5.510193,5897804.000000,1673606983.176360
1673612103.013846,,,,-5.511488,-5.513919,5897805.000000,1673606983.177367
1673612103.013982,0.104516,4649399.000000,1673612102.988474,,,,
1673612103.013996,0.050249,4649400.000000,1673612102.989474,,,,
1673612103.014007,0.104516,4649401.000000,1673612102.990474,,,,
1673612103.014014,0.104516,4649402.000000,1673612102.991474,,,,
1673612103.014091,0.158783,4649403.000000,1673612102.992474,,,,
1673612103.014098,0.122605,4649404.000000,1673612102.993474,,,,
1673612103.014103,0.213059,4649405.000000,1673612102.994474,,,,
1673612103.014115,0.158783,4649406.000000,1673612102.995474,,,,
1673612103.014121,0.231148,4649407.000000,1673612102.996474,,,,
1673612103.014155,0.267326,4649411.000000,1673612103.000474,,,,
1673612103.014161,0.321601,4649412.000000,1673612103.001474,,,,
1673612103.014165,0.339690,4649413.000000,1673612103.002474,,,,
1673612103.014191,0.339690,4649414.000000,1673612103.003474,,,,
1673612103.014199,0.357779,4649415.000000,1673612103.004474,,,,
1673612103.014206,0.357779,4649416.000000,1673612103.005474,,,,
1673612103.014239,0.412046,4649417.000000,1673612103.006474,,,,
1673612103.014250,0.430135,4649418.000000,1673612103.007474,,,,
1673612103.014261,0.466322,4649419.000000,1673612103.008474,,,,
1673612103.014267,0.466322,4649420.000000,1673612103.009474,,,,
1673612103.014303,,,,-5.512642,-5.513944,5897806.000000,1673606983.178374
1673612103.014308,,,,-5.505502,-5.505673,5897807.000000,1673606983.179381
1673612103.017368,,,,-5.501295,-5.501659,5897808.000000,1673606983.180388
1673612103.017585,,,,-5.497617,-5.498029,5897809.000000,1673606983.181396
1673612103.017769,,,,-5.499300,-5.500240,5897810.000000,1673606983.182403
1673612103.017934,,,,-5.504060,-5.505169,5897811.000000,1673606983.183410
1673612103.018268,,,,-5.517378,-5.518319,5897812.000000,1673606983.184417
1673612103.018287,,,,-5.534231,-5.534835,5897813.000000,1673606983.185424
1673612103.018294,,,,-5.545290,-5.545677,5897814.000000,1673606983.186431
1673612103.019557,,,,-5.537164,-5.538080,5897815.000000,1673606983.187438
1673612103.019795,,,,-5.524422,-5.526349,5897816.000000,1673606983.188445
1673612103.019805,,,,-5.522234,-5.525964,5897817.000000,1673606983.189452
1673612103.019873,,,,-5.530552,-5.534426,5897818.000000,1673606983.190459
1673612103.024736,,,,-5.538101,-5.539402,5897819.000000,1673606983.191466
1673612103.025099,,,,-5.547790,-5.548202,5897820.000000,1673606983.192473
1673612103.025116,,,,-5.557454,-5.556615,5897821.000000,1673606983.193480
1673612103.025351,,,,-5.560603,-5.559789,5897822.000000,1673606983.194488
1673612103.027378,,,,-5.555435,-5.557409,5897823.000000,1673606983.195495
1673612103.027404,,,,-5.540025,-5.542408,5897824.000000,1673606983.196502
1673612103.033182,,,,-5.528629,-5.530628,5897825.000000,1673606983.197509
1673612103.033206,,,,-5.510623,-5.514016,5897826.000000,1673606983.198516
1673612103.033216,,,,-5.504637,-5.506900,5897827.000000,1673606983.199523
1673612103.033685,,,,-5.520552,-5.523151,5897828.000000,1673606983.200530
1673612103.034923,,,,-5.525672,-5.529065,5897829.000000,1673606983.201537
1673612103.035386,,,,-5.522980,-5.522839,5897830.000000,1673606983.202544
1673612103.035407,,,,-5.520720,-5.520411,5897831.000000,1673606983.203551
1673612103.039937,,,,-5.527403,-5.529594,5897832.000000,1673606983.204558
1673612103.040174,,,,-5.536683,-5.540677,5897833.000000,1673606983.205565
1673612103.040288,,,,-5.551348,-5.554812,5897834.000000,1673606983.206573
1673612103.040311,,,,-5.564041,-5.565558,5897835.000000,1673606983.207580
1673612103.042432,,,,-5.559329,-5.560558,5897836.000000,1673606983.208587
1673612103.042722,,,,-5.550795,-5.554043,5897837.000000,1673606983.209594
1673612103.042988,,,,-5.565123,-5.568131,5897838.000000,1673606983.210601
1673612103.043113,,,,-5.591159,-5.593878,5897839.000000,1673606983.211608
1673612103.043683,,,,-5.602602,-5.605538,5897840.000000,1673606983.212615
1673612103.043703,,,,-5.600583,-5.604600,5897841.000000,1673606983.213622
1673612103.043732,,,,-5.593731,-5.596379,5897842.000000,1673606983.214629
1673612103.044060,,,,-5.587384,-5.587628,5897843.000000,1673606983.215636
1673612103.056721,,,,-5.578586,-5.578348,5897844.000000,1673606983.216643
1673612103.056861,,,,-5.566229,-5.570174,5897845.000000,1673606983.217650
1673612103.056871,,,,-5.559858,-5.563515,5897846.000000,1673606983.218657
1673612103.057031,,,,-5.547333,-5.547143,5897847.000000,1673606983.219665
1673612103.057036,,,,-5.525312,-5.525700,5897848.000000,1673606983.220672
1673612103.057039,,,,-5.522571,-5.525723,5897849.000000,1673606983.221679
1673612103.057051,,,,-5.528918,-5.529786,5897850.000000,1673606983.222686
1673612103.064354,,,,-5.529880,-5.531637,5897851.000000,1673606983.223693
1673612103.064380,,,,-5.530865,-5.532527,5897852.000000,1673606983.224700
1673612103.064392,,,,-5.539495,-5.540773,5897853.000000,1673606983.225707
1673612103.064615,,,,-5.546492,-5.550605,5897854.000000,1673606983.226714
1673612103.064628,,,,-5.536683,-5.541302,5897855.000000,1673606983.227721
1673612103.064804,,,,-5.526105,-5.527286,5897856.000000,1673606983.228728
1673612103.064948,,,,-5.533870,-5.534739,5897857.000000,1673606983.229735
1673612103.066308,0.502500,4649421.000000,1673612103.005550,,,,
1673612103.066319,0.574856,4649422.000000,1673612103.006550,,,,
1673612103.067584,0.574856,4649423.000000,1673612103.007550,,,,
1673612103.067598,0.556767,4649424.000000,1673612103.008550,,,,
1673612103.067610,2.221059,4649472.000000,1673612103.056550,,,,
1673612103.067639,2.275335,4649473.000000,1673612103.057550,,,,
1673612103.067647,2.257237,4649474.000000,1673612103.058550,,,,
1673612103.067651,2.293424,4649475.000000,1673612103.059550,,,,
1673612103.067704,2.275335,4649476.000000,1673612103.060550,,,,
1673612103.067716,2.293424,4649477.000000,1673612103.061550,,,,
1673612103.067726,2.347691,4649478.000000,1673612103.062550,,,,
1673612103.067735,2.438144,4649479.000000,1673612103.063550,,,,
1673612103.067745,2.420055,4649480.000000,1673612103.064550,,,,
1673612103.067757,2.492412,4649481.000000,1673612103.065550,,,,
1673612103.069624,,,,-5.538823,-5.542336,5897858.000000,1673606983.230742
1673612103.070017,,,,-5.544881,-5.545797,5897859.000000,1673606983.231750
1673612103.070063,,,,-5.546612,-5.548826,5897860.000000,1673606983.232757
1673612103.072095,,,,-5.541731,-5.544138,5897861.000000,1673606983.233764
1673612103.072268,,,,-5.535529,-5.535797,5897862.000000,1673606983.234771
1673612103.072751,,,,-5.540217,-5.542359,5897863.000000,1673606983.235778
1673612103.072851,,,,-5.543150,-5.545292,5897864.000000,1673606983.236785
1673612103.077218,,,,-5.545506,-5.548202,5897865.000000,1673606983.237792
1673612103.077574,,,,-5.540770,-5.542888,5897866.000000,1673606983.238799
1673612103.077891,,,,-5.533702,-5.535484,5897867.000000,1673606983.239806
1673612103.079753,,,,-5.530385,-5.534546,5897868.000000,1673606983.240813
1673612103.080044,,,,-5.535529,-5.539715,5897869.000000,1673606983.241820
1673612103.080467,,,,-5.562454,-5.563732,5897870.000000,1673606983.242827
1673612103.085033,,,,-5.588731,-5.588373,5897871.000000,1673606983.243834
1673612103.085260,,,,-5.600222,-5.603374,5897872.000000,1673606983.244842
1673612103.085565,,,,-5.610319,-5.612197,5897873.000000,1673606983.245849
1673612103.085747,,,,-5.633807,-5.635637,5897874.000000,1673606983.246856
1673612103.085993,,,,-5.627075,-5.631310,5897875.000000,1673606983.247863
1673612103.086333,,,,-5.617700,-5.619650,5897876.000000,1673606983.248870
1673612103.086559,,,,-5.610007,-5.610515,5897877.000000,1673606983.249877
1673612103.086750,,,,-5.580966,-5.582916,5897878.000000,1673606983.250884
1673612103.087050,,,,-5.551949,-5.553033,5897879.000000,1673606983.251891
1673612103.087497,,,,-5.547573,-5.549812,5897880.000000,1673606983.252898
1673612103.087512,,,,-5.560266,-5.563130,5897881.000000,1673606983.253905
1673612103.092263,,,,-5.565219,-5.569694,5897882.000000,1673606983.254912
1673612103.092286,,,,-5.553920,-5.557601,5897883.000000,1673606983.255919
1673612103.092490,,,,-5.550699,-5.554212,5897884.000000,1673606983.256927
1673612103.092516,,,,-5.546780,-5.546807,5897885.000000,1673606983.257934
1673612103.094769,,,,-5.536082,-5.535724,5897886.000000,1673606983.258941
1673612103.094782,,,,-5.504541,-5.507308,5897887.000000,1673606983.259948
1673612103.094792,,,,-5.481294,-5.485912,5897888.000000,1673606983.260955
1673612103.094796,,,,-5.483722,-5.489182,5897889.000000,1673606983.261962
1673612103.102582,,,,-5.483241,-5.487090,5897890.000000,1673606983.262969
1673612103.102593,,,,-5.488963,-5.491994,5897891.000000,1673606983.263976
1673612103.102756,,,,-5.506752,-5.508222,5897892.000000,1673606983.264983
1673612103.102862,,,,-5.525504,-5.526204,5897893.000000,1673606983.265990
1673612103.103059,,,,-5.539063,-5.541422,5897894.000000,1673606983.266997
1673612103.103070,,,,-5.546323,-5.550293,5897895.000000,1673606983.268004
1673612103.103075,,,,-5.548895,-5.552913,5897896.000000,1673606983.269011
1673612103.116509,,,,-5.541010,-5.544115,5897897.000000,1673606983.270019
1673612103.116964,,,,-5.532860,-5.537239,5897898.000000,1673606983.271026
1673612103.117269,,,,-5.546179,-5.549596,5897899.000000,1673606983.272033
1673612103.117618,,,,-5.550169,-5.552433,5897900.000000,1673606983.273040
1673612103.117641,,,,-5.550338,-5.550653,5897901.000000,1673606983.274047
1673612103.117668,,,,-5.551323,-5.551519,5897902.000000,1673606983.275054
1673612103.117685,,,,-5.551468,-5.554187,5897903.000000,1673606983.276061
1673612103.123966,,,,-5.542525,-5.544692,5897904.000000,1673606983.277068
1673612103.124580,,,,-5.530962,-5.533633,5897905.000000,1673606983.278075
1673612103.124805,,,,-5.525913,-5.527286,5897906.000000,1673606983.279082
1673612103.124929,,,,-5.514974,-5.516636,5897907.000000,1673606983.280089
1673612103.125165,,,,-5.511849,-5.513919,5897908.000000,1673606983.281096
1673612103.125185,,,,-5.515888,-5.519713,5897909.000000,1673606983.282104
1673612103.125600,,,,-5.513868,-5.518608,5897910.000000,1673606983.283111
1673612103.130126,,,,-5.513123,-5.514112,5897911.000000,1673606983.284118
1673612103.130463,,,,-5.519686,-5.521324,5897912.000000,1673606983.285125
1673612103.130479,,,,-5.536972,-5.537984,5897913.000000,1673606983.286132
1673612103.130519,,,,-5.547549,-5.551663,5897914.000000,1673606983.287139
1673612103.131676,2.492412,4649482.000000,1673612103.070729,,,,
1673612103.131841,2.510501,4649483.000000,1673612103.071729,,,,
1673612103.131864,2.492412,4649484.000000,1673612103.072729,,,,
1673612103.132100,,,,-5.552165,-5.552769,5897915.000000,1673606983.288146
1673612103.132365,,,,-5.556829,-5.556255,5897916.000000,1673606983.289153
1673612103.132639,,,,-5.554569,-5.559284,5897917.000000,1673606983.290160
1673612103.134254,4.735587,4649533.000000,1673612103.121729,,,,
1673612103.134274,4.826040,4649534.000000,1673612103.122729,,,,
1673612103.134284,4.862218,4649535.000000,1673612103.123729,,,,
1673612103.134290,4.970761,4649536.000000,1673612103.124729,,,,
1673612103.134329,5.043117,4649537.000000,1673612103.125729,,,,
1673612103.134339,5.115481,4649538.000000,1673612103.126729,,,,
1673612103.134357,5.151659,4649539.000000,1673612103.127729,,,,
1673612103.134368,5.224024,4649540.000000,1673612103.128729,,,,
1673612103.134375,5.314469,4649541.000000,1673612103.129729,,,,
1673612103.134413,5.386834,4649542.000000,1673612103.130729,,,,
1673612103.137697,,,,-5.552045,-5.554260,5897918.000000,1673606983.291167
1673612103.137708,,,,-5.554208,-5.554668,5897919.000000,1673606983.292174
1673612103.137723,,,,-5.561373,-5.564404,5897920.000000,1673606983.293181
1673612103.137728,,,,-5.578682,-5.579142,5897921.000000,1673606983.294188
1673612103.139532,,,,-5.587120,-5.587460,5897922.000000,1673606983.295196
1673612103.139753,,,,-5.576518,-5.580175,5897923.000000,1673606983.296203
1673612103.139781,,,,-5.557093,-5.558346,5897924.000000,1673606983.297210
1673612103.152363,,,,-5.533750,-5.533464,5897925.000000,1673606983.298217
1673612103.152468,,,,-5.533726,-5.535989,5897926.000000,1673606983.299224
1673612103.152663,,,,-5.531538,-5.532815,5897927.000000,1673606983.300231
1673612103.156871,,,,-5.528077,-5.529426,5897928.000000,1673606983.301238
1673612103.158237,,,,-5.530457,-5.534162,5897929.000000,1673606983.302245
1673612103.158257,,,,-5.536370,-5.540124,5897930.000000,1673606983.303252
1673612103.158271,,,,-5.543967,-5.548009,5897931.000000,1673606983.304259
1673612103.158419,,,,-5.548703,-5.550990,5897932.000000,1673606983.305266
1673612103.158434,,,,-5.553656,-5.554644,5897933.000000,1673606983.306273
1673612103.158790,,,,-5.561637,-5.562986,5897934.000000,1673606983.307281
1673612103.160101,,,,-5.566109,-5.568203,5897935.000000,1673606983.308288
1673612103.160121,,,,-5.566613,-5.570078,5897936.000000,1673606983.309295
1673612103.160140,,,,-5.576181,-5.577531,5897937.000000,1673606983.310302
1673612103.160325,,,,-5.589620,-5.587916,5897938.000000,1673606983.311309
1673612103.164281,,,,-5.595775,-5.595634,5897939.000000,1673606983.312316
1673612103.164706,,,,-5.590437,-5.592244,5897940.000000,1673606983.313323
1673612103.164726,,,,-5.581470,-5.584358,5897941.000000,1673606983.314330
1673612103.164737,,,,-5.569691,-5.574983,5897942.000000,1673606983.315337
1673612103.178100,,,,-5.563296,-5.567914,5897943.000000,1673606983.316344
1673612103.178721,,,,-5.565580,-5.568491,5897944.000000,1673606983.317351
1673612103.179463,,,,-5.567815,-5.567169,5897945.000000,1673606983.318358
1673612103.180084,,,,-5.560050,-5.563443,5897946.000000,1673606983.319366
1673612103.180324,,,,-5.555531,-5.556736,5897947.000000,1673606983.320373
1673612103.180437,,,,-5.555843,-5.557312,5897948.000000,1673606983.321380
1673612103.180577,,,,-5.561204,-5.564212,5897949.000000,1673606983.322387
1673612103.184312,,,,-5.568801,-5.571857,5897950.000000,1673606983.323394
1673612103.184521,,,,-5.580749,-5.583541,5897951.000000,1673606983.324401
1673612103.184716,,,,-5.592553,-5.592941,5897952.000000,1673606983.325408
1673612103.184782,,,,-5.604116,-5.604456,5897953.000000,1673606983.326415
1673612103.184909,,,,-5.607074,-5.612366,5897954.000000,1673606983.327422
1673612103.185369,,,,-5.610559,-5.614842,5897955.000000,1673606983.328429
1673612103.185380,,,,-5.612002,-5.613423,5897956.000000,1673606983.329436
1673612103.185387,,,,-5.599982,-5.600730,5897957.000000,1673606983.330443
1673612103.187803,8.263159,4649594.000000,1673612103.177251,,,,
1673612103.187816,8.299345,4649595.000000,1673612103.178251,,,,
1673612103.187825,8.353613,4649596.000000,1673612103.179251,,,,
1673612103.187832,8.407880,4649597.000000,1673612103.180251,,,,
1673612103.187837,8.444066,4649598.000000,1673612103.181251,,,,
1673612103.187872,8.480244,4649599.000000,1673612103.182251,,,,
1673612103.187881,8.516422,4649600.000000,1673612103.183251,,,,
1673612103.187889,8.624965,4649601.000000,1673612103.184251,,,,
1673612103.187899,8.679232,4649602.000000,1673612103.185251,,,,
1673612103.187905,8.661143,4649603.000000,1673612103.186251,,,,
1673612103.189571,,,,-5.595703,-5.596571,5897958.000000,1673606983.331450
1673612103.189795,,,,-5.595775,-5.597773,5897959.000000,1673606983.332458
1673612103.191942,,,,-5.595654,-5.596691,5897960.000000,1673606983.333465
1673612103.192067,,,,-5.593082,-5.594383,5897961.000000,1673606983.334472
1673612103.192225,,,,-5.583394,-5.588157,5897962.000000,1673606983.335479
1673612103.192330,,,,-5.571397,-5.574093,5897963.000000,1673606983.336486
1673612103.197430,,,,-5.566445,-5.568756,5897964.000000,1673606983.337493
1673612103.197443,,,,-5.572431,-5.572410,5897965.000000,1673606983.338500
1673612103.197467,,,,-5.564450,-5.568876,5897966.000000,1673606983.339507
1673612103.200003,,,,-5.562551,-5.568563,5897967.000000,1673606983.340514
1673612103.200056,,,,-5.570171,-5.571136,5897968.000000,1673606983.341521
1673612103.200072,,,,-5.572335,-5.576088,5897969.000000,1673606983.342528
1673612103.200094,,,,-5.564882,-5.568996,5897970.000000,1673606983.343535
1673612103.200148,,,,-5.562479,-5.563155,5897971.000000,1673606983.344543
1673612103.200183,,,,-5.572936,-5.573324,5897972.000000,1673606983.345550
1673612103.200191,,,,-5.582696,-5.583781,5897973.000000,1673606983.346557
1673612103.200194,,,,-5.583394,-5.586257,5897974.000000,1673606983.347564
1673612103.204915,,,,-5.573705,-5.575848,5897975.000000,1673606983.348571
1673612103.205163,,,,-5.569378,-5.570391,5897976.000000,1673606983.349578
1673612103.205410,,,,-5.572696,-5.575175,5897977.000000,1673606983.350585
1673612103.205886,,,,-5.583298,-5.583565,5897978.000000,1673606983.351592
1673612103.206131,,,,-5.576350,-5.575295,5897979.000000,1673606983.352599
1673612103.206143,,,,-5.569330,-5.573059,5897980.000000,1673606983.353606
1673612103.206149,,,,-5.575340,-5.576930,5897981.000000,1673606983.354613
1673612103.207114,,,,-5.572263,-5.574718,5897982.000000,1673606983.355620
1673612103.207182,,,,-5.574042,-5.578180,5897983.000000,1673606983.356627
1673612103.207190,,,,-5.572768,-5.576353,5897984.000000,1673606983.357635
1673612103.212201,,,,-5.566036,-5.568804,5897985.000000,1673606983.358642
1673612103.212410,,,,-5.558680,-5.562241,5897986.000000,1673606983.359649
1673612103.212803,,,,-5.558872,-5.560991,5897987.000000,1673606983.360656
1673612103.212866,,,,-5.554761,-5.555534,5897988.000000,1673606983.361663
1673612103.212878,,,,-5.536995,-5.535292,5897989.000000,1673606983.362670
1673612103.215592,,,,-5.521850,-5.522718,5897990.000000,1673606983.363677
1673612103.215737,,,,-5.524326,-5.525867,5897991.000000,1673606983.364684
1673612103.216877,,,,-5.539952,-5.540701,5897994.000000,1673606983.367705
1673612103.216897,,,,-5.547285,-5.548995,5897995.000000,1673606983.368712
1673612103.217016,,,,-5.557358,-5.559741,5897996.000000,1673606983.369720
1673612103.217030,,,,-5.575027,-5.578300,5897997.000000,1673606983.370727
1673612103.217035,,,,-5.574499,-5.577339,5897998.000000,1673606983.371734
1673612103.217098,,,,-5.568104,-5.569333,5897999.000000,1673606983.372741
1673612103.217114,,,,-5.569594,-5.568563,5898000.000000,1673606983.373748
1673612103.217126,,,,-5.558440,-5.558082,5898001.000000,1673606983.374755
1673612103.217271,,,,-5.537404,-5.540845,5898002.000000,1673606983.375762
1673612103.217280,,,,-5.534928,-5.535147,5898003.000000,1673606983.376769
1673612103.220622,,,,-5.547766,-5.548202,5898004.000000,1673606983.377776
1673612103.220800,,,,-5.548872,-5.551254,5898005.000000,1673606983.378783
1673612103.221229,,,,-5.543126,-5.544932,5898006.000000,1673606983.379790
1673612103.221467,,,,-5.538534,-5.538777,5898007.000000,1673606983.380797
1673612103.221722,,,,-5.522331,-5.523464,5898008.000000,1673606983.381804
1673612103.221948,,,,-5.476582,-5.482138,5898009.000000,1673606983.382812
1673612103.222137,,,,-5.440352,-5.444202,5898010.000000,1673606983.383819
1673612103.222589,,,,-5.437612,-5.438408,5898011.000000,1673606983.384826
1673612103.222630,,,,-5.455234,-5.458410,5898012.000000,1673606983.385833
1673612103.222808,,,,-5.482159,-5.485095,5898013.000000,1673606983.386840
1673612103.223064,,,,-5.534279,-5.535772,5898014.000000,1673606983.387847
1673612103.223169,,,,-5.558776,-5.559837,5898015.000000,1673606983.388854
1673612103.223214,,,,-5.527452,-5.530580,5898016.000000,1673606983.389861
1673612103.223505,,,,-5.508315,-5.506948,5898017.000000,1673606983.390868
1673612103.224226,,,,-5.502594,-5.500890,5898018.000000,1673606983.391875
1673612103.224284,,,,-5.499757,-5.503150,5898019.000000,1673606983.392882
1673612103.224367,,,,-5.501440,-5.504976,5898020.000000,1673606983.393889
1673612103.224386,,,,-5.503723,-5.505024,5898021.000000,1673606983.394897
1673612103.224436,,,,-5.499564,-5.500433,5898022.000000,1673606983.395904
1673612103.224444,,,,-5.492977,-5.494182,5898023.000000,1673606983.396911
1673612103.224458,,,,-5.490717,-5.492283,5898024.000000,1673606983.397918
1673612103.236511,,,,-5.478000,-5.482162,5898025.000000,1673606983.398925
1673612103.236895,,,,-5.475451,-5.479277,5898026.000000,1673606983.399932
1673612103.236906,,,,-5.473817,-5.472330,5898027.000000,1673606983.400939
1673612103.237073,,,,-5.472807,-5.472954,5898028.000000,1673606983.401946
1673612103.237089,,,,-5.477279,-5.478748,5898029.000000,1673606983.402953
1673612103.237264,,,,-5.476149,-5.477955,5898030.000000,1673606983.403960
1673612103.243583,,,,-5.480644,-5.482619,5898031.000000,1673606983.404967
1673612103.243678,,,,-5.493122,-5.494567,5898032.000000,1673606983.405974
1673612103.243900,,,,-5.498338,-5.500096,5898033.000000,1673606983.406981
1673612103.243908,,,,-5.502329,-5.503606,5898034.000000,1673606983.407989
1673612103.249917,,,,-5.510719,-5.511660,5898035.000000,1673606983.408996
1673612103.250188,8.697330,4649604.000000,1673612103.189557,,,,
1673612103.250285,8.787774,4649605.000000,1673612103.190557,,,,
1673612103.250692,,,,-5.523268,-5.525002,5898036.000000,1673606983.410003
1673612103.250704,8.769686,4649606.000000,1673612103.191556,,,,
1673612103.250792,,,,-5.529831,-5.530700,5898037.000000,1673606983.411010
1673612103.250874,,,,-5.523653,-5.525675,5898038.000000,1673606983.412017
1673612103.250888,,,,-5.528749,-5.531565,5898039.000000,1673606983.413024
1673612103.250900,,,,-5.533462,-5.535797,5898040.000000,1673606983.414031
1673612103.250910,,,,-5.525600,-5.526949,5898041.000000,1673606983.415038
1673612103.251924,10.216892,4649655.000000,1673612103.240556,,,,
1673612103.251935,10.162625,4649656.000000,1673612103.241557,,,,
1673612103.251998,10.234990,4649657.000000,1673612103.242557,,,,
1673612103.252005,10.234990,4649658.000000,1673612103.243556,,,,
1673612103.252014,10.325435,4649659.000000,1673612103.244556,,,,
1673612103.252024,10.361613,4649660.000000,1673612103.245557,,,,
1673612103.252040,10.415889,4649661.000000,1673612103.246557,,,,
1673612103.252048,10.433978,4649662.000000,1673612103.247556,,,,
1673612103.252073,10.506334,4649663.000000,1673612103.248557,,,,
1673612103.252079,10.578698,4649664.000000,1673612103.249557,,,,
1673612103.252356,,,,-5.516561,-5.515675,5898042.000000,1673606983.416045
1673612103.252367,,,,-5.504709,-5.508511,5898043.000000,1673606983.417052
1673612103.252374,,,,-5.499781,-5.503005,5898044.000000,1673606983.418059
1673612103.252402,,,,-5.492136,-5.494447,5898045.000000,1673606983.419066
1673612103.258195,,,,-5.488482,-5.491225,5898046.000000,1673606983.420074
1673612103.258837,,,,-5.484130,-5.486032,5898047.000000,1673606983.421081
1673612103.258850,,,,-5.479947,-5.482427,5898048.000000,1673606983.422088
1673612103.259260,,,,-5.482496,-5.484085,5898049.000000,1673606983.423095
1673612103.259276,,,,-5.477664,-5.479806,5898050.000000,1673606983.424102
1673612103.259285,,,,-5.481798,-5.483869,5898051.000000,1673606983.425109
1673612103.259382,,,,-5.493145,-5.496033,5898052.000000,1673606983.426116
1673612103.259401,,,,-5.501343,-5.504496,5898053.000000,1673606983.427123
1673612103.259849,,,,-5.504853,-5.507789,5898054.000000,1673606983.428130
1673612103.260242,,,,-5.509734,-5.511467,5898055.000000,1673606983.429137
1673612103.260567,,,,-5.514373,-5.517886,5898056.000000,1673606983.430144
1673612103.260875,,,,-5.514950,-5.517069,5898057.000000,1673606983.431151
1673612103.261261,,,,-5.511248,-5.513631,5898058.000000,1673606983.432158
1673612103.261708,,,,-5.510142,-5.510386,5898059.000000,1673606983.433166
1673612103.262188,,,,-5.511272,-5.512693,5898060.000000,1673606983.434173
1673612103.262273,,,,-5.510190,-5.510169,5898061.000000,1673606983.435180
1673612103.262600,,,,-5.506873,-5.507068,5898062.000000,1673606983.436187
1673612103.264764,,,,-5.499180,-5.499447,5898063.000000,1673606983.437194
1673612103.265245,,,,-5.493626,-5.494904,5898064.000000,1673606983.438201
1673612103.265255,,,,-5.483481,-5.486754,5898065.000000,1673606983.439208
1673612103.265260,,,,-5.467350,-5.469781,5898066.000000,1673606983.440215
1673612103.267301,,,,-5.453695,-5.457064,5898067.000000,1673606983.441222
1673612103.267531,,,,-5.455474,-5.457376,5898068.000000,1673606983.442229
1673612103.267575,,,,-5.466605,-5.466127,5898069.000000,1673606983.443236
1673612103.267582,,,,-5.489251,-5.491394,5898070.000000,1673606983.444243
1673612103.272459,,,,-5.509686,-5.513583,5898071.000000,1673606983.445251
1673612103.272731,,,,-5.521057,-5.521156,5898072.000000,1673606983.446258
1673612103.272746,,,,-5.522139,-5.524666,5898073.000000,1673606983.447265
1673612103.275081,,,,-5.520504,-5.525820,5898074.000000,1673606983.448272
1673612103.275100,,,,-5.520383,-5.521757,5898075.000000,1673606983.449279
1673612103.275441,,,,-5.520648,-5.521901,5898076.000000,1673606983.450286
1673612103.275696,,,,-5.521898,-5.524738,5898077.000000,1673606983.451293
1673612103.275968,,,,-5.519903,-5.522285,5898078.000000,1673606983.452300
1673612103.276222,,,,-5.517162,-5.520122,5898079.000000,1673606983.453307
1673612103.276478,,,,-5.525216,-5.528656,5898080.000000,1673606983.454314
1673612103.276747,,,,-5.511368,-5.514905,5898081.000000,1673606983.455321
1673612103.279968,,,,-5.488963,-5.491370,5898082.000000,1673606983.456328
1673612103.280100,,,,-5.485909,-5.488917,5898083.000000,1673606983.457335
1673612103.280107,,,,-5.497449,-5.499615,5898084.000000,1673606983.458343
1673612103.280314,,,,-5.499709,-5.502813,5898085.000000,1673606983.459350
1673612103.280366,,,,-5.491366,-5.493052,5898086.000000,1673606983.460357
1673612103.280463,,,,-5.483433,-5.485287,5898087.000000,1673606983.461364
1673612103.281907,,,,-5.488986,-5.489807,5898088.000000,1673606983.462371
1673612103.282068,,,,-5.500189,-5.499736,5898089.000000,1673606983.463378
1673612103.282244,,,,-5.492280,-5.494447,5898090.000000,1673606983.464385
1673612103.282385,,,,-5.476413,-5.481393,5898091.000000,1673606983.465392
1673612103.295857,,,,-5.482592,-5.486706,5898092.000000,1673606983.466399
1673612103.296365,,,,-5.495525,-5.499663,5898093.000000,1673606983.467406
1673612103.296389,,,,-5.508796,-5.512333,5898094.000000,1673606983.468413
1673612103.296709,,,,-5.523004,-5.524738,5898095.000000,1673606983.469420
1673612103.303536,,,,-5.529182,-5.531469,5898096.000000,1673606983.470428
1673612103.303676,,,,-5.528870,-5.532190,5898097.000000,1673606983.471435
1673612103.303690,,,,-5.526418,-5.529282,5898098.000000,1673606983.472442
1673612103.305746,10.632965,4649665.000000,1673612103.244473,,,,
1673612103.305972,10.488245,4649666.000000,1673612103.245473,,,,
1673612103.307897,10.687241,4649667.000000,1673612103.246473,,,,
1673612103.307927,10.687241,4649668.000000,1673612103.247473,,,,
1673612103.307937,10.687241,4649669.000000,1673612103.248473,,,,
1673612103.307948,10.741508,4649670.000000,1673612103.249473,,,,
1673612103.307965,10.705330,4649671.000000,1673612103.250473,,,,
1673612103.307987,10.705330,4649672.000000,1673612103.251473,,,,
1673612103.308033,11.718375,4649716.000000,1673612103.295473,,,,
1673612103.308046,11.736464,4649717.000000,1673612103.296474,,,,
1673612103.308056,11.790739,4649718.000000,1673612103.297473,,,,
1673612103.308078,11.772651,4649719.000000,1673612103.298473,,,,
1673612103.308090,11.772651,4649720.000000,1673612103.299473,,,,
1673612103.308106,11.718375,4649721.000000,1673612103.300473,,,,
1673612103.308117,11.718375,4649722.000000,1673612103.301473,,,,
1673612103.308131,11.700286,4649723.000000,1673612103.302473,,,,
1673612103.308168,11.754553,4649724.000000,1673612103.303473,,,,
1673612103.308218,11.754553,4649725.000000,1673612103.304473,,,,
1673612103.309814,,,,-5.527475,-5.526901,5898099.000000,1673606983.473449
1673612103.309954,,,,-5.530144,-5.532382,5898100.000000,1673606983.474456
1673612103.310314,,,,-5.535721,-5.537551,5898101.000000,1673606983.475463
1673612103.310549,,,,-5.538606,-5.542432,5898102.000000,1673606983.476470
1673612103.312760,,,,-5.549040,-5.553875,5898103.000000,1673606983.477477
1673612103.312771,,,,-5.543727,-5.546759,5898104.000000,1673606983.478484
1673612103.312783,,,,-5.523990,-5.525988,5898105.000000,1673606983.479491
1673612103.312881,,,,-5.507570,-5.511059,5898106.000000,1673606983.480498
1673612103.312892,,,,-5.503435,-5.505770,5898107.000000,1673606983.481505
1673612103.312902,,,,-5.509301,-5.510794,5898108.000000,1673606983.482512
1673612103.312909,,,,-5.508363,-5.509352,5898109.000000,1673606983.483520
1673612103.312933,,,,-5.491727,-5.494110,5898110.000000,1673606983.484527
1673612103.317460,,,,-5.483385,-5.485600,5898111.000000,1673606983.485534
1673612103.317645,,,,-5.484972,-5.486922,5898112.000000,1673606983.486541
1673612103.318053,,,,-5.500863,-5.501130,5898113.000000,1673606983.487548
1673612103.318062,,,,-5.514854,-5.516035,5898114.000000,1673606983.488555
1673612103.318099,,,,-5.520552,-5.523752,5898115.000000,1673606983.489562
1673612103.318132,,,,-5.521201,-5.522213,5898116.000000,1673606983.490569
1673612103.318136,,,,-5.515359,-5.518006,5898117.000000,1673606983.491576
1673612103.319578,,,,-5.510960,-5.516107,5898118.000000,1673606983.492583
1673612103.319588,,,,-5.519638,-5.523079,5898119.000000,1673606983.493590
1673612103.324860,,,,-5.525216,-5.524834,5898120.000000,1673606983.494597
1673612103.324870,,,,-5.523557,-5.524161,5898121.000000,1673606983.495605
1673612103.325009,,,,-5.548655,-5.551495,5898122.000000,1673606983.496612
1673612103.325336,,,,-5.627965,-5.631021,5898123.000000,1673606983.497619
1673612103.327070,,,,-5.749129,-5.751632,5898124.000000,1673606983.498626
1673612103.327107,,,,-5.814111,-5.815292,5898125.000000,1673606983.499633
1673612103.327160,,,,-5.816996,-5.817696,5898126.000000,1673606983.500640
1673612103.327168,,,,-5.805937,-5.806349,5898127.000000,1673606983.501647
1673612103.332169,,,,-5.776896,-5.777861,5898128.000000,1673606983.502654
1673612103.332213,,,,-5.738263,-5.739131,5898129.000000,1673606983.503661
1673612103.332377,,,,-5.717636,-5.719226,5898130.000000,1673606983.504668
1673612103.332467,,,,-5.695543,-5.695017,5898131.000000,1673606983.505675
1673612103.335411,,,,-5.647077,-5.647609,5898132.000000,1673606983.506682
1673612103.335437,,,,-5.561877,-5.562217,5898133.000000,1673606983.507689
1673612103.335538,,,,-5.489251,-5.488821,5898134.000000,1673606983.508697
1673612103.335916,,,,-5.466100,-5.466800,5898135.000000,1673606983.509704
1673612103.336536,,,,-5.473264,-5.474805,5898136.000000,1673606983.510711
1673612103.336743,,,,-5.494925,-5.498774,5898137.000000,1673606983.511718
1673612103.337001,,,,-5.515696,-5.521156,5898138.000000,1673606983.512725
1673612103.340782,,,,-5.539087,-5.542023,5898139.000000,1673606983.513732
1673612103.340811,,,,-5.545410,-5.544571,5898140.000000,1673606983.514739
1673612103.340825,,,,-5.548054,-5.547384,5898141.000000,1673606983.515746
1673612103.340837,,,,-5.554377,-5.558491,5898142.000000,1673606983.516753
1673612103.340962,,,,-5.590822,-5.593975,5898143.000000,1673606983.517760
1673612103.340974,,,,-5.625200,-5.627679,5898144.000000,1673606983.518767
1673612103.342192,,,,-5.626787,-5.630781,5898145.000000,1673606983.519774
1673612103.342569,,,,-5.662727,-5.666457,5898146.000000,1673606983.520782
1673612103.343000,,,,-5.702250,-5.705354,5898147.000000,1673606983.521789
1673612103.343023,,,,-5.713212,-5.713288,5898148.000000,1673606983.522796
1673612103.348084,,,,-5.691504,-5.695498,5898149.000000,1673606983.523803
1673612103.348349,,,,-5.677056,-5.680544,5898150.000000,1673606983.524810
1673612103.348367,,,,-5.670276,-5.674270,5898151.000000,1673606983.525817
1673612103.348381,,,,-5.648520,-5.649388,5898152.000000,1673606983.526824
1673612103.348391,,,,-5.615536,-5.618520,5898153.000000,1673606983.527831
1673612103.348399,,,,-5.577360,-5.579887,5898154.000000,1673606983.528838
1673612103.348428,,,,-5.553728,-5.554284,5898155.000000,1673606983.529845
1673612103.349713,,,,-5.526754,-5.528777,5898156.000000,1673606983.530852
1673612103.349723,,,,-5.499949,-5.501082,5898157.000000,1673606983.531859
1673612103.349919,,,,-5.486847,-5.487379,5898158.000000,1673606983.532866
1673612103.363907,,,,-5.507666,-5.510337,5898159.000000,1673606983.533874
1673612103.364537,,,,-5.523701,-5.526733,5898160.000000,1673606983.534881
1673612103.364952,,,,-5.544064,-5.547720,5898161.000000,1673606983.535888
1673612103.365058,,,,-5.565748,-5.567169,5898162.000000,1673606983.536895
1673612103.365162,,,,-5.573730,-5.575487,5898163.000000,1673606983.537902
1673612103.365487,,,,-5.588178,-5.589527,5898164.000000,1673606983.538909
1673612103.365767,,,,-5.606737,-5.608159,5898165.000000,1673606983.539916
1673612103.365975,,,,-5.605150,-5.608880,5898166.000000,1673606983.540923
1673612103.370837,,,,-5.602386,-5.604672,5898167.000000,1673606983.541930
1673612103.370987,11.700286,4649726.000000,1673612103.310403,,,,
1673612103.371013,11.718375,4649727.000000,1673612103.311403,,,,
1673612103.371070,,,,-5.611713,-5.611716,5898168.000000,1673606983.542937
1673612103.371114,,,,-5.626354,-5.627728,5898169.000000,1673606983.543944
1673612103.372234,12.478165,4649777.000000,1673612103.361403,,,,
1673612103.372243,12.514343,4649778.000000,1673612103.362403,,,,
1673612103.372247,12.604788,4649779.000000,1673612103.363403,,,,
1673612103.372255,12.659063,4649780.000000,1673612103.364403,,,,
1673612103.372262,12.713331,4649781.000000,1673612103.365402,,,,
1673612103.372277,12.731420,4649782.000000,1673612103.366403,,,,
1673612103.372279,12.785695,4649783.000000,1673612103.367403,,,,
1673612103.372300,12.803784,4649784.000000,1673612103.368402,,,,
1673612103.372306,12.839962,4649785.000000,1673612103.369403,,,,
1673612103.372308,12.930416,4649786.000000,1673612103.370403,,,,
1673612103.379810,,,,-5.639697,-5.641094,5898170.000000,1673606983.544951
1673612103.379893,,,,-5.636018,-5.636815,5898171.000000,1673606983.545959
1673612103.380120,,,,-5.617002,-5.617654,5898172.000000,1673606983.546966
1673612103.380276,,,,-5.594765,-5.599384,5898173.000000,1673606983.547973
1673612103.384948,,,,-5.580557,-5.581594,5898174.000000,1673606983.548980
1673612103.385047,,,,-5.565556,-5.567434,5898175.000000,1673606983.549987
1673612103.385058,,,,-5.551035,-5.554861,5898176.000000,1673606983.550994
1673612103.385071,,,,-5.535913,-5.539282,5898177.000000,1673606983.552001
1673612103.387341,,,,-5.534303,-5.537479,5898178.000000,1673606983.553008
1673612103.387461,,,,-5.547357,-5.549379,5898179.000000,1673606983.554015
1673612103.387474,,,,-5.551588,-5.553875,5898180.000000,1673606983.555022
1673612103.392313,,,,-5.553535,-5.555053,5898181.000000,1673606983.556029
1673612103.392807,,,,-5.552550,-5.553490,5898182.000000,1673606983.557036
1673612103.393096,,,,-5.550097,-5.552673,5898183.000000,1673606983.558043
1673612103.393476,,,,-5.553439,-5.555149,5898184.000000,1673606983.559051
1673612103.400134,,,,-5.548102,-5.547865,5898185.000000,1673606983.560058
1673612103.400331,,,,-5.550530,-5.550413,5898186.000000,1673606983.561065
1673612103.400785,,,,-5.560266,-5.558707,5898187.000000,1673606983.562072
1673612103.400928,,,,-5.565412,-5.566592,5898188.000000,1673606983.563079
1673612103.401157,,,,-5.568056,-5.567914,5898189.000000,1673606983.564086
1673612103.401397,,,,-5.569089,-5.568491,5898190.000000,1673606983.565093
1673612103.402326,,,,-5.572888,-5.572939,5898191.000000,1673606983.566100
1673612103.402684,,,,-5.569571,-5.572987,5898192.000000,1673606983.567107
1673612103.402853,,,,-5.559569,-5.563275,5898193.000000,1673606983.568114
1673612103.403161,,,,-5.562166,-5.563972,5898194.000000,1673606983.569121
1673612103.403481,,,,-5.578994,-5.579574,5898195.000000,1673606983.570128
1673612103.403546,,,,-5.578081,-5.581017,5898196.000000,1673606983.571136
1673612103.403730,,,,-5.567623,-5.572891,5898197.000000,1673606983.572143
1673612103.404020,,,,-5.568633,-5.573420,5898198.000000,1673606983.573150
1673612103.407585,,,,-5.573056,-5.575006,5898199.000000,1673606983.574157
1673612103.407748,,,,-5.571590,-5.573781,5898200.000000,1673606983.575164
1673612103.408064,,,,-5.566229,-5.566088,5898201.000000,1673606983.576171
1673612103.409600,,,,-5.559569,-5.561015,5898202.000000,1673606983.577178
1673612103.409793,,,,-5.559137,-5.559043,5898203.000000,1673606983.578185
1673612103.409804,,,,-5.553199,-5.553058,5898204.000000,1673606983.579192
1673612103.409813,,,,-5.550891,-5.552024,5898205.000000,1673606983.580199
1673612103.423393,,,,-5.549376,-5.550750,5898206.000000,1673606983.581206
1673612103.423634,,,,-5.553054,-5.555774,5898207.000000,1673606983.582213
1673612103.423772,,,,-5.558488,-5.561448,5898208.000000,1673606983.583220
1673612103.423778,,,,-5.560243,-5.562289,5898209.000000,1673606983.584228
1673612103.431121,,,,-5.570388,-5.570727,5898210.000000,1673606983.585235
1673612103.431232,,,,-5.583057,-5.585752,5898211.000000,1673606983.586242
1673612103.431407,,,,-5.594236,-5.596162,5898212.000000,1673606983.587249
1673612103.431576,,,,-5.622291,-5.623761,5898213.000000,1673606983.588256
1673612103.431589,,,,-5.645466,-5.647224,5898214.000000,1673606983.589263
1673612103.431593,,,,-5.639048,-5.641046,5898215.000000,1673606983.590270
1673612103.434470,12.966594,4649787.000000,1673612103.374022,,,,
1673612103.435250,12.966594,4649788.000000,1673612103.375022,,,,
1673612103.435261,16.530354,4649838.000000,1673612103.425022,,,,
1673612103.435266,16.566530,4649839.000000,1673612103.426023,,,,
1673612103.435269,16.693163,4649840.000000,1673612103.427022,,,,
1673612103.435272,16.693163,4649841.000000,1673612103.428022,,,,
1673612103.435281,16.855972,4649842.000000,1673612103.429022,,,,
1673612103.435285,16.892151,4649843.000000,1673612103.430022,,,,
1673612103.435295,16.946426,4649844.000000,1673612103.431022,,,,
1673612103.435303,17.109236,4649845.000000,1673612103.432022,,,,
1673612103.435319,17.127325,4649846.000000,1673612103.433022,,,,
1673612103.435327,17.199680,4649847.000000,1673612103.434022,,,,
1673612103.437375,,,,-5.627075,-5.626958,5898216.000000,1673606983.591277
1673612103.437748,,,,-5.607506,-5.610538,5898217.000000,1673606983.592284
1673612103.437758,,,,-5.594813,-5.599167,5898218.000000,1673606983.593291
1673612103.437762,,,,-5.586327,-5.591234,5898219.000000,1673606983.594298
1673612103.437973,,,,-5.593515,-5.596643,5898220.000000,1673606983.595305
1673612103.437984,,,,-5.600559,-5.603735,5898221.000000,1673606983.596313
1673612103.438007,,,,-5.568969,-5.569140,5898222.000000,1673606983.597320
1673612103.439956,,,,-5.537236,-5.536469,5898223.000000,1673606983.598327
1673612103.440067,,,,-5.524783,-5.524642,5898224.000000,1673606983.599334
1673612103.440323,,,,-5.575581,-5.576449,5898225.000000,1673606983.600341
1673612103.440622,,,,-5.622051,-5.622631,5898226.000000,1673606983.601348
1673612103.441033,,,,-5.611016,-5.612462,5898227.000000,1673606983.602355
1673612103.441050,,,,-5.589019,-5.590321,5898228.000000,1673606983.603362
1673612103.441067,,,,-5.576831,-5.580968,5898229.000000,1673606983.604369
1673612103.441442,,,,-5.604141,-5.607077,5898230.000000,1673606983.605376
1673612103.444771,,,,-5.650659,-5.652970,5898231.000000,1673606983.606383
1673612103.444985,,,,-5.675012,-5.680881,5898232.000000,1673606983.607390
1673612103.445291,,,,-5.699870,-5.705979,5898233.000000,1673606983.608397
1673612103.445561,,,,-5.694269,-5.696868,5898234.000000,1673606983.609405
1673612103.447247,,,,-5.648231,-5.650855,5898235.000000,1673606983.610412
1673612103.447417,,,,-5.591087,-5.593566,5898236.000000,1673606983.611419
1673612103.447608,,,,-5.553631,-5.554356,5898237.000000,1673606983.612426
1673612103.452230,,,,-5.529471,-5.528008,5898238.000000,1673606983.613433
1673612103.452445,,,,-5.493266,-5.492884,5898239.000000,1673606983.614440
1673612103.452724,,,,-5.471629,-5.472954,5898240.000000,1673606983.615447
1673612103.452796,,,,-5.500214,-5.503318,5898241.000000,1673606983.616454
1673612103.454956,,,,-5.532283,-5.534258,5898242.000000,1673606983.617461
1673612103.454966,,,,-5.545025,-5.546182,5898243.000000,1673606983.618468
1673612103.455070,,,,-5.552045,-5.554620,5898244.000000,1673606983.619475
1673612103.455100,,,,-5.543294,-5.546518,5898245.000000,1673606983.620482
1673612103.455286,,,,-5.546203,-5.548009,5898246.000000,1673606983.621490
1673612103.455530,,,,-5.541371,-5.540701,5898247.000000,1673606983.622497
1673612103.459875,,,,-5.528629,-5.530772,5898248.000000,1673606983.623504
1673612103.460227,,,,-5.536851,-5.538970,5898249.000000,1673606983.624511
1673612103.460593,,,,-5.546924,-5.547095,5898250.000000,1673606983.625518
1673612103.460849,,,,-5.541948,-5.544956,5898251.000000,1673606983.626525
1673612103.462259,,,,-5.543703,-5.548682,5898252.000000,1673606983.627532
1673612103.462491,,,,-5.531034,-5.531902,5898253.000000,1673606983.628539
1673612103.462998,,,,-5.513291,-5.516131,5898254.000000,1673606983.629546
1673612103.463063,,,,-5.590678,-5.594119,5898255.000000,1673606983.630553
1673612103.467366,,,,-5.726748,-5.726775,5898256.000000,1673606983.631560
1673612103.467724,,,,-5.812476,-5.812840,5898257.000000,1673606983.632567
1673612103.467923,,,,-5.845195,-5.846376,5898258.000000,1673606983.633574
1673612103.469594,,,,-5.835483,-5.836928,5898259.000000,1673606983.634582
1673612103.469599,,,,-5.818390,-5.817768,5898260.000000,1673606983.635589
1673612103.469762,,,,-5.801898,-5.802502,5898261.000000,1673606983.636596
1673612103.469769,,,,-5.752158,-5.754277,5898262.000000,1673606983.637603
1673612103.492034,,,,-5.720112,-5.721558,5898263.000000,1673606983.638610
1673612103.492258,,,,-5.702923,-5.705643,5898264.000000,1673606983.639617
1673612103.492269,,,,-5.606833,-5.608784,5898265.000000,1673606983.640624
1673612103.492275,,,,-5.568633,-5.569814,5898266.000000,1673606983.641631
1673612103.492280,,,,-5.674195,-5.674871,5898267.000000,1673606983.642638
1673612103.492306,,,,-5.768939,-5.773269,5898268.000000,1673606983.643645
1673612103.492641,,,,-5.814880,-5.819162,5898269.000000,1673606983.644652
1673612103.492867,,,,-5.848825,-5.850944,5898270.000000,1673606983.645659
1673612103.493028,,,,-5.816827,-5.817119,5898271.000000,1673606983.646667
1673612103.493090,,,,-5.788507,-5.789568,5898272.000000,1673606983.647674
1673612103.497241,,,,-5.755813,-5.755792,5898273.000000,1673606983.648681
1673612103.497663,,,,-5.710857,-5.710523,5898274.000000,1673606983.649688
1673612103.498180,,,,-5.663160,-5.662995,5898275.000000,1673606983.650695
1673612103.498327,,,,-5.521105,-5.523055,5898276.000000,1673606983.651702
1673612103.499605,18.882063,4649879.000000,1673612103.468546,,,,
1673612103.499913,19.026783,4649880.000000,1673612103.469546,,,,
1673612103.499942,19.044880,4649881.000000,1673612103.470546,,,,
1673612103.500052,,,,-5.516489,-5.518343,5898277.000000,1673606983.652709
1673612103.500073,,,,-5.565195,-5.567434,5898278.000000,1673606983.653716
1673612103.500441,,,,-5.598491,-5.600538,5898279.000000,1673606983.654723
1673612103.500968,19.099148,4649882.000000,1673612103.471546,,,,
1673612103.500998,19.171503,4649883.000000,1673612103.472546,,,,
1673612103.501009,19.261957,4649884.000000,1673612103.473546,,,,
1673612103.501017,19.334322,4649885.000000,1673612103.474546,,,,
1673612103.501045,19.406677,4649886.000000,1673612103.475546,,,,
1673612103.501064,19.460953,4649887.000000,1673612103.476546,,,,
1673612103.501075,19.515221,4649888.000000,1673612103.477546,,,,
1673612103.501102,20.473997,4649899.000000,1673612103.488546,,,,
1673612103.501133,20.582541,4649900.000000,1673612103.489546,,,,
1673612103.501168,20.636808,4649901.000000,1673612103.490546,,,,
1673612103.501177,20.799618,4649902.000000,1673612103.491546,,,,
1673612103.501185,20.871983,4649903.000000,1673612103.492546,,,,
1673612103.501195,21.016703,4649904.000000,1673612103.493546,,,,
1673612103.501209,21.089060,4649905.000000,1673612103.494546,,,,
1673612103.501219,21.179512,4649906.000000,1673612103.495546,,,,
1673612103.501231,21.251869,4649907.000000,1673612103.496546,,,,
1673612103.501253,21.378500,4649908.000000,1673612103.497546,,,,
1673612103.505031,,,,-5.634720,-5.639483,5898280.000000,1673606983.655730
1673612103.505041,,,,-5.685494,-5.686555,5898281.000000,1673606983.656737
1673612103.505209,,,,-5.717708,-5.716413,5898282.000000,1673606983.657744
1673612103.505218,,,,-5.721531,-5.721678,5898283.000000,1673606983.658751
1673612103.506974,,,,-5.714150,-5.712374,5898284.000000,1673606983.659759
1673612103.507240,,,,-5.724968,-5.724202,5898285.000000,1673606983.660766
1673612103.507482,,,,-5.751918,-5.752041,5898286.000000,1673606983.661773
1673612103.507613,,,,-5.747350,-5.751031,5898287.000000,1673606983.662780
1673612103.512567,,,,-5.706890,-5.709706,5898288.000000,1673606983.663787
1673612103.512794,,,,-5.665949,-5.667707,5898289.000000,1673606983.664794
1673612103.512944,,,,-5.654481,-5.656600,5898290.000000,1673606983.665801
1673612103.513307,,,,-5.664771,-5.668476,5898291.000000,1673606983.666808
1673612103.513326,,,,-5.699774,-5.701845,5898292.000000,1673606983.667815
1673612103.513358,,,,-5.724127,-5.727232,5898293.000000,1673606983.668822
1673612103.513363,,,,-5.754659,-5.757402,5898294.000000,1673606983.669829
1673612103.514822,,,,-5.802403,-5.802839,5898295.000000,1673606983.670836
1673612103.514950,,,,-5.819977,-5.821013,5898296.000000,1673606983.671844
1673612103.514977,,,,-5.817452,-5.817503,5898297.000000,1673606983.672851
1673612103.519658,,,,-5.828439,-5.830582,5898298.000000,1673606983.673858
1673612103.519669,,,,-5.834785,-5.837698,5898299.000000,1673606983.674865
1673612103.519879,,,,-5.848441,-5.849165,5898300.000000,1673606983.675872
1673612103.520005,,,,-5.838295,-5.837674,5898301.000000,1673606983.676879
1673612103.521919,,,,-5.824544,-5.822119,5898302.000000,1673606983.677886
1673612103.522110,,,,-5.810505,-5.811854,5898303.000000,1673606983.678893
1673612103.522289,,,,-5.783459,-5.786130,5898304.000000,1673606983.679900
1673612103.527178,,,,-5.811491,-5.816638,5898305.000000,1673606983.680907
1673612103.527479,,,,-5.901137,-5.902679,5898306.000000,1673606983.681914
1673612103.527488,,,,-5.943256,-5.942514,5898307.000000,1673606983.682921
1673612103.527549,,,,-5.944940,-5.945880,5898308.000000,1673606983.683928
1673612103.529814,,,,-5.923952,-5.924965,5898309.000000,1673606983.684936
1673612103.530138,,,,-5.931717,-5.932874,5898310.000000,1673606983.685943
1673612103.530266,,,,-5.917269,-5.918907,5898311.000000,1673606983.686950
1673612103.530272,,,,-5.876616,-5.877965,5898312.000000,1673606983.687957
1673612103.530276,,,,-5.824857,-5.827552,5898313.000000,1673606983.688964
1673612103.530442,,,,-5.726916,-5.728794,5898314.000000,1673606983.689971
1673612103.530601,,,,-5.658160,-5.661240,5898315.000000,1673606983.690978
1673612103.530688,,,,-5.641067,-5.642825,5898316.000000,1673606983.691985
1673612103.544002,,,,-5.649529,-5.650229,5898317.000000,1673606983.692992
1673612103.544126,,,,-5.657799,-5.660110,5898318.000000,1673606983.693999
1673612103.551402,,,,-5.674772,-5.680641,5898319.000000,1673606983.695006
1673612103.551546,,,,-5.735931,-5.739203,5898320.000000,1673606983.696013
1673612103.551753,,,,-5.787138,-5.788895,5898321.000000,1673606983.697021
1673612103.552040,,,,-5.814159,-5.815532,5898322.000000,1673606983.698028
1673612103.552310,,,,-5.812380,-5.813321,5898323.000000,1673606983.699035
1673612103.552588,,,,-5.780502,-5.782260,5898324.000000,1673606983.700042
1673612103.552903,,,,-5.755572,-5.756777,5898325.000000,1673606983.701049
1673612103.552918,,,,-5.738719,-5.738001,5898326.000000,1673606983.702056
1673612103.555695,29.428610,4649960.000000,1673612103.543895,,,,
1673612103.555715,29.573330,4649961.000000,1673612103.544896,,,,
1673612103.555721,29.699961,4649962.000000,1673612103.545896,,,,
1673612103.555727,29.917038,4649963.000000,1673612103.546896,,,,
1673612103.555731,30.097946,4649964.000000,1673612103.547895,,,,
1673612103.555789,30.296934,4649965.000000,1673612103.548896,,,,
1673612103.555822,30.423565,4649966.000000,1673612103.549896,,,,
1673612103.555828,30.604464,4649967.000000,1673612103.550895,,,,
1673612103.555835,30.767273,4649968.000000,1673612103.551896,,,,
1673612103.555840,31.002447,4649969.000000,1673612103.552896,,,,
1673612103.557315,,,,-5.714871,-5.715404,5898327.000000,1673606983.703063
1673612103.557332,,,,-5.729416,-5.731751,5898328.000000,1673606983.704070
1673612103.557649,,,,-5.706337,-5.708480,5898329.000000,1673606983.705077
1673612103.561736,,,,-5.669339,-5.672371,5898330.000000,1673606983.706084
1673612103.561755,,,,-5.634480,-5.638474,5898331.000000,1673606983.707091
1673612103.561760,,,,-5.606472,-5.607582,5898332.000000,1673606983.708098
1673612103.561921,,,,-5.625585,-5.626742,5898333.000000,1673606983.709105
1673612103.564672,,,,-5.647702,-5.650855,5898334.000000,1673606983.710113
1673612103.565124,,,,-5.660131,-5.662875,5898335.000000,1673606983.711120
1673612103.565223,,,,-5.685085,-5.689295,5898336.000000,1673606983.712127
1673612103.565231,,,,-5.737109,-5.740574,5898337.000000,1673606983.713134
1673612103.569335,,,,-5.756269,-5.758388,5898338.000000,1673606983.714141
1673612103.570438,,,,-5.735931,-5.740646,5898339.000000,1673606983.715148
1673612103.570466,,,,-5.716843,-5.719106,5898340.000000,1673606983.716155
1673612103.570476,,,,-5.734585,-5.737088,5898341.000000,1673606983.717162
1673612103.570496,,,,-5.833776,-5.835774,5898342.000000,1673606983.718169
1673612103.570506,,,,-5.892868,-5.896549,5898343.000000,1673606983.719176
1673612103.570569,,,,-5.891233,-5.895323,5898344.000000,1673606983.720183
1673612103.573106,,,,-5.887747,-5.889817,5898345.000000,1673606983.721190
1673612103.573130,,,,-5.954363,-5.957251,5898346.000000,1673606983.722198
1673612103.573237,,,,-5.984751,-5.987302,5898347.000000,1673606983.723205
1673612103.573254,,,,-5.970542,-5.970810,5898348.000000,1673606983.724212
1673612103.573265,,,,-5.988669,-5.990956,5898349.000000,1673606983.725219
1673612103.573313,,,,-6.047136,-6.049038,5898350.000000,1673606983.726226
1673612103.576655,,,,-6.081851,-6.084930,5898351.000000,1673606983.727233
1673612103.576995,,,,-6.078749,-6.083560,5898352.000000,1673606983.728240
1673612103.577241,,,,-6.057906,-6.059063,5898353.000000,1673606983.729247
1673612103.577417,,,,-5.993838,-5.995019,5898354.000000,1673606983.730254
1673612103.579549,,,,-5.939651,-5.943789,5898355.000000,1673606983.731261
1673612103.579699,,,,-5.896281,-5.898929,5898356.000000,1673606983.732268
1673612103.579810,,,,-5.832141,-5.833707,5898357.000000,1673606983.733275
1673612103.579875,,,,-5.728791,-5.729707,5898358.000000,1673606983.734282
1673612103.584169,,,,-5.617051,-5.618616,5898359.000000,1673606983.735290
1673612103.584216,,,,-5.573922,-5.575944,5898360.000000,1673606983.736297
1673612103.584358,,,,-5.565123,-5.566040,5898361.000000,1673606983.737304
1673612103.584534,,,,-5.566782,-5.567794,5898362.000000,1673606983.738311
1673612103.587054,,,,-5.535913,-5.539787,5898363.000000,1673606983.739318
1673612103.587271,,,,-5.540361,-5.543538,5898364.000000,1673606983.740325
1673612103.587366,,,,-5.595510,-5.596234,5898365.000000,1673606983.741332
1673612103.591576,,,,-5.663713,-5.662971,5898366.000000,1673606983.742339
1673612103.591778,,,,-5.713789,-5.715163,5898367.000000,1673606983.743346
1673612103.591978,,,,-5.778964,-5.780313,5898368.000000,1673606983.744353
1673612103.592368,,,,-5.804976,-5.803632,5898369.000000,1673606983.745360
1673612103.592437,,,,-5.804976,-5.804546,5898370.000000,1673606983.746367
1673612103.592474,,,,-5.784108,-5.785602,5898371.000000,1673606983.747375
1673612103.592480,,,,-5.757760,-5.759878,5898372.000000,1673606983.748382
1673612103.592487,,,,-5.741196,-5.739660,5898373.000000,1673606983.749389
1673612103.604368,,,,-5.727565,-5.731126,5898374.000000,1673606983.750396
1673612103.604949,,,,-5.711746,-5.714273,5898375.000000,1673606983.751403
1673612103.605338,,,,-5.709270,-5.711148,5898376.000000,1673606983.752410
1673612103.606200,,,,-5.711818,-5.715187,5898377.000000,1673606983.753417
1673612103.606294,,,,-5.736628,-5.738050,5898378.000000,1673606983.754424
1673612103.606314,,,,-5.772833,-5.771081,5898379.000000,1673606983.755431
1673612103.607065,,,,-5.783964,-5.786155,5898380.000000,1673606983.756438
1673612103.607285,,,,-5.774901,-5.777740,5898381.000000,1673606983.757445
1673612103.607658,,,,-5.753048,-5.753628,5898382.000000,1673606983.758452
1673612103.607926,,,,-5.721338,-5.725621,5898383.000000,1673606983.759459
1673612103.608727,,,,-5.693668,-5.696339,5898384.000000,1673606983.760467
1673612103.608884,,,,-5.664242,-5.664365,5898385.000000,1673606983.761474
1673612103.608896,,,,-5.645082,-5.646984,5898386.000000,1673606983.762481
1673612103.617964,,,,-5.636235,-5.639122,5898387.000000,1673606983.763488
1673612103.618032,,,,-5.631162,-5.635949,5898388.000000,1673606983.764495
1673612103.618043,,,,-5.622484,-5.624602,5898389.000000,1673606983.765502
1673612103.618106,,,,-5.598034,-5.601980,5898390.000000,1673606983.766509
1673612103.618243,,,,-5.608108,-5.610370,5898391.000000,1673606983.767516
1673612103.618396,,,,-5.630705,-5.632920,5898392.000000,1673606983.768523
1673612103.618411,,,,-5.648351,-5.648619,5898393.000000,1673606983.769530
1673612103.618637,31.129080,4649970.000000,1673612103.557957,,,,
1673612103.618660,,,,-5.658280,-5.659846,5898394.000000,1673606983.770537
1673612103.618668,31.346165,4649971.000000,1673612103.558957,,,,
1673612103.619541,31.472788,4649972.000000,1673612103.559957,,,,
1673612103.619556,31.617508,4649973.000000,1673612103.560957,,,,
1673612103.619560,42.019337,4650021.000000,1673612103.608957,,,,
1673612103.619568,42.290688,4650022.000000,1673612103.609957,,,,
1673612103.619578,42.525860,4650023.000000,1673612103.610957,,,,
1673612103.619583,42.688671,4650024.000000,1673612103.611957,,,,
1673612103.619629,42.887657,4650025.000000,1673612103.612957,,,,
1673612103.619634,43.140923,4650026.000000,1673612103.613957,,,,
1673612103.619693,43.285645,4650027.000000,1673612103.614957,,,,
1673612103.619701,43.538906,4650028.000000,1673612103.615957,,,,
1673612103.619708,43.774071,4650029.000000,1673612103.616957,,,,
1673612103.619715,43.900703,4650030.000000,1673612103.617957,,,,
1673612103.619801,,,,-5.665132,-5.665495,5898395.000000,1673606983.771544
1673612103.620013,,,,-5.666262,-5.667611,5898396.000000,1673606983.772552
1673612103.620092,,,,-5.674267,-5.675448,5898397.000000,1673606983.773559
1673612103.620284,,,,-5.691336,-5.693839,5898398.000000,1673606983.774566
1673612103.620447,,,,-5.697610,-5.699945,5898399.000000,1673606983.775573
1673612103.620605,,,,-5.675878,-5.681674,5898400.000000,1673606983.776580
1673612103.620775,,,,-5.669122,-5.671361,5898401.000000,1673606983.777587
1673612103.624995,,,,-5.663352,-5.665159,5898402.000000,1673606983.778594
1673612103.625027,,,,-5.647846,-5.648258,5898403.000000,1673606983.779601
1673612103.625059,,,,-5.677993,-5.678718,5898404.000000,1673606983.780608
1673612103.625095,,,,-5.755596,-5.759254,5898405.000000,1673606983.781615
1673612103.625258,,,,-5.831228,-5.834741,5898406.000000,1673606983.782622
1673612103.625506,,,,-5.861134,-5.862532,5898407.000000,1673606983.783629
1673612103.625514,,,,-5.877866,-5.880177,5898408.000000,1673606983.784636
1673612103.627076,,,,-5.875799,-5.877917,5898409.000000,1673606983.785644
1673612103.627275,,,,-5.826564,-5.828466,5898410.000000,1673606983.786651
1673612103.627311,,,,-5.774203,-5.776899,5898411.000000,1673606983.787658
1673612103.632573,,,,-5.702250,-5.702782,5898412.000000,1673606983.788665
1673612103.632648,,,,-5.612339,-5.614313,5898413.000000,1673606983.789672
1673612103.633103,,,,-5.561397,-5.561784,5898414.000000,1673606983.790679
1673612103.633233,,,,-5.586807,-5.588373,5898415.000000,1673606983.791686
1673612103.635600,,,,-5.636980,-5.636719,5898416.000000,1673606983.792693
1673612103.635916,,,,-5.656573,-5.656720,5898417.000000,1673606983.793700
1673612103.636176,,,,-5.651789,-5.653306,5898418.000000,1673606983.794707
1673612103.636512,,,,-5.663545,-5.665231,5898419.000000,1673606983.795714
1673612103.636789,,,,-5.654001,-5.655374,5898420.000000,1673606983.796721
1673612103.637055,,,,-5.648255,-5.651143,5898421.000000,1673606983.797729
1673612103.637239,,,,-5.661141,-5.662947,5898422.000000,1673606983.798736
1673612103.637500,,,,-5.677200,-5.681001,5898423.000000,1673606983.799743
1673612103.637891,,,,-5.687345,-5.690786,5898424.000000,1673606983.800750
1673612103.637909,,,,-5.666406,-5.668356,5898425.000000,1673606983.801757
1673612103.638201,,,,-5.623349,-5.623015,5898426.000000,1673606983.802764
1673612103.638518,,,,-5.616714,-5.618328,5898427.000000,1673606983.803771
1673612103.638777,,,,-5.635417,-5.636454,5898428.000000,1673606983.804778
1673612103.639095,,,,-5.646861,-5.648907,5898429.000000,1673606983.805785
1673612103.640341,,,,-5.636908,-5.639507,5898430.000000,1673606983.806792
1673612103.640746,,,,-5.633013,-5.634218,5898431.000000,1673606983.807799
1673612103.640958,,,,-5.654914,-5.655855,5898432.000000,1673606983.808806
1673612103.641064,,,,-5.700375,-5.703648,5898433.000000,1673606983.809813
1673612103.641218,,,,-5.716458,-5.718216,5898434.000000,1673606983.810821
1673612103.641916,,,,-5.707202,-5.709682,5898435.000000,1673606983.811828
1673612103.641926,,,,-5.690158,-5.691315,5898436.000000,1673606983.812835
1673612103.641944,,,,-5.681960,-5.684559,5898437.000000,1673606983.813842
1673612103.642003,,,,-5.704726,-5.707590,5898438.000000,1673606983.814849
1673612103.642010,,,,-5.753962,-5.755960,5898439.000000,1673606983.815856
1673612103.642018,,,,-5.690855,-5.691098,5898440.000000,1673606983.816863
1673612103.642715,,,,-5.688859,-5.690017,5898441.000000,1673606983.817870
1673612103.643121,,,,-5.724488,-5.725861,5898442.000000,1673606983.818877
1673612103.643133,,,,-5.755644,-5.756561,5898443.000000,1673606983.819884
1673612103.643150,,,,-5.763554,-5.765864,5898444.000000,1673606983.820891
1673612103.643322,,,,-5.760837,-5.760840,5898445.000000,1673606983.821898
1673612103.643345,,,,-5.714463,-5.715163,5898446.000000,1673606983.822906
1673612103.643554,,,,-5.659338,-5.662442,5898447.000000,1673606983.823913
1673612103.643585,,,,-5.606761,-5.608904,5898448.000000,1673606983.824920
1673612103.643872,,,,-5.586783,-5.589287,5898449.000000,1673606983.825927
1673612103.644083,,,,-5.623277,-5.625588,5898450.000000,1673606983.826934
1673612103.644263,,,,-5.683739,-5.685761,5898451.000000,1673606983.827941
1673612103.647430,,,,-5.743624,-5.742954,5898452.000000,1673606983.828948
1673612103.648165,,,,-5.738335,-5.735213,5898453.000000,1673606983.829955
1673612103.648186,,,,-5.719055,-5.719971,5898454.000000,1673606983.830962
1673612103.648195,,,,-5.726099,-5.726101,5898455.000000,1673606983.831969
1673612103.648200,,,,-5.751173,-5.750310,5898456.000000,1673606983.832976
1673612103.648273,,,,-5.731460,-5.732015,5898457.000000,1673606983.833983
1673612103.648287,,,,-5.692153,-5.693911,5898458.000000,1673606983.834991
1673612103.649652,,,,-5.705255,-5.708119,5898459.000000,1673606983.835998
1673612103.649665,,,,-5.775357,-5.777524,5898460.000000,1673606983.837005
1673612103.649898,,,,-5.835939,-5.834885,5898461.000000,1673606983.838012
1673612103.664201,,,,-5.848417,-5.847482,5898462.000000,1673606983.839019
1673612103.664216,,,,-5.766222,-5.764903,5898463.000000,1673606983.840026
1673612103.664261,,,,-5.738599,-5.740718,5898464.000000,1673606983.841033
1673612103.665035,,,,-5.792089,-5.793872,5898465.000000,1673606983.842040
1673612103.670979,,,,-5.751317,-5.753484,5898466.000000,1673606983.843047
1673612103.671550,,,,-5.667632,-5.668476,5898467.000000,1673606983.844054
1673612103.671563,,,,-5.581374,-5.582483,5898468.000000,1673606983.845061
1673612103.673672,53.741737,4650082.000000,1673612103.662449,,,,
1673612103.673688,53.904545,4650083.000000,1673612103.663449,,,,
1673612103.673697,54.103535,4650084.000000,1673612103.664449,,,,
1673612103.673704,54.248253,4650085.000000,1673612103.665449,,,,
1673612103.673715,54.465340,4650086.000000,1673612103.666449,,,,
1673612103.673733,54.591972,4650087.000000,1673612103.667449,,,,
1673612103.673743,54.700516,4650088.000000,1673612103.668449,,,,
1673612103.673749,54.917591,4650089.000000,1673612103.669449,,,,
1673612103.673798,55.044224,4650090.000000,1673612103.670449,,,,
1673612103.673811,55.207031,4650091.000000,1673612103.671449,,,,
1673612103.677430,,,,-5.483746,-5.483989,5898469.000000,1673606983.846068
1673612103.677706,,,,-5.459393,-5.463002,5898470.000000,1673606983.847075
1673612103.677860,,,,-5.532163,-5.534186,5898471.000000,1673606983.848083
1673612103.678117,,,,-5.571902,-5.573444,5898472.000000,1673606983.849090
1673612103.678264,,,,-5.532788,-5.535700,5898473.000000,1673606983.850097
1673612103.678387,,,,-5.481149,-5.483436,5898474.000000,1673606983.851104
1673612103.678592,,,,-5.490357,-5.491466,5898475.000000,1673606983.852111
1673612103.679514,,,,-5.539207,-5.538994,5898476.000000,1673606983.853118
1673612103.679793,,,,-5.562599,-5.562602,5898477.000000,1673606983.854125
1673612103.679826,,,,-5.583706,-5.586185,5898478.000000,1673606983.855132
1673612103.679947,,,,-5.583418,-5.586522,5898479.000000,1673606983.856139
1673612103.684927,,,,-5.564426,-5.565030,5898480.000000,1673606983.857146
1673612103.685121,,,,-5.548775,-5.550725,5898481.000000,1673606983.858153
1673612103.685260,,,,-5.495718,-5.499063,5898482.000000,1673606983.859160
1673612103.685395,,,,-5.475908,-5.478171,5898483.000000,1673606983.860168
1673612103.685647,,,,-5.517763,-5.520290,5898484.000000,1673606983.861175
1673612103.685705,,,,-5.565435,-5.566689,5898485.000000,1673606983.862182
1673612103.685712,,,,-5.582432,-5.584383,5898486.000000,1673606983.863189
1673612103.687027,,,,-5.591688,-5.595057,5898487.000000,1673606983.864196
1673612103.687183,,,,-5.607554,-5.607677,5898488.000000,1673606983.865203
1673612103.687191,,,,-5.613372,-5.615467,5898489.000000,1673606983.866210
1673612103.692174,,,,-5.615824,-5.619361,5898490.000000,1673606983.867217
1673612103.692332,,,,-5.612362,-5.615851,5898491.000000,1673606983.868224
1673612103.692465,,,,-5.621065,-5.624458,5898492.000000,1673606983.869231
1673612103.692622,,,,-5.617219,-5.620948,5898493.000000,1673606983.870238
1673612103.694770,,,,-5.597145,-5.598903,5898494.000000,1673606983.871245
1673612103.694781,,,,-5.588731,-5.588854,5898495.000000,1673606983.872252
1673612103.694786,,,,-5.600342,-5.602244,5898496.000000,1673606983.873260
1673612103.700360,,,,-5.626234,-5.627439,5898497.000000,1673606983.874267
1673612103.700374,,,,-5.656044,-5.657490,5898498.000000,1673606983.875274
1673612103.700385,,,,-5.671238,-5.673693,5898499.000000,1673606983.876281
1673612103.700427,,,,-5.676190,-5.678549,5898500.000000,1673606983.877288
1673612103.700597,,,,-5.683282,-5.684031,5898501.000000,1673606983.878295
1673612103.700606,,,,-5.704077,-5.704513,5898502.000000,1673606983.879302
1673612103.700620,,,,-5.724848,-5.725981,5898503.000000,1673606983.880309
1673612103.702291,,,,-5.761414,-5.763292,5898504.000000,1673606983.881316
1673612103.702999,,,,-5.814640,-5.816854,5898505.000000,1673606983.882323
1673612103.703149,,,,-5.833055,-5.835606,5898506.000000,1673606983.883330
1673612103.703465,,,,-5.819400,-5.820893,5898507.000000,1673606983.884337
1673612103.707791,,,,-5.842310,-5.844669,5898508.000000,1673606983.885345
1673612103.707981,,,,-5.847359,-5.844549,5898509.000000,1673606983.886352
1673612103.708272,,,,-5.798532,-5.798440,5898510.000000,1673606983.887359
1673612103.708707,,,,-5.727853,-5.727376,5898511.000000,1673606983.888366
1673612103.709020,,,,-5.628590,-5.630012,5898512.000000,1673606983.889373
1673612103.709538,,,,-5.567984,-5.572939,5898513.000000,1673606983.890380
1673612103.709567,,,,-5.552550,-5.556760,5898514.000000,1673606983.891387
1673612103.709869,,,,-5.520408,-5.522454,5898515.000000,1673606983.892394
1673612103.710273,,,,-5.509301,-5.511900,5898516.000000,1673606983.893401
1673612103.710585,,,,-5.540241,-5.542264,5898517.000000,1673606983.894408
1673612103.710664,,,,-5.541082,-5.544355,5898518.000000,1673606983.895415
1673612103.723384,,,,-5.544857,-5.546206,5898519.000000,1673606983.896422
1673612103.723644,,,,-5.612387,-5.614120,5898520.000000,1673606983.897429
1673612103.723651,,,,-5.669483,-5.671024,5898521.000000,1673606983.898437
1673612103.723838,,,,-5.685302,-5.686122,5898522.000000,1673606983.899444
1673612103.730918,,,,-5.704366,-5.705931,5898523.000000,1673606983.900451
1673612103.731158,,,,-5.764659,-5.767571,5898524.000000,1673606983.901458
1673612103.731168,,,,-5.806706,-5.810075,5898525.000000,1673606983.902465
1673612103.737325,61.448128,4650143.000000,1673612103.727042,,,,
1673612103.737339,61.556664,4650144.000000,1673612103.728042,,,,
1673612103.737345,61.592842,4650145.000000,1673612103.729042,,,,
1673612103.737366,61.665215,4650146.000000,1673612103.730042,,,,
1673612103.737381,61.737568,4650147.000000,1673612103.731042,,,,
1673612103.737386,61.719482,4650148.000000,1673612103.732042,,,,
1673612103.737415,61.828014,4650149.000000,1673612103.733042,,,,
1673612103.737422,61.846104,4650150.000000,1673612103.734042,,,,
1673612103.737427,61.900387,4650151.000000,1673612103.735042,,,,
1673612103.737432,61.990833,4650152.000000,1673612103.736042,,,,
1673612103.737532,,,,-5.766703,-5.770576,5898526.000000,1673606983.903472
1673612103.737709,,,,-5.718935,-5.721173,5898527.000000,1673606983.904479
1673612103.737994,,,,-5.647077,-5.653090,5898528.000000,1673606983.905486
1673612103.738004,,,,-5.606881,-5.609890,5898529.000000,1673606983.906493
1673612103.738007,,,,-5.593347,-5.596908,5898530.000000,1673606983.907500
1673612103.738019,,,,-5.522884,-5.524233,5898531.000000,1673606983.908507
1673612103.738032,,,,-5.468360,-5.470574,5898532.000000,1673606983.909514
1673612103.738059,,,,-5.463792,-5.464324,5898533.000000,1673606983.910522
1673612103.739753,,,,-5.494371,-5.497452,5898534.000000,1673606983.911529
1673612103.739934,,,,-5.519951,-5.522478,5898535.000000,1673606983.912536
1673612103.740179,,,,-5.546948,-5.548899,5898536.000000,1673606983.913543
1673612103.740438,,,,-5.538294,-5.542432,5898537.000000,1673606983.914550
1673612103.740650,,,,-5.494660,-5.499327,5898538.000000,1673606983.915557
1673612103.740939,,,,-5.516296,-5.517838,5898539.000000,1673606983.916564
1673612103.744640,,,,-5.558897,-5.559597,5898540.000000,1673606983.917571
1673612103.745111,,,,-5.568585,-5.569550,5898541.000000,1673606983.918578
1673612103.745123,,,,-5.541563,-5.543754,5898542.000000,1673606983.919585
1673612103.745157,,,,-5.523388,-5.525723,5898543.000000,1673606983.920592
1673612103.747497,,,,-5.547694,-5.549523,5898544.000000,1673606983.921599
1673612103.747504,,,,-5.578874,-5.582459,5898545.000000,1673606983.922606
1673612103.747508,,,,-5.597434,-5.598807,5898546.000000,1673606983.923614
1673612103.752710,,,,-5.593947,-5.596883,5898547.000000,1673606983.924621
1673612103.752725,,,,-5.586278,-5.588277,5898548.000000,1673606983.925628
1673612103.752750,,,,-5.575701,-5.577627,5898549.000000,1673606983.926635
1673612103.753029,,,,-5.554305,-5.555822,5898550.000000,1673606983.927642
1673612103.753202,,,,-5.544809,-5.548971,5898551.000000,1673606983.928649
1673612103.753563,,,,-5.573081,-5.574694,5898552.000000,1673606983.929656
1673612103.753683,,,,-5.624960,-5.626213,5898553.000000,1673606983.930663
1673612103.753792,,,,-5.644793,-5.646623,5898554.000000,1673606983.931670
1673612103.754622,,,,-5.661165,-5.661552,5898555.000000,1673606983.932677
1673612103.755159,,,,-5.700592,-5.702662,5898556.000000,1673606983.933684
1673612103.755224,,,,-5.743383,-5.748411,5898557.000000,1673606983.934691
1673612103.755240,,,,-5.757664,-5.761898,5898558.000000,1673606983.935699
1673612103.760697,,,,-5.726916,-5.732304,5898559.000000,1673606983.936706
1673612103.760720,,,,-5.666766,-5.672226,5898560.000000,1673606983.937713
1673612103.760756,,,,-5.613541,-5.615034,5898561.000000,1673606983.938720
1673612103.761436,,,,-5.635345,-5.637103,5898562.000000,1673606983.939727
1673612103.761605,,,,-5.707756,-5.710042,5898563.000000,1673606983.940734
1673612103.761620,,,,-5.721363,-5.723938,5898564.000000,1673606983.941741
1673612103.762174,,,,-5.675036,-5.677011,5898565.000000,1673606983.942748
1673612103.762564,,,,-5.640682,-5.639796,5898566.000000,1673606983.943755
1673612103.762979,,,,-5.623061,-5.621405,5898567.000000,1673606983.944762
1673612103.767374,,,,-5.642341,-5.642464,5898568.000000,1673606983.945769
1673612103.768042,,,,-5.661526,-5.662442,5898569.000000,1673606983.946776
1673612103.768223,,,,-5.591087,-5.594359,5898570.000000,1673606983.947783
1673612103.768247,,,,-5.532524,-5.534426,5898571.000000,1673606983.948791
1673612103.769930,,,,-5.520239,-5.522815,5898572.000000,1673606983.949798
1673612103.770159,,,,-5.534976,-5.534955,5898573.000000,1673606983.950805
1673612103.770192,,,,-5.589885,-5.591282,5898574.000000,1673606983.951812
1673612103.770571,,,,-5.641235,-5.647200,5898575.000000,1673606983.952819
1673612103.783500,,,,-5.659530,-5.662851,5898576.000000,1673606983.953826
1673612103.783510,,,,-5.684677,-5.685449,5898577.000000,1673606983.954833
1673612103.783640,,,,-5.732373,-5.735237,5898578.000000,1673606983.955840
1673612103.783719,,,,-5.783363,-5.784400,5898579.000000,1673606983.956847
1673612103.790092,63.166687,4650204.000000,1673612103.779806,,,,
1673612103.790103,63.130508,4650205.000000,1673612103.780806,,,,
1673612103.790126,63.220955,4650206.000000,1673612103.781806,,,,
1673612103.790134,63.166687,4650207.000000,1673612103.782806,,,,
1673612103.790139,63.166687,4650208.000000,1673612103.783806,,,,
1673612103.790166,63.184776,4650209.000000,1673612103.784806,,,,
1673612103.790203,63.239044,4650210.000000,1673612103.785806,,,,
1673612103.790287,63.166687,4650211.000000,1673612103.786806,,,,
1673612103.790299,63.239044,4650212.000000,1673612103.787806,,,,
1673612103.790304,63.220955,4650213.000000,1673612103.788806,,,,
1673612103.791187,,,,-5.815193,-5.817768,5898580.000000,1673606983.957854
1673612103.791323,,,,-5.764323,-5.764446,5898581.000000,1673606983.958861
1673612103.791505,,,,-5.659290,-5.661504,5898582.000000,1673606983.959868
1673612103.791578,,,,-5.582576,-5.585584,5898583.000000,1673606983.960876
1673612103.791732,,,,-5.521802,-5.525723,5898584.000000,1673606983.961883
1673612103.791827,,,,-5.470764,-5.472594,5898585.000000,1673606983.962890
1673612103.797464,,,,-5.411744,-5.414873,5898586.000000,1673606983.963897
1673612103.797739,,,,-5.374169,-5.376191,5898587.000000,1673606983.964904
1673612103.797839,,,,-5.418716,-5.422830,5898588.000000,1673606983.965911
1673612103.797925,,,,-5.501463,-5.505673,5898589.000000,1673606983.966918
1673612103.798012,,,,-5.546972,-5.553298,5898590.000000,1673606983.967925
1673612103.798207,,,,-5.574907,-5.578997,5898591.000000,1673606983.968932
1673612103.798236,,,,-5.588779,-5.590032,5898592.000000,1673606983.969939
1673612103.799436,,,,-5.600703,-5.601331,5898593.000000,1673606983.970946
1673612103.800002,,,,-5.613132,-5.614794,5898594.000000,1673606983.971953
1673612103.800041,,,,-5.646548,-5.648306,5898595.000000,1673606983.972960
1673612103.800053,,,,-5.701866,-5.705884,5898596.000000,1673606983.973968
1673612103.804704,,,,-5.718141,-5.721149,5898597.000000,1673606983.974975
1673612103.805245,,,,-5.713669,-5.716269,5898598.000000,1673606983.975982
1673612103.805264,,,,-5.730474,-5.734131,5898599.000000,1673606983.976989
1673612103.805276,,,,-5.763626,-5.766057,5898600.000000,1673606983.977996
1673612103.807254,,,,-5.764371,-5.766297,5898601.000000,1673606983.979003
1673612103.807672,,,,-5.724536,-5.725861,5898602.000000,1673606983.980010
1673612103.807824,,,,-5.674291,-5.673260,5898603.000000,1673606983.981017
1673612103.812314,,,,-5.568296,-5.571401,5898604.000000,1673606983.982024
1673612103.812798,,,,-5.551733,-5.554909,5898605.000000,1673606983.983031
1673612103.812971,,,,-5.527211,-5.530003,5898606.000000,1673606983.984038
1673612103.815353,,,,-5.513532,-5.515193,5898607.000000,1673606983.985045
1673612103.815463,,,,-5.569330,-5.569958,5898608.000000,1673606983.986053
1673612103.815515,,,,-5.611473,-5.612654,5898609.000000,1673606983.987060
1673612103.815584,,,,-5.627893,-5.629314,5898610.000000,1673606983.988067
1673612103.815859,,,,-5.649241,-5.649532,5898611.000000,1673606983.989074
1673612103.816098,,,,-5.684605,-5.683502,5898612.000000,1673606983.990081
1673612103.816293,,,,-5.755043,-5.755311,5898613.000000,1673606983.991088
1673612103.816527,,,,-5.886040,-5.888351,5898614.000000,1673606983.992095
1673612103.822539,,,,-6.057088,-6.060698,5898615.000000,1673606983.993102
1673612103.822723,,,,-6.121349,-6.124934,5898616.000000,1673606983.994109
1673612103.822737,,,,-6.122455,-6.127098,5898617.000000,1673606983.995116
1673612103.827487,,,,-6.098414,-6.099379,5898618.000000,1673606983.996123
1673612103.827938,,,,-6.003382,-6.005188,5898619.000000,1673606983.997130
1673612103.828089,,,,-5.836949,-5.837818,5898620.000000,1673606983.998137
1673612103.828111,,,,-5.645466,-5.644556,5898621.000000,1673606983.999145
1673612103.829694,,,,-5.467085,-5.468315,5898622.000000,1673606984.000152
1673612103.830106,,,,-5.309187,-5.314046,5898623.000000,1673606984.001159
1673612103.830129,,,,-5.262741,-5.265532,5898624.000000,1673606984.002166
1673612103.834893,,,,-5.274497,-5.274163,5898625.000000,1673606984.003173
1673612103.835093,,,,-5.279642,-5.277481,5898626.000000,1673606984.004180
1673612103.835200,,,,-5.302528,-5.304598,5898627.000000,1673606984.005187
1673612103.835389,,,,-5.348782,-5.352295,5898628.000000,1673606984.006194
1673612103.835530,,,,-5.396094,-5.397467,5898629.000000,1673606984.007201
1673612103.835653,,,,-5.431386,-5.431557,5898630.000000,1673606984.008208
1673612103.835659,,,,-5.472471,-5.472570,5898631.000000,1673606984.009215
1673612103.835771,,,,-5.500358,-5.502044,5898632.000000,1673606984.010222
1673612103.837224,,,,-5.513700,-5.516203,5898633.000000,1673606984.011230
1673612103.837348,,,,-5.521970,-5.525218,5898634.000000,1673606984.012237
1673612103.837515,,,,-5.528485,-5.531782,5898635.000000,1673606984.013244
1673612103.837580,,,,-5.533005,-5.535123,5898636.000000,1673606984.014251
1673612103.837826,,,,-5.536659,-5.537744,5898637.000000,1673606984.015258
1673612103.837918,,,,-5.538174,-5.540460,5898638.000000,1673606984.016265
1673612103.837931,,,,-5.544328,-5.546494,5898639.000000,1673606984.017272
1673612103.851387,,,,-5.585076,-5.587147,5898640.000000,1673606984.018279
1673612103.851549,,,,-5.618493,-5.621669,5898641.000000,1673606984.019286
1673612103.851857,,,,-5.650443,-5.654797,5898642.000000,1673606984.020293
1673612103.851871,,,,-5.697851,-5.701989,5898643.000000,1673606984.021300
1673612103.851902,,,,-5.724007,-5.726678,5898644.000000,1673606984.022307
1673612103.851908,,,,-5.709462,-5.712759,5898645.000000,1673606984.023314
1673612103.851936,,,,-5.669435,-5.670375,5898646.000000,1673606984.024322
1673612103.859395,,,,-5.654001,-5.655614,5898647.000000,1673606984.025329
1673612103.859421,,,,-5.649577,-5.653355,5898648.000000,1673606984.026336
1673612103.859952,,,,-5.641307,-5.643642,5898649.000000,1673606984.027343
1673612103.863866,63.257133,4650214.000000,1673612103.802953,,,,
1673612103.863920,63.220955,4650215.000000,1673612103.803953,,,,
1673612103.865164,,,,-5.621450,-5.623424,5898650.000000,1673606984.028350
1673612103.865345,,,,-5.612170,-5.614169,5898651.000000,1673606984.029357
1673612103.865445,,,,-5.578754,-5.581642,5898652.000000,1673606984.030364
1673612103.865725,,,,-5.560074,-5.562842,5898653.000000,1673606984.031371
1673612103.865862,62.714428,4650259.000000,1673612103.847953,,,,
1673612103.866130,62.768711,4650260.000000,1673612103.848953,,,,
1673612103.866148,62.750622,4650261.000000,1673612103.849953,,,,
1673612103.866155,62.750622,4650262.000000,1673612103.850953,,,,
1673612103.866178,62.750622,4650263.000000,1673612103.851953,,,,
1673612103.866217,62.750622,4650264.000000,1673612103.852953,,,,
1673612103.866231,62.786800,4650265.000000,1673612103.853953,,,,
1673612103.866246,62.750622,4650266.000000,1673612103.854953,,,,
1673612103.866252,62.768711,4650267.000000,1673612103.855953,,,,
1673612103.866278,62.841068,4650268.000000,1673612103.856953,,,,
1673612103.866287,62.786800,4650269.000000,1673612103.857953,,,,
1673612103.866293,62.750622,4650270.000000,1673612103.858953,,,,
1673612103.866301,62.750622,4650271.000000,1673612103.859953,,,,
1673612103.866312,62.768711,4650272.000000,1673612103.860953,,,,
1673612103.866335,62.768711,4650273.000000,1673612103.861953,,,,
1673612103.866340,62.732533,4650274.000000,1673612103.862953,,,,
1673612103.867206,,,,-5.583153,-5.586185,5898654.000000,1673606984.032378
1673612103.867221,,,,-5.598635,-5.604000,5898655.000000,1673606984.033385
1673612103.867248,,,,-5.646260,-5.650373,5898656.000000,1673606984.034392
1673612103.867262,,,,-5.675685,-5.676313,5898657.000000,1673606984.035399
1673612103.872212,,,,-5.629960,-5.630059,5898658.000000,1673606984.036407
1673612103.872630,,,,-5.596904,-5.601379,5898659.000000,1673606984.037414
1673612103.872640,,,,-5.598299,-5.602172,5898660.000000,1673606984.038421
1673612103.872736,,,,-5.611208,-5.615034,5898661.000000,1673606984.039428
1673612103.874683,,,,-5.673041,-5.677395,5898662.000000,1673606984.040435
1673612103.874779,,,,-5.777401,-5.779351,5898663.000000,1673606984.041442
1673612103.880204,,,,-5.759827,-5.759951,5898664.000000,1673606984.042449
1673612103.880413,,,,-5.706337,-5.708407,5898665.000000,1673606984.043456
1673612103.880873,,,,-5.694798,-5.696411,5898666.000000,1673606984.044463
1673612103.881342,,,,-5.697731,-5.698142,5898667.000000,1673606984.045470
1673612103.881409,,,,-5.666214,-5.667755,5898668.000000,1673606984.046477
1673612103.881451,,,,-5.605439,-5.606476,5898669.000000,1673606984.047484
1673612103.881486,,,,-5.522162,-5.521060,5898670.000000,1673606984.048491
1673612103.881498,,,,-5.407825,-5.407276,5898671.000000,1673606984.049499
1673612103.882027,,,,-5.429029,-5.427975,5898672.000000,1673606984.050506
1673612103.882256,,,,-5.523990,-5.524377,5898673.000000,1673606984.051513
1673612103.882468,,,,-5.535433,-5.540773,5898674.000000,1673606984.052520
1673612103.882506,,,,-5.533317,-5.536854,5898675.000000,1673606984.053527
1673612103.887386,,,,-5.550290,-5.550966,5898676.000000,1673606984.054534
1673612103.887398,,,,-5.560050,-5.560318,5898677.000000,1673606984.055541
1673612103.887429,,,,-5.530962,-5.534234,5898678.000000,1673606984.056548
1673612103.889535,,,,-5.501271,-5.503678,5898679.000000,1673606984.057555
1673612103.889749,,,,-5.520552,-5.523896,5898680.000000,1673606984.058562
1673612103.889795,,,,-5.572888,-5.576545,5898681.000000,1673606984.059569
1673612103.889799,,,,-5.598179,-5.601764,5898682.000000,1673606984.060576
1673612103.897067,,,,-5.644914,-5.647970,5898683.000000,1673606984.061584
1673612103.897173,,,,-5.669916,-5.673885,5898684.000000,1673606984.062591
1673612103.897313,,,,-5.658496,-5.663043,5898685.000000,1673606984.063598
1673612103.912930,,,,-5.638062,-5.639772,5898686.000000,1673606984.064605
1673612103.912965,,,,-5.605126,-5.606259,5898687.000000,1673606984.065612
1673612103.913116,,,,-5.557214,-5.558299,5898688.000000,1673606984.066619
1673612103.913447,,,,-5.508003,-5.508222,5898689.000000,1673606984.067626
1673612103.913459,,,,-5.480957,-5.484590,5898690.000000,1673606984.068633
1673612103.913684,,,,-5.484635,-5.485552,5898691.000000,1673606984.069640
1673612103.913997,,,,-5.498458,-5.496130,5898692.000000,1673606984.070647
1673612103.914382,,,,-5.499997,-5.497572,5898693.000000,1673606984.071654
1673612103.914399,,,,-5.516176,-5.515434,5898694.000000,1673606984.072661
1673612103.914455,,,,-5.610415,-5.610707,5898695.000000,1673606984.073668
1673612103.914640,,,,-5.752639,-5.754782,5898696.000000,1673606984.074676
1673612103.918679,,,,-5.821780,-5.823009,5898697.000000,1673606984.075683
1673612103.918735,,,,-5.833175,-5.835341,5898698.000000,1673606984.076690
1673612103.918830,,,,-5.784132,-5.788968,5898699.000000,1673606984.077697
1673612103.918883,62.768711,4650275.000000,1673612103.858004,,,,
1673612103.918898,62.768711,4650276.000000,1673612103.859004,,,,
1673612103.919066,62.696339,4650277.000000,1673612103.860004,,,,
1673612103.919077,62.750622,4650278.000000,1673612103.861004,,,,
1673612103.919133,62.732533,4650279.000000,1673612103.862004,,,,
1673612103.919281,62.696339,4650280.000000,1673612103.863004,,,,
1673612103.919324,62.714428,4650281.000000,1673612103.864004,,,,
1673612103.919353,62.696339,4650282.000000,1673612103.865004,,,,
1673612103.919496,62.678249,4650283.000000,1673612103.866004,,,,
1673612103.919532,62.732533,4650284.000000,1673612103.867004,,,,
1673612103.919577,62.623981,4650285.000000,1673612103.868004,,,,
1673612103.919764,62.696339,4650286.000000,1673612103.869004,,,,
1673612103.919825,62.660160,4650287.000000,1673612103.870004,,,,
1673612103.919985,62.678249,4650288.000000,1673612103.871004,,,,
1673612103.920010,62.696339,4650289.000000,1673612103.872004,,,,
1673612103.920191,62.678249,4650290.000000,1673612103.873004,,,,
1673612103.920343,62.569717,4650304.000000,1673612103.887004,,,,
1673612103.920354,62.587803,4650305.000000,1673612103.888004,,,,
1673612103.920522,62.587803,4650306.000000,1673612103.889004,,,,
1673612103.920578,62.551628,4650307.000000,1673612103.890004,,,,
1673612103.920709,62.569717,4650308.000000,1673612103.891004,,,,
1673612103.920718,62.551628,4650309.000000,1673612103.892004,,,,
1673612103.920773,62.587803,4650310.000000,1673612103.893004,,,,
1673612103.920929,62.515450,4650311.000000,1673612103.894004,,,,
1673612103.920959,62.497360,4650312.000000,1673612103.895004,,,,
1673612103.921080,62.515450,4650313.000000,1673612103.896004,,,,
1673612103.921124,62.334541,4650325.000000,1673612103.908004,,,,
1673612103.921373,62.388809,4650326.000000,1673612103.909004,,,,
1673612103.921387,62.406898,4650327.000000,1673612103.910004,,,,
1673612103.921395,62.406898,4650328.000000,1673612103.911004,,,,
1673612103.921415,62.334541,4650329.000000,1673612103.912004,,,,
1673612103.921441,62.352631,4650330.000000,1673612103.913004,,,,
1673612103.921444,62.352631,4650331.000000,1673612103.914004,,,,
1673612103.921454,62.370720,4650332.000000,1673612103.915004,,,,
1673612103.921460,62.280273,4650333.000000,1673612103.916004,,,,
1673612103.921464,62.316452,4650334.000000,1673612103.917004,,,,
1673612103.921470,62.280273,4650335.000000,1673612103.918004,,,,
1673612103.926640,,,,-5.749201,-5.751945,5898700.000000,1673606984.078704
1673612103.926650,,,,-5.702250,-5.706124,5898701.000000,1673606984.079711
1673612103.926664,,,,-5.644216,-5.644940,5898702.000000,1673606984.080718
1673612103.926671,,,,-5.538438,-5.540845,5898703.000000,1673606984.081725
1673612103.926678,,,,-5.409316,-5.410641,5898704.000000,1673606984.082732
1673612103.926684,,,,-5.424005,-5.426292,5898705.000000,1673606984.083739
1673612103.926687,,,,-5.480188,-5.480575,5898706.000000,1673606984.084746
1673612103.927302,,,,-5.494780,-5.496058,5898707.000000,1673606984.085753
1673612103.927392,,,,-5.511224,-5.512165,5898708.000000,1673606984.086761
1673612103.927647,,,,-5.528100,-5.529498,5898709.000000,1673606984.087768
1673612103.927654,,,,-5.548800,-5.548322,5898710.000000,1673606984.088775
1673612103.927679,,,,-5.577600,-5.578493,5898711.000000,1673606984.089782
1673612103.927702,,,,-5.602242,-5.603759,5898712.000000,1673606984.090789
1673612103.927706,,,,-5.657631,-5.661432,5898713.000000,1673606984.091796
1673612103.927764,,,,-5.715785,-5.718144,5898714.000000,1673606984.092803
1673612103.932527,,,,-5.736219,-5.739420,5898715.000000,1673606984.093810
1673612103.932549,,,,-5.750692,-5.756969,5898716.000000,1673606984.094817
1673612103.932561,,,,-5.785407,-5.790169,5898717.000000,1673606984.095824
1673612103.932567,,,,-5.860533,-5.864094,5898718.000000,1673606984.096831
1673612103.934436,,,,-5.881833,-5.884432,5898719.000000,1673606984.097838
1673612103.934540,,,,-5.821083,-5.822264,5898720.000000,1673606984.098845
1673612103.939776,,,,-5.722829,-5.723337,5898721.000000,1673606984.099853
1673612103.940072,,,,-5.652438,-5.654268,5898722.000000,1673606984.100860
1673612103.940122,,,,-5.560483,-5.562866,5898723.000000,1673606984.101867
1673612103.940131,,,,-5.424173,-5.423166,5898724.000000,1673606984.102874
1673612103.941999,,,,-5.352989,-5.353257,5898725.000000,1673606984.103881
1673612103.942140,,,,-5.405085,-5.405857,5898726.000000,1673606984.104888
1673612103.942322,,,,-5.453936,-5.454347,5898727.000000,1673606984.105895
1673612103.942430,,,,-5.480861,-5.482522,5898728.000000,1673606984.106902
1673612103.947044,,,,-5.515431,-5.516011,5898729.000000,1673606984.107909
1673612103.947233,,,,-5.545578,-5.546374,5898730.000000,1673606984.108916
1673612103.947279,,,,-5.578802,-5.578324,5898731.000000,1673606984.109923
1673612103.949780,,,,-5.640346,-5.642777,5898732.000000,1673606984.110930
1673612103.950222,,,,-5.707563,-5.710042,5898733.000000,1673606984.111938
1673612103.950586,,,,-5.716506,-5.715451,5898734.000000,1673606984.112945
1673612103.955401,,,,-5.684172,-5.687516,5898735.000000,1673606984.113952
1673612103.955617,,,,-5.712443,-5.714802,5898736.000000,1673606984.114959
1673612103.955912,,,,-5.749393,-5.751825,5898737.000000,1673606984.115966
1673612103.955941,,,,-5.714607,-5.719226,5898738.000000,1673606984.116973
1673612103.955960,,,,-5.656886,-5.661072,5898739.000000,1673606984.117980
1673612103.956377,,,,-5.576638,-5.577916,5898740.000000,1673606984.118987
1673612103.956736,,,,-5.494612,-5.494927,5898741.000000,1673606984.119994
1673612103.957617,,,,-5.443694,-5.442976,5898742.000000,1673606984.121001
1673612103.957628,,,,-5.434294,-5.436821,5898743.000000,1673606984.122008
1673612103.957634,,,,-5.404051,-5.409247,5898744.000000,1673606984.123015
1673612103.957659,,,,-5.376813,-5.379244,5898745.000000,1673606984.124022
1673612103.972108,,,,-5.426914,-5.430571,5898746.000000,1673606984.125030
1673612103.972268,,,,-5.530793,-5.534234,5898747.000000,1673606984.126037
1673612103.972286,,,,-5.612315,-5.613087,5898748.000000,1673606984.127044
1673612103.972533,,,,-5.635730,-5.638522,5898749.000000,1673606984.128051
1673612103.972634,,,,-5.628181,-5.629675,5898750.000000,1673606984.129058
1673612103.972650,,,,-5.596592,-5.598975,5898751.000000,1673606984.130065
1673612103.972657,,,,-5.575172,-5.579214,5898752.000000,1673606984.131072
1673612103.978732,,,,-5.590414,-5.593854,5898753.000000,1673606984.132079
1673612103.978941,,,,-5.628710,-5.628905,5898754.000000,1673606984.133086
1673612103.979398,,,,-5.687129,-5.687059,5898755.000000,1673606984.134093
1673612103.979407,,,,-5.731820,-5.735068,5898756.000000,1673606984.135100
1673612103.979614,,,,-5.786248,-5.790410,5898757.000000,1673606984.136107
1673612103.979721,,,,-5.782089,-5.783967,5898758.000000,1673606984.137115
1673612103.979731,,,,-5.719512,-5.721774,5898759.000000,1673606984.138122
1673612103.979908,,,,-5.612795,-5.617727,5898760.000000,1673606984.139129
1673612103.984969,62.352631,4650336.000000,1673612103.923998,,,,
1673612103.984982,,,,-5.537837,-5.538128,5898761.000000,1673606984.140136
1673612103.984995,,,,-5.478625,-5.478965,5898762.000000,1673606984.141143
1673612103.985002,,,,-5.429534,-5.432542,5898763.000000,1673606984.142150
1673612103.985018,62.316452,4650337.000000,1673612103.924998,,,,
1673612103.985617,62.262184,4650338.000000,1673612103.925998,,,,
1673612103.986258,62.334541,4650339.000000,1673612103.926998,,,,
1673612103.986266,62.334541,4650340.000000,1673612103.927998,,,,
1673612103.986275,63.148598,4650387.000000,1673612103.974998,,,,
1673612103.986279,63.166687,4650388.000000,1673612103.975998,,,,
1673612103.986292,63.202866,4650389.000000,1673612103.976998,,,,
1673612103.986297,63.184776,4650390.000000,1673612103.977998,,,,
1673612103.986327,63.220955,4650391.000000,1673612103.978998,,,,
1673612103.986362,63.311417,4650392.000000,1673612103.979998,,,,
1673612103.986367,63.275223,4650393.000000,1673612103.980998,,,,
1673612103.986369,63.311417,4650394.000000,1673612103.981998,,,,
1673612103.986372,63.329506,4650395.000000,1673612103.982998,,,,
1673612103.986392,63.329506,4650396.000000,1673612103.983998,,,,
1673612103.987092,,,,-5.457301,-5.458338,5898764.000000,1673606984.143157
1673612103.987259,,,,-5.461027,-5.464420,5898765.000000,1673606984.144164
1673612103.987268,,,,-5.432635,-5.437038,5898766.000000,1673606984.145171
1673612103.992590,,,,-5.401215,-5.405737,5898767.000000,1673606984.146178
1673612103.992670,,,,-5.413187,-5.417156,5898768.000000,1673606984.147185
1673612103.992757,,,,-5.420976,-5.426604,5898769.000000,1673606984.148192
1673612103.992764,,,,-5.438453,-5.443625,5898770.000000,1673606984.149199
1673612103.992882,,,,-5.479274,-5.484253,5898771.000000,1673606984.150207
1673612103.993047,,,,-5.509181,-5.512429,5898772.000000,1673606984.151214
1673612103.993131,,,,-5.520167,-5.525603,5898773.000000,1673606984.152221
1673612103.993240,,,,-5.529831,-5.535123,5898774.000000,1673606984.153228
1673612103.994565,,,,-5.540337,-5.544571,5898775.000000,1673606984.154235
1673612103.994574,,,,-5.565604,-5.567121,5898776.000000,1673606984.155242
1673612103.994579,,,,-5.594669,-5.596571,5898777.000000,1673606984.156249
1673612104.000595,,,,-5.651693,-5.651504,5898778.000000,1673606984.157256
1673612104.001015,,,,-5.721026,-5.721534,5898779.000000,1673606984.158263
1673612104.001029,,,,-5.729176,-5.731847,5898780.000000,1673606984.159270
1673612104.001068,,,,-5.725545,-5.728481,5898781.000000,1673606984.160277
1673612104.001672,,,,-5.699918,-5.702638,5898782.000000,1673606984.161284
1673612104.001822,,,,-5.655395,-5.656191,5898783.000000,1673606984.162292
1673612104.002048,,,,-5.642125,-5.643859,5898784.000000,1673606984.163299
1673612104.002554,,,,-5.629840,-5.630396,5898785.000000,1673606984.164306
1673612104.002747,,,,-5.589716,-5.588349,5898786.000000,1673606984.165313
1673612104.002784,,,,-5.551973,-5.553154,5898787.000000,1673606984.166320
1673612104.002803,,,,-5.536995,-5.537359,5898788.000000,1673606984.167327
1673612104.003124,,,,-5.530673,-5.532936,5898789.000000,1673606984.168334
1673612104.003258,,,,-5.588009,-5.590993,5898790.000000,1673606984.169341
1673612104.003540,,,,-5.645154,-5.647898,5898791.000000,1673606984.170348
1673612104.003621,,,,-5.644264,-5.647080,5898792.000000,1673606984.171355
1673612104.003863,,,,-5.662776,-5.664293,5898793.000000,1673606984.172362
1673612104.004081,,,,-5.727901,-5.728842,5898794.000000,1673606984.173369
1673612104.004375,,,,-5.735234,-5.736607,5898795.000000,1673606984.174376
1673612104.004386,,,,-5.724055,-5.728409,5898796.000000,1673606984.175384
1673612104.004606,,,,-5.731195,-5.733530,5898797.000000,1673606984.176391
1673612104.005432,,,,-5.680037,-5.682636,5898798.000000,1673606984.177398
1673612104.005450,,,,-5.604982,-5.607894,5898799.000000,1673606984.178405
1673612104.005515,,,,-5.543174,-5.546278,5898800.000000,1673606984.179412
1673612104.005534,,,,-5.494131,-5.496274,5898801.000000,1673606984.180419
1673612104.005774,,,,-5.466220,-5.465478,5898802.000000,1673606984.181426
1673612104.008317,,,,-5.473721,-5.476080,5898803.000000,1673606984.182433
1673612104.008334,,,,-5.472759,-5.474445,5898804.000000,1673606984.183440
1673612104.008359,,,,-5.425014,-5.425955,5898805.000000,1673606984.184447
1673612104.008401,,,,-5.375251,-5.376720,5898806.000000,1673606984.185454
1673612104.008410,,,,-5.396046,-5.398140,5898807.000000,1673606984.186461
1673612104.008683,,,,-5.444800,-5.445957,5898808.000000,1673606984.187469
1673612104.008693,,,,-5.456316,-5.457136,5898809.000000,1673606984.188476
1673612104.008703,,,,-5.499540,-5.501250,5898810.000000,1673606984.189483
1673612104.009940,,,,-5.621666,-5.623015,5898811.000000,1673606984.190490
1673612104.010011,,,,-5.706866,-5.707590,5898812.000000,1673606984.191497
1673612104.010112,,,,-5.744153,-5.746392,5898813.000000,1673606984.192504
1673612104.010267,,,,-5.765573,-5.766129,5898814.000000,1673606984.193511
1673612104.010381,,,,-5.758144,-5.761177,5898815.000000,1673606984.194518
1673612104.010504,,,,-5.732037,-5.734083,5898816.000000,1673606984.195525
1673612104.010517,,,,-5.688210,-5.690305,5898817.000000,1673606984.196532
1673612104.014791,,,,-5.619454,-5.623280,5898818.000000,1673606984.197539
1673612104.014803,,,,-5.533606,-5.536830,5898819.000000,1673606984.198546
1673612104.014906,,,,-5.476870,-5.476657,5898820.000000,1673606984.199553
1673612104.014917,,,,-5.449296,-5.450813,5898821.000000,1673606984.200561
1673612104.031341,,,,-5.436434,-5.439178,5898822.000000,1673606984.201568
1673612104.031636,,,,-5.486655,-5.491249,5898823.000000,1673606984.202575
1673612104.031746,,,,-5.599068,-5.604144,5898824.000000,1673606984.203582
1673612104.031871,,,,-5.688187,-5.691363,5898825.000000,1673606984.204589
1673612104.032002,,,,-5.745811,-5.746175,5898826.000000,1673606984.205596
1673612104.032009,,,,-5.756654,-5.758003,5898827.000000,1673606984.206603
1673612104.038754,63.763660,4650406.000000,1673612103.986661,,,,
1673612104.039358,,,,-5.718333,-5.720500,5898828.000000,1673606984.207610
1673612104.039400,,,,-5.715737,-5.716533,5898829.000000,1673606984.208617
1673612104.039522,,,,-5.733407,-5.731847,5898830.000000,1673606984.209624
1673612104.039582,,,,-5.670829,-5.671986,5898831.000000,1673606984.210631
1673612104.039596,,,,-5.595943,-5.596643,5898832.000000,1673606984.211638
1673612104.039723,,,,-5.548463,-5.548923,5898833.000000,1673606984.212646
1673612104.039921,,,,-5.512979,-5.514064,5898834.000000,1673606984.213653
1673612104.039968,,,,-5.486655,-5.487740,5898835.000000,1673606984.214660
1673612104.040096,63.799839,4650407.000000,1673612103.987662,,,,
1673612104.040113,63.854122,4650408.000000,1673612103.988662,,,,
1673612104.040126,63.908390,4650409.000000,1673612103.989661,,,,
1673612104.040138,63.908390,4650410.000000,1673612103.990662,,,,
1673612104.040155,63.962654,4650411.000000,1673612103.991662,,,,
1673612104.040162,63.980743,4650412.000000,1673612103.992661,,,,
1673612104.040168,64.016922,4650413.000000,1673612103.993662,,,,
1673612104.040175,64.053101,4650414.000000,1673612103.994662,,,,
1673612104.040187,64.125473,4650415.000000,1673612103.995661,,,,
1673612104.040223,65.156601,4650448.000000,1673612104.028661,,,,
1673612104.040228,65.156601,4650449.000000,1673612104.029662,,,,
1673612104.040234,65.174690,4650450.000000,1673612104.030662,,,,
1673612104.040238,65.247063,4650451.000000,1673612104.031662,,,,
1673612104.040248,65.247063,4650452.000000,1673612104.032661,,,,
1673612104.040288,65.265152,4650453.000000,1673612104.033662,,,,
1673612104.040293,65.283241,4650454.000000,1673612104.034662,,,,
1673612104.040301,65.301331,4650455.000000,1673612104.035661,,,,
1673612104.040306,65.355598,4650456.000000,1673612104.036662,,,,
1673612104.040325,65.301331,4650457.000000,1673612104.037662,,,,
1673612104.044951,,,,-5.470283,-5.472402,5898836.000000,1673606984.215667
1673612104.045220,,,,-5.492809,-5.494759,5898837.000000,1673606984.216674
1673612104.045993,,,,-5.523268,-5.524041,5898838.000000,1673606984.217681
1673612104.046011,,,,-5.542453,-5.545100,5898839.000000,1673606984.218688
1673612104.046186,,,,-5.576927,-5.578757,5898840.000000,1673606984.219695
1673612104.046205,,,,-5.575701,-5.575824,5898841.000000,1673606984.220702
1673612104.046224,,,,-5.543751,-5.544884,5898842.000000,1673606984.221709
1673612104.047097,,,,-5.523533,-5.523584,5898843.000000,1673606984.222716
1673612104.047328,,,,-5.501319,-5.501635,5898844.000000,1673606984.223723
1673612104.047549,,,,-5.470620,-5.472474,5898845.000000,1673606984.224730
1673612104.047612,,,,-5.449175,-5.449203,5898846.000000,1673606984.225738
1673612104.052757,,,,-5.464441,-5.461583,5898847.000000,1673606984.226745
1673612104.052888,,,,-5.519927,-5.520411,5898848.000000,1673606984.227752
1673612104.053063,,,,-5.558223,-5.559669,5898849.000000,1673606984.228759
1673612104.053075,,,,-5.564522,-5.565799,5898850.000000,1673606984.229766
1673612104.053217,,,,-5.535505,-5.536421,5898851.000000,1673606984.230773
1673612104.053237,,,,-5.532668,-5.532335,5898852.000000,1673606984.231780
1673612104.054963,,,,-5.596327,-5.596258,5898853.000000,1673606984.232787
1673612104.055390,,,,-5.640298,-5.643089,5898854.000000,1673606984.233794
1673612104.055630,,,,-5.660612,-5.662201,5898855.000000,1673606984.234801
1673612104.056094,,,,-5.623277,-5.625299,5898856.000000,1673606984.235808
1673612104.056197,,,,-5.588058,-5.589599,5898857.000000,1673606984.236815
1673612104.056210,,,,-5.591399,-5.595706,5898858.000000,1673606984.237823
1673612104.056215,,,,-5.620416,-5.620876,5898859.000000,1673606984.238830
1673612104.059750,,,,-5.602962,-5.605346,5898860.000000,1673606984.239837
1673612104.059761,,,,-5.498795,-5.502044,5898861.000000,1673606984.240844
1673612104.060135,,,,-5.450377,-5.451582,5898862.000000,1673606984.241851
1673612104.060175,,,,-5.518003,-5.519208,5898863.000000,1673606984.242858
1673612104.062516,,,,-5.570868,-5.572290,5898864.000000,1673606984.243865
1673612104.062722,,,,-5.569402,-5.570319,5898865.000000,1673606984.244872
1673612104.063148,,,,-5.543582,-5.544210,5898866.000000,1673606984.245879
