__time,/gdx/grip_force_stream/grip_force,/gdx/grip_force_stream/header/seq,/gdx/grip_force_stream/header/stamp,/shimmer0/emg_stream/emg_ch1,/shimmer0/emg_stream/emg_ch2,/shimmer0/emg_stream/header/seq,/shimmer0/emg_stream/header/stamp
1673612161.917072,,,,-3.703471,-3.705229,5955873.000000,1673607042.076446
1673612161.917248,,,,-3.696331,-3.697536,5955874.000000,1673607042.077453
1673612161.917615,,,,-3.704072,-3.708499,5955875.000000,1673607042.078460
1673612161.924040,,,,-3.711164,-3.715639,5955876.000000,1673607042.079467
1673612161.924188,,,,-3.707943,-3.709316,5955877.000000,1673607042.080474
1673612161.924242,,,,-3.683518,-3.684458,5955878.000000,1673607042.081481
1673612161.924281,,,,-3.654958,-3.656307,5955879.000000,1673607042.082488
1673612161.927249,2.130614,4708337.000000,1673612161.917025,,,,
1673612161.927262,2.076339,4708338.000000,1673612161.918025,,,,
1673612161.927278,2.094428,4708339.000000,1673612161.919025,,,,
1673612161.927285,2.130614,4708340.000000,1673612161.920025,,,,
1673612161.927326,2.094428,4708341.000000,1673612161.921025,,,,
1673612161.927332,2.166792,4708342.000000,1673612161.922025,,,,
1673612161.927338,2.148703,4708343.000000,1673612161.923025,,,,
1673612161.927341,2.112517,4708344.000000,1673612161.924025,,,,
1673612161.927344,2.148703,4708345.000000,1673612161.925025,,,,
1673612161.927367,2.148703,4708346.000000,1673612161.926025,,,,
1673612161.930248,,,,-3.654886,-3.654287,5955880.000000,1673607042.083495
1673612161.930395,,,,-3.667483,-3.669553,5955881.000000,1673607042.084502
1673612161.930570,,,,-3.672291,-3.673472,5955882.000000,1673607042.085509
1673612161.930667,,,,-3.664766,-3.666043,5955883.000000,1673607042.086516
1673612161.932377,,,,-3.653155,-3.654215,5955884.000000,1673607042.087523
1673612161.932499,,,,-3.641807,-3.643637,5955885.000000,1673607042.088531
1673612161.932533,,,,-3.651664,-3.653903,5955886.000000,1673607042.089538
1673612161.940274,,,,-3.675440,-3.678568,5955887.000000,1673607042.090545
1673612161.940283,,,,-3.696067,-3.700589,5955888.000000,1673607042.091552
1673612161.940359,,,,-3.717006,-3.721096,5955889.000000,1673607042.092559
1673612161.945930,,,,-3.737801,-3.737972,5955890.000000,1673607042.093566
1673612161.946608,,,,-3.770184,-3.771485,5955891.000000,1673607042.094573
1673612161.946999,,,,-3.817976,-3.819302,5955892.000000,1673607042.095580
1673612161.947017,,,,-3.821390,-3.824807,5955893.000000,1673607042.096587
1673612161.947039,,,,-3.807735,-3.809133,5955894.000000,1673607042.097594
1673612161.947253,,,,-3.791604,-3.790044,5955895.000000,1673607042.098601
1673612161.947626,,,,-3.767059,-3.767879,5955896.000000,1673607042.099608
1673612161.947886,,,,-3.739196,-3.741242,5955897.000000,1673607042.100616
1673612161.948286,,,,-3.730204,-3.729366,5955898.000000,1673607042.101623
1673612161.948675,,,,-3.724964,-3.725471,5955899.000000,1673607042.102630
1673612161.948865,,,,-3.720708,-3.719582,5955900.000000,1673607042.103637
1673612161.948888,,,,-3.717391,-3.717899,5955901.000000,1673607042.104644
1673612161.949191,,,,-3.710732,-3.714701,5955902.000000,1673607042.105651
1673612161.949549,,,,-3.689672,-3.692873,5955903.000000,1673607042.106658
1673612161.949877,,,,-3.674142,-3.675131,5955904.000000,1673607042.107665
1673612161.950431,,,,-3.652217,-3.653013,5955905.000000,1673607042.108672
1673612161.950458,,,,-3.634427,-3.634959,5955906.000000,1673607042.109679
1673612161.950466,,,,-3.633561,-3.634310,5955907.000000,1673607042.110686
1673612161.950477,,,,-3.639211,-3.639599,5955908.000000,1673607042.111693
1673612161.953191,,,,-3.633802,-3.637699,5955909.000000,1673607042.112700
1673612161.953594,,,,-3.637167,-3.640512,5955910.000000,1673607042.113708
1673612161.953605,,,,-3.646159,-3.646474,5955911.000000,1673607042.114715
1673612161.953837,,,,-3.651303,-3.652532,5955912.000000,1673607042.115722
1673612161.953851,,,,-3.668060,-3.669120,5955913.000000,1673607042.116729
1673612161.953879,,,,-3.680705,-3.683400,5955914.000000,1673607042.117736
1673612161.955008,,,,-3.686955,-3.688521,5955915.000000,1673607042.118743
1673612161.955400,,,,-3.682748,-3.685925,5955916.000000,1673607042.119750
1673612161.955693,,,,-3.676594,-3.679386,5955917.000000,1673607042.120757
1673612161.960304,,,,-3.665872,-3.667149,5955918.000000,1673607042.121764
1673612161.960486,,,,-3.654982,-3.657341,5955919.000000,1673607042.122771
1673612161.960703,,,,-3.657482,-3.659216,5955920.000000,1673607042.123778
1673612161.960990,,,,-3.654741,-3.657004,5955921.000000,1673607042.124785
1673612161.963022,,,,-3.648034,-3.649647,5955922.000000,1673607042.125793
1673612161.963033,,,,-3.644308,-3.645561,5955923.000000,1673607042.126800
1673612161.963039,,,,-3.643947,-3.645489,5955924.000000,1673607042.127807
1673612161.963052,,,,-3.653155,-3.654720,5955925.000000,1673607042.128814
1673612161.976917,,,,-3.660343,-3.662918,5955926.000000,1673607042.129821
1673612161.976932,,,,-3.669887,-3.672077,5955927.000000,1673607042.130828
1673612161.976950,,,,-3.681090,-3.681694,5955928.000000,1673607042.131835
1673612161.976963,,,,-3.692605,-3.692392,5955929.000000,1673607042.132842
1673612161.983845,,,,-3.708905,-3.710999,5955930.000000,1673607042.133849
1673612161.983913,,,,-3.720781,-3.723019,5955931.000000,1673607042.134856
1673612161.984095,,,,-3.725637,-3.728068,5955932.000000,1673607042.135863
1673612161.984245,,,,-3.721213,-3.720687,5955933.000000,1673607042.136870
1673612161.989706,2.112517,4708347.000000,1673612161.929089,,,,
1673612161.989720,2.003982,4708348.000000,1673612161.930089,,,,
1673612161.989784,2.112517,4708349.000000,1673612161.931089,,,,
1673612161.989934,2.112517,4708350.000000,1673612161.932089,,,,
1673612161.989978,2.184881,4708351.000000,1673612161.933089,,,,
1673612161.990155,,,,-3.715684,-3.716769,5955934.000000,1673607042.137877
1673612161.990165,,,,-3.717511,-3.722418,5955935.000000,1673607042.138885
1673612161.990702,2.148703,4708352.000000,1673612161.934089,,,,
1673612161.990716,2.130614,4708353.000000,1673612161.935089,,,,
1673612161.990724,2.347691,4708398.000000,1673612161.980089,,,,
1673612161.990731,2.347691,4708399.000000,1673612161.981089,,,,
1673612161.990763,2.347691,4708400.000000,1673612161.982089,,,,
1673612161.990792,2.365780,4708401.000000,1673612161.983089,,,,
1673612161.990798,2.365780,4708402.000000,1673612161.984089,,,,
1673612161.990806,2.383869,4708403.000000,1673612161.985089,,,,
1673612161.990826,2.365780,4708404.000000,1673612161.986089,,,,
1673612161.990830,2.401966,4708405.000000,1673612161.987089,,,,
1673612161.990841,2.383869,4708406.000000,1673612161.988089,,,,
1673612161.990855,2.401966,4708407.000000,1673612161.989089,,,,
1673612161.998106,,,,-3.720228,-3.721986,5955936.000000,1673607042.139892
1673612161.998191,,,,-3.715708,-3.717682,5955937.000000,1673607042.140899
1673612161.998485,,,,-3.704577,-3.706383,5955938.000000,1673607042.141906
1673612161.998708,,,,-3.688686,-3.688593,5955939.000000,1673607042.142913
1673612161.998977,,,,-3.673060,-3.674505,5955940.000000,1673607042.143920
1673612161.999381,,,,-3.671449,-3.671332,5955941.000000,1673607042.144927
1673612161.999638,,,,-3.677796,-3.674794,5955942.000000,1673607042.145934
1673612162.000037,,,,-3.679503,-3.681117,5955943.000000,1673607042.146941
1673612162.000293,,,,-3.673709,-3.676260,5955944.000000,1673607042.147948
1673612162.000569,,,,-3.666305,-3.667077,5955945.000000,1673607042.148955
1673612162.001041,,,,-3.666810,-3.665611,5955946.000000,1673607042.149962
1673612162.005286,,,,-3.672267,-3.675467,5955947.000000,1673607042.150970
1673612162.005561,,,,-3.683157,-3.683761,5955948.000000,1673607042.151977
1673612162.005724,,,,-3.693038,-3.692368,5955949.000000,1673607042.152984
1673612162.006012,,,,-3.704144,-3.704484,5955950.000000,1673607042.153991
1673612162.007581,,,,-3.713160,-3.713716,5955951.000000,1673607042.154998
1673612162.007809,,,,-3.724699,-3.725928,5955952.000000,1673607042.156005
1673612162.008013,,,,-3.747490,-3.748166,5955953.000000,1673607042.157012
1673612162.013040,,,,-3.750062,-3.750161,5955954.000000,1673607042.158019
1673612162.013362,,,,-3.740542,-3.737588,5955955.000000,1673607042.159026
1673612162.013855,,,,-3.732609,-3.730880,5955956.000000,1673607042.160033
1673612162.013870,,,,-3.725324,-3.725928,5955957.000000,1673607042.161040
1673612162.013910,,,,-3.715035,-3.716072,5955958.000000,1673607042.162047
1673612162.013921,,,,-3.702991,-3.701888,5955959.000000,1673607042.163054
1673612162.013927,,,,-3.688037,-3.688040,5955960.000000,1673607042.164062
1673612162.013938,,,,-3.672459,-3.672799,5955961.000000,1673607042.165069
1673612162.015469,,,,-3.663011,-3.663447,5955962.000000,1673607042.166076
1673612162.015689,,,,-3.666088,-3.664048,5955963.000000,1673607042.167083
1673612162.016061,,,,-3.672098,-3.671236,5955964.000000,1673607042.168090
1673612162.016252,,,,-3.677868,-3.678208,5955965.000000,1673607042.169097
1673612162.016427,,,,-3.684215,-3.684314,5955966.000000,1673607042.170104
1673612162.016663,,,,-3.700226,-3.701190,5955967.000000,1673607042.171111
1673612162.020532,,,,-3.727151,-3.727755,5955968.000000,1673607042.172118
1673612162.020686,,,,-3.750447,-3.747781,5955969.000000,1673607042.173125
1673612162.020707,,,,-3.768429,-3.768119,5955970.000000,1673607042.174132
1673612162.020792,,,,-3.784007,-3.786486,5955971.000000,1673607042.175139
1673612162.022841,,,,-3.794585,-3.794203,5955972.000000,1673607042.176147
1673612162.023136,,,,-3.784416,-3.785020,5955973.000000,1673607042.177154
1673612162.023169,,,,-3.759318,-3.762061,5955974.000000,1673607042.178161
1673612162.023228,,,,-3.749581,-3.750882,5955975.000000,1673607042.179168
1673612162.036485,,,,-3.738739,-3.739631,5955976.000000,1673607042.180175
1673612162.036507,,,,-3.719218,-3.719630,5955977.000000,1673607042.181182
1673612162.036635,,,,-3.713616,-3.715831,5955978.000000,1673607042.182189
1673612162.043800,,,,-3.716045,-3.717923,5955979.000000,1673607042.183196
1673612162.044025,,,,-3.712559,-3.712177,5955980.000000,1673607042.184203
1673612162.044114,2.401966,4708408.000000,1673612161.983295,,,,
1673612162.044300,2.420055,4708409.000000,1673612161.984295,,,,
1673612162.044301,,,,-3.718449,-3.717370,5955981.000000,1673607042.185210
1673612162.044320,,,,-3.747057,-3.746315,5955982.000000,1673607042.186217
1673612162.044753,2.492412,4708410.000000,1673612161.985295,,,,
1673612162.045307,2.420055,4708411.000000,1673612161.986295,,,,
1673612162.045314,2.474323,4708412.000000,1673612161.987295,,,,
1673612162.045319,2.420055,4708413.000000,1673612161.988295,,,,
1673612162.045347,2.474323,4708414.000000,1673612161.989295,,,,
1673612162.045352,2.474323,4708415.000000,1673612161.990295,,,,
1673612162.045359,3.559732,4708459.000000,1673612162.034295,,,,
1673612162.045363,3.559732,4708460.000000,1673612162.035295,,,,
1673612162.045381,3.632088,4708461.000000,1673612162.036295,,,,
1673612162.045403,3.632088,4708462.000000,1673612162.037295,,,,
1673612162.045416,3.722542,4708463.000000,1673612162.038295,,,,
1673612162.045429,3.686364,4708464.000000,1673612162.039295,,,,
1673612162.045431,3.740631,4708465.000000,1673612162.040295,,,,
1673612162.045448,3.776809,4708466.000000,1673612162.041295,,,,
1673612162.045451,3.776809,4708467.000000,1673612162.042295,,,,
1673612162.045465,3.812995,4708468.000000,1673612162.043295,,,,
1673612162.050743,,,,-3.740590,-3.743309,5955983.000000,1673607042.187224
1673612162.050758,,,,-3.733955,-3.734943,5955984.000000,1673607042.188231
1673612162.050943,,,,-3.744581,-3.744800,5955985.000000,1673607042.189239
1673612162.050952,,,,-3.746215,-3.746819,5955986.000000,1673607042.190246
1673612162.050956,,,,-3.731839,-3.730111,5955987.000000,1673607042.191253
1673612162.051062,,,,-3.711212,-3.711263,5955988.000000,1673607042.192260
1673612162.051146,,,,-3.706957,-3.707705,5955989.000000,1673607042.193267
1673612162.052760,,,,-3.711910,-3.713860,5955990.000000,1673607042.194274
1673612162.052832,,,,-3.727945,-3.728428,5955991.000000,1673607042.195281
1673612162.053078,,,,-3.739532,-3.740665,5955992.000000,1673607042.196288
1673612162.053087,,,,-3.745182,-3.745930,5955993.000000,1673607042.197295
1673612162.053094,,,,-3.738018,-3.740713,5955994.000000,1673607042.198302
1673612162.053098,,,,-3.736503,-3.739319,5955995.000000,1673607042.199309
1673612162.053102,,,,-3.724867,-3.725952,5955996.000000,1673607042.200316
1673612162.058029,,,,-3.707510,-3.705157,5955997.000000,1673607042.201324
1673612162.058162,,,,-3.686715,-3.685732,5955998.000000,1673607042.202331
1673612162.058349,,,,-3.670127,-3.671212,5955999.000000,1673607042.203338
1673612162.058436,,,,-3.647553,-3.646041,5956000.000000,1673607042.204345
1673612162.058652,,,,-3.634884,-3.633853,5956001.000000,1673607042.205352
1673612162.058675,,,,-3.632888,-3.634141,5956002.000000,1673607042.206359
1673612162.058780,,,,-3.619762,-3.621761,5956003.000000,1673607042.207366
1673612162.058792,,,,-3.608824,-3.611375,5956004.000000,1673607042.208373
1673612162.060802,,,,-3.613800,-3.615991,5956005.000000,1673607042.209380
1673612162.060960,,,,-3.626830,-3.628348,5956006.000000,1673607042.210387
1673612162.061147,,,,-3.639067,-3.643565,5956007.000000,1673607042.211394
1673612162.061399,,,,-3.657217,-3.658158,5956008.000000,1673607042.212401
1673612162.061502,,,,-3.665968,-3.665803,5956009.000000,1673607042.213408
1673612162.061516,,,,-3.673733,-3.674265,5956010.000000,1673607042.214416
1673612162.061525,,,,-3.686403,-3.689699,5956011.000000,1673607042.215423
1673612162.061635,,,,-3.690201,-3.691550,5956012.000000,1673607042.216430
1673612162.061653,,,,-3.684984,-3.685204,5956013.000000,1673607042.217437
1673612162.061810,,,,-3.673421,-3.674650,5956014.000000,1673607042.218444
1673612162.062154,,,,-3.656761,-3.657533,5956015.000000,1673607042.219451
1673612162.062221,,,,-3.646736,-3.646282,5956016.000000,1673607042.220458
1673612162.062233,,,,-3.639548,-3.641762,5956017.000000,1673607042.221465
1673612162.065147,,,,-3.619065,-3.622121,5956018.000000,1673607042.222472
1673612162.065564,,,,-3.621060,-3.623275,5956019.000000,1673607042.223479
1673612162.065628,,,,-3.649212,-3.652869,5956020.000000,1673607042.224486
1673612162.065636,,,,-3.669766,-3.674121,5956021.000000,1673607042.225493
1673612162.067886,,,,-3.683806,-3.685636,5956022.000000,1673607042.226501
1673612162.068451,,,,-3.686883,-3.686670,5956023.000000,1673607042.227508
1673612162.068462,,,,-3.665127,-3.667894,5956024.000000,1673607042.228515
1673612162.068677,,,,-3.630340,-3.634574,5956025.000000,1673607042.229522
1673612162.069068,,,,-3.630412,-3.629381,5956026.000000,1673607042.230529
1673612162.069465,,,,-3.652457,-3.654263,5956027.000000,1673607042.231536
1673612162.069485,,,,-3.646495,-3.647436,5956028.000000,1673607042.232543
1673612162.076183,,,,-3.673613,-3.675058,5956029.000000,1673607042.233550
1673612162.076526,,,,-3.731791,-3.733886,5956030.000000,1673607042.234557
1673612162.076867,,,,-3.765760,-3.765138,5956031.000000,1673607042.235564
1673612162.077378,,,,-3.741984,-3.742276,5956032.000000,1673607042.236571
1673612162.077393,,,,-3.722632,-3.720759,5956033.000000,1673607042.237578
1673612162.077403,,,,-3.720228,-3.720182,5956034.000000,1673607042.238585
1673612162.077455,,,,-3.707702,-3.708499,5956035.000000,1673607042.239593
1673612162.077465,,,,-3.693759,-3.697488,5956036.000000,1673607042.240600
1673612162.077472,,,,-3.677940,-3.678953,5956037.000000,1673607042.241607
1673612162.077511,,,,-3.685754,-3.685516,5956038.000000,1673607042.242614
1673612162.080511,,,,-3.695225,-3.696671,5956039.000000,1673607042.243621
1673612162.080822,,,,-3.697798,-3.700734,5956040.000000,1673607042.244628
1673612162.081224,,,,-3.682292,-3.686670,5956041.000000,1673607042.245635
1673612162.081464,,,,-3.672748,-3.673616,5956042.000000,1673607042.246642
1673612162.081699,,,,-3.680729,-3.682174,5956043.000000,1673607042.247649
1673612162.081712,,,,-3.672868,-3.676164,5956044.000000,1673607042.248656
1673612162.081848,,,,-3.664478,-3.668880,5956045.000000,1673607042.249663
1673612162.082023,,,,-3.684912,-3.687896,5956046.000000,1673607042.250670
1673612162.082979,,,,-3.698711,-3.702344,5956047.000000,1673607042.251678
1673612162.083196,,,,-3.708328,-3.710182,5956048.000000,1673607042.252685
1673612162.083810,,,,-3.718088,-3.717562,5956049.000000,1673607042.253692
1673612162.083831,,,,-3.722944,-3.721697,5956050.000000,1673607042.254699
1673612162.083848,,,,-3.716501,-3.719269,5956051.000000,1673607042.255706
1673612162.083872,,,,-3.713328,-3.712970,5956052.000000,1673607042.256713
1673612162.083879,,,,-3.700779,-3.701647,5956053.000000,1673607042.257720
1673612162.088535,,,,-3.691740,-3.696719,5956054.000000,1673607042.258727
1673612162.088738,,,,-3.675584,-3.679650,5956055.000000,1673607042.259734
1673612162.088953,,,,-3.666954,-3.667197,5956056.000000,1673607042.260741
1673612162.089130,,,,-3.654092,-3.655826,5956057.000000,1673607042.261748
1673612162.089441,,,,-3.640605,-3.642940,5956058.000000,1673607042.262755
1673612162.089558,,,,-3.644332,-3.644840,5956059.000000,1673607042.263762
1673612162.089660,,,,-3.654140,-3.655514,5956060.000000,1673607042.264770
1673612162.089844,,,,-3.670175,-3.673183,5956061.000000,1673607042.265777
1673612162.090128,,,,-3.683422,-3.684627,5956062.000000,1673607042.266784
1673612162.090360,,,,-3.678782,-3.681165,5956063.000000,1673607042.267791
1673612162.090465,,,,-3.670969,-3.672053,5956064.000000,1673607042.268798
1673612162.090665,,,,-3.688085,-3.689122,5956065.000000,1673607042.269805
1673612162.090954,,,,-3.710563,-3.711744,5956066.000000,1673607042.270812
1673612162.091000,,,,-3.722776,-3.723668,5956067.000000,1673607042.271819
1673612162.091254,,,,-3.718930,-3.719966,5956068.000000,1673607042.272826
1673612162.096520,,,,-3.709121,-3.710182,5956069.000000,1673607042.273833
1673612162.096661,,,,-3.716886,-3.718981,5956070.000000,1673607042.274840
1673612162.096833,,,,-3.728353,-3.729702,5956071.000000,1673607042.275847
1673612162.096980,,,,-3.722680,-3.726096,5956072.000000,1673607042.276855
1673612162.097085,,,,-3.704866,-3.706095,5956073.000000,1673607042.277862
1673612162.097199,,,,-3.695297,-3.693810,5956074.000000,1673607042.278869
1673612162.109171,5.404923,4708520.000000,1673612162.098619,,,,
1673612162.109192,5.423012,4708521.000000,1673612162.099619,,,,
1673612162.109199,5.441101,4708522.000000,1673612162.100619,,,,
1673612162.109211,5.513465,4708523.000000,1673612162.101619,,,,
1673612162.109217,5.531555,4708524.000000,1673612162.102619,,,,
1673612162.109241,5.622008,4708525.000000,1673612162.103619,,,,
1673612162.109247,5.603911,4708526.000000,1673612162.104619,,,,
1673612162.109258,5.676275,4708527.000000,1673612162.105619,,,,
1673612162.109270,5.730543,4708528.000000,1673612162.106619,,,,
1673612162.109307,5.784818,4708529.000000,1673612162.107619,,,,
1673612162.110269,,,,-3.698110,-3.698811,5956075.000000,1673607042.279876
1673612162.110452,,,,-3.696067,-3.697416,5956076.000000,1673607042.280883
1673612162.110636,,,,-3.670656,-3.672775,5956077.000000,1673607042.281890
1673612162.110782,,,,-3.657145,-3.656138,5956078.000000,1673607042.282897
1673612162.112441,,,,-3.646327,-3.647051,5956079.000000,1673607042.283904
1673612162.112607,,,,-3.623032,-3.626737,5956080.000000,1673607042.284911
1673612162.112675,,,,-3.622407,-3.626208,5956081.000000,1673607042.285918
1673612162.112797,,,,-3.636158,-3.639478,5956082.000000,1673607042.286925
1673612162.117535,,,,-3.636398,-3.637555,5956083.000000,1673607042.287932
1673612162.117636,,,,-3.637744,-3.639719,5956084.000000,1673607042.288939
1673612162.117834,,,,-3.641855,-3.641113,5956085.000000,1673607042.289947
1673612162.120095,,,,-3.649500,-3.648806,5956086.000000,1673607042.290954
1673612162.120107,,,,-3.661929,-3.662052,5956087.000000,1673607042.291961
1673612162.120359,,,,-3.685609,-3.687632,5956088.000000,1673607042.292968
1673612162.120394,,,,-3.696812,-3.699435,5956089.000000,1673607042.293975
1673612162.125546,,,,-3.705130,-3.706816,5956090.000000,1673607042.294982
1673612162.126145,,,,-3.705731,-3.707826,5956091.000000,1673607042.295989
1673612162.126570,,,,-3.698711,-3.699411,5956092.000000,1673607042.296996
1673612162.126655,,,,-3.693062,-3.690348,5956093.000000,1673607042.298003
1673612162.126666,,,,-3.686980,-3.686478,5956094.000000,1673607042.299010
1673612162.127028,,,,-3.685441,-3.687103,5956095.000000,1673607042.300017
1673612162.128031,,,,-3.678974,-3.681501,5956096.000000,1673607042.301024
1673612162.128486,,,,-3.673228,-3.676765,5956097.000000,1673607042.302032
1673612162.128845,,,,-3.671137,-3.673448,5956098.000000,1673607042.303039
1673612162.128917,,,,-3.668685,-3.669289,5956099.000000,1673607042.304046
1673612162.128927,,,,-3.681955,-3.679867,5956100.000000,1673607042.305053
1673612162.129059,,,,-3.681667,-3.681261,5956101.000000,1673607042.306060
1673612162.129081,,,,-3.670824,-3.668808,5956102.000000,1673607042.307067
1673612162.133069,,,,-3.633153,-3.634646,5956103.000000,1673607042.308074
1673612162.133393,,,,-3.601275,-3.604884,5956104.000000,1673607042.309081
1673612162.133404,,,,-3.608800,-3.612865,5956105.000000,1673607042.310088
1673612162.133414,,,,-3.635196,-3.637892,5956106.000000,1673607042.311095
1673612162.134994,,,,-3.660535,-3.661980,5956107.000000,1673607042.312102
1673612162.135100,,,,-3.677459,-3.679217,5956108.000000,1673607042.313109
1673612162.135532,,,,-3.675296,-3.677078,5956109.000000,1673607042.314116
1673612162.135540,,,,-3.687196,-3.686430,5956110.000000,1673607042.315124
1673612162.140418,,,,-3.700587,-3.701022,5956111.000000,1673607042.316131
1673612162.140771,,,,-3.704385,-3.706191,5956112.000000,1673607042.317138
1673612162.140791,,,,-3.716549,-3.718860,5956113.000000,1673607042.318145
1673612162.140800,,,,-3.711958,-3.713764,5956114.000000,1673607042.319152
1673612162.143190,,,,-3.706501,-3.709629,5956115.000000,1673607042.320159
1673612162.143349,,,,-3.707222,-3.711191,5956116.000000,1673607042.321166
1673612162.143363,,,,-3.679094,-3.682150,5956117.000000,1673607042.322173
1673612162.143641,,,,-3.650774,-3.651282,5956118.000000,1673607042.323180
1673612162.143752,,,,-3.628152,-3.629766,5956119.000000,1673607042.324187
1673612162.143760,,,,-3.620772,-3.623828,5956120.000000,1673607042.325194
1673612162.147931,,,,-3.623777,-3.625607,5956121.000000,1673607042.326201
1673612162.148309,,,,-3.633321,-3.634767,5956122.000000,1673607042.327209
1673612162.148318,,,,-3.632624,-3.632218,5956123.000000,1673607042.328216
1673612162.148485,,,,-3.622383,-3.621688,5956124.000000,1673607042.329223
1673612162.148499,,,,-3.648947,-3.651234,5956125.000000,1673607042.330230
1673612162.148666,,,,-3.689768,-3.693281,5956126.000000,1673607042.331237
1673612162.148871,,,,-3.710419,-3.712466,5956127.000000,1673607042.332244
1673612162.150394,,,,-3.728089,-3.729799,5956128.000000,1673607042.333251
1673612162.150641,,,,-3.726791,-3.725039,5956129.000000,1673607042.334258
1673612162.150995,,,,-3.720324,-3.717514,5956130.000000,1673607042.335265
1673612162.151166,,,,-3.718857,-3.721385,5956131.000000,1673607042.336272
1673612162.151334,,,,-3.711910,-3.716240,5956132.000000,1673607042.337279
1673612162.151783,,,,-3.712799,-3.715759,5956133.000000,1673607042.338286
1673612162.151796,,,,-3.713424,-3.713788,5956134.000000,1673607042.339293
1673612162.164113,,,,-3.709866,-3.710759,5956135.000000,1673607042.340301
1673612162.164128,,,,-3.711765,-3.710735,5956136.000000,1673607042.341308
1673612162.164358,,,,-3.704481,-3.704580,5956137.000000,1673607042.342315
1673612162.164497,,,,-3.697197,-3.699965,5956138.000000,1673607042.343322
1673612162.164524,,,,-3.697005,-3.698931,5956139.000000,1673607042.344329
1673612162.171592,,,,-3.691259,-3.693954,5956140.000000,1673607042.345336
1673612162.171713,,,,-3.687845,-3.689675,5956141.000000,1673607042.346343
1673612162.171953,,,,-3.688398,-3.690973,5956142.000000,1673607042.347350
1673612162.173443,6.399879,4708540.000000,1673612162.122005,,,,
1673612162.173626,6.417968,4708541.000000,1673612162.123004,,,,
1673612162.174958,6.490333,4708542.000000,1673612162.124004,,,,
1673612162.174973,6.562689,4708543.000000,1673612162.125005,,,,
1673612162.174981,6.635053,4708544.000000,1673612162.126004,,,,
1673612162.174998,6.671231,4708545.000000,1673612162.127004,,,,
1673612162.175003,6.743596,4708546.000000,1673612162.128005,,,,
1673612162.175015,6.797863,4708547.000000,1673612162.129004,,,,
1673612162.175055,6.779774,4708548.000000,1673612162.130004,,,,
1673612162.175077,6.906405,4708549.000000,1673612162.131005,,,,
1673612162.175090,9.113402,4708581.000000,1673612162.163004,,,,
1673612162.175099,9.185759,4708582.000000,1673612162.164005,,,,
1673612162.175106,9.294301,4708583.000000,1673612162.165004,,,,
1673612162.175112,9.312390,4708584.000000,1673612162.166004,,,,
1673612162.175115,9.402843,4708585.000000,1673612162.167004,,,,
1673612162.175129,9.420933,4708586.000000,1673612162.168005,,,,
1673612162.175135,9.475200,4708587.000000,1673612162.169004,,,,
1673612162.175142,9.475200,4708588.000000,1673612162.170004,,,,
1673612162.175148,9.493289,4708589.000000,1673612162.171005,,,,
1673612162.175169,9.547565,4708590.000000,1673612162.172004,,,,
1673612162.178044,,,,-3.697173,-3.697368,5956143.000000,1673607042.348357
1673612162.178418,,,,-3.703543,-3.702296,5956144.000000,1673607042.349364
1673612162.178490,,,,-3.708736,-3.714894,5956145.000000,1673607042.350371
1673612162.178500,,,,-3.719146,-3.724895,5956146.000000,1673607042.351378
1673612162.178579,,,,-3.726959,-3.730953,5956147.000000,1673607042.352386
1673612162.178708,,,,-3.742105,-3.747180,5956148.000000,1673607042.353393
1673612162.178741,,,,-3.752081,-3.753911,5956149.000000,1673607042.354400
1673612162.180007,,,,-3.742922,-3.744872,5956150.000000,1673607042.355407
1673612162.180277,,,,-3.708953,-3.709148,5956151.000000,1673607042.356414
1673612162.180287,,,,-3.642721,-3.646642,5956152.000000,1673607042.357421
1673612162.185204,,,,-3.586755,-3.591133,5956153.000000,1673607042.358428
1673612162.185677,,,,-3.554829,-3.559087,5956154.000000,1673607042.359435
1673612162.186033,,,,-3.573653,-3.577814,5956155.000000,1673607042.360442
1673612162.186338,,,,-3.576898,-3.580002,5956156.000000,1673607042.361449
1673612162.187604,,,,-3.589159,-3.590436,5956157.000000,1673607042.362456
1673612162.188150,,,,-3.612839,-3.612745,5956158.000000,1673607042.363463
1673612162.188163,,,,-3.631229,-3.633108,5956159.000000,1673607042.364470
1673612162.188255,,,,-3.607646,-3.606879,5956160.000000,1673607042.365478
1673612162.193132,,,,-3.589327,-3.592359,5956161.000000,1673607042.366485
1673612162.193154,,,,-3.610386,-3.613154,5956162.000000,1673607042.367492
1673612162.193263,,,,-3.613127,-3.614933,5956163.000000,1673607042.368499
1673612162.195233,,,,-3.649500,-3.649647,5956164.000000,1673607042.369506
1673612162.195399,,,,-3.654861,-3.653254,5956165.000000,1673607042.370513
1673612162.195601,,,,-3.646207,-3.644840,5956166.000000,1673607042.371520
1673612162.195615,,,,-3.663420,-3.663182,5956167.000000,1673607042.372527
1673612162.200622,,,,-3.689360,-3.689002,5956168.000000,1673607042.373534
1673612162.200636,,,,-3.697990,-3.696791,5956169.000000,1673607042.374541
1673612162.200796,,,,-3.698327,-3.698378,5956170.000000,1673607042.375548
1673612162.201101,,,,-3.679599,-3.679265,5956171.000000,1673607042.376555
1673612162.201110,,,,-3.661280,-3.659985,5956172.000000,1673607042.377563
1673612162.201118,,,,-3.632624,-3.633925,5956173.000000,1673607042.378570
1673612162.208150,,,,-3.654332,-3.658470,5956174.000000,1673607042.379577
1673612162.208315,,,,-3.716069,-3.720279,5956175.000000,1673607042.380584
1673612162.208410,,,,-3.760928,-3.764970,5956176.000000,1673607042.381591
1673612162.208741,,,,-3.748211,-3.748935,5956177.000000,1673607042.382598
1673612162.208752,,,,-3.713088,-3.712081,5956178.000000,1673607042.383605
1673612162.208757,,,,-3.688614,-3.687415,5956179.000000,1673607042.384612
1673612162.208868,,,,-3.673949,-3.673063,5956180.000000,1673607042.385619
1673612162.208983,,,,-3.664237,-3.664168,5956181.000000,1673607042.386626
1673612162.209965,,,,-3.657506,-3.656812,5956182.000000,1673607042.387633
1673612162.210130,,,,-3.655991,-3.656403,5956183.000000,1673607042.388640
1673612162.210180,,,,-3.664285,-3.663423,5956184.000000,1673607042.389647
1673612162.224290,,,,-3.660847,-3.660394,5956185.000000,1673607042.390655
1673612162.224413,,,,-3.675464,-3.677607,5956186.000000,1673607042.391662
1673612162.224424,,,,-3.710491,-3.714028,5956187.000000,1673607042.392669
1673612162.224434,,,,-3.726069,-3.731794,5956188.000000,1673607042.393676
1673612162.231536,,,,-3.716045,-3.718716,5956189.000000,1673607042.394683
1673612162.231889,,,,-3.705683,-3.705830,5956190.000000,1673607042.395690
1673612162.232450,,,,-3.707222,-3.709124,5956191.000000,1673607042.396697
1673612162.232522,,,,-3.705611,-3.707465,5956192.000000,1673607042.397704
1673612162.238088,,,,-3.684888,-3.686285,5956193.000000,1673607042.398711
1673612162.238797,,,,-3.674406,-3.676044,5956194.000000,1673607042.399718
1673612162.238869,9.583742,4708591.000000,1673612162.177346,,,,
1673612162.239155,9.601831,4708592.000000,1673612162.178346,,,,
1673612162.239208,,,,-3.685393,-3.686838,5956195.000000,1673607042.400725
1673612162.239228,,,,-3.676474,-3.675996,5956196.000000,1673607042.401732
1673612162.239353,,,,-3.654909,-3.655441,5956197.000000,1673607042.402740
1673612162.239444,,,,-3.647529,-3.649479,5956198.000000,1673607042.403747
1673612162.239846,9.674196,4708593.000000,1673612162.179346,,,,
1673612162.240135,,,,-3.655799,-3.655465,5956199.000000,1673607042.404754
1673612162.240340,,,,-3.671618,-3.672510,5956200.000000,1673607042.405761
1673612162.240654,,,,-3.661833,-3.665298,5956201.000000,1673607042.406768
1673612162.240862,,,,-3.649068,-3.649047,5956202.000000,1673607042.407775
1673612162.241277,9.656098,4708594.000000,1673612162.180346,,,,
1673612162.241313,9.764642,4708595.000000,1673612162.181346,,,,
1673612162.241329,9.710374,4708596.000000,1673612162.182346,,,,
1673612162.241338,9.818917,4708597.000000,1673612162.183347,,,,
1673612162.241377,9.782730,4708598.000000,1673612162.184346,,,,
1673612162.241385,10.578698,4708642.000000,1673612162.228346,,,,
1673612162.241400,10.614877,4708643.000000,1673612162.229347,,,,
1673612162.241431,10.651063,4708644.000000,1673612162.230346,,,,
1673612162.241438,10.669152,4708645.000000,1673612162.231346,,,,
1673612162.241448,10.705330,4708646.000000,1673612162.232346,,,,
1673612162.241458,10.705330,4708647.000000,1673612162.233346,,,,
1673612162.241470,10.759597,4708648.000000,1673612162.234346,,,,
1673612162.241478,10.759597,4708649.000000,1673612162.235346,,,,
1673612162.241484,10.886229,4708650.000000,1673612162.236346,,,,
1673612162.241505,10.904318,4708651.000000,1673612162.237346,,,,
1673612162.245623,,,,-3.651183,-3.651523,5956203.000000,1673607042.408782
1673612162.246200,,,,-3.669743,-3.668567,5956204.000000,1673607042.409789
1673612162.246391,,,,-3.685080,-3.685708,5956205.000000,1673607042.410796
1673612162.246611,,,,-3.699433,-3.701719,5956206.000000,1673607042.411803
1673612162.246748,,,,-3.700995,-3.701190,5956207.000000,1673607042.412810
1673612162.246757,,,,-3.703183,-3.702080,5956208.000000,1673607042.413817
1673612162.247049,,,,-3.706212,-3.708018,5956209.000000,1673607042.414824
1673612162.247565,,,,-3.707390,-3.713932,5956210.000000,1673607042.415832
1673612162.247792,,,,-3.705875,-3.710735,5956211.000000,1673607042.416839
1673612162.247982,,,,-3.698062,-3.699003,5956212.000000,1673607042.417846
1673612162.248112,,,,-3.699336,-3.700541,5956213.000000,1673607042.418853
1673612162.252774,,,,-3.702077,-3.702537,5956214.000000,1673607042.419860
1673612162.252949,,,,-3.698976,-3.701743,5956215.000000,1673607042.420867
1673612162.252957,,,,-3.688879,-3.692007,5956216.000000,1673607042.421874
1673612162.252964,,,,-3.680705,-3.681020,5956217.000000,1673607042.422881
1673612162.255077,,,,-3.673228,-3.673688,5956218.000000,1673607042.423888
1673612162.255175,,,,-3.669622,-3.670491,5956219.000000,1673607042.424895
1673612162.255182,,,,-3.674262,-3.674097,5956220.000000,1673607042.425902
1673612162.260375,,,,-3.668012,-3.669481,5956221.000000,1673607042.426909
1673612162.260432,,,,-3.663997,-3.665034,5956222.000000,1673607042.427917
1673612162.260458,,,,-3.657794,-3.661211,5956223.000000,1673607042.428924
1673612162.262975,,,,-3.659333,-3.662678,5956224.000000,1673607042.429931
1673612162.262982,,,,-3.660223,-3.658374,5956225.000000,1673607042.430938
1673612162.263192,,,,-3.663516,-3.661716,5956226.000000,1673607042.431945
1673612162.263396,,,,-3.676522,-3.678472,5956227.000000,1673607042.432952
1673612162.263402,,,,-3.685513,-3.687824,5956228.000000,1673607042.433959
1673612162.263441,,,,-3.689119,-3.691935,5956229.000000,1673607042.434966
1673612162.263444,,,,-3.693807,-3.698161,5956230.000000,1673607042.435973
1673612162.268007,,,,-3.701596,-3.707633,5956231.000000,1673607042.436980
1673612162.268090,,,,-3.705779,-3.707465,5956232.000000,1673607042.437987
1673612162.268121,,,,-3.704794,-3.708066,5956233.000000,1673607042.438994
1673612162.268282,,,,-3.696163,-3.700613,5956234.000000,1673607042.440001
1673612162.268425,,,,-3.693927,-3.695036,5956235.000000,1673607042.441009
1673612162.268590,,,,-3.700418,-3.700662,5956236.000000,1673607042.442016
1673612162.268752,,,,-3.696019,-3.698065,5956237.000000,1673607042.443023
1673612162.268919,,,,-3.678109,-3.678640,5956238.000000,1673607042.444030
1673612162.270159,,,,-3.657530,-3.658639,5956239.000000,1673607042.445037
1673612162.270168,,,,-3.654573,-3.654095,5956240.000000,1673607042.446044
1673612162.270172,,,,-3.648683,-3.648349,5956241.000000,1673607042.447051
1673612162.270210,,,,-3.635989,-3.637146,5956242.000000,1673607042.448058
1673612162.284374,,,,-3.634595,-3.635752,5956243.000000,1673607042.449065
1673612162.284728,,,,-3.647457,-3.649984,5956244.000000,1673607042.450072
1673612162.284815,,,,-3.657938,-3.660754,5956245.000000,1673607042.451079
1673612162.291918,,,,-3.665439,-3.667005,5956246.000000,1673607042.452086
1673612162.292150,,,,-3.671089,-3.673977,5956247.000000,1673607042.453094
1673612162.292169,,,,-3.677940,-3.680251,5956248.000000,1673607042.454101
1673612162.292536,,,,-3.676907,-3.679818,5956249.000000,1673607042.455108
1673612162.296602,15.698207,4708703.000000,1673612162.284612,,,,
1673612162.296626,15.788651,4708704.000000,1673612162.285613,,,,
1673612162.296646,15.770563,4708705.000000,1673612162.286613,,,,
1673612162.296674,15.879106,4708706.000000,1673612162.287612,,,,
1673612162.296687,15.879106,4708707.000000,1673612162.288612,,,,
1673612162.296698,15.987648,4708708.000000,1673612162.289613,,,,
1673612162.296733,16.060005,4708709.000000,1673612162.290612,,,,
1673612162.296807,16.060005,4708710.000000,1673612162.291612,,,,
1673612162.296813,16.132368,4708711.000000,1673612162.292613,,,,
1673612162.296835,16.114279,4708712.000000,1673612162.293612,,,,
1673612162.297908,,,,-3.677147,-3.677775,5956250.000000,1673607042.456115
1673612162.298526,,,,-3.669911,-3.671404,5956251.000000,1673607042.457122
1673612162.298637,,,,-3.666617,-3.669337,5956252.000000,1673607042.458129
1673612162.298660,,,,-3.677652,-3.682823,5956253.000000,1673607042.459136
1673612162.299911,,,,-3.680152,-3.683256,5956254.000000,1673607042.460143
1673612162.300078,,,,-3.668877,-3.671645,5956255.000000,1673607042.461150
1673612162.305496,,,,-3.663035,-3.665322,5956256.000000,1673607042.462157
1673612162.305561,,,,-3.662074,-3.663062,5956257.000000,1673607042.463164
1673612162.305849,,,,-3.659573,-3.661139,5956258.000000,1673607042.464171
1673612162.305854,,,,-3.661304,-3.661067,5956259.000000,1673607042.465178
1673612162.305931,,,,-3.672411,-3.670058,5956260.000000,1673607042.466186
1673612162.306045,,,,-3.688278,-3.689098,5956261.000000,1673607042.467193
1673612162.306186,,,,-3.689937,-3.692800,5956262.000000,1673607042.468200
1673612162.306326,,,,-3.666040,-3.667510,5956263.000000,1673607042.469207
1673612162.307755,,,,-3.655607,-3.658999,5956264.000000,1673607042.470214
1673612162.307877,,,,-3.680921,-3.682583,5956265.000000,1673607042.471221
1673612162.308056,,,,-3.696908,-3.697801,5956266.000000,1673607042.472228
1673612162.308089,,,,-3.711333,-3.712682,5956267.000000,1673607042.473235
1673612162.308186,,,,-3.718977,-3.717971,5956268.000000,1673607042.474242
1673612162.308423,,,,-3.721117,-3.721048,5956269.000000,1673607042.475249
1673612162.308432,,,,-3.730661,-3.731866,5956270.000000,1673607042.476256
1673612162.312875,,,,-3.704241,-3.706215,5956271.000000,1673607042.477263
1673612162.313028,,,,-3.677820,-3.679217,5956272.000000,1673607042.478271
1673612162.313171,,,,-3.653611,-3.655514,5956273.000000,1673607042.479278
1673612162.313274,,,,-3.632239,-3.634430,5956274.000000,1673607042.480285
1673612162.315243,,,,-3.632095,-3.632627,5956275.000000,1673607042.481292
1673612162.315355,,,,-3.651784,-3.652124,5956276.000000,1673607042.482299
1673612162.315516,,,,-3.670175,-3.670779,5956277.000000,1673607042.483306
1673612162.315687,,,,-3.656929,-3.659408,5956278.000000,1673607042.484313
1673612162.315853,,,,-3.611204,-3.613563,5956279.000000,1673607042.485320
1673612162.316017,,,,-3.591995,-3.592191,5956280.000000,1673607042.486327
1673612162.320415,,,,-3.574109,-3.574160,5956281.000000,1673607042.487334
1673612162.320601,,,,-3.548218,-3.548990,5956282.000000,1673607042.488341
1673612162.320828,,,,-3.553074,-3.555240,5956283.000000,1673607042.489348
1673612162.321136,,,,-3.567474,-3.567837,5956284.000000,1673607042.490355
1673612162.321244,,,,-3.579975,-3.581853,5956285.000000,1673607042.491363
1673612162.321257,,,,-3.622334,-3.625054,5956286.000000,1673607042.492370
1673612162.321263,,,,-3.680152,-3.684218,5956287.000000,1673607042.493377
1673612162.322464,,,,-3.691523,-3.693233,5956288.000000,1673607042.494384
1673612162.322664,,,,-3.706501,-3.707489,5956289.000000,1673607042.495391
1673612162.322889,,,,-3.738018,-3.738357,5956290.000000,1673607042.496398
1673612162.323018,,,,-3.714987,-3.717009,5956291.000000,1673607042.497405
1673612162.327835,,,,-3.693567,-3.696238,5956292.000000,1673607042.498412
1673612162.327859,,,,-3.670944,-3.672847,5956293.000000,1673607042.499419
1673612162.327889,,,,-3.659357,-3.661692,5956294.000000,1673607042.500426
1673612162.327961,,,,-3.681041,-3.683497,5956295.000000,1673607042.501433
1673612162.330230,,,,-3.708616,-3.713211,5956296.000000,1673607042.502440
1673612162.330660,,,,-3.722896,-3.726048,5956297.000000,1673607042.503448
1673612162.330880,,,,-3.704866,-3.708114,5956298.000000,1673607042.504455
1673612162.344188,,,,-3.692845,-3.693137,5956299.000000,1673607042.505462
1673612162.344850,,,,-3.692172,-3.692800,5956300.000000,1673607042.506469
1673612162.344961,,,,-3.688085,-3.691021,5956301.000000,1673607042.507476
1673612162.351739,,,,-3.690922,-3.693257,5956302.000000,1673607042.508483
1673612162.352034,,,,-3.694528,-3.697248,5956303.000000,1673607042.509490
1673612162.352389,,,,-3.689360,-3.690613,5956304.000000,1673607042.510497
1673612162.352407,,,,-3.691451,-3.691430,5956305.000000,1673607042.511504
1673612162.352458,,,,-3.695105,-3.694964,5956306.000000,1673607042.512511
1673612162.352464,,,,-3.702726,-3.704628,5956307.000000,1673607042.513518
1673612162.352488,,,,-3.720492,-3.721216,5956308.000000,1673607042.514525
1673612162.352494,,,,-3.731527,-3.731313,5956309.000000,1673607042.515532
1673612162.357739,,,,-3.731455,-3.732395,5956310.000000,1673607042.516540
1673612162.358125,,,,-3.730469,-3.734102,5956311.000000,1673607042.517547
1673612162.358173,,,,-3.727127,-3.731145,5956312.000000,1673607042.518554
1673612162.360081,,,,-3.719434,-3.716673,5956313.000000,1673607042.519561
1673612162.360116,16.204725,4708713.000000,1673612162.299617,,,,
1673612162.360188,,,,-3.712366,-3.711889,5956314.000000,1673607042.520568
1673612162.360379,,,,-3.702486,-3.705374,5956315.000000,1673607042.521575
1673612162.360388,,,,-3.690417,-3.693209,5956316.000000,1673607042.522582
1673612162.361131,14.703242,4708764.000000,1673612162.350617,,,,
1673612162.361141,14.685153,4708765.000000,1673612162.351617,,,,
1673612162.361148,14.630886,4708766.000000,1673612162.352617,,,,
1673612162.361152,14.522344,4708767.000000,1673612162.353617,,,,
1673612162.361168,14.486166,4708768.000000,1673612162.354617,,,,
1673612162.361173,14.468077,4708769.000000,1673612162.355617,,,,
1673612162.361176,14.449987,4708770.000000,1673612162.356617,,,,
1673612162.361191,14.359534,4708771.000000,1673612162.357617,,,,
1673612162.361193,14.323356,4708772.000000,1673612162.358617,,,,
1673612162.361202,14.287178,4708773.000000,1673612162.359617,,,,
1673612162.365143,,,,-3.683470,-3.685372,5956317.000000,1673607042.523589
1673612162.365371,,,,-3.675296,-3.678136,5956318.000000,1673607042.524596
1673612162.365413,,,,-3.669406,-3.672005,5956319.000000,1673607042.525603
1673612162.365451,,,,-3.667074,-3.667606,5956320.000000,1673607042.526610
1673612162.367793,,,,-3.668516,-3.669794,5956321.000000,1673607042.527617
1673612162.367866,,,,-3.666040,-3.667269,5956322.000000,1673607042.528625
1673612162.368263,,,,-3.676979,-3.677943,5956323.000000,1673607042.529632
1673612162.368271,,,,-3.686811,-3.689747,5956324.000000,1673607042.530639
1673612162.368276,,,,-3.697149,-3.697104,5956325.000000,1673607042.531646
1673612162.368471,,,,-3.707125,-3.708595,5956326.000000,1673607042.532653
1673612162.373424,,,,-3.719627,-3.720279,5956327.000000,1673607042.533660
1673612162.373443,,,,-3.729099,-3.728669,5956328.000000,1673607042.534667
1673612162.373488,,,,-3.724314,-3.724173,5956329.000000,1673607042.535674
1673612162.373515,,,,-3.715708,-3.715038,5956330.000000,1673607042.536681
1673612162.373528,,,,-3.707102,-3.705302,5956331.000000,1673607042.537688
1673612162.373559,,,,-3.694192,-3.692343,5956332.000000,1673607042.538695
1673612162.373567,,,,-3.680873,-3.680203,5956333.000000,1673607042.539702
1673612162.375265,,,,-3.673252,-3.674337,5956334.000000,1673607042.540709
1673612162.375774,,,,-3.654140,-3.656138,5956335.000000,1673607042.541717
1673612162.376142,,,,-3.650342,-3.652989,5956336.000000,1673607042.542724
1673612162.376497,,,,-3.654260,-3.654095,5956337.000000,1673607042.543731
1673612162.380311,,,,-3.653948,-3.656619,5956338.000000,1673607042.544738
1673612162.380707,,,,-3.654621,-3.657845,5956339.000000,1673607042.545745
1673612162.380945,,,,-3.658900,-3.662822,5956340.000000,1673607042.546752
1673612162.381130,,,,-3.662170,-3.667149,5956341.000000,1673607042.547759
1673612162.382903,,,,-3.665415,-3.669794,5956342.000000,1673607042.548766
1673612162.382920,,,,-3.675224,-3.677583,5956343.000000,1673607042.549773
1673612162.383173,,,,-3.689456,-3.690156,5956344.000000,1673607042.550780
1673612162.383371,,,,-3.710251,-3.711889,5956345.000000,1673607042.551787
1673612162.388253,,,,-3.724507,-3.725327,5956346.000000,1673607042.552794
1673612162.388309,,,,-3.732080,-3.732660,5956347.000000,1673607042.553802
1673612162.388326,,,,-3.743379,-3.743959,5956348.000000,1673607042.554809
1673612162.388339,,,,-3.748812,-3.749416,5956349.000000,1673607042.555816
1673612162.390492,,,,-3.752298,-3.754536,5956350.000000,1673607042.556823
1673612162.390841,,,,-3.735205,-3.740449,5956351.000000,1673607042.557830
1673612162.391041,,,,-3.711717,-3.714701,5956352.000000,1673607042.558837
1673612162.391356,,,,-3.688951,-3.691911,5956353.000000,1673607042.559844
1673612162.391758,,,,-3.670488,-3.671452,5956354.000000,1673607042.560851
1673612162.391864,,,,-3.658107,-3.658903,5956355.000000,1673607042.561858
1673612162.404834,,,,-3.653106,-3.654504,5956356.000000,1673607042.562865
1673612162.404845,,,,-3.643707,-3.645128,5956357.000000,1673607042.563872
1673612162.404857,,,,-3.624738,-3.626376,5956358.000000,1673607042.564879
1673612162.405073,,,,-3.607477,-3.609500,5956359.000000,1673607042.565886
1673612162.405084,,,,-3.613367,-3.613875,5956360.000000,1673607042.566894
1673612162.405101,,,,-3.622936,-3.624237,5956361.000000,1673607042.567901
1673612162.405220,,,,-3.637167,-3.638084,5956362.000000,1673607042.568908
1673612162.405399,,,,-3.649212,-3.648109,5956363.000000,1673607042.569915
1673612162.411727,,,,-3.660319,-3.662173,5956364.000000,1673607042.570922
1673612162.412015,,,,-3.663636,-3.667389,5956365.000000,1673607042.571929
1673612162.412026,,,,-3.663059,-3.663735,5956366.000000,1673607042.572936
1673612162.414055,14.232903,4708774.000000,1673612162.353439,,,,
1673612162.414073,14.196724,4708775.000000,1673612162.354439,,,,
1673612162.414081,14.088181,4708776.000000,1673612162.355439,,,,
1673612162.414180,14.088181,4708777.000000,1673612162.356439,,,,
1673612162.414188,13.997728,4708778.000000,1673612162.357439,,,,
1673612162.415603,12.333445,4708825.000000,1673612162.404439,,,,
1673612162.415626,12.351533,4708826.000000,1673612162.405439,,,,
1673612162.415639,12.315347,4708827.000000,1673612162.406439,,,,
1673612162.415648,12.351533,4708828.000000,1673612162.407439,,,,
1673612162.415656,12.351533,4708829.000000,1673612162.408439,,,,
1673612162.415859,12.423889,4708830.000000,1673612162.409439,,,,
1673612162.415873,12.441978,4708831.000000,1673612162.410439,,,,
1673612162.415880,12.460068,4708832.000000,1673612162.411439,,,,
1673612162.415889,12.514343,4708833.000000,1673612162.412439,,,,
1673612162.415897,12.532432,4708834.000000,1673612162.413439,,,,
1673612162.418364,,,,-3.667074,-3.666380,5956367.000000,1673607042.573943
1673612162.418374,,,,-3.681066,-3.681982,5956368.000000,1673607042.574950
1673612162.418390,,,,-3.698231,-3.698858,5956369.000000,1673607042.575957
1673612162.418403,,,,-3.694023,-3.697128,5956370.000000,1673607042.576964
1673612162.419996,,,,-3.688879,-3.688930,5956371.000000,1673607042.577971
1673612162.420389,,,,-3.695971,-3.696527,5956372.000000,1673607042.578979
1673612162.420404,,,,-3.706693,-3.706936,5956373.000000,1673607042.579986
1673612162.425552,,,,-3.696259,-3.697416,5956374.000000,1673607042.580993
1673612162.425566,,,,-3.672627,-3.671116,5956375.000000,1673607042.582000
1673612162.425650,,,,-3.649356,-3.649071,5956376.000000,1673607042.583007
1673612162.425825,,,,-3.633057,-3.632170,5956377.000000,1673607042.584014
1673612162.433422,,,,-3.645462,-3.645272,5956378.000000,1673607042.585021
1673612162.433947,,,,-3.654044,-3.654504,5956379.000000,1673607042.586028
1673612162.434165,,,,-3.643779,-3.644190,5956380.000000,1673607042.587035
1673612162.434278,,,,-3.637360,-3.639430,5956381.000000,1673607042.588042
1673612162.434541,,,,-3.647409,-3.647508,5956382.000000,1673607042.589049
1673612162.434860,,,,-3.672171,-3.671572,5956383.000000,1673607042.590056
1673612162.435219,,,,-3.667579,-3.665058,5956384.000000,1673607042.591063
1673612162.435538,,,,-3.636999,-3.634166,5956385.000000,1673607042.592071
1673612162.436073,,,,-3.609713,-3.608586,5956386.000000,1673607042.593078
1673612162.436320,,,,-3.594399,-3.595484,5956387.000000,1673607042.594085
1673612162.436519,,,,-3.599857,-3.600917,5956388.000000,1673607042.595092
1673612162.436699,,,,-3.658948,-3.664000,5956389.000000,1673607042.596099
1673612162.436991,,,,-3.712559,-3.716023,5956390.000000,1673607042.597106
1673612162.437064,,,,-3.733210,-3.735064,5956391.000000,1673607042.598113
1673612162.437329,,,,-3.731815,-3.731385,5956392.000000,1673607042.599120
1673612162.437726,,,,-3.756457,-3.756748,5956393.000000,1673607042.600127
1673612162.438623,,,,-3.805451,-3.804925,5956394.000000,1673607042.601134
1673612162.438647,,,,-3.820669,-3.821369,5956395.000000,1673607042.602141
1673612162.438660,,,,-3.790258,-3.790886,5956396.000000,1673607042.603148
1673612162.438668,,,,-3.760832,-3.762157,5956397.000000,1673607042.604156
1673612162.438676,,,,-3.741359,-3.742564,5956398.000000,1673607042.605163
1673612162.438682,,,,-3.729844,-3.730736,5956399.000000,1673607042.606170
1673612162.438738,,,,-3.711381,-3.712297,5956400.000000,1673607042.607177
1673612162.438772,,,,-3.671017,-3.671260,5956401.000000,1673607042.608184
1673612162.438818,,,,-3.625844,-3.624886,5956402.000000,1673607042.609191
1673612162.440519,,,,-3.614714,-3.617986,5956403.000000,1673607042.610198
1673612162.440972,,,,-3.658515,-3.660201,5956404.000000,1673607042.611205
1673612162.441123,,,,-3.728305,-3.729510,5956405.000000,1673607042.612212
1673612162.441422,,,,-3.775232,-3.776774,5956406.000000,1673607042.613219
1673612162.441431,,,,-3.804081,-3.808243,5956407.000000,1673607042.614226
1673612162.441589,,,,-3.861995,-3.863825,5956408.000000,1673607042.615233
1673612162.441716,,,,-3.947627,-3.948279,5956409.000000,1673607042.616241
1673612162.442773,,,,-3.963422,-3.963545,5956410.000000,1673607042.617248
1673612162.442889,,,,-3.951714,-3.952318,5956411.000000,1673607042.618255
1673612162.443043,,,,-3.957748,-3.962535,5956412.000000,1673607042.619262
1673612162.443382,,,,-3.928900,-3.929528,5956413.000000,1673607042.620269
1673612162.443394,,,,-3.863269,-3.862575,5956414.000000,1673607042.621276
1673612162.443497,,,,-3.843628,-3.843751,5956415.000000,1673607042.622283
1673612162.448262,,,,-3.857715,-3.856925,5956416.000000,1673607042.623290
1673612162.448274,,,,-3.922192,-3.924840,5956417.000000,1673607042.624297
1673612162.448359,,,,-4.025182,-4.031171,5956418.000000,1673607042.625304
1673612162.448549,,,,-4.109083,-4.111226,5956419.000000,1673607042.626311
1673612162.448793,,,,-4.108627,-4.108533,5956420.000000,1673607042.627318
1673612162.448971,,,,-4.104251,-4.106057,5956421.000000,1673607042.628325
1673612162.449174,,,,-4.112136,-4.113654,5956422.000000,1673607042.629333
1673612162.450154,,,,-4.071701,-4.073146,5956423.000000,1673607042.630340
1673612162.450335,,,,-4.001526,-4.004101,5956424.000000,1673607042.631347
1673612162.450344,,,,-3.944886,-3.947798,5956425.000000,1673607042.632354
1673612162.450439,,,,-3.896757,-3.898900,5956426.000000,1673607042.633361
1673612162.450495,,,,-3.832208,-3.832308,5956427.000000,1673607042.634368
1673612162.464120,,,,-3.775641,-3.775211,5956428.000000,1673607042.635375
1673612162.464146,,,,-3.740229,-3.740401,5956429.000000,1673607042.636382
1673612162.472426,,,,-3.710443,-3.709989,5956430.000000,1673607042.637389
1673612162.472445,,,,-3.752202,-3.753286,5956431.000000,1673607042.638396
1673612162.473222,,,,-3.842233,-3.841900,5956432.000000,1673607042.639403
1673612162.473246,,,,-3.916927,-3.919382,5956433.000000,1673607042.640410
1673612162.473262,,,,-3.980322,-3.983691,5956434.000000,1673607042.641418
1673612162.473540,,,,-3.984938,-3.986864,5956435.000000,1673607042.642425
1673612162.473793,,,,-3.958301,-3.960564,5956436.000000,1673607042.643432
1673612162.474053,,,,-3.915509,-3.917147,5956437.000000,1673607042.644439
1673612162.474184,,,,-3.899546,-3.902217,5956438.000000,1673607042.645446
1673612162.474210,,,,-3.993256,-3.994557,5956439.000000,1673607042.646453
1673612162.474661,,,,-4.064849,-4.065958,5956440.000000,1673607042.647460
1673612162.478432,,,,-4.046938,-4.047759,5956441.000000,1673607042.648467
1673612162.478641,,,,-4.061627,-4.065717,5956442.000000,1673607042.649474
1673612162.478950,,,,-4.060882,-4.062327,5956443.000000,1673607042.650481
1673612162.479337,,,,-4.000300,-3.999077,5956444.000000,1673607042.651488
1673612162.479547,12.622886,4708835.000000,1673612162.418389,,,,
1673612162.479794,12.640975,4708836.000000,1673612162.419389,,,,
1673612162.479905,,,,-3.939093,-3.938807,5956445.000000,1673607042.652495
1673612162.479936,12.622886,4708837.000000,1673612162.420389,,,,
1673612162.480113,,,,-3.886756,-3.886711,5956446.000000,1673607042.653502
1673612162.480741,,,,-3.828963,-3.829591,5956447.000000,1673607042.654510
1673612162.480754,,,,-3.743763,-3.744656,5956448.000000,1673607042.655517
1673612162.480799,,,,-3.704433,-3.705782,5956449.000000,1673607042.656524
1673612162.480934,,,,-3.666713,-3.668640,5956450.000000,1673607042.657531
1673612162.480953,,,,-3.617839,-3.617529,5956451.000000,1673607042.658538
1673612162.480959,,,,-3.597092,-3.593825,5956452.000000,1673607042.659545
1673612162.480981,,,,-3.623008,-3.622289,5956453.000000,1673607042.660552
1673612162.480984,,,,-3.631109,-3.631473,5956454.000000,1673607042.661559
1673612162.481000,,,,-3.601660,-3.602985,5956455.000000,1673607042.662566
1673612162.481187,12.478165,4708838.000000,1673612162.421389,,,,
1673612162.481577,12.695242,4708839.000000,1673612162.422389,,,,
1673612162.481588,12.767606,4708840.000000,1673612162.423389,,,,
1673612162.481630,12.767606,4708841.000000,1673612162.424389,,,,
1673612162.481633,12.731420,4708842.000000,1673612162.425389,,,,
1673612162.481640,14.269080,4708886.000000,1673612162.469389,,,,
1673612162.481647,14.359534,4708887.000000,1673612162.470389,,,,
1673612162.481654,14.449987,4708888.000000,1673612162.471389,,,,
1673612162.481678,14.558522,4708889.000000,1673612162.472389,,,,
1673612162.481684,14.558522,4708890.000000,1673612162.473389,,,,
1673612162.481697,14.685153,4708891.000000,1673612162.474389,,,,
1673612162.481711,14.793696,4708892.000000,1673612162.475389,,,,
1673612162.481747,14.847972,4708893.000000,1673612162.476389,,,,
1673612162.481763,14.956506,4708894.000000,1673612162.477389,,,,
1673612162.481766,15.083138,4708895.000000,1673612162.478389,,,,
1673612162.485465,,,,-3.569926,-3.574929,5956456.000000,1673607042.663573
1673612162.485517,,,,-3.560334,-3.559712,5956457.000000,1673607042.664580
1673612162.485525,,,,-3.559300,-3.560024,5956458.000000,1673607042.665587
1673612162.485533,,,,-3.543433,-3.544014,5956459.000000,1673607042.666595
1673612162.487493,,,,-3.552136,-3.553101,5956460.000000,1673607042.667602
1673612162.487831,,,,-3.612478,-3.614380,5956461.000000,1673607042.668609
1673612162.487850,,,,-3.668973,-3.668375,5956462.000000,1673607042.669616
1673612162.493071,,,,-3.685946,-3.685107,5956463.000000,1673607042.670623
1673612162.493291,,,,-3.681017,-3.681694,5956464.000000,1673607042.671630
1673612162.493484,,,,-3.701115,-3.704460,5956465.000000,1673607042.672637
1673612162.493636,,,,-3.716261,-3.718404,5956466.000000,1673607042.673644
1673612162.493809,,,,-3.730709,-3.731385,5956467.000000,1673607042.674651
1673612162.493973,,,,-3.737489,-3.736097,5956468.000000,1673607042.675658
1673612162.494163,,,,-3.720444,-3.722923,5956469.000000,1673607042.676665
1673612162.495361,,,,-3.686258,-3.688281,5956470.000000,1673607042.677672
1673612162.495959,,,,-3.669863,-3.671885,5956471.000000,1673607042.678679
1673612162.496060,,,,-3.693927,-3.694796,5956472.000000,1673607042.679687
1673612162.496074,,,,-3.723377,-3.724798,5956473.000000,1673607042.680694
1673612162.496100,,,,-3.724050,-3.727130,5956474.000000,1673607042.681701
1673612162.496111,,,,-3.711645,-3.716336,5956475.000000,1673607042.682708
1673612162.496118,,,,-3.693302,-3.697200,5956476.000000,1673607042.683715
1673612162.500521,,,,-3.666233,-3.668688,5956477.000000,1673607042.684722
1673612162.500582,,,,-3.628104,-3.630103,5956478.000000,1673607042.685729
1673612162.500587,,,,-3.648082,-3.651715,5956479.000000,1673607042.686736
1673612162.500589,,,,-3.658900,-3.657028,5956480.000000,1673607042.687743
1673612162.502568,,,,-3.647745,-3.647845,5956481.000000,1673607042.688750
1673612162.502737,,,,-3.647649,-3.650417,5956482.000000,1673607042.689757
1673612162.502744,,,,-3.673541,-3.675491,5956483.000000,1673607042.690764
1673612162.502765,,,,-3.730589,-3.731169,5956484.000000,1673607042.691772
1673612162.507777,,,,-3.786411,-3.788674,5956485.000000,1673607042.692779
1673612162.507791,,,,-3.820068,-3.825191,5956486.000000,1673607042.693786
1673612162.510480,,,,-3.833651,-3.836611,5956487.000000,1673607042.694793
1673612162.510494,,,,-3.827040,-3.828076,5956488.000000,1673607042.695800
1673612162.510635,,,,-3.812135,-3.811416,5956489.000000,1673607042.696807
1673612162.510642,,,,-3.802206,-3.803651,5956490.000000,1673607042.697814
1673612162.510760,,,,-3.791628,-3.792929,5956491.000000,1673607042.698821
1673612162.510860,,,,-3.774319,-3.774923,5956492.000000,1673607042.699828
1673612162.510958,,,,-3.740446,-3.741530,5956493.000000,1673607042.700835
1673612162.515395,,,,-3.726262,-3.728549,5956494.000000,1673607042.701842
1673612162.515508,,,,-3.727319,-3.732347,5956495.000000,1673607042.702849
1673612162.515713,,,,-3.744677,-3.746483,5956496.000000,1673607042.703856
1673612162.515924,,,,-3.771097,-3.768143,5956497.000000,1673607042.704864
1673612162.515931,,,,-3.769054,-3.770139,5956498.000000,1673607042.705871
1673612162.515937,,,,-3.778838,-3.780260,5956499.000000,1673607042.706878
1673612162.515968,,,,-3.799441,-3.801247,5956500.000000,1673607042.707885
1673612162.515973,,,,-3.806605,-3.809806,5956501.000000,1673607042.708892
1673612162.517439,,,,-3.812904,-3.815503,5956502.000000,1673607042.709899
1673612162.517824,,,,-3.843700,-3.842933,5956503.000000,1673607042.710906
1673612162.517836,,,,-3.829324,-3.829423,5956504.000000,1673607042.711913
1673612162.532556,,,,-3.735565,-3.737179,5956505.000000,1673607042.712920
1673612162.532753,,,,-3.719170,-3.718884,5956506.000000,1673607042.713927
1673612162.532773,,,,-3.775064,-3.774730,5956507.000000,1673607042.714934
1673612162.532797,,,,-3.803696,-3.804661,5956508.000000,1673607042.715941
1673612162.533047,,,,-3.812447,-3.812835,5956509.000000,1673607042.716949
1673612162.533257,,,,-3.801316,-3.801391,5956510.000000,1673607042.717956
1673612162.533547,,,,-3.801773,-3.802281,5956511.000000,1673607042.718963
1673612162.539245,,,,-3.799393,-3.801007,5956512.000000,1673607042.719970
1673612162.539258,,,,-3.782372,-3.781342,5956513.000000,1673607042.720977
1673612162.539585,,,,-3.767900,-3.768865,5956514.000000,1673607042.721984
1673612162.539842,,,,-3.757995,-3.757325,5956515.000000,1673607042.722991
1673612162.540018,,,,-3.773574,-3.771821,5956516.000000,1673607042.723998
1673612162.544130,15.173591,4708896.000000,1673612162.483667,,,,
1673612162.544282,15.245947,4708897.000000,1673612162.484667,,,,
1673612162.544291,15.372579,4708898.000000,1673612162.485667,,,,
1673612162.544329,15.408765,4708899.000000,1673612162.486667,,,,
1673612162.544467,15.535389,4708900.000000,1673612162.487667,,,,
1673612162.544477,15.607753,4708901.000000,1673612162.488667,,,,
1673612162.544483,15.734385,4708902.000000,1673612162.489667,,,,
1673612162.544857,18.465988,4708922.000000,1673612162.509667,,,,
1673612162.544866,18.701162,4708923.000000,1673612162.510667,,,,
1673612162.544868,18.791616,4708924.000000,1673612162.511667,,,,
1673612162.544892,19.026783,4708925.000000,1673612162.512667,,,,
1673612162.545039,,,,-3.784801,-3.784178,5956517.000000,1673607042.725005
1673612162.545355,,,,-3.789825,-3.789924,5956518.000000,1673607042.726012
1673612162.545373,19.153414,4708926.000000,1673612162.513667,,,,
1673612162.545604,19.334322,4708927.000000,1673612162.514667,,,,
1673612162.545611,19.497131,4708928.000000,1673612162.515667,,,,
1673612162.545614,19.678030,4708929.000000,1673612162.516667,,,,
1673612162.545619,19.949383,4708930.000000,1673612162.517667,,,,
1673612162.545627,20.039837,4708931.000000,1673612162.518667,,,,
1673612162.545664,22.536274,4708947.000000,1673612162.534667,,,,
1673612162.545681,22.662897,4708948.000000,1673612162.535667,,,,
1673612162.545687,22.843805,4708949.000000,1673612162.536667,,,,
1673612162.545693,22.952339,4708950.000000,1673612162.537667,,,,
1673612162.545698,23.097069,4708951.000000,1673612162.538667,,,,
1673612162.545712,23.241789,4708952.000000,1673612162.539667,,,,
1673612162.545720,23.368412,4708953.000000,1673612162.540667,,,,
1673612162.545723,23.495043,4708954.000000,1673612162.541667,,,,
1673612162.545727,23.603586,4708955.000000,1673612162.542667,,,,
1673612162.545736,23.748306,4708956.000000,1673612162.543667,,,,
1673612162.547517,,,,-3.779488,-3.779010,5956519.000000,1673607042.727019
1673612162.547562,,,,-3.776410,-3.775981,5956520.000000,1673607042.728026
1673612162.547700,,,,-3.772107,-3.773865,5956521.000000,1673607042.729033
1673612162.547851,,,,-3.787974,-3.791487,5956522.000000,1673607042.730041
1673612162.552840,,,,-3.809610,-3.810960,5956523.000000,1673607042.731048
1673612162.552956,,,,-3.794946,-3.796343,5956524.000000,1673607042.732055
1673612162.553087,,,,-3.770448,-3.772735,5956525.000000,1673607042.733062
1673612162.553208,,,,-3.755712,-3.755835,5956526.000000,1673607042.734069
1673612162.554985,,,,-3.750447,-3.751652,5956527.000000,1673607042.735076
1673612162.555106,,,,-3.770617,-3.772903,5956528.000000,1673607042.736083
1673612162.555309,,,,-3.783406,-3.783914,5956529.000000,1673607042.737090
1673612162.555485,,,,-3.768501,-3.769009,5956530.000000,1673607042.738097
1673612162.560465,,,,-3.746552,-3.746916,5956531.000000,1673607042.739104
1673612162.560473,,,,-3.730349,-3.732996,5956532.000000,1673607042.740111
1673612162.560531,,,,-3.728618,-3.729366,5956533.000000,1673607042.741118
1673612162.564565,,,,-3.734075,-3.735328,5956534.000000,1673607042.742126
1673612162.564764,,,,-3.732104,-3.735713,5956535.000000,1673607042.743133
1673612162.565107,,,,-3.719410,-3.719798,5956536.000000,1673607042.744140
1673612162.565265,,,,-3.703519,-3.703186,5956537.000000,1673607042.745147
1673612162.568233,,,,-3.708520,-3.707994,5956538.000000,1673607042.746154
1673612162.568734,,,,-3.711645,-3.713235,5956539.000000,1673607042.747161
1673612162.568764,,,,-3.689528,-3.688882,5956540.000000,1673607042.748168
1673612162.568785,,,,-3.708063,-3.708595,5956541.000000,1673607042.749175
1673612162.568823,,,,-3.739484,-3.740112,5956542.000000,1673607042.750182
1673612162.568839,,,,-3.749389,-3.752397,5956543.000000,1673607042.751189
1673612162.572540,,,,-3.759125,-3.759849,5956544.000000,1673607042.752196
1673612162.572735,,,,-3.768645,-3.770596,5956545.000000,1673607042.753203
1673612162.573029,,,,-3.776651,-3.775981,5956546.000000,1673607042.754210
1673612162.573284,,,,-3.770184,-3.769249,5956547.000000,1673607042.755218
1673612162.573337,,,,-3.758356,-3.760931,5956548.000000,1673607042.756225
1673612162.573354,,,,-3.764606,-3.767014,5956549.000000,1673607042.757232
1673612162.573553,,,,-3.746913,-3.748430,5956550.000000,1673607042.758239
1673612162.573812,,,,-3.691379,-3.691983,5956551.000000,1673607042.759246
1673612162.576208,,,,-3.675729,-3.677847,5956552.000000,1673607042.760253
1673612162.576219,,,,-3.670367,-3.673448,5956553.000000,1673607042.761260
1673612162.576562,,,,-3.684792,-3.688353,5956554.000000,1673607042.762267
1673612162.576664,,,,-3.708231,-3.709220,5956555.000000,1673607042.763274
1673612162.576683,,,,-3.703640,-3.706047,5956556.000000,1673607042.764281
1673612162.576712,,,,-3.718905,-3.721120,5956557.000000,1673607042.765288
1673612162.576720,,,,-3.780834,-3.781774,5956558.000000,1673607042.766295
1673612162.579726,,,,-3.833435,-3.837380,5956559.000000,1673607042.767303
1673612162.579938,,,,-3.839781,-3.844544,5956560.000000,1673607042.768310
1673612162.580287,,,,-3.835117,-3.835385,5956561.000000,1673607042.769317
1673612162.580471,,,,-3.829756,-3.832957,5956562.000000,1673607042.770324
1673612162.593543,,,,-3.827400,-3.829303,5956563.000000,1673607042.771331
1673612162.594179,,,,-3.816390,-3.818845,5956564.000000,1673607042.772338
1673612162.594287,,,,-3.792253,-3.795045,5956565.000000,1673607042.773345
1673612162.598814,,,,-3.780161,-3.781029,5956566.000000,1673607042.774352
1673612162.599013,,,,-3.784175,-3.784082,5956567.000000,1673607042.775359
1673612162.599021,,,,-3.808456,-3.809757,5956568.000000,1673607042.776366
1673612162.605905,,,,-3.800283,-3.800382,5956569.000000,1673607042.777373
1673612162.606008,,,,-3.798071,-3.798338,5956570.000000,1673607042.778380
1673612162.606018,,,,-3.787060,-3.785669,5956571.000000,1673607042.779387
1673612162.606072,,,,-3.760015,-3.758455,5956572.000000,1673607042.780395
1673612162.606077,,,,-3.736527,-3.738910,5956573.000000,1673607042.781402
1673612162.606249,,,,-3.745110,-3.744872,5956574.000000,1673607042.782409
1673612162.606489,,,,-3.739124,-3.740809,5956575.000000,1673607042.783416
1673612162.607628,,,,-3.736719,-3.739199,5956576.000000,1673607042.784423
1673612162.607748,,,,-3.773958,-3.774683,5956577.000000,1673607042.785430
1673612162.607761,,,,-3.798816,-3.798987,5956578.000000,1673607042.786437
1673612162.607772,,,,-3.799297,-3.801824,5956579.000000,1673607042.787444
1673612162.608454,24.236744,4708960.000000,1673612162.550853,,,,
1673612162.609389,24.435732,4708961.000000,1673612162.551853,,,,
1673612162.609398,24.544275,4708962.000000,1673612162.552853,,,,
1673612162.609412,24.670906,4708963.000000,1673612162.553853,,,,
1673612162.609416,24.707085,4708964.000000,1673612162.554853,,,,
1673612162.609460,24.887983,4708965.000000,1673612162.555853,,,,
1673612162.609484,24.960348,4708966.000000,1673612162.556853,,,,
1673612162.609489,25.068892,4708967.000000,1673612162.557853,,,,
1673612162.609496,25.231701,4708968.000000,1673612162.558853,,,,
1673612162.609503,25.267878,4708969.000000,1673612162.559853,,,,
1673612162.609511,30.043671,4709008.000000,1673612162.598853,,,,
1673612162.609536,30.206480,4709009.000000,1673612162.599853,,,,
1673612162.609542,30.315022,4709010.000000,1673612162.600853,,,,
1673612162.609547,30.514019,4709011.000000,1673612162.601853,,,,
1673612162.609562,30.604464,4709012.000000,1673612162.602853,,,,
1673612162.609566,30.749184,4709013.000000,1673612162.603853,,,,
1673612162.609570,30.893906,4709014.000000,1673612162.604853,,,,
1673612162.609585,30.966270,4709015.000000,1673612162.605853,,,,
1673612162.609589,31.074812,4709016.000000,1673612162.606853,,,,
1673612162.609597,31.255711,4709017.000000,1673612162.607853,,,,
1673612162.612777,,,,-3.795499,-3.798891,5956580.000000,1673607042.788451
1673612162.612782,,,,-3.822208,-3.825576,5956581.000000,1673607042.789458
1673612162.612828,,,,-3.845623,-3.850747,5956582.000000,1673607042.790465
1673612162.612990,,,,-3.852859,-3.858560,5956583.000000,1673607042.791472
1673612162.615340,,,,-3.840983,-3.844785,5956584.000000,1673607042.792480
1673612162.615348,,,,-3.767732,-3.769658,5956585.000000,1673607042.793487
1673612162.615441,,,,-3.674166,-3.675443,5956586.000000,1673607042.794494
1673612162.615869,,,,-3.660174,-3.660947,5956587.000000,1673607042.795501
1673612162.615896,,,,-3.678325,-3.679458,5956588.000000,1673607042.796508
1673612162.615911,,,,-3.696091,-3.694844,5956589.000000,1673607042.797515
1673612162.620503,,,,-3.694889,-3.696166,5956590.000000,1673607042.798522
1673612162.620933,,,,-3.680801,-3.685107,5956591.000000,1673607042.799529
1673612162.621238,,,,-3.690465,-3.692271,5956592.000000,1673607042.800536
1673612162.621789,,,,-3.686162,-3.686357,5956593.000000,1673607042.801543
1673612162.622398,,,,-3.636783,-3.638397,5956594.000000,1673607042.802550
1673612162.622408,,,,-3.608824,-3.609572,5956595.000000,1673607042.803557
1673612162.622441,,,,-3.612478,-3.611664,5956596.000000,1673607042.804564
1673612162.622470,,,,-3.620003,-3.617145,5956597.000000,1673607042.805572
1673612162.623082,,,,-3.627119,-3.626160,5956598.000000,1673607042.806579
1673612162.623311,,,,-3.619137,-3.618587,5956599.000000,1673607042.807586
1673612162.623446,,,,-3.625989,-3.628396,5956600.000000,1673607042.808593
1673612162.623610,,,,-3.652193,-3.654744,5956601.000000,1673607042.809600
1673612162.624303,,,,-3.708472,-3.710759,5956602.000000,1673607042.810607
1673612162.624333,,,,-3.739292,-3.742035,5956603.000000,1673607042.811614
1673612162.624346,,,,-3.758789,-3.762085,5956604.000000,1673607042.812621
1673612162.628087,,,,-3.754870,-3.756868,5956605.000000,1673607042.813628
1673612162.628174,,,,-3.752947,-3.753142,5956606.000000,1673607042.814635
1673612162.628412,,,,-3.743018,-3.742757,5956607.000000,1673607042.815642
1673612162.628433,,,,-3.745470,-3.745401,5956608.000000,1673607042.816649
1673612162.630181,,,,-3.752153,-3.753455,5956609.000000,1673607042.817657
1673612162.630487,,,,-3.762707,-3.763432,5956610.000000,1673607042.818664
1673612162.630691,,,,-3.762275,-3.762566,5956611.000000,1673607042.819671
1673612162.635628,,,,-3.752803,-3.754945,5956612.000000,1673607042.820678
1673612162.635646,,,,-3.758765,-3.759152,5956613.000000,1673607042.821685
1673612162.635792,,,,-3.759582,-3.759176,5956614.000000,1673607042.822692
1673612162.635802,,,,-3.732969,-3.731722,5956615.000000,1673607042.823699
1673612162.637855,,,,-3.707991,-3.707754,5956616.000000,1673607042.824706
1673612162.638406,,,,-3.725036,-3.724582,5956617.000000,1673607042.825713
1673612162.638608,,,,-3.727680,-3.728741,5956618.000000,1673607042.826720
1673612162.638786,,,,-3.715660,-3.718956,5956619.000000,1673607042.827727
1673612162.638930,,,,-3.682604,-3.686117,5956620.000000,1673607042.828734
1673612162.639153,,,,-3.641471,-3.645224,5956621.000000,1673607042.829741
1673612162.652126,,,,-3.650895,-3.651162,5956622.000000,1673607042.830749
1673612162.652144,,,,-3.667290,-3.667966,5956623.000000,1673607042.831756
1673612162.652150,,,,-3.699048,-3.698618,5956624.000000,1673607042.832763
1673612162.652160,,,,-3.721886,-3.723741,5956625.000000,1673607042.833770
1673612162.652174,,,,-3.755759,-3.755546,5956626.000000,1673607042.834777
1673612162.652232,,,,-3.770857,-3.773456,5956627.000000,1673607042.835784
1673612162.652383,,,,-3.784752,-3.788722,5956628.000000,1673607042.836791
1673612162.652507,,,,-3.783406,-3.789275,5956629.000000,1673607042.837798
1673612162.659122,,,,-3.803432,-3.805502,5956630.000000,1673607042.838805
1673612162.659136,,,,-3.817712,-3.818917,5956631.000000,1673607042.839812
1673612162.659146,,,,-3.772660,-3.775908,5956632.000000,1673607042.840819
1673612162.659148,,,,-3.733979,-3.736001,5956633.000000,1673607042.841826
1673612162.662192,39.504807,4709069.000000,1673612162.651976,,,,
1673612162.662200,39.794250,4709070.000000,1673612162.652976,,,,
1673612162.662204,39.957058,4709071.000000,1673612162.653976,,,,
1673612162.662208,40.156055,4709072.000000,1673612162.654976,,,,
1673612162.662246,40.373131,4709073.000000,1673612162.655976,,,,
1673612162.662259,40.554031,4709074.000000,1673612162.656976,,,,
1673612162.662285,40.753025,4709075.000000,1673612162.657976,,,,
1673612162.662289,40.970104,4709076.000000,1673612162.658976,,,,
1673612162.662296,41.151012,4709077.000000,1673612162.659976,,,,
1673612162.662326,41.440453,4709078.000000,1673612162.660976,,,,
1673612162.665176,,,,-3.731431,-3.731457,5956634.000000,1673607042.842834
1673612162.665486,,,,-3.735061,-3.736819,5956635.000000,1673607042.843841
1673612162.665804,,,,-3.754125,-3.758191,5956636.000000,1673607042.844848
1673612162.667715,,,,-3.736311,-3.739439,5956637.000000,1673607042.845855
1673612162.668084,,,,-3.692004,-3.694844,5956638.000000,1673607042.846862
1673612162.668514,,,,-3.659117,-3.659480,5956639.000000,1673607042.847869
1673612162.668531,,,,-3.644067,-3.645176,5956640.000000,1673607042.848876
1673612162.673102,,,,-3.666377,-3.667245,5956641.000000,1673607042.849883
1673612162.673322,,,,-3.698711,-3.697536,5956642.000000,1673607042.850890
1673612162.673736,,,,-3.794345,-3.794179,5956643.000000,1673607042.851897
1673612162.674025,,,,-3.907503,-3.908372,5956644.000000,1673607042.852904
1673612162.674363,,,,-4.012032,-4.013309,5956645.000000,1673607042.853911
1673612162.674457,,,,-4.037515,-4.038671,5956646.000000,1673607042.854918
1673612162.675405,,,,-4.011479,-4.014511,5956647.000000,1673607042.855926
1673612162.675465,,,,-3.973855,-3.977657,5956648.000000,1673607042.856933
1673612162.675474,,,,-3.916999,-3.918180,5956649.000000,1673607042.857940
1673612162.675505,,,,-3.821318,-3.825095,5956650.000000,1673607042.858947
1673612162.681082,,,,-3.781074,-3.784226,5956651.000000,1673607042.859954
1673612162.681824,,,,-3.749677,-3.747949,5956652.000000,1673607042.860961
1673612162.681990,,,,-3.718425,-3.721961,5956653.000000,1673607042.861968
1673612162.682006,,,,-3.708039,-3.710518,5956654.000000,1673607042.862975
1673612162.682013,,,,-3.738042,-3.738958,5956655.000000,1673607042.863982
1673612162.682020,,,,-3.763332,-3.764609,5956656.000000,1673607042.864989
1673612162.682032,,,,-3.761505,-3.761051,5956657.000000,1673607042.865996
1673612162.682692,,,,-3.742105,-3.741530,5956658.000000,1673607042.867003
1673612162.682710,,,,-3.717487,-3.717610,5956659.000000,1673607042.868011
1673612162.682896,,,,-3.705996,-3.704195,5956660.000000,1673607042.869018
1673612162.683177,,,,-3.713016,-3.710542,5956661.000000,1673607042.870025
1673612162.687849,,,,-3.726815,-3.731265,5956662.000000,1673607042.871032
1673612162.688145,,,,-3.747466,-3.750450,5956663.000000,1673607042.872039
1673612162.688221,,,,-3.783574,-3.783025,5956664.000000,1673607042.873046
1673612162.688544,,,,-3.835863,-3.836154,5956665.000000,1673607042.874053
1673612162.689967,,,,-3.870914,-3.869691,5956666.000000,1673607042.875060
1673612162.690095,,,,-3.875866,-3.875316,5956667.000000,1673607042.876067
1673612162.690255,,,,-3.846585,-3.846756,5956668.000000,1673607042.877074
1673612162.695187,,,,-3.815693,-3.814566,5956669.000000,1673607042.878081
1673612162.695296,,,,-3.790065,-3.789203,5956670.000000,1673607042.879088
1673612162.695350,,,,-3.742249,-3.746074,5956671.000000,1673607042.880095
1673612162.697855,,,,-3.681691,-3.685708,5956672.000000,1673607042.881103
1673612162.698211,,,,-3.640822,-3.640921,5956673.000000,1673607042.882110
1673612162.698222,,,,-3.642889,-3.643373,5956674.000000,1673607042.883117
1673612162.698227,,,,-3.645606,-3.647171,5956675.000000,1673607042.884124
1673612162.698231,,,,-3.647096,-3.648446,5956676.000000,1673607042.885131
1673612162.698261,,,,-3.648923,-3.649143,5956677.000000,1673607042.886138
1673612162.698266,,,,-3.675632,-3.676285,5956678.000000,1673607042.887145
1673612162.711854,,,,-3.700442,-3.701190,5956679.000000,1673607042.888152
1673612162.711923,,,,-3.704553,-3.705950,5956680.000000,1673607042.889159
1673612162.711941,,,,-3.714818,-3.716624,5956681.000000,1673607042.890166
1673612162.712311,,,,-3.726743,-3.725375,5956682.000000,1673607042.891173
1673612162.712611,,,,-3.726983,-3.727154,5956683.000000,1673607042.892180
1673612162.712859,,,,-3.725757,-3.728549,5956684.000000,1673607042.893188
1673612162.713064,,,,-3.726406,-3.727707,5956685.000000,1673607042.894195
1673612162.713110,,,,-3.726646,-3.729630,5956686.000000,1673607042.895202
1673612162.719183,,,,-3.726021,-3.729390,5956687.000000,1673607042.896209
1673612162.719198,,,,-3.721213,-3.723380,5956688.000000,1673607042.897216
1673612162.719548,,,,-3.719338,-3.722418,5956689.000000,1673607042.898223
1673612162.719646,,,,-3.724218,-3.728452,5956690.000000,1673607042.899230
1673612162.725185,,,,-3.729531,-3.733477,5956691.000000,1673607042.900237
1673612162.725572,,,,-3.733618,-3.735881,5956692.000000,1673607042.901244
1673612162.725889,,,,-3.733714,-3.737828,5956693.000000,1673607042.902251
1673612162.726105,42.363045,4709083.000000,1673612162.668511,,,,
1673612162.727605,42.543949,4709084.000000,1673612162.669511,,,,
1673612162.727623,42.724850,4709085.000000,1673612162.670511,,,,
1673612162.727634,42.887657,4709086.000000,1673612162.671511,,,,
1673612162.727666,43.140923,4709087.000000,1673612162.672511,,,,
1673612162.727688,43.321819,4709088.000000,1673612162.673511,,,,
1673612162.727727,43.466541,4709089.000000,1673612162.674511,,,,
1673612162.727745,43.647449,4709090.000000,1673612162.675511,,,,
1673612162.727758,43.864525,4709091.000000,1673612162.676511,,,,
1673612162.727795,44.081612,4709092.000000,1673612162.677511,,,,
1673612162.727805,49.798092,4709130.000000,1673612162.715511,,,,
1673612162.727828,49.870449,4709131.000000,1673612162.716511,,,,
1673612162.727865,49.942810,4709132.000000,1673612162.717511,,,,
1673612162.727874,50.015167,4709133.000000,1673612162.718511,,,,
1673612162.727919,50.087532,4709134.000000,1673612162.719511,,,,
1673612162.728007,50.232254,4709135.000000,1673612162.720511,,,,
1673612162.728024,50.304611,4709136.000000,1673612162.721511,,,,
1673612162.728038,50.376972,4709137.000000,1673612162.722511,,,,
1673612162.728046,50.449329,4709138.000000,1673612162.723511,,,,
1673612162.728055,50.575962,4709139.000000,1673612162.724511,,,,
1673612162.733946,,,,-3.740855,-3.744704,5956694.000000,1673607042.903258
1673612162.734266,,,,-3.736094,-3.736001,5956695.000000,1673607042.904265
1673612162.734597,,,,-3.720252,-3.719774,5956696.000000,1673607042.905272
1673612162.734607,,,,-3.714121,-3.714052,5956697.000000,1673607042.906280
1673612162.734626,,,,-3.717295,-3.718884,5956698.000000,1673607042.907287
1673612162.734744,,,,-3.727945,-3.731866,5956699.000000,1673607042.908294
1673612162.734827,,,,-3.737897,-3.738982,5956700.000000,1673607042.909301
1673612162.735069,,,,-3.742682,-3.742853,5956701.000000,1673607042.910308
1673612162.735098,,,,-3.739797,-3.742636,5956702.000000,1673607042.911315
1673612162.735173,,,,-3.752851,-3.754897,5956703.000000,1673607042.912322
1673612162.735297,,,,-3.775088,-3.778144,5956704.000000,1673607042.913329
1673612162.735528,,,,-3.774030,-3.774057,5956705.000000,1673607042.914336
1673612162.735681,,,,-3.782276,-3.783866,5956706.000000,1673607042.915343
1673612162.735801,,,,-3.783526,-3.784683,5956707.000000,1673607042.916350
1673612162.735935,,,,-3.777997,-3.777375,5956708.000000,1673607042.917357
1673612162.736091,,,,-3.797013,-3.797305,5956709.000000,1673607042.918365
1673612162.736202,,,,-3.826222,-3.828774,5956710.000000,1673607042.919372
1673612162.736688,,,,-3.804225,-3.806873,5956711.000000,1673607042.920379
1673612162.736699,,,,-3.788575,-3.790237,5956712.000000,1673607042.921386
1673612162.736843,,,,-3.792758,-3.796343,5956713.000000,1673607042.922393
1673612162.736857,,,,-3.815500,-3.816753,5956714.000000,1673607042.923400
1673612162.736862,,,,-3.858773,-3.861998,5956715.000000,1673607042.924407
1673612162.736884,,,,-3.883223,-3.886303,5956716.000000,1673607042.925414
1673612162.736925,,,,-3.878414,-3.881951,5956717.000000,1673607042.926421
1673612162.748828,,,,-3.861875,-3.862094,5956718.000000,1673607042.927428
1673612162.748876,,,,-3.878727,-3.878249,5956719.000000,1673607042.928435
1673612162.749095,,,,-3.898224,-3.897554,5956720.000000,1673607042.929442
1673612162.749102,,,,-3.830237,-3.830432,5956721.000000,1673607042.930449
1673612162.749115,,,,-3.779175,-3.779899,5956722.000000,1673607042.931457
1673612162.749271,,,,-3.805379,-3.806272,5956723.000000,1673607042.932464
1673612162.749701,,,,-3.847787,-3.846011,5956724.000000,1673607042.933471
1673612162.749792,,,,-3.882718,-3.880389,5956725.000000,1673607042.934478
1673612162.749844,,,,-3.873775,-3.876422,5956726.000000,1673607042.935485
1673612162.749855,,,,-3.819756,-3.823220,5956727.000000,1673607042.936492
1673612162.749863,,,,-3.786051,-3.784827,5956728.000000,1673607042.937499
1673612162.749865,,,,-3.798215,-3.796800,5956729.000000,1673607042.938506
1673612162.749868,,,,-3.870601,-3.874883,5956730.000000,1673607042.939513
1673612162.758307,,,,-3.962003,-3.964531,5956731.000000,1673607042.940520
1673612162.758365,,,,-3.956113,-3.956141,5956732.000000,1673607042.941527
1673612162.758520,,,,-3.879520,-3.881663,5956733.000000,1673607042.942534
1673612162.758649,,,,-3.826751,-3.829110,5956734.000000,1673607042.943542
1673612162.758796,,,,-3.816895,-3.818653,5956735.000000,1673607042.944549
1673612162.758966,,,,-3.830045,-3.831202,5956736.000000,1673607042.945556
1673612162.759124,,,,-3.835262,-3.835553,5956737.000000,1673607042.946563
1673612162.759300,,,,-3.778622,-3.779034,5956738.000000,1673607042.947570
1673612162.759383,,,,-3.697582,-3.698402,5956739.000000,1673607042.948577
1673612162.759621,,,,-3.686835,-3.689026,5956740.000000,1673607042.949584
1673612162.772144,,,,-3.705395,-3.706263,5956741.000000,1673607042.950591
1673612162.772691,,,,-3.719819,-3.722827,5956742.000000,1673607042.951598
1673612162.773344,,,,-3.713857,-3.713836,5956743.000000,1673607042.952605
1673612162.773615,,,,-3.694697,-3.693353,5956744.000000,1673607042.953612
1673612162.773893,,,,-3.681402,-3.682631,5956745.000000,1673607042.954619
1673612162.774271,,,,-3.686691,-3.688449,5956746.000000,1673607042.955626
1673612162.774896,,,,-3.709506,-3.712225,5956747.000000,1673607042.956634
1673612162.775221,,,,-3.721574,-3.722611,5956748.000000,1673607042.957641
1673612162.775467,,,,-3.723257,-3.726986,5956749.000000,1673607042.958648
1673612162.778851,,,,-3.718977,-3.723356,5956750.000000,1673607042.959655
1673612162.779161,,,,-3.715516,-3.719053,5956751.000000,1673607042.960662
1673612162.779179,,,,-3.723281,-3.724967,5956752.000000,1673607042.961669
1673612162.779483,,,,-3.724819,-3.723885,5956753.000000,1673607042.962676
1673612162.781614,52.583961,4709191.000000,1673612162.770727,,,,
1673612162.781636,52.638237,4709192.000000,1673612162.771727,,,,
1673612162.781644,52.620148,4709193.000000,1673612162.772727,,,,
1673612162.781650,52.620148,4709194.000000,1673612162.773727,,,,
1673612162.781692,52.656326,4709195.000000,1673612162.774727,,,,
1673612162.781703,52.692505,4709196.000000,1673612162.775727,,,,
1673612162.781765,52.692505,4709197.000000,1673612162.776727,,,,
1673612162.781773,52.746780,4709198.000000,1673612162.777727,,,,
1673612162.781777,52.819138,4709199.000000,1673612162.778727,,,,
1673612162.781802,52.819138,4709200.000000,1673612162.779727,,,,
1673612162.785492,,,,-3.728450,-3.729462,5956754.000000,1673607042.963683
1673612162.785713,,,,-3.709986,-3.714196,5956755.000000,1673607042.964690
1673612162.786114,,,,-3.704193,-3.706119,5956756.000000,1673607042.965697
1673612162.786245,,,,-3.723113,-3.725808,5956757.000000,1673607042.966704
1673612162.786411,,,,-3.754678,-3.757854,5956758.000000,1673607042.967711
1673612162.786420,,,,-3.787637,-3.790429,5956759.000000,1673607042.968719
1673612162.786478,,,,-3.789008,-3.791799,5956760.000000,1673607042.969726
1673612162.787634,,,,-3.781771,-3.782279,5956761.000000,1673607042.970733
1673612162.787647,,,,-3.763236,-3.765307,5956762.000000,1673607042.971740
1673612162.788031,,,,-3.732753,-3.734631,5956763.000000,1673607042.972747
1673612162.788355,,,,-3.740374,-3.744848,5956764.000000,1673607042.973754
1673612162.792776,,,,-3.749461,-3.749127,5956765.000000,1673607042.974761
1673612162.793139,,,,-3.733089,-3.730977,5956766.000000,1673607042.975768
1673612162.793151,,,,-3.725012,-3.723572,5956767.000000,1673607042.976775
1673612162.793229,,,,-3.735325,-3.737564,5956768.000000,1673607042.977782
1673612162.795007,,,,-3.752153,-3.756868,5956769.000000,1673607042.978789
1673612162.795192,,,,-3.760784,-3.763311,5956770.000000,1673607042.979796
1673612162.795312,,,,-3.768020,-3.769562,5956771.000000,1673607042.980803
1673612162.800138,,,,-3.758668,-3.759561,5956772.000000,1673607042.981811
1673612162.800151,,,,-3.727464,-3.729270,5956773.000000,1673607042.982818
1673612162.800283,,,,-3.714458,-3.715206,5956774.000000,1673607042.983825
1673612162.803287,,,,-3.713016,-3.712946,5956775.000000,1673607042.984832
1673612162.803298,,,,-3.711357,-3.712802,5956776.000000,1673607042.985839
1673612162.803304,,,,-3.715347,-3.714629,5956777.000000,1673607042.986846
1673612162.803309,,,,-3.716453,-3.717682,5956778.000000,1673607042.987853
1673612162.803461,,,,-3.712006,-3.714701,5956779.000000,1673607042.988860
1673612162.803751,,,,-3.735133,-3.737251,5956780.000000,1673607042.989867
1673612162.803763,,,,-3.757490,-3.761556,5956781.000000,1673607042.990874
1673612162.803769,,,,-3.778694,-3.783722,5956782.000000,1673607042.991881
1673612162.807817,,,,-3.801557,-3.804613,5956783.000000,1673607042.992888
1673612162.807827,,,,-3.803528,-3.800911,5956784.000000,1673607042.993896
1673612162.807838,,,,-3.796797,-3.797449,5956785.000000,1673607042.994903
1673612162.810872,,,,-3.789753,-3.792593,5956786.000000,1673607042.995910
1673612162.811074,,,,-3.765376,-3.768889,5956787.000000,1673607042.996917
1673612162.811086,,,,-3.746095,-3.744199,5956788.000000,1673607042.997924
1673612162.811312,,,,-3.745254,-3.744536,5956789.000000,1673607042.998931
1673612162.811532,,,,-3.756889,-3.757926,5956790.000000,1673607042.999938
1673612162.811695,,,,-3.776026,-3.779322,5956791.000000,1673607043.000945
1673612162.811971,,,,-3.779752,-3.780644,5956792.000000,1673607043.001952
1673612162.812351,,,,-3.764126,-3.764898,5956793.000000,1673607043.002959
1673612162.815402,,,,-3.755904,-3.755955,5956794.000000,1673607043.003966
1673612162.815423,,,,-3.743403,-3.746555,5956795.000000,1673607043.004973
1673612162.815646,,,,-3.719507,-3.722995,5956796.000000,1673607043.005980
1673612162.815908,,,,-3.713977,-3.716192,5956797.000000,1673607043.006988
1673612162.817551,,,,-3.711405,-3.715302,5956798.000000,1673607043.007995
1673612162.817882,,,,-3.708039,-3.707153,5956799.000000,1673607043.009002
1673612162.817897,,,,-3.709289,-3.710206,5956800.000000,1673607043.010009
1673612162.831865,,,,-3.720420,-3.721865,5956801.000000,1673607043.011016
1673612162.832056,,,,-3.755038,-3.752036,5956802.000000,1673607043.012023
1673612162.832379,,,,-3.792830,-3.789587,5956803.000000,1673607043.013030
1673612162.832854,,,,-3.816630,-3.819422,5956804.000000,1673607043.014037
1673612162.833180,,,,-3.834204,-3.835553,5956805.000000,1673607043.015044
1673612162.833267,,,,-3.858749,-3.857815,5956806.000000,1673607043.016051
1673612162.839116,,,,-3.882694,-3.881807,5956807.000000,1673607043.017058
1673612162.839281,,,,-3.798287,-3.799348,5956808.000000,1673607043.018065
1673612162.839510,,,,-3.762419,-3.762590,5956809.000000,1673607043.019073
1673612162.839627,,,,-3.734219,-3.736891,5956810.000000,1673607043.020080
1673612162.839728,,,,-3.738018,-3.743574,5956811.000000,1673607043.021087
1673612162.839825,,,,-3.795787,-3.797906,5956812.000000,1673607043.022094
1673612162.839865,,,,-3.859494,-3.863849,5956813.000000,1673607043.023101
1673612162.839869,,,,-3.875193,-3.876446,5956814.000000,1673607043.024108
1673612162.844585,52.945770,4709204.000000,1673612162.786977,,,,
1673612162.845135,,,,-3.881900,-3.882288,5956815.000000,1673607043.025115
1673612162.845390,,,,-3.904090,-3.904021,5956816.000000,1673607043.026122
1673612162.845396,,,,-3.942867,-3.942389,5956817.000000,1673607043.027129
1673612162.845514,53.090488,4709205.000000,1673612162.787977,,,,
1673612162.845523,53.126667,4709206.000000,1673612162.788977,,,,
1673612162.845530,53.144756,4709207.000000,1673612162.789977,,,,
1673612162.845534,53.217121,4709208.000000,1673612162.790977,,,,
1673612162.845575,53.307575,4709209.000000,1673612162.791977,,,,
1673612162.845579,53.325665,4709210.000000,1673612162.792977,,,,
1673612162.845590,53.398018,4709211.000000,1673612162.793977,,,,
1673612162.845606,53.452293,4709212.000000,1673612162.794977,,,,
1673612162.845610,53.488472,4709213.000000,1673612162.795977,,,,
1673612162.845612,55.550751,4709252.000000,1673612162.834977,,,,
1673612162.845625,55.623104,4709253.000000,1673612162.835977,,,,
1673612162.845648,55.623104,4709254.000000,1673612162.836977,,,,
1673612162.845652,55.641193,4709255.000000,1673612162.837977,,,,
1673612162.845659,55.641193,4709256.000000,1673612162.838977,,,,
1673612162.845691,55.695469,4709257.000000,1673612162.839977,,,,
1673612162.845696,55.695469,4709258.000000,1673612162.840977,,,,
1673612162.845709,55.677380,4709259.000000,1673612162.841977,,,,
1673612162.845721,55.677380,4709260.000000,1673612162.842977,,,,
1673612162.845737,55.804005,4709261.000000,1673612162.843977,,,,
1673612162.847694,,,,-3.941978,-3.943110,5956818.000000,1673607043.028136
1673612162.847705,,,,-3.891853,-3.894789,5956819.000000,1673607043.029143
1673612162.847712,,,,-3.839805,-3.839303,5956820.000000,1673607043.030150
1673612162.847717,,,,-3.761217,-3.761316,5956821.000000,1673607043.031157
1673612162.852715,,,,-3.719987,-3.720639,5956822.000000,1673607043.032165
1673612162.853018,,,,-3.756361,-3.757349,5956823.000000,1673607043.033172
1673612162.853381,,,,-3.783647,-3.784034,5956824.000000,1673607043.034179
1673612162.853464,,,,-3.751961,-3.751075,5956825.000000,1673607043.035186
1673612162.855171,,,,-3.756986,-3.756412,5956826.000000,1673607043.036193
1673612162.855374,,,,-3.753548,-3.755714,5956827.000000,1673607043.037200
1673612162.855475,,,,-3.736239,-3.737227,5956828.000000,1673607043.038207
1673612162.855660,,,,-3.732200,-3.731794,5956829.000000,1673607043.039214
1673612162.860136,,,,-3.736768,-3.739199,5956830.000000,1673607043.040221
1673612162.860682,,,,-3.754678,-3.755955,5956831.000000,1673607043.041228
1673612162.863289,,,,-3.752466,-3.752084,5956832.000000,1673607043.042235
1673612162.863617,,,,-3.752875,-3.753767,5956833.000000,1673607043.043242
1673612162.864197,,,,-3.739580,-3.740569,5956834.000000,1673607043.044250
1673612162.864215,,,,-3.724218,-3.725087,5956835.000000,1673607043.045257
1673612162.864408,,,,-3.729531,-3.732539,5956836.000000,1673607043.046264
1673612162.864686,,,,-3.707486,-3.709100,5956837.000000,1673607043.047271
1673612162.864705,,,,-3.680681,-3.680732,5956838.000000,1673607043.048278
1673612162.865074,,,,-3.668853,-3.671212,5956839.000000,1673607043.049285
1673612162.867720,,,,-3.655583,-3.658038,5956840.000000,1673607043.050292
1673612162.868096,,,,-3.687196,-3.690348,5956841.000000,1673607043.051299
1673612162.868109,,,,-3.703279,-3.705999,5956842.000000,1673607043.052306
1673612162.870213,,,,-3.702919,-3.702489,5956843.000000,1673607043.053313
1673612162.870459,,,,-3.705347,-3.706143,5956844.000000,1673607043.054320
1673612162.870652,,,,-3.714362,-3.716552,5956845.000000,1673607043.055327
1673612162.870924,,,,-3.725348,-3.727539,5956846.000000,1673607043.056334
1673612162.872736,,,,-3.726094,-3.727755,5956847.000000,1673607043.057342
1673612162.872888,,,,-3.700947,-3.702970,5956848.000000,1673607043.058349
1673612162.873203,,,,-3.679623,-3.680035,5956849.000000,1673607043.059356
1673612162.875511,,,,-3.680513,-3.680852,5956850.000000,1673607043.060363
1673612162.876131,,,,-3.674022,-3.676453,5956851.000000,1673607043.061370
1673612162.876235,,,,-3.666521,-3.668039,5956852.000000,1673607043.062377
1673612162.876254,,,,-3.663131,-3.661980,5956853.000000,1673607043.063384
1673612162.876398,,,,-3.684984,-3.685228,5956854.000000,1673607043.064391
1673612162.876815,,,,-3.712559,-3.713379,5956855.000000,1673607043.065398
1673612162.877076,,,,-3.717030,-3.715519,5956856.000000,1673607043.066405
1673612162.895186,,,,-3.709481,-3.711047,5956857.000000,1673607043.067412
1673612162.895240,,,,-3.723906,-3.724125,5956858.000000,1673607043.068419
1673612162.895435,,,,-3.775352,-3.775163,5956859.000000,1673607043.069427
1673612162.895544,,,,-3.810500,-3.811224,5956860.000000,1673607043.070434
1673612162.895551,,,,-3.818073,-3.821057,5956861.000000,1673607043.071441
1673612162.895626,,,,-3.794200,-3.795910,5956862.000000,1673607043.072448
1673612162.895641,,,,-3.768309,-3.770932,5956863.000000,1673607043.073455
1673612162.895645,,,,-3.755447,-3.757638,5956864.000000,1673607043.074462
1673612162.898781,55.713558,4709313.000000,1673612162.888132,,,,
1673612162.898799,55.731647,4709314.000000,1673612162.889132,,,,
1673612162.898853,55.731647,4709315.000000,1673612162.890132,,,,
1673612162.898863,55.767826,4709316.000000,1673612162.891132,,,,
1673612162.898874,55.785915,4709317.000000,1673612162.892132,,,,
1673612162.898881,55.785915,4709318.000000,1673612162.893132,,,,
1673612162.898886,55.749737,4709319.000000,1673612162.894132,,,,
1673612162.898890,55.767826,4709320.000000,1673612162.895132,,,,
1673612162.898896,55.804005,4709321.000000,1673612162.896132,,,,
1673612162.898980,55.840191,4709322.000000,1673612162.897132,,,,
1673612162.905641,,,,-3.757539,-3.758431,5956865.000000,1673607043.075469
1673612162.905864,,,,-3.751120,-3.751868,5956866.000000,1673607043.076476
1673612162.906012,,,,-3.727272,-3.726048,5956867.000000,1673607043.077483
1673612162.906201,,,,-3.716405,-3.718091,5956868.000000,1673607043.078490
1673612162.906342,,,,-3.709121,-3.709965,5956869.000000,1673607043.079497
1673612162.906461,,,,-3.702558,-3.703522,5956870.000000,1673607043.080504
1673612162.906604,,,,-3.705635,-3.707754,5956871.000000,1673607043.081511
1673612162.909520,,,,-3.722536,-3.725015,5956872.000000,1673607043.082519
1673612162.909708,,,,-3.734556,-3.736987,5956873.000000,1673607043.083526
1673612162.910046,,,,-3.760039,-3.760907,5956874.000000,1673607043.084533
1673612162.910075,,,,-3.781411,-3.784876,5956875.000000,1673607043.085540
1673612162.912562,,,,-3.780233,-3.781654,5956876.000000,1673607043.086547
1673612162.912705,,,,-3.776747,-3.778553,5956877.000000,1673607043.087554
1673612162.915381,,,,-3.772347,-3.773793,5956878.000000,1673607043.088561
1673612162.915571,,,,-3.768669,-3.771028,5956879.000000,1673607043.089568
1673612162.915878,,,,-3.753067,-3.757782,5956880.000000,1673607043.090575
1673612162.916190,,,,-3.729579,-3.732587,5956881.000000,1673607043.091582
1673612162.916418,,,,-3.725709,-3.727250,5956882.000000,1673607043.092589
1673612162.916674,,,,-3.727440,-3.728068,5956883.000000,1673607043.093596
1673612162.916919,,,,-3.714698,-3.715350,5956884.000000,1673607043.094604
1673612162.917069,,,,-3.703423,-3.706624,5956885.000000,1673607043.095611
1673612162.920343,,,,-3.709962,-3.712153,5956886.000000,1673607043.096618
1673612162.920877,,,,-3.730349,-3.731361,5956887.000000,1673607043.097625
1673612162.920898,,,,-3.738426,-3.738886,5956888.000000,1673607043.098632
1673612162.923187,,,,-3.733354,-3.733381,5956889.000000,1673607043.099639
1673612162.923213,,,,-3.741215,-3.743021,5956890.000000,1673607043.100646
1673612162.923244,,,,-3.771097,-3.771148,5956891.000000,1673607043.101653
1673612162.923254,,,,-3.775497,-3.779106,5956892.000000,1673607043.102660
1673612162.927902,,,,-3.787541,-3.787953,5956893.000000,1673607043.103667
1673612162.927977,,,,-3.803552,-3.805911,5956894.000000,1673607043.104674
1673612162.928321,,,,-3.795859,-3.796295,5956895.000000,1673607043.105681
1673612162.928584,,,,-3.793311,-3.794492,5956896.000000,1673607043.106688
1673612162.930360,,,,-3.807543,-3.808459,5956897.000000,1673607043.107696
1673612162.930373,,,,-3.797710,-3.797256,5956898.000000,1673607043.108703
1673612162.930632,,,,-3.764967,-3.765499,5956899.000000,1673607043.109710
1673612162.935534,,,,-3.763020,-3.761604,5956900.000000,1673607043.110717
1673612162.935654,,,,-3.765015,-3.765763,5956901.000000,1673607043.111724
1673612162.935782,,,,-3.721574,-3.724486,5956902.000000,1673607043.112731
1673612162.935917,,,,-3.703399,-3.704292,5956903.000000,1673607043.113738
1673612162.936177,,,,-3.748716,-3.749825,5956904.000000,1673607043.114745
1673612162.936256,,,,-3.794777,-3.797281,5956905.000000,1673607043.115752
1673612162.936264,,,,-3.805884,-3.810623,5956906.000000,1673607043.116759
1673612162.938154,,,,-3.844181,-3.846780,5956907.000000,1673607043.117766
1673612162.938327,,,,-3.919019,-3.919503,5956908.000000,1673607043.118773
1673612162.938550,,,,-3.947435,-3.947269,5956909.000000,1673607043.119781
1673612162.938559,,,,-3.930462,-3.931931,5956910.000000,1673607043.120788
1673612162.938706,,,,-3.885290,-3.886880,5956911.000000,1673607043.121795
1673612162.938719,,,,-3.827448,-3.828341,5956912.000000,1673607043.122802
1673612162.938881,,,,-3.766193,-3.766124,5956913.000000,1673607043.123809
1673612162.939066,,,,-3.737224,-3.736386,5956914.000000,1673607043.124816
1673612162.939227,,,,-3.687725,-3.688112,5956915.000000,1673607043.125823
1673612162.939448,,,,-3.624330,-3.624333,5956916.000000,1673607043.126830
1673612162.939513,,,,-3.649693,-3.652244,5956917.000000,1673607043.127837
1673612162.951847,,,,-3.688879,-3.691863,5956918.000000,1673607043.128844
1673612162.951942,,,,-3.694360,-3.697152,5956919.000000,1673607043.129851
1673612162.952206,,,,-3.703351,-3.703907,5956920.000000,1673607043.130858
1673612162.952415,,,,-3.696932,-3.697921,5956921.000000,1673607043.131866
1673612162.952638,,,,-3.736719,-3.737972,5956922.000000,1673607043.132873
1673612162.952780,,,,-3.770256,-3.773625,5956923.000000,1673607043.133880
1673612162.952983,,,,-3.765280,-3.768360,5956924.000000,1673607043.134887
1673612162.959362,,,,-3.736936,-3.741410,5956925.000000,1673607043.135894
1673612162.959379,,,,-3.738739,-3.740617,5956926.000000,1673607043.136901
1673612162.959390,,,,-3.753043,-3.754080,5956927.000000,1673607043.137908
1673612162.959457,,,,-3.757659,-3.758479,5956928.000000,1673607043.138915
1673612162.963242,54.790958,4709374.000000,1673612162.952150,,,,
1673612162.963272,54.772869,4709375.000000,1673612162.953150,,,,
1673612162.963283,54.700516,4709376.000000,1673612162.954150,,,,
1673612162.963301,54.646240,4709377.000000,1673612162.955150,,,,
1673612162.963311,54.628151,4709378.000000,1673612162.956150,,,,
1673612162.963342,54.555794,4709379.000000,1673612162.957150,,,,
1673612162.963358,54.555794,4709380.000000,1673612162.958150,,,,
1673612162.963370,54.465340,4709381.000000,1673612162.959150,,,,
1673612162.963377,54.411072,4709382.000000,1673612162.960150,,,,
1673612162.963397,54.320618,4709383.000000,1673612162.961150,,,,
1673612162.965515,,,,-3.752370,-3.753431,5956929.000000,1673607043.139922
1673612162.965653,,,,-3.744797,-3.746531,5956930.000000,1673607043.140929
1673612162.965662,,,,-3.714915,-3.715206,5956931.000000,1673607043.141936
1673612162.965783,,,,-3.689576,-3.689988,5956932.000000,1673607043.142943
1673612162.967504,,,,-3.704746,-3.706984,5956933.000000,1673607043.143950
1673612162.967683,,,,-3.740734,-3.742276,5956934.000000,1673607043.144958
1673612162.972681,,,,-3.777204,-3.777904,5956935.000000,1673607043.145965
1673612162.973191,,,,-3.781026,-3.781678,5956936.000000,1673607043.146972
1673612162.973247,,,,-3.794705,-3.794852,5956937.000000,1673607043.147979
1673612162.973441,,,,-3.841392,-3.841683,5956938.000000,1673607043.148986
1673612162.975018,,,,-3.852595,-3.850290,5956939.000000,1673607043.149993
1673612162.975343,,,,-3.857211,-3.857045,5956940.000000,1673607043.151000
1673612162.975617,,,,-3.880482,-3.881807,5956941.000000,1673607043.152007
1673612162.975708,,,,-3.874712,-3.875532,5956942.000000,1673607043.153014
1673612162.980660,,,,-3.865913,-3.868417,5956943.000000,1673607043.154021
1673612162.980678,,,,-3.843147,-3.842188,5956944.000000,1673607043.155028
1673612162.980868,,,,-3.832112,-3.831779,5956945.000000,1673607043.156035
1673612162.982833,,,,-3.839613,-3.839568,5956946.000000,1673607043.157043
1673612162.982982,,,,-3.869736,-3.872071,5956947.000000,1673607043.158050
1673612162.983130,,,,-3.869423,-3.873104,5956948.000000,1673607043.159057
1673612162.983245,,,,-3.843700,-3.844015,5956949.000000,1673607043.160064
1673612162.983398,,,,-3.829011,-3.828990,5956950.000000,1673607043.161071
1673612162.983549,,,,-3.831127,-3.831851,5956951.000000,1673607043.162078
1673612162.983772,,,,-3.833290,-3.833846,5956952.000000,1673607043.163085
1673612162.987993,,,,-3.793551,-3.798050,5956953.000000,1673607043.164092
1673612162.988003,,,,-3.730084,-3.731433,5956954.000000,1673607043.165099
1673612162.988012,,,,-3.676811,-3.677943,5956955.000000,1673607043.166106
1673612162.988022,,,,-3.669238,-3.669144,5956956.000000,1673607043.167113
1673612162.989947,,,,-3.695874,-3.695853,5956957.000000,1673607043.168120
1673612162.990122,,,,-3.700514,-3.701767,5956958.000000,1673607043.169127
1673612162.990230,,,,-3.715203,-3.715134,5956959.000000,1673607043.170135
1673612162.995539,,,,-3.696956,-3.698210,5956960.000000,1673607043.171142
1673612162.995579,,,,-3.691091,-3.694411,5956961.000000,1673607043.172149
1673612162.995674,,,,-3.722295,-3.724269,5956962.000000,1673607043.173156
1673612162.995829,,,,-3.722632,-3.726361,5956963.000000,1673607043.174163
1673612162.995943,,,,-3.708833,-3.711504,5956964.000000,1673607043.175170
1673612162.996087,,,,-3.715444,-3.716048,5956965.000000,1673607043.176177
1673612162.996097,,,,-3.729964,-3.731433,5956966.000000,1673607043.177184
1673612162.997839,,,,-3.727945,-3.729943,5956967.000000,1673607043.178191
1673612162.998008,,,,-3.699793,-3.701311,5956968.000000,1673607043.179198
1673612162.998118,,,,-3.679551,-3.679121,5956969.000000,1673607043.180205
1673612162.998201,,,,-3.700010,-3.700109,5956970.000000,1673607043.181212
1673612162.998311,,,,-3.707366,-3.709605,5956971.000000,1673607043.182220
1673612162.998443,,,,-3.698735,-3.700109,5956972.000000,1673607043.183227
1673612162.998515,,,,-3.690898,-3.693762,5956973.000000,1673607043.184234
1673612163.002964,,,,-3.686859,-3.690132,5956974.000000,1673607043.185241
1673612163.003356,,,,-3.693567,-3.694267,5956975.000000,1673607043.186248
1673612163.003470,,,,-3.700875,-3.701864,5956976.000000,1673607043.187255
1673612163.003615,,,,-3.700250,-3.700926,5956977.000000,1673607043.188262
1673612163.003847,,,,-3.694673,-3.695637,5956978.000000,1673607043.189269
1673612163.004019,,,,-3.704481,-3.706816,5956979.000000,1673607043.190276
1673612163.004229,,,,-3.730108,-3.728212,5956980.000000,1673607043.191283
1673612163.004245,,,,-3.748620,-3.747084,5956981.000000,1673607043.192290
1673612163.005168,,,,-3.768862,-3.768600,5956982.000000,1673607043.193297
1673612163.005546,,,,-3.795715,-3.795526,5956983.000000,1673607043.194304
1673612163.005607,,,,-3.830934,-3.832091,5956984.000000,1673607043.195312
1673612163.005611,,,,-3.877549,-3.878249,5956985.000000,1673607043.196319
1673612163.018981,,,,-3.920630,-3.919983,5956986.000000,1673607043.197326
1673612163.019399,,,,-3.939790,-3.939288,5956987.000000,1673607043.198333
1673612163.019417,,,,-3.920990,-3.919310,5956988.000000,1673607043.199340
1673612163.019645,,,,-3.872837,-3.874955,5956989.000000,1673607043.200347
1673612163.026755,,,,-3.823193,-3.824591,5956990.000000,1673607043.201354
1673612163.026779,,,,-3.754990,-3.754945,5956991.000000,1673607043.202361
1673612163.032914,,,,-3.694985,-3.696767,5956992.000000,1673607043.203368
1673612163.032930,,,,-3.686090,-3.687391,5956993.000000,1673607043.204375
1673612163.033108,,,,-3.694697,-3.694675,5956994.000000,1673607043.205382
1673612163.033234,,,,-3.689937,-3.691502,5956995.000000,1673607043.206389
1673612163.035010,,,,-3.702438,-3.704316,5956996.000000,1673607043.207397
1673612163.035194,,,,-3.721382,-3.722370,5956997.000000,1673607043.208404
1673612163.035379,,,,-3.741167,-3.742492,5956998.000000,1673607043.209411
1673612163.037250,53.398018,4709413.000000,1673612163.004916,,,,
1673612163.037830,53.398018,4709414.000000,1673612163.005916,,,,
1673612163.037843,53.379932,4709415.000000,1673612163.006916,,,,
1673612163.037848,53.379932,4709416.000000,1673612163.007916,,,,
1673612163.037940,53.361843,4709417.000000,1673612163.008916,,,,
1673612163.037946,53.398018,4709418.000000,1673612163.009916,,,,
1673612163.037950,53.325665,4709419.000000,1673612163.010916,,,,
1673612163.037964,53.271389,4709420.000000,1673612163.011916,,,,
1673612163.038004,53.289478,4709421.000000,1673612163.012916,,,,
1673612163.038016,53.235210,4709422.000000,1673612163.013916,,,,
1673612163.038024,53.072399,4709435.000000,1673612163.026916,,,,
1673612163.038031,53.072399,4709436.000000,1673612163.027916,,,,
1673612163.038036,53.054310,4709437.000000,1673612163.028916,,,,
1673612163.038049,53.018131,4709438.000000,1673612163.029916,,,,
1673612163.038068,53.018131,4709439.000000,1673612163.030916,,,,
1673612163.038071,53.000034,4709440.000000,1673612163.031916,,,,
1673612163.038074,53.036221,4709441.000000,1673612163.032916,,,,
1673612163.038103,52.927681,4709442.000000,1673612163.033916,,,,
1673612163.038111,52.927681,4709443.000000,1673612163.034916,,,,
1673612163.038131,52.927681,4709444.000000,1673612163.035916,,,,
1673612163.040177,,,,-3.752322,-3.752974,5956999.000000,1673607043.210418
1673612163.040364,,,,-3.788238,-3.790573,5957000.000000,1673607043.211425
1673612163.040419,,,,-3.829107,-3.827139,5957001.000000,1673607043.212432
1673612163.040564,,,,-3.825886,-3.822475,5957002.000000,1673607043.213439
1673612163.043026,,,,-3.803792,-3.804637,5957003.000000,1673607043.214446
1673612163.043034,,,,-3.802759,-3.804637,5957004.000000,1673607043.215453
1673612163.043056,,,,-3.835093,-3.838366,5957005.000000,1673607043.216460
1673612163.043196,,,,-3.889834,-3.892144,5957006.000000,1673607043.217467
1673612163.043324,,,,-3.946834,-3.947870,5957007.000000,1673607043.218474
1673612163.043440,,,,-3.935390,-3.936692,5957008.000000,1673607043.219481
1673612163.043571,,,,-3.885939,-3.886303,5957009.000000,1673607043.220489
1673612163.043649,,,,-3.851177,-3.853223,5957010.000000,1673607043.221496
1673612163.047951,,,,-3.829396,-3.830865,5957011.000000,1673607043.222503
1673612163.047974,,,,-3.805692,-3.807522,5957012.000000,1673607043.223510
1673612163.048049,,,,-3.762106,-3.766076,5957013.000000,1673607043.224517
1673612163.050808,,,,-3.710684,-3.714004,5957014.000000,1673607043.225524
1673612163.050817,,,,-3.650702,-3.651619,5957015.000000,1673607043.226531
1673612163.051086,,,,-3.622984,-3.625247,5957016.000000,1673607043.227538
1673612163.051157,,,,-3.642384,-3.645152,5957017.000000,1673607043.228545
1673612163.051299,,,,-3.678012,-3.678761,5957018.000000,1673607043.229552
1673612163.051307,,,,-3.728594,-3.729582,5957019.000000,1673607043.230559
1673612163.051312,,,,-3.770015,-3.770043,5957020.000000,1673607043.231566
1673612163.051449,,,,-3.778189,-3.777712,5957021.000000,1673607043.232574
1673612163.051571,,,,-3.772828,-3.775356,5957022.000000,1673607043.233581
1673612163.051577,,,,-3.756409,-3.759873,5957023.000000,1673607043.234588
1673612163.051689,,,,-3.786123,-3.789924,5957024.000000,1673607043.235595
1673612163.055160,,,,-3.840623,-3.842333,5957025.000000,1673607043.236602
1673612163.055304,,,,-3.882020,-3.882769,5957026.000000,1673607043.237609
1673612163.055443,,,,-3.858172,-3.857863,5957027.000000,1673607043.238616
1673612163.057854,,,,-3.895748,-3.896688,5957028.000000,1673607043.239623
1673612163.057884,,,,-4.036361,-4.037061,5957029.000000,1673607043.240630
1673612163.058438,,,,-4.118940,-4.120963,5957030.000000,1673607043.241637
1673612163.058559,,,,-4.140360,-4.143344,5957031.000000,1673607043.242644
1673612163.079608,,,,-4.073816,-4.075189,5957032.000000,1673607043.243651
1673612163.079828,,,,-3.995492,-3.995471,5957033.000000,1673607043.244658
1673612163.079841,,,,-3.967941,-3.969387,5957034.000000,1673607043.245666
1673612163.079847,,,,-3.913826,-3.916738,5957035.000000,1673607043.246673
1673612163.087780,,,,-3.765015,-3.769346,5957036.000000,1673607043.247680
1673612163.087981,,,,-3.561872,-3.563246,5957037.000000,1673607043.248687
1673612163.087998,,,,-3.458691,-3.458045,5957038.000000,1673607043.249694
1673612163.090845,52.366886,4709496.000000,1673612163.080666,,,,
1673612163.090859,52.421154,4709497.000000,1673612163.081666,,,,
1673612163.090863,52.457340,4709498.000000,1673612163.082666,,,,
1673612163.090867,52.511608,4709499.000000,1673612163.083666,,,,
1673612163.090873,52.529694,4709500.000000,1673612163.084666,,,,
1673612163.090885,52.547783,4709501.000000,1673612163.085666,,,,
1673612163.090889,52.656326,4709502.000000,1673612163.086666,,,,
1673612163.090892,52.692505,4709503.000000,1673612163.087666,,,,
1673612163.090895,52.746780,4709504.000000,1673612163.088666,,,,
1673612163.090911,52.837227,4709505.000000,1673612163.089666,,,,
1673612163.093057,,,,-3.501627,-3.502039,5957039.000000,1673607043.250701
1673612163.093261,,,,-3.540741,-3.542595,5957040.000000,1673607043.251708
1673612163.093443,,,,-3.576658,-3.576156,5957041.000000,1673607043.252715
1673612163.093448,,,,-3.607886,-3.607528,5957042.000000,1673607043.253722
1673612163.093463,,,,-3.648971,-3.649527,5957043.000000,1673607043.254729
1673612163.093655,,,,-3.704313,-3.705302,5957044.000000,1673607043.255736
1673612163.093665,,,,-3.749990,-3.750978,5957045.000000,1673607043.256743
1673612163.094956,,,,-3.774391,-3.776485,5957046.000000,1673607043.257751
1673612163.095087,,,,-3.810163,-3.815167,5957047.000000,1673607043.258758
1673612163.095130,,,,-3.795955,-3.798699,5957048.000000,1673607043.259765
1673612163.100237,,,,-3.737008,-3.737612,5957049.000000,1673607043.260772
1673612163.100400,,,,-3.718328,-3.719750,5957050.000000,1673607043.261779
1673612163.100526,,,,-3.725757,-3.727347,5957051.000000,1673607043.262786
1673612163.100637,,,,-3.698663,-3.701166,5957052.000000,1673607043.263793
1673612163.102536,,,,-3.654717,-3.657749,5957053.000000,1673607043.264800
1673612163.102780,,,,-3.638370,-3.637723,5957054.000000,1673607043.265807
1673612163.102813,,,,-3.656761,-3.656595,5957055.000000,1673607043.266814
1673612163.102817,,,,-3.678758,-3.680492,5957056.000000,1673607043.267821
1673612163.108578,,,,-3.689408,-3.690228,5957057.000000,1673607043.268828
1673612163.108693,,,,-3.695297,-3.696767,5957058.000000,1673607043.269835
1673612163.108709,,,,-3.705707,-3.708066,5957059.000000,1673607043.270843
1673612163.108724,,,,-3.717872,-3.718668,5957060.000000,1673607043.271850
1673612163.110979,,,,-3.718545,-3.720495,5957061.000000,1673607043.272857
1673612163.110994,,,,-3.715780,-3.718379,5957062.000000,1673607043.273864
1673612163.115597,,,,-3.723305,-3.723885,5957063.000000,1673607043.274871
1673612163.116006,,,,-3.730084,-3.730977,5957064.000000,1673607043.275878
1673612163.116035,,,,-3.753283,-3.752805,5957065.000000,1673607043.276885
1673612163.116516,,,,-3.792494,-3.791679,5957066.000000,1673607043.277892
1673612163.116531,,,,-3.813697,-3.814037,5957067.000000,1673607043.278899
1673612163.117171,,,,-3.804009,-3.806320,5957068.000000,1673607043.279906
1673612163.117186,,,,-3.801653,-3.804156,5957069.000000,1673607043.280913
1673612163.117978,,,,-3.854278,-3.856396,5957070.000000,1673607043.281920
1673612163.118261,,,,-3.902840,-3.904886,5957071.000000,1673607043.282928
1673612163.118514,,,,-3.912432,-3.912555,5957072.000000,1673607043.283935
1673612163.119072,,,,-3.894185,-3.895053,5957073.000000,1673607043.284942
1673612163.119095,,,,-3.855840,-3.857598,5957074.000000,1673607043.285949
1673612163.119112,,,,-3.835093,-3.836923,5957075.000000,1673607043.286956
1673612163.119245,,,,-3.860336,-3.860675,5957076.000000,1673607043.287963
1673612163.119255,,,,-3.854109,-3.853127,5957077.000000,1673607043.288970
1673612163.122856,,,,-3.787950,-3.788698,5957078.000000,1673607043.289977
1673612163.123241,,,,-3.711573,-3.711360,5957079.000000,1673607043.290984
1673612163.123262,,,,-3.692341,-3.692728,5957080.000000,1673607043.291991
1673612163.125695,,,,-3.713929,-3.716120,5957081.000000,1673607043.292998
1673612163.126349,,,,-3.719290,-3.719870,5957082.000000,1673607043.294005
1673612163.126552,,,,-3.715636,-3.717490,5957083.000000,1673607043.295012
1673612163.126760,,,,-3.699024,-3.699363,5957084.000000,1673607043.296020
1673612163.126776,,,,-3.704072,-3.704532,5957085.000000,1673607043.297027
1673612163.126828,,,,-3.708087,-3.708739,5957086.000000,1673607043.298034
1673612163.126835,,,,-3.706068,-3.705229,5957087.000000,1673607043.299041
1673612163.126858,,,,-3.701332,-3.701287,5957088.000000,1673607043.300048
1673612163.139235,,,,-3.722103,-3.723260,5957089.000000,1673607043.301055
1673612163.139601,,,,-3.730637,-3.734390,5957090.000000,1673607043.302062
1673612163.139883,,,,-3.733306,-3.736097,5957091.000000,1673607043.303069
1673612163.139977,,,,-3.736743,-3.740473,5957092.000000,1673607043.304076
1673612163.140101,,,,-3.751552,-3.754753,5957093.000000,1673607043.305083
1673612163.140112,,,,-3.763380,-3.765475,5957094.000000,1673607043.306090
1673612163.146574,,,,-3.775593,-3.774490,5957095.000000,1673607043.307097
1673612163.146870,,,,-3.795883,-3.794107,5957096.000000,1673607043.308105
1673612163.146955,,,,-3.827352,-3.826586,5957097.000000,1673607043.309112
1673612163.146965,,,,-3.849253,-3.851756,5957098.000000,1673607043.310119
1673612163.152915,,,,-3.853629,-3.853800,5957099.000000,1673607043.311126
1673612163.153613,,,,-3.845527,-3.843703,5957100.000000,1673607043.312133
1673612163.153768,,,,-3.842858,-3.842044,5957101.000000,1673607043.313140
1673612163.153785,,,,-3.811846,-3.812522,5957102.000000,1673607043.314147
1673612163.155671,,,,-3.763597,-3.766773,5957103.000000,1673607043.315154
1673612163.155734,,,,-3.741888,-3.744319,5957104.000000,1673607043.316161
1673612163.156005,55.315575,4709537.000000,1673612163.124142,,,,
1673612163.156026,55.387939,4709538.000000,1673612163.125142,,,,
1673612163.156041,55.460297,4709539.000000,1673612163.126142,,,,
1673612163.156055,,,,-3.728161,-3.731698,5957105.000000,1673607043.317168
1673612163.156222,55.532661,4709540.000000,1673612163.127142,,,,
1673612163.156692,55.605015,4709541.000000,1673612163.128142,,,,
1673612163.156705,55.695469,4709542.000000,1673612163.129142,,,,
1673612163.157360,55.785915,4709543.000000,1673612163.130142,,,,
1673612163.157372,55.948734,4709544.000000,1673612163.131142,,,,
1673612163.157386,55.984913,4709545.000000,1673612163.132142,,,,
1673612163.157393,56.057266,4709546.000000,1673612163.133142,,,,
1673612163.157426,56.835136,4709557.000000,1673612163.144142,,,,
1673612163.157431,56.889423,4709558.000000,1673612163.145142,,,,
1673612163.157434,56.979866,4709559.000000,1673612163.146142,,,,
1673612163.157450,57.070313,4709560.000000,1673612163.147142,,,,
1673612163.157456,57.106491,4709561.000000,1673612163.148142,,,,
1673612163.157476,57.233131,4709562.000000,1673612163.149142,,,,
1673612163.157609,57.233131,4709563.000000,1673612163.150142,,,,
1673612163.157617,57.251221,4709564.000000,1673612163.151142,,,,
1673612163.157634,57.323574,4709565.000000,1673612163.152142,,,,
1673612163.157639,57.341663,4709566.000000,1673612163.153142,,,,
1673612163.160212,,,,-3.712462,-3.716769,5957106.000000,1673607043.318175
1673612163.160573,,,,-3.715131,-3.719558,5957107.000000,1673607043.319182
1673612163.160583,,,,-3.702966,-3.706215,5957108.000000,1673607043.320189
1673612163.160600,,,,-3.673974,-3.677463,5957109.000000,1673607043.321197
1673612163.162861,,,,-3.668444,-3.671116,5957110.000000,1673607043.322204
1673612163.163031,,,,-3.727993,-3.729655,5957111.000000,1673607043.323211
1673612163.163168,,,,-3.770545,-3.773480,5957112.000000,1673607043.324218
1673612163.163426,,,,-3.787685,-3.787448,5957113.000000,1673607043.325225
1673612163.163578,,,,-3.820982,-3.822619,5957114.000000,1673607043.326232
1673612163.163705,,,,-3.863629,-3.866133,5957115.000000,1673607043.327239
1673612163.163870,,,,-3.882742,-3.885606,5957116.000000,1673607043.328246
1673612163.164049,,,,-3.884400,-3.887577,5957117.000000,1673607043.329253
1673612163.167814,,,,-3.876010,-3.877864,5957118.000000,1673607043.330260
1673612163.167915,,,,-3.819563,-3.820239,5957119.000000,1673607043.331267
1673612163.170767,,,,-3.766386,-3.766388,5957120.000000,1673607043.332274
1673612163.171143,,,,-3.787060,-3.787256,5957121.000000,1673607043.333282
1673612163.171165,,,,-3.810500,-3.812042,5957122.000000,1673607043.334289
1673612163.171316,,,,-3.780233,-3.781342,5957123.000000,1673607043.335296
1673612163.171520,,,,-3.752682,-3.751700,5957124.000000,1673607043.336303
1673612163.171911,,,,-3.733931,-3.734871,5957125.000000,1673607043.337310
1673612163.172154,,,,-3.710034,-3.711624,5957126.000000,1673607043.338317
1673612163.176307,,,,-3.732152,-3.734318,5957127.000000,1673607043.339324
1673612163.176495,,,,-3.779992,-3.785453,5957128.000000,1673607043.340331
1673612163.176517,,,,-3.799369,-3.801343,5957129.000000,1673607043.341338
1673612163.176884,,,,-3.788815,-3.790694,5957130.000000,1673607043.342345
1673612163.177387,,,,-3.815356,-3.816104,5957131.000000,1673607043.343352
1673612163.177396,,,,-3.856009,-3.855915,5957132.000000,1673607043.344359
1673612163.177417,,,,-3.835502,-3.836755,5957133.000000,1673607043.345366
1673612163.177421,,,,-3.794729,-3.796607,5957134.000000,1673607043.346374
1673612163.177760,,,,-3.753067,-3.753839,5957135.000000,1673607043.347381
1673612163.177771,,,,-3.735518,-3.737251,5957136.000000,1673607043.348388
1673612163.177886,,,,-3.701957,-3.703619,5957137.000000,1673607043.349395
1673612163.178068,,,,-3.682436,-3.684651,5957138.000000,1673607043.350402
1673612163.182576,,,,-3.683229,-3.686333,5957139.000000,1673607043.351409
1673612163.182835,,,,-3.706909,-3.708234,5957140.000000,1673607043.352416
1673612163.182883,,,,-3.747273,-3.747421,5957141.000000,1673607043.353423
1673612163.185312,,,,-3.778358,-3.778529,5957142.000000,1673607043.354430
1673612163.185369,,,,-3.793118,-3.795862,5957143.000000,1673607043.355437
1673612163.185377,,,,-3.854662,-3.860531,5957144.000000,1673607043.356444
1673612163.185385,,,,-3.985852,-3.989773,5957145.000000,1673607043.357451
1673612163.199240,,,,-4.044510,-4.045475,5957146.000000,1673607043.358459
1673612163.199251,,,,-4.069248,-4.067929,5957147.000000,1673607043.359466
1673612163.199409,,,,-4.089634,-4.089878,5957148.000000,1673607043.360473
1673612163.199508,,,,-4.151900,-4.153297,5957149.000000,1673607043.361480
1673612163.207752,,,,-4.184955,-4.187795,5957150.000000,1673607043.362487
1673612163.207777,,,,-4.110405,-4.112620,5957151.000000,1673607043.363494
1673612163.207784,,,,-3.981668,-3.982441,5957152.000000,1673607043.364501
1673612163.207815,,,,-3.825068,-3.826370,5957153.000000,1673607043.365508
1673612163.207838,,,,-3.718473,-3.721601,5957154.000000,1673607043.366515
1673612163.208001,,,,-3.635172,-3.637339,5957155.000000,1673607043.367522
1673612163.210438,57.432125,4709567.000000,1673612163.149537,,,,
1673612163.212025,60.471252,4709618.000000,1673612163.200537,,,,
1673612163.212081,60.543625,4709619.000000,1673612163.201537,,,,
1673612163.212088,60.634071,4709620.000000,1673612163.202537,,,,
1673612163.212093,60.670250,4709621.000000,1673612163.203537,,,,
1673612163.212113,60.778801,4709622.000000,1673612163.204537,,,,
1673612163.212119,60.905422,4709623.000000,1673612163.205537,,,,
1673612163.212189,61.013958,4709624.000000,1673612163.206537,,,,
1673612163.212194,61.068241,4709625.000000,1673612163.207537,,,,
1673612163.212206,61.194866,4709626.000000,1673612163.208537,,,,
1673612163.212222,61.267220,4709627.000000,1673612163.209537,,,,
1673612163.212656,,,,-3.576898,-3.578488,5957156.000000,1673607043.368529
1673612163.212846,,,,-3.573172,-3.573968,5957157.000000,1673607043.369536
1673612163.213024,,,,-3.588053,-3.591061,5957158.000000,1673607043.370543
1673612163.213170,,,,-3.576585,-3.577069,5957159.000000,1673607043.371551
1673612163.215635,,,,-3.579062,-3.581997,5957160.000000,1673607043.372558
1673612163.215644,,,,-3.610122,-3.613467,5957161.000000,1673607043.373565
1673612163.215648,,,,-3.658564,-3.659312,5957162.000000,1673607043.374572
1673612163.215797,,,,-3.686595,-3.686574,5957163.000000,1673607043.375579
1673612163.216208,,,,-3.696908,-3.699820,5957164.000000,1673607043.376586
1673612163.216219,,,,-3.696716,-3.699171,5957165.000000,1673607043.377593
1673612163.221032,,,,-3.710010,-3.712033,5957166.000000,1673607043.378600
1673612163.221043,,,,-3.721021,-3.722923,5957167.000000,1673607043.379607
1673612163.221071,,,,-3.721766,-3.724558,5957168.000000,1673607043.380614
1673612163.221077,,,,-3.721382,-3.723067,5957169.000000,1673607043.381621
1673612163.221096,,,,-3.726382,-3.729606,5957170.000000,1673607043.382628
1673612163.221101,,,,-3.736287,-3.739752,5957171.000000,1673607043.383636
1673612163.221127,,,,-3.746865,-3.751291,5957172.000000,1673607043.384643
1673612163.221135,,,,-3.744268,-3.747276,5957173.000000,1673607043.385650
1673612163.223699,,,,-3.746143,-3.748118,5957174.000000,1673607043.386657
1673612163.223931,,,,-3.751144,-3.756291,5957175.000000,1673607043.387664
1673612163.224170,,,,-3.752682,-3.755859,5957176.000000,1673607043.388671
1673612163.224190,,,,-3.747393,-3.750450,5957177.000000,1673607043.389678
1673612163.224596,,,,-3.753981,-3.754753,5957178.000000,1673607043.390685
1673612163.224680,,,,-3.762106,-3.761893,5957179.000000,1673607043.391692
1673612163.225141,,,,-3.784825,-3.785957,5957180.000000,1673607043.392699
1673612163.225346,,,,-3.833002,-3.836034,5957181.000000,1673607043.393706
1673612163.225499,,,,-3.882814,-3.886495,5957182.000000,1673607043.394713
1673612163.225514,,,,-3.885146,-3.888178,5957183.000000,1673607043.395720
1673612163.225951,,,,-3.863774,-3.865940,5957184.000000,1673607043.396728
1673612163.225963,,,,-3.861105,-3.863296,5957185.000000,1673607043.397735
1673612163.225967,,,,-3.854975,-3.855843,5957186.000000,1673607043.398742
1673612163.226197,,,,-3.837858,-3.840602,5957187.000000,1673607043.399749
1673612163.226208,,,,-3.817111,-3.818845,5957188.000000,1673607043.400756
1673612163.227989,,,,-3.781194,-3.782856,5957189.000000,1673607043.401763
1673612163.228177,,,,-3.752562,-3.755041,5957190.000000,1673607043.402770
1673612163.228352,,,,-3.788383,-3.789732,5957191.000000,1673607043.403777
1673612163.228807,,,,-3.827160,-3.827692,5957192.000000,1673607043.404784
1673612163.228906,,,,-3.826944,-3.827668,5957193.000000,1673607043.405791
1673612163.228913,,,,-3.785281,-3.786270,5957194.000000,1673607043.406798
1673612163.228919,,,,-3.798239,-3.800214,5957195.000000,1673607043.407805
1673612163.230660,,,,-3.881972,-3.884596,5957196.000000,1673607043.408813
1673612163.230779,,,,-3.944718,-3.947606,5957197.000000,1673607043.409820
