__time,/gdx/grip_force_stream/grip_force,/gdx/grip_force_stream/header/seq,/gdx/grip_force_stream/header/stamp,/shimmer0/emg_stream/emg_ch1,/shimmer0/emg_stream/emg_ch2,/shimmer0/emg_stream/header/seq,/shimmer0/emg_stream/header/stamp
1673612257.587036,,,,2.737711,2.736050,6050835.000000,1673607137.754088
1673612257.587054,,,,2.737783,2.735064,6050836.000000,1673607137.755095
1673612257.587261,,,,2.733600,2.731482,6050837.000000,1673607137.756103
1673612257.588370,,,,2.731220,2.731626,6050838.000000,1673607137.757110
1673612257.588627,,,,2.730691,2.731145,6050839.000000,1673607137.758117
1673612257.588710,,,,2.729537,2.729607,6050840.000000,1673607137.759124
1673612257.588769,,,,2.725282,2.725832,6050841.000000,1673607137.760131
1673612257.593738,,,,2.724922,2.725592,6050842.000000,1673607137.761138
1673612257.593925,,,,2.730788,2.732564,6050843.000000,1673607137.762145
1673612257.593944,,,,2.735115,2.736675,6050844.000000,1673607137.763152
1673612257.594176,,,,2.735668,2.736915,6050845.000000,1673607137.764159
1673612257.595898,,,,2.734442,2.736603,6050846.000000,1673607137.765166
1673612257.595919,,,,2.733504,2.734968,6050847.000000,1673607137.766173
1673612257.601056,,,,2.734153,2.734126,6050848.000000,1673607137.767180
1673612257.601865,,,,2.734394,2.734992,6050849.000000,1673607137.768188
1673612257.601944,,,,2.736774,2.737372,6050850.000000,1673607137.769195
1673612257.601969,,,,2.737471,2.739247,6050851.000000,1673607137.770202
1673612257.603491,,,,2.729586,2.733573,6050852.000000,1673607137.771209
1673612257.603778,,,,2.726268,2.729246,6050853.000000,1673607137.772216
1673612257.604242,,,,2.720570,2.723789,6050854.000000,1673607137.773223
1673612257.604571,,,,2.724176,2.725640,6050855.000000,1673607137.774230
1673612257.609012,,,,2.726941,2.726986,6050856.000000,1673607137.775237
1673612257.609628,,,,2.723648,2.725303,6050857.000000,1673607137.776244
1673612257.609645,,,,2.720138,2.719125,6050858.000000,1673607137.777251
1673612257.610035,,,,2.718311,2.719798,6050859.000000,1673607137.778258
1673612257.610051,,,,2.722085,2.724222,6050860.000000,1673607137.779265
1673612257.610290,,,,2.726773,2.727154,6050861.000000,1673607137.780272
1673612257.610299,,,,2.726436,2.730472,6050862.000000,1673607137.781280
1673612257.610853,,,,2.728696,2.731290,6050863.000000,1673607137.782287
1673612257.611065,,,,2.730331,2.731410,6050864.000000,1673607137.783294
1673612257.611073,,,,2.729898,2.729703,6050865.000000,1673607137.784301
1673612257.611173,,,,2.728768,2.730015,6050866.000000,1673607137.785308
1673612257.625220,,,,2.728889,2.731001,6050867.000000,1673607137.786315
1673612257.625388,,,,2.724633,2.724991,6050868.000000,1673607137.787322
1673612257.625599,,,,2.724489,2.725736,6050869.000000,1673607137.788329
1673612257.625974,,,,2.724609,2.724390,6050870.000000,1673607137.789336
1673612257.626170,,,,2.726725,2.725424,6050871.000000,1673607137.790343
1673612257.626500,,,,2.724802,2.722347,6050872.000000,1673607137.791350
1673612257.632640,,,,2.722325,2.722130,6050873.000000,1673607137.792357
1673612257.633039,,,,2.721412,2.721914,6050874.000000,1673607137.793365
1673612257.633056,,,,2.726701,2.729294,6050875.000000,1673607137.794372
1673612257.633493,,,,2.732759,2.734535,6050876.000000,1673607137.795379
1673612257.633511,,,,2.735981,2.735953,6050877.000000,1673607137.796386
1673612257.633750,,,,2.735836,2.736987,6050878.000000,1673607137.797393
1673612257.633895,,,,2.734538,2.737636,6050879.000000,1673607137.798400
1673612257.637343,0.556767,4801301.000000,1673612257.625857,,,,
1673612257.637359,0.502500,4801302.000000,1673612257.626857,,,,
1673612257.637367,0.538678,4801303.000000,1673612257.627857,,,,
1673612257.637372,0.520589,4801304.000000,1673612257.628857,,,,
1673612257.637548,0.484411,4801305.000000,1673612257.629857,,,,
1673612257.637594,0.556767,4801306.000000,1673612257.630857,,,,
1673612257.637602,0.574856,4801307.000000,1673612257.631857,,,,
1673612257.637613,0.629132,4801308.000000,1673612257.632857,,,,
1673612257.637630,0.592954,4801309.000000,1673612257.633857,,,,
1673612257.637645,0.592954,4801310.000000,1673612257.634857,,,,
1673612257.638631,,,,2.736245,2.739007,6050880.000000,1673607137.799407
1673612257.638792,,,,2.742519,2.742060,6050881.000000,1673607137.800414
1673612257.639178,,,,2.741438,2.741483,6050882.000000,1673607137.801421
1673612257.639420,,,,2.741197,2.740689,6050883.000000,1673607137.802428
1673612257.641138,,,,2.744130,2.742564,6050884.000000,1673607137.803435
1673612257.641217,,,,2.737206,2.738165,6050885.000000,1673607137.804442
1673612257.641235,,,,2.723912,2.725159,6050886.000000,1673607137.805449
1673612257.641445,,,,2.713358,2.716841,6050887.000000,1673607137.806457
1673612257.646008,,,,2.713334,2.719149,6050888.000000,1673607137.807464
1673612257.646319,,,,2.718431,2.720664,6050889.000000,1673607137.808471
1673612257.646329,,,,2.717734,2.718884,6050890.000000,1673607137.809478
1673612257.646334,,,,2.714753,2.714605,6050891.000000,1673607137.810485
1673612257.648376,,,,2.712012,2.711480,6050892.000000,1673607137.811492
1673612257.648639,,,,2.710858,2.709725,6050893.000000,1673607137.812499
1673612257.654195,,,,2.712998,2.713956,6050894.000000,1673607137.813506
1673612257.654209,,,,2.714224,2.714533,6050895.000000,1673607137.814513
1673612257.654265,,,,2.715907,2.717731,6050896.000000,1673607137.815520
1673612257.654439,,,,2.719801,2.723236,6050897.000000,1673607137.816527
1673612257.654567,,,,2.721195,2.722010,6050898.000000,1673607137.817534
1673612257.654597,,,,2.722590,2.725784,6050899.000000,1673607137.818542
1673612257.654688,,,,2.724777,2.727010,6050900.000000,1673607137.819549
1673612257.654702,,,,2.726196,2.727876,6050901.000000,1673607137.820556
1673612257.655896,,,,2.724681,2.725352,6050902.000000,1673607137.821563
1673612257.655906,,,,2.722590,2.722659,6050903.000000,1673607137.822570
1673612257.655914,,,,2.726557,2.724558,6050904.000000,1673607137.823577
1673612257.661120,,,,2.724681,2.725015,6050905.000000,1673607137.824584
1673612257.661208,,,,2.722686,2.723765,6050906.000000,1673607137.825591
1673612257.661277,,,,2.722277,2.722467,6050907.000000,1673607137.826598
1673612257.661423,,,,2.719945,2.720303,6050908.000000,1673607137.827605
1673612257.663488,,,,2.718960,2.719293,6050909.000000,1673607137.828612
1673612257.663500,,,,2.720234,2.721289,6050910.000000,1673607137.829619
1673612257.663507,,,,2.723287,2.724895,6050911.000000,1673607137.830626
1673612257.663525,,,,2.724777,2.726674,6050912.000000,1673607137.831634
1673612257.668637,,,,2.722494,2.724751,6050913.000000,1673607137.832641
1673612257.669129,,,,2.720787,2.720062,6050914.000000,1673607137.833648
1673612257.669259,,,,2.716772,2.719461,6050915.000000,1673607137.834655
1673612257.673273,,,,2.716892,2.719942,6050916.000000,1673607137.835662
1673612257.674168,,,,2.718719,2.718861,6050917.000000,1673607137.836669
1673612257.674212,,,,2.718936,2.720736,6050918.000000,1673607137.837676
1673612257.674234,,,,2.720402,2.721169,6050919.000000,1673607137.838683
1673612257.674714,,,,2.721821,2.723548,6050920.000000,1673607137.839690
1673612257.675205,,,,2.722253,2.724943,6050921.000000,1673607137.840697
1673612257.675724,,,,2.722277,2.724775,6050922.000000,1673607137.841704
1673612257.676277,,,,2.723527,2.723621,6050923.000000,1673607137.842711
1673612257.688334,,,,2.724802,2.726073,6050924.000000,1673607137.843719
1673612257.688368,,,,2.726484,2.729006,6050925.000000,1673607137.844726
1673612257.688375,,,,2.727422,2.727491,6050926.000000,1673607137.845733
1673612257.695860,,,,2.728456,2.727154,6050927.000000,1673607137.846740
1673612257.696352,,,,2.728961,2.728068,6050928.000000,1673607137.847747
1673612257.696871,,,,2.728071,2.728789,6050929.000000,1673607137.848754
1673612257.697672,,,,2.727134,2.726794,6050930.000000,1673607137.849761
1673612257.697925,,,,2.725763,2.725712,6050931.000000,1673607137.850768
1673612257.698377,,,,2.722854,2.724606,6050932.000000,1673607137.851775
1673612257.698412,,,,2.719705,2.721048,6050933.000000,1673607137.852782
1673612257.698432,,,,2.717902,2.718187,6050934.000000,1673607137.853789
1673612257.698442,,,,2.718311,2.720639,6050935.000000,1673607137.854796
1673612257.698485,,,,2.720691,2.723260,6050936.000000,1673607137.855803
1673612257.698765,,,,2.720739,2.723380,6050937.000000,1673607137.856811
1673612257.698917,,,,2.723696,2.726097,6050938.000000,1673607137.857818
1673612257.699147,,,,2.728359,2.729270,6050939.000000,1673607137.858825
1673612257.699427,,,,2.731124,2.732660,6050940.000000,1673607137.859832
1673612257.699525,,,,2.731052,2.731266,6050941.000000,1673607137.860839
1673612257.701066,,,,2.732495,2.731746,6050942.000000,1673607137.861846
1673612257.701090,,,,2.728071,2.726193,6050943.000000,1673607137.862853
1673612257.701448,,,,2.719489,2.721601,6050944.000000,1673607137.863860
1673612257.703105,0.556767,4801362.000000,1673612257.691694,,,,
1673612257.703111,0.520589,4801363.000000,1673612257.692694,,,,
1673612257.703114,0.574856,4801364.000000,1673612257.693694,,,,
1673612257.703125,0.502500,4801365.000000,1673612257.694694,,,,
1673612257.703132,0.430135,4801366.000000,1673612257.695694,,,,
1673612257.703174,0.484411,4801367.000000,1673612257.696694,,,,
1673612257.703190,0.502500,4801368.000000,1673612257.697694,,,,
1673612257.703201,0.484411,4801369.000000,1673612257.698694,,,,
1673612257.703207,0.520589,4801370.000000,1673612257.699694,,,,
1673612257.703213,0.556767,4801371.000000,1673612257.700694,,,,
1673612257.706285,,,,2.721965,2.727058,6050945.000000,1673607137.864867
1673612257.706570,,,,2.725523,2.727275,6050946.000000,1673607137.865874
1673612257.706576,,,,2.723599,2.723452,6050947.000000,1673607137.866881
1673612257.706679,,,,2.719849,2.721120,6050948.000000,1673607137.867888
1673612257.706875,,,,2.716243,2.720688,6050949.000000,1673607137.868896
1673612257.706923,,,,2.716628,2.717466,6050950.000000,1673607137.869903
1673612257.708667,,,,2.720306,2.720664,6050951.000000,1673607137.870910
1673612257.708842,,,,2.721460,2.721481,6050952.000000,1673607137.871917
1673612257.709181,,,,2.722975,2.723717,6050953.000000,1673607137.872924
1673612257.709195,,,,2.721292,2.723020,6050954.000000,1673607137.873931
1673612257.709200,,,,2.719801,2.720231,6050955.000000,1673607137.874938
1673612257.709204,,,,2.721123,2.722106,6050956.000000,1673607137.875945
1673612257.709212,,,,2.725691,2.726866,6050957.000000,1673607137.876952
1673612257.709219,,,,2.724104,2.727058,6050958.000000,1673607137.877959
1673612257.713564,,,,2.726124,2.725880,6050959.000000,1673607137.878966
1673612257.713697,,,,2.725883,2.725231,6050960.000000,1673607137.879973
1673612257.713944,,,,2.727230,2.727130,6050961.000000,1673607137.880980
1673612257.715910,,,,2.729345,2.728693,6050962.000000,1673607137.881988
1673612257.715996,,,,2.727999,2.726938,6050963.000000,1673607137.882995
1673612257.716003,,,,2.721051,2.720615,6050964.000000,1673607137.884002
1673612257.716014,,,,2.720691,2.719918,6050965.000000,1673607137.885009
1673612257.721493,,,,2.721099,2.719053,6050966.000000,1673607137.886016
1673612257.722239,,,,2.720234,2.719582,6050967.000000,1673607137.887023
1673612257.722568,,,,2.718888,2.719173,6050968.000000,1673607137.888030
1673612257.722581,,,,2.720474,2.723164,6050969.000000,1673607137.889037
1673612257.722807,,,,2.723720,2.726385,6050970.000000,1673607137.890044
1673612257.723330,,,,2.726701,2.726818,6050971.000000,1673607137.891051
1673612257.723628,,,,2.731461,2.732612,6050972.000000,1673607137.892058
1673612257.723656,,,,2.734874,2.735881,6050973.000000,1673607137.893065
1673612257.724045,,,,2.736173,2.735569,6050974.000000,1673607137.894073
1673612257.724284,,,,2.736053,2.736242,6050975.000000,1673607137.895080
1673612257.729078,,,,2.734394,2.735208,6050976.000000,1673607137.896087
1673612257.729114,,,,2.735019,2.736458,6050977.000000,1673607137.897094
1673612257.729128,,,,2.731172,2.730664,6050978.000000,1673607137.898101
1673612257.729137,,,,2.724297,2.726073,6050979.000000,1673607137.899108
1673612257.730914,,,,2.715522,2.715543,6050980.000000,1673607137.900115
1673612257.731200,,,,2.714272,2.714894,6050981.000000,1673607137.901122
1673612257.731342,,,,2.719825,2.719461,6050982.000000,1673607137.902129
1673612257.752524,,,,2.714176,2.715783,6050983.000000,1673607137.903136
1673612257.752659,,,,2.708574,2.711793,6050984.000000,1673607137.904143
1673612257.752851,,,,2.711387,2.715375,6050985.000000,1673607137.905150
1673612257.752973,,,,2.718839,2.719005,6050986.000000,1673607137.906157
1673612257.753222,,,,2.715161,2.720615,6050987.000000,1673607137.907165
1673612257.753229,,,,2.716243,2.720976,6050988.000000,1673607137.908172
1673612257.753246,,,,2.714705,2.715615,6050989.000000,1673607137.909179
1673612257.753311,,,,2.709824,2.709965,6050990.000000,1673607137.910186
1673612257.756747,0.502500,4801423.000000,1673612257.746297,,,,
1673612257.756764,0.520589,4801424.000000,1673612257.747297,,,,
1673612257.756781,0.484411,4801425.000000,1673612257.748297,,,,
1673612257.756793,0.502500,4801426.000000,1673612257.749297,,,,
1673612257.756800,0.574856,4801427.000000,1673612257.750297,,,,
1673612257.756813,0.502500,4801428.000000,1673612257.751297,,,,
1673612257.756823,0.520589,4801429.000000,1673612257.752297,,,,
1673612257.756876,0.556767,4801430.000000,1673612257.753297,,,,
1673612257.756885,0.574856,4801431.000000,1673612257.754297,,,,
1673612257.756921,0.538678,4801432.000000,1673612257.755297,,,,
1673612257.758924,,,,2.707853,2.708307,6050991.000000,1673607137.911193
1673612257.759518,,,,2.708622,2.709316,6050992.000000,1673607137.912200
1673612257.759537,,,,2.708093,2.708210,6050993.000000,1673607137.913207
1673612257.759619,,,,2.708382,2.710206,6050994.000000,1673607137.914214
1673612257.759642,,,,2.713743,2.715495,6050995.000000,1673607137.915221
1673612257.759770,,,,2.712685,2.714437,6050996.000000,1673607137.916228
1673612257.759838,,,,2.712012,2.713596,6050997.000000,1673607137.917235
1673612257.760842,,,,2.713118,2.714221,6050998.000000,1673607137.918242
1673612257.761036,,,,2.716075,2.715976,6050999.000000,1673607137.919250
1673612257.761166,,,,2.717589,2.719125,6051000.000000,1673607137.920257
1673612257.761451,,,,2.720835,2.720543,6051001.000000,1673607137.921264
1673612257.766409,,,,2.721364,2.721938,6051002.000000,1673607137.922271
1673612257.766489,,,,2.716315,2.720087,6051003.000000,1673607137.923278
1673612257.767167,,,,2.720522,2.723741,6051004.000000,1673607137.924285
1673612257.767245,,,,2.720835,2.723260,6051005.000000,1673607137.925292
1673612257.767302,,,,2.720691,2.723621,6051006.000000,1673607137.926299
1673612257.767347,,,,2.721797,2.725399,6051007.000000,1673607137.927306
1673612257.768686,,,,2.724441,2.726794,6051008.000000,1673607137.928313
1673612257.768744,,,,2.722975,2.723669,6051009.000000,1673607137.929320
1673612257.768754,,,,2.721195,2.722178,6051010.000000,1673607137.930327
1673612257.768793,,,,2.725114,2.725015,6051011.000000,1673607137.931334
1673612257.773626,,,,2.726268,2.725327,6051012.000000,1673607137.932342
1673612257.773997,,,,2.720763,2.723861,6051013.000000,1673607137.933349
1673612257.774401,,,,2.717349,2.719414,6051014.000000,1673607137.934356
1673612257.774527,,,,2.717349,2.718260,6051015.000000,1673607137.935363
1673612257.775890,,,,2.716435,2.717442,6051016.000000,1673607137.936370
1673612257.776396,,,,2.715690,2.718572,6051017.000000,1673607137.937377
1673612257.776410,,,,2.717638,2.721890,6051018.000000,1673607137.938384
1673612257.781719,,,,2.714993,2.716288,6051019.000000,1673607137.939391
1673612257.781737,,,,2.716195,2.717731,6051020.000000,1673607137.940398
1673612257.781749,,,,2.722445,2.726313,6051021.000000,1673607137.941405
1673612257.781755,,,,2.721652,2.726193,6051022.000000,1673607137.942412
1673612257.805035,,,,2.719873,2.723164,6051023.000000,1673607137.943419
1673612257.805165,,,,2.723552,2.725712,6051024.000000,1673607137.944427
1673612257.805173,,,,2.722445,2.724967,6051025.000000,1673607137.945434
1673612257.805195,,,,2.726893,2.727130,6051026.000000,1673607137.946441
1673612257.818674,,,,2.729465,2.732588,6051027.000000,1673607137.947448
1673612257.819116,,,,2.729153,2.732035,6051028.000000,1673607137.948455
1673612257.819131,,,,2.728696,2.729462,6051029.000000,1673607137.949462
1673612257.821431,,,,2.720258,2.718884,6051030.000000,1673607137.950469
1673612257.821929,0.574856,4801484.000000,1673612257.809983,,,,
1673612257.821954,0.592954,4801485.000000,1673612257.810983,,,,
1673612257.821963,0.683399,4801486.000000,1673612257.811983,,,,
1673612257.821972,0.592954,4801487.000000,1673612257.812983,,,,
1673612257.822001,0.611043,4801488.000000,1673612257.813983,,,,
1673612257.822084,0.556767,4801489.000000,1673612257.814983,,,,
1673612257.822101,0.538678,4801490.000000,1673612257.815983,,,,
1673612257.822111,0.647221,4801491.000000,1673612257.816983,,,,
1673612257.822388,0.683399,4801492.000000,1673612257.817983,,,,
1673612257.822439,0.629132,4801493.000000,1673612257.818983,,,,
1673612257.822498,,,,2.708911,2.708547,6051031.000000,1673607137.951476
1673612257.822777,,,,2.705257,2.703739,6051032.000000,1673607137.952483
1673612257.822805,,,,2.708670,2.711432,6051033.000000,1673607137.953490
1673612257.823126,,,,2.711074,2.712995,6051034.000000,1673607137.954497
1673612257.823483,,,,2.714320,2.713475,6051035.000000,1673607137.955504
1673612257.823864,,,,2.718503,2.717442,6051036.000000,1673607137.956511
1673612257.826584,,,,2.721700,2.724390,6051037.000000,1673607137.957519
1673612257.826627,,,,2.723215,2.728140,6051038.000000,1673607137.958526
1673612257.826633,,,,2.721604,2.723212,6051039.000000,1673607137.959533
1673612257.828860,,,,2.720162,2.721385,6051040.000000,1673607137.960540
1673612257.828944,,,,2.719320,2.721697,6051041.000000,1673607137.961547
1673612257.828955,,,,2.719873,2.723428,6051042.000000,1673607137.962554
1673612257.829002,,,,2.721484,2.724462,6051043.000000,1673607137.963561
1673612257.829308,,,,2.721652,2.725183,6051044.000000,1673607137.964568
1673612257.829315,,,,2.721292,2.722322,6051045.000000,1673607137.965575
1673612257.829364,,,,2.716988,2.720279,6051046.000000,1673607137.966582
1673612257.829370,,,,2.717469,2.718812,6051047.000000,1673607137.967589
1673612257.833508,,,,2.721508,2.718307,6051048.000000,1673607137.968596
1673612257.833708,,,,2.720090,2.720784,6051049.000000,1673607137.969604
1673612257.833833,,,,2.717229,2.720351,6051050.000000,1673607137.970611
1673612257.834010,,,,2.717662,2.719461,6051051.000000,1673607137.971618
1673612257.836441,,,,2.717036,2.718284,6051052.000000,1673607137.972625
1673612257.836450,,,,2.715041,2.715182,6051053.000000,1673607137.973632
1673612257.836522,,,,2.717325,2.716312,6051054.000000,1673607137.974639
1673612257.836530,,,,2.721123,2.719846,6051055.000000,1673607137.975646
1673612257.836553,,,,2.721652,2.719942,6051056.000000,1673607137.976653
1673612257.836557,,,,2.720330,2.721457,6051057.000000,1673607137.977660
1673612257.841174,,,,2.718479,2.722443,6051058.000000,1673607137.978667
1673612257.841702,,,,2.720402,2.724342,6051059.000000,1673607137.979674
1673612257.841888,,,,2.727206,2.729751,6051060.000000,1673607137.980681
1673612257.841993,,,,2.736654,2.736434,6051061.000000,1673607137.981688
1673612257.843652,,,,2.741149,2.743141,6051062.000000,1673607137.982696
1673612257.843962,,,,2.747520,2.749825,6051063.000000,1673607137.983703
1673612257.844274,,,,2.755477,2.757037,6051064.000000,1673607137.984710
1673612257.848801,,,,2.759516,2.759201,6051065.000000,1673607137.985717
1673612257.848817,,,,2.756727,2.757133,6051066.000000,1673607137.986724
1673612257.849348,,,,2.749876,2.752037,6051067.000000,1673607137.987731
1673612257.849526,,,,2.739755,2.740449,6051068.000000,1673607137.988738
1673612257.851028,,,,2.737904,2.738646,6051069.000000,1673607137.989745
1673612257.851340,,,,2.733047,2.732876,6051070.000000,1673607137.990752
1673612257.851558,,,,2.712421,2.715447,6051071.000000,1673607137.991759
1673612257.851873,,,,2.698429,2.702249,6051072.000000,1673607137.992766
1673612257.865069,,,,2.695496,2.698258,6051073.000000,1673607137.993773
1673612257.865081,,,,2.695015,2.698378,6051074.000000,1673607137.994781
1673612257.865099,,,,2.700809,2.702273,6051075.000000,1673607137.995788
1673612257.865109,,,,2.707420,2.708932,6051076.000000,1673607137.996795
1673612257.872327,,,,2.715666,2.716144,6051077.000000,1673607137.997802
1673612257.872621,,,,2.721556,2.722274,6051078.000000,1673607137.998809
1673612257.874274,0.665310,4801494.000000,1673612257.813622,,,,
1673612257.874417,0.629132,4801495.000000,1673612257.814622,,,,
1673612257.874613,0.647221,4801496.000000,1673612257.815622,,,,
1673612257.876059,0.810030,4801534.000000,1673612257.853622,,,,
1673612257.876597,0.810030,4801535.000000,1673612257.854622,,,,
1673612257.876613,0.791941,4801536.000000,1673612257.855622,,,,
1673612257.876618,0.791941,4801537.000000,1673612257.856622,,,,
1673612257.876624,0.755763,4801538.000000,1673612257.857622,,,,
1673612257.876634,0.737674,4801539.000000,1673612257.858622,,,,
1673612257.876648,0.773852,4801540.000000,1673612257.859622,,,,
1673612257.876665,0.773852,4801541.000000,1673612257.860622,,,,
1673612257.876684,0.810030,4801542.000000,1673612257.861622,,,,
1673612257.876691,0.810030,4801543.000000,1673612257.862622,,,,
1673612257.876755,0.810030,4801545.000000,1673612257.864622,,,,
1673612257.876766,0.810030,4801546.000000,1673612257.865622,,,,
1673612257.876775,0.791941,4801547.000000,1673612257.866622,,,,
1673612257.876793,0.864306,4801548.000000,1673612257.867622,,,,
1673612257.876867,0.828119,4801549.000000,1673612257.868622,,,,
1673612257.876876,0.810030,4801550.000000,1673612257.869622,,,,
1673612257.876894,0.846209,4801551.000000,1673612257.870622,,,,
1673612257.876901,0.828119,4801552.000000,1673612257.871622,,,,
1673612257.876925,0.900484,4801553.000000,1673612257.872622,,,,
1673612257.876962,0.900484,4801554.000000,1673612257.873622,,,,
1673612257.881185,,,,2.720883,2.721072,6051079.000000,1673607137.999816
1673612257.881206,,,,2.722758,2.722419,6051080.000000,1673607138.000823
1673612257.881680,,,,2.724032,2.724053,6051081.000000,1673607138.001830
1673612257.881881,,,,2.722975,2.722298,6051082.000000,1673607138.002837
1673612257.882037,,,,2.714969,2.718620,6051083.000000,1673607138.003844
1673612257.882052,,,,2.706194,2.712394,6051084.000000,1673607138.004851
1673612257.882275,,,,2.710113,2.710518,6051085.000000,1673607138.005858
1673612257.882843,,,,2.721195,2.722082,6051086.000000,1673607138.006866
1673612257.882850,,,,2.729393,2.728741,6051087.000000,1673607138.007873
1673612257.882878,,,,2.724994,2.727828,6051088.000000,1673607138.008880
1673612257.882966,,,,2.725499,2.727780,6051089.000000,1673607138.009887
1673612257.882979,,,,2.725258,2.728020,6051090.000000,1673607138.010894
1673612257.883255,,,,2.715330,2.717202,6051091.000000,1673607138.011901
1673612257.883420,,,,2.708430,2.709268,6051092.000000,1673607138.012908
1673612257.883611,,,,2.703333,2.701575,6051093.000000,1673607138.013915
1673612257.883782,,,,2.703237,2.702369,6051094.000000,1673607138.014922
1673612257.883973,,,,2.709296,2.708980,6051095.000000,1673607138.015929
1673612257.884181,,,,2.714031,2.714774,6051096.000000,1673607138.016936
1673612257.884195,,,,2.717277,2.717154,6051097.000000,1673607138.017943
1673612257.884747,,,,2.721508,2.720159,6051098.000000,1673607138.018950
1673612257.884836,,,,2.729225,2.727107,6051099.000000,1673607138.019958
1673612257.885327,,,,2.742928,2.742685,6051100.000000,1673607138.020965
1673612257.885400,,,,2.761439,2.761436,6051101.000000,1673607138.021972
1673612257.885474,,,,2.762545,2.765692,6051102.000000,1673607138.022979
1673612257.885485,,,,2.757953,2.758575,6051103.000000,1673607138.023986
1673612257.885574,,,,2.748361,2.747012,6051104.000000,1673607138.024993
1673612257.885651,,,,2.726220,2.727179,6051105.000000,1673607138.026000
1673612257.885663,,,,2.707276,2.708066,6051106.000000,1673607138.027007
1673612257.885669,,,,2.698645,2.699628,6051107.000000,1673607138.028014
1673612257.885680,,,,2.700040,2.703595,6051108.000000,1673607138.029021
1673612257.885687,,,,2.705569,2.707850,6051109.000000,1673607138.030028
1673612257.885718,,,,2.716772,2.716769,6051110.000000,1673607138.031035
1673612257.885727,,,,2.732062,2.734487,6051111.000000,1673607138.032043
1673612257.886704,,,,2.737928,2.738694,6051112.000000,1673607138.033050
1673612257.886719,,,,2.735259,2.737660,6051113.000000,1673607138.034057
1673612257.886728,,,,2.732230,2.735713,6051114.000000,1673607138.035064
1673612257.886736,,,,2.724176,2.726073,6051115.000000,1673607138.036071
1673612257.886741,,,,2.716147,2.717250,6051116.000000,1673607138.037078
1673612257.886822,,,,2.714801,2.713668,6051117.000000,1673607138.038085
1673612257.886826,,,,2.720883,2.720976,6051118.000000,1673607138.039092
1673612257.888757,,,,2.720859,2.723861,6051119.000000,1673607138.040099
1673612257.889330,,,,2.724730,2.727275,6051120.000000,1673607138.041106
1673612257.889347,,,,2.733600,2.733645,6051121.000000,1673607138.042113
1673612257.889354,,,,2.733696,2.736795,6051122.000000,1673607138.043120
1673612257.889397,,,,2.731894,2.733958,6051123.000000,1673607138.044127
1673612257.889404,,,,2.720234,2.721721,6051124.000000,1673607138.045135
1673612257.889538,,,,2.714200,2.719966,6051125.000000,1673607138.046142
1673612257.889543,,,,2.711820,2.717106,6051126.000000,1673607138.047149
1673612257.894109,,,,2.715426,2.715567,6051127.000000,1673607138.048156
1673612257.894133,,,,2.715642,2.717779,6051128.000000,1673607138.049163
1673612257.894150,,,,2.713743,2.716360,6051129.000000,1673607138.050170
1673612257.894360,,,,2.716147,2.718043,6051130.000000,1673607138.051177
1673612257.894454,,,,2.721123,2.721096,6051131.000000,1673607138.052184
1673612257.894584,,,,2.718527,2.718692,6051132.000000,1673607138.053191
1673612257.894760,,,,2.713406,2.713307,6051133.000000,1673607138.054198
1673612257.902325,,,,2.713599,2.711480,6051134.000000,1673607138.055205
1673612257.902457,,,,2.715642,2.712970,6051135.000000,1673607138.056212
1673612257.902561,,,,2.721508,2.721817,6051136.000000,1673607138.057220
1673612257.902668,,,,2.724730,2.726530,6051137.000000,1673607138.058227
1673612257.902920,,,,2.727782,2.728909,6051138.000000,1673607138.059234
1673612257.903061,,,,2.726508,2.725832,6051139.000000,1673607138.060241
1673612257.903074,,,,2.718791,2.719125,6051140.000000,1673607138.061248
1673612257.903188,,,,2.702901,2.705350,6051141.000000,1673607138.062255
1673612257.903199,,,,2.691650,2.694604,6051142.000000,1673607138.063262
1673612257.903206,,,,2.685952,2.690156,6051143.000000,1673607138.064269
1673612257.903215,,,,2.691121,2.693979,6051144.000000,1673607138.065276
1673612257.903336,,,,2.711339,2.711552,6051145.000000,1673607138.066283
1673612257.903613,,,,2.734778,2.736987,6051146.000000,1673607138.067290
1673612257.904000,,,,2.746174,2.749079,6051147.000000,1673607138.068297
1673612257.904191,,,,2.742063,2.745377,6051148.000000,1673607138.069304
1673612257.904207,,,,2.737423,2.739415,6051149.000000,1673607138.070312
1673612257.904214,,,,2.732422,2.734271,6051150.000000,1673607138.071319
1673612257.904221,,,,2.729297,2.727900,6051151.000000,1673607138.072326
1673612257.904229,,,,2.725018,2.726073,6051152.000000,1673607138.073333
1673612257.904234,,,,2.722710,2.720399,6051153.000000,1673607138.074340
1673612257.904256,,,,2.722253,2.720279,6051154.000000,1673607138.075347
1673612257.910928,,,,2.722518,2.725111,6051155.000000,1673607138.076354
1673612257.910988,,,,2.725955,2.729198,6051156.000000,1673607138.077361
1673612257.911083,,,,2.727061,2.728958,6051157.000000,1673607138.078368
1673612257.925320,,,,2.724200,2.728044,6051158.000000,1673607138.079375
1673612257.925524,,,,2.717036,2.718933,6051159.000000,1673607138.080382
1673612257.926034,,,,2.714801,2.715327,6051160.000000,1673607138.081389
1673612257.926054,,,,2.708430,2.708908,6051161.000000,1673607138.082397
1673612257.926281,,,,2.694294,2.694219,6051162.000000,1673607138.083404
1673612257.926677,,,,2.684870,2.684074,6051163.000000,1673607138.084411
1673612257.926776,,,,2.683091,2.684507,6051164.000000,1673607138.085418
1673612257.932647,,,,2.694655,2.697128,6051165.000000,1673607138.086425
1673612257.932668,,,,2.708069,2.708595,6051166.000000,1673607138.087432
1673612257.933178,,,,2.717085,2.718380,6051167.000000,1673607138.088439
1673612257.938808,,,,2.725282,2.727347,6051168.000000,1673607138.089446
1673612257.939154,,,,2.730740,2.733525,6051169.000000,1673607138.090453
1673612257.939662,,,,2.727182,2.727996,6051170.000000,1673607138.091460
1673612257.940154,,,,2.723720,2.724582,6051171.000000,1673607138.092467
1673612257.941028,,,,2.724922,2.726457,6051172.000000,1673607138.093474
1673612257.941486,,,,2.726821,2.726866,6051173.000000,1673607138.094481
1673612257.942197,,,,2.725955,2.725856,6051174.000000,1673607138.095489
1673612257.942303,,,,2.736750,2.735569,6051175.000000,1673607138.096496
1673612257.943406,1.551723,4801606.000000,1673612257.930069,,,,
1673612257.943442,1.533634,4801607.000000,1673612257.931070,,,,
1673612257.943454,1.533634,4801608.000000,1673612257.932070,,,,
1673612257.943465,1.551723,4801609.000000,1673612257.933069,,,,
1673612257.943479,1.587909,4801610.000000,1673612257.934069,,,,
1673612257.943494,1.569820,4801611.000000,1673612257.935070,,,,
1673612257.943833,1.605998,4801612.000000,1673612257.936069,,,,
1673612257.943853,1.605998,4801613.000000,1673612257.937069,,,,
1673612257.943883,1.642177,4801614.000000,1673612257.938070,,,,
1673612257.943896,1.642177,4801615.000000,1673612257.939070,,,,
1673612257.946184,,,,2.743433,2.744055,6051176.000000,1673607138.097503
1673612257.946251,,,,2.739803,2.741483,6051177.000000,1673607138.098510
1673612257.946342,,,,2.732110,2.731506,6051178.000000,1673607138.099517
1673612257.946346,,,,2.726292,2.727780,6051179.000000,1673607138.100524
1673612257.948368,,,,2.725042,2.724895,6051180.000000,1673607138.101531
1673612257.948430,,,,2.728191,2.728861,6051181.000000,1673607138.102538
1673612257.953994,,,,2.725234,2.724702,6051182.000000,1673607138.103545
1673612257.954092,,,,2.716195,2.713572,6051183.000000,1673607138.104552
1673612257.954378,,,,2.719945,2.721120,6051184.000000,1673607138.105559
1673612257.954486,,,,2.724609,2.725183,6051185.000000,1673607138.106566
1673612257.954653,,,,2.716027,2.717923,6051186.000000,1673607138.107574
1673612257.954667,,,,2.706338,2.710446,6051187.000000,1673607138.108581
1673612257.954835,,,,2.709223,2.709845,6051188.000000,1673607138.109588
1673612257.954975,,,,2.718719,2.716264,6051189.000000,1673607138.110595
1673612257.955819,,,,2.728312,2.728188,6051190.000000,1673607138.111602
1673612257.955982,,,,2.735668,2.736194,6051191.000000,1673607138.112609
1673612257.956143,,,,2.734827,2.736122,6051192.000000,1673607138.113616
1673612257.961447,,,,2.731557,2.732564,6051193.000000,1673607138.114623
1673612257.961456,,,,2.733600,2.735160,6051194.000000,1673607138.115630
1673612257.961582,,,,2.732951,2.732900,6051195.000000,1673607138.116637
1673612257.961736,,,,2.719032,2.716144,6051196.000000,1673607138.117644
1673612257.962042,,,,2.701194,2.699893,6051197.000000,1673607138.118651
1673612257.962265,,,,2.696458,2.697921,6051198.000000,1673607138.119658
1673612257.962274,,,,2.720883,2.720832,6051199.000000,1673607138.120666
1673612257.962278,,,,2.727134,2.729198,6051200.000000,1673607138.121673
1673612257.963454,,,,2.727807,2.731650,6051201.000000,1673607138.122680
1673612257.963657,,,,2.726316,2.729270,6051202.000000,1673607138.123687
1673612257.963990,,,,2.722542,2.724270,6051203.000000,1673607138.124694
1673612257.968512,,,,2.718190,2.720015,6051204.000000,1673607138.125701
1673612257.968827,,,,2.722037,2.724871,6051205.000000,1673607138.126708
1673612257.969065,,,,2.715642,2.716649,6051206.000000,1673607138.127715
1673612257.969325,,,,2.706362,2.706552,6051207.000000,1673607138.128722
1673612257.971367,,,,2.689871,2.691118,6051208.000000,1673607138.129729
1673612257.971857,,,,2.681288,2.680588,6051209.000000,1673607138.130736
1673612257.971881,,,,2.675374,2.675948,6051210.000000,1673607138.131743
1673612257.972095,,,,2.670157,2.672414,6051211.000000,1673607138.132751
1673612257.976353,,,,2.658065,2.660995,6051212.000000,1673607138.133758
1673612257.976497,,,,2.662753,2.665971,6051213.000000,1673607138.134765
1673612257.979373,,,,2.682370,2.683545,6051214.000000,1673607138.135772
1673612257.979571,,,,2.695280,2.695349,6051215.000000,1673607138.136779
1673612257.979589,,,,2.718359,2.718404,6051216.000000,1673607138.137786
1673612257.979600,,,,2.728744,2.729799,6051217.000000,1673607138.138793
1673612257.979625,,,,2.744875,2.745666,6051218.000000,1673607138.139800
1673612257.992673,,,,2.750621,2.753142,6051219.000000,1673607138.140807
1673612257.992847,,,,2.728432,2.730280,6051220.000000,1673607138.141814
1673612257.992862,,,,2.720522,2.719365,6051221.000000,1673607138.142821
1673612257.999910,,,,2.716556,2.715158,6051222.000000,1673607138.143828
1673612257.999922,,,,2.725691,2.727539,6051223.000000,1673607138.144835
1673612257.999958,,,,2.732326,2.733886,6051224.000000,1673607138.145843
1673612258.007525,3.396922,4801667.000000,1673612257.997007,,,,
1673612258.007554,3.433100,4801668.000000,1673612257.998007,,,,
1673612258.007561,3.541643,4801669.000000,1673612257.999007,,,,
1673612258.007567,3.613999,4801670.000000,1673612258.000007,,,,
1673612258.007571,3.650177,4801671.000000,1673612258.001007,,,,
1673612258.007597,3.686364,4801672.000000,1673612258.002007,,,,
1673612258.007605,3.776809,4801673.000000,1673612258.003007,,,,
1673612258.007626,3.849173,4801674.000000,1673612258.004007,,,,
1673612258.007634,3.939627,4801675.000000,1673612258.005007,,,,
1673612258.007647,3.975805,4801676.000000,1673612258.006007,,,,
1673612258.008717,,,,2.733192,2.730232,6051225.000000,1673607138.146850
1673612258.008930,,,,2.723576,2.723909,6051226.000000,1673607138.147857
1673612258.009032,,,,2.712998,2.715375,6051227.000000,1673607138.148864
1673612258.009223,,,,2.711243,2.710687,6051228.000000,1673607138.149871
1673612258.009362,,,,2.703670,2.707633,6051229.000000,1673607138.150878
1673612258.009488,,,,2.695087,2.699147,6051230.000000,1673607138.151885
1673612258.009712,,,,2.692443,2.694531,6051231.000000,1673607138.152892
1673612258.009719,,,,2.699727,2.701912,6051232.000000,1673607138.153899
1673612258.013536,,,,2.713983,2.716168,6051233.000000,1673607138.154906
1673612258.014066,,,,2.714224,2.717322,6051234.000000,1673607138.155913
1673612258.014350,,,,2.709151,2.713932,6051235.000000,1673607138.156920
1673612258.014368,,,,2.728600,2.728669,6051236.000000,1673607138.157928
1673612258.016092,,,,2.734177,2.731506,6051237.000000,1673607138.158935
1673612258.016244,,,,2.713791,2.711817,6051238.000000,1673607138.159942
1673612258.021755,,,,2.706651,2.709244,6051239.000000,1673607138.160949
1673612258.022016,,,,2.713190,2.716096,6051240.000000,1673607138.161956
1673612258.022202,,,,2.720354,2.719486,6051241.000000,1673607138.162963
1673612258.022584,,,,2.722590,2.722298,6051242.000000,1673607138.163970
1673612258.022881,,,,2.746799,2.747950,6051243.000000,1673607138.164977
1673612258.023173,,,,2.779542,2.784034,6051244.000000,1673607138.165984
1673612258.023796,,,,2.785889,2.785693,6051245.000000,1673607138.166991
1673612258.023820,,,,2.747520,2.749464,6051246.000000,1673607138.167998
1673612258.024235,,,,2.710113,2.713884,6051247.000000,1673607138.169005
1673612258.024553,,,,2.697323,2.697176,6051248.000000,1673607138.170012
1673612258.024568,,,,2.690303,2.692801,6051249.000000,1673607138.171020
1673612258.024776,,,,2.690039,2.691166,6051250.000000,1673607138.172027
1673612258.025000,,,,2.697299,2.698066,6051251.000000,1673607138.173034
1673612258.025653,,,,2.721484,2.724654,6051252.000000,1673607138.174041
1673612258.025673,,,,2.752424,2.757590,6051253.000000,1673607138.175048
1673612258.025687,,,,2.752232,2.752589,6051254.000000,1673607138.176055
1673612258.025828,,,,2.721147,2.721169,6051255.000000,1673607138.177062
1673612258.026140,,,,2.696410,2.696142,6051256.000000,1673607138.178069
1673612258.029484,,,,2.673571,2.675107,6051257.000000,1673607138.179076
1673612258.029658,,,,2.668427,2.667895,6051258.000000,1673607138.180083
1673612258.029674,,,,2.679702,2.682102,6051259.000000,1673607138.181090
1673612258.029690,,,,2.684125,2.686646,6051260.000000,1673607138.182097
1673612258.029696,,,,2.695352,2.696936,6051261.000000,1673607138.183105
1673612258.029703,,,,2.710786,2.711793,6051262.000000,1673607138.184112
1673612258.029719,,,,2.714440,2.712442,6051263.000000,1673607138.185119
1673612258.029753,,,,2.711675,2.712970,6051264.000000,1673607138.186126
1673612258.030935,,,,2.716171,2.717634,6051265.000000,1673607138.187133
1673612258.031011,,,,2.710618,2.710446,6051266.000000,1673607138.188140
1673612258.031283,,,,2.691025,2.691959,6051267.000000,1673607138.189147
1673612258.036512,,,,2.673331,2.677727,6051268.000000,1673607138.190154
1673612258.036959,,,,2.671239,2.674265,6051269.000000,1673607138.191161
1673612258.037033,,,,2.673715,2.674578,6051270.000000,1673607138.192168
1673612258.037458,,,,2.677538,2.679242,6051271.000000,1673607138.193175
1673612258.037474,,,,2.674989,2.676669,6051272.000000,1673607138.194182
1673612258.037691,,,,2.672369,2.676934,6051273.000000,1673607138.195189
1673612258.037798,,,,2.689005,2.693330,6051274.000000,1673607138.196197
1673612258.038429,,,,2.699511,2.701263,6051275.000000,1673607138.197204
1673612258.038742,,,,2.694991,2.695012,6051276.000000,1673607138.198211
1673612258.039052,,,,2.729754,2.728717,6051277.000000,1673607138.199218
1673612258.039066,,,,2.777258,2.777399,6051278.000000,1673607138.200225
1673612258.052793,,,,2.825363,2.827067,6051279.000000,1673607138.201232
1673612258.053126,,,,2.880536,2.882048,6051280.000000,1673607138.202239
1673612258.053324,,,,2.949869,2.953448,6051281.000000,1673607138.203246
1673612258.053624,,,,3.004345,3.006241,6051282.000000,1673607138.204253
1673612258.053947,,,,3.039132,3.040427,6051283.000000,1673607138.205260
1673612258.054224,,,,3.055022,3.056246,6051284.000000,1673607138.206267
1673612258.054232,,,,3.061489,3.062592,6051285.000000,1673607138.207274
1673612258.060022,,,,3.047546,3.048889,6051286.000000,1673607138.208282
1673612258.060571,,,,2.999513,3.000640,6051287.000000,1673607138.209289
1673612258.060940,,,,2.895057,2.894982,6051288.000000,1673607138.210296
1673612258.060962,,,,2.817430,2.817259,6051289.000000,1673607138.211303
1673612258.061327,4.030072,4801677.000000,1673612257.999697,,,,
1673612258.062607,4.174793,4801678.000000,1673612258.000697,,,,
1673612258.062617,4.210971,4801679.000000,1673612258.001697,,,,
1673612258.062627,4.283336,4801680.000000,1673612258.002697,,,,
1673612258.062639,4.391878,4801681.000000,1673612258.003697,,,,
1673612258.062645,8.643054,4801728.000000,1673612258.050697,,,,
1673612258.062657,8.769686,4801729.000000,1673612258.051697,,,,
1673612258.062713,8.842050,4801730.000000,1673612258.052697,,,,
1673612258.062716,8.950584,4801731.000000,1673612258.053697,,,,
1673612258.062767,9.113402,4801732.000000,1673612258.054697,,,,
1673612258.062773,9.167669,4801733.000000,1673612258.055697,,,,
1673612258.062797,9.294301,4801734.000000,1673612258.056697,,,,
1673612258.062802,9.420933,4801735.000000,1673612258.057697,,,,
1673612258.062806,9.475200,4801736.000000,1673612258.058697,,,,
1673612258.062826,9.656098,4801737.000000,1673612258.059697,,,,
1673612258.066315,,,,2.760814,2.760379,6051290.000000,1673607138.212310
1673612258.066329,,,,2.676985,2.675948,6051291.000000,1673607138.213317
1673612258.066447,,,,2.599142,2.599571,6051292.000000,1673607138.214324
1673612258.066570,,,,2.555893,2.554039,6051293.000000,1673607138.215331
1673612258.068180,,,,2.541540,2.542788,6051294.000000,1673607138.216338
1673612258.068362,,,,2.553849,2.554760,6051295.000000,1673607138.217345
1673612258.074465,,,,2.566711,2.566083,6051296.000000,1673607138.218352
1673612258.074960,,,,2.585390,2.583729,6051297.000000,1673607138.219359
1673612258.075005,,,,2.604887,2.605774,6051298.000000,1673607138.220366
1673612258.075026,,,,2.629553,2.629959,6051299.000000,1673607138.221374
1673612258.075781,,,,2.639866,2.640609,6051300.000000,1673607138.222381
1673612258.075842,,,,2.646526,2.648999,6051301.000000,1673607138.223388
1673612258.075853,,,,2.647752,2.649047,6051302.000000,1673607138.224395
1673612258.075984,,,,2.649002,2.647821,6051303.000000,1673607138.225402
1673612258.076415,,,,2.663114,2.661500,6051304.000000,1673607138.226409
1673612258.076708,,,,2.681336,2.682824,6051305.000000,1673607138.227416
1673612258.077476,,,,2.685279,2.686430,6051306.000000,1673607138.228423
1673612258.077774,,,,2.675278,2.674770,6051307.000000,1673607138.229430
1673612258.077798,,,,2.658762,2.660322,6051308.000000,1673607138.230437
1673612258.077837,,,,2.648641,2.649528,6051309.000000,1673607138.231444
1673612258.077925,,,,2.652007,2.652629,6051310.000000,1673607138.232451
1673612258.081576,,,,2.657392,2.656139,6051311.000000,1673607138.233459
1673612258.081728,,,,2.667152,2.665731,6051312.000000,1673607138.234466
1673612258.081741,,,,2.695087,2.696214,6051313.000000,1673607138.235473
1673612258.082166,,,,2.730187,2.730544,6051314.000000,1673607138.236480
1673612258.082276,,,,2.744130,2.744103,6051315.000000,1673607138.237487
1673612258.082284,,,,2.716580,2.720159,6051316.000000,1673607138.238494
1673612258.082292,,,,2.680182,2.681910,6051317.000000,1673607138.239501
1673612258.088652,,,,2.651911,2.654071,6051318.000000,1673607138.240508
1673612258.088932,,,,2.620586,2.624093,6051319.000000,1673607138.241515
1673612258.088944,,,,2.616667,2.616857,6051320.000000,1673607138.242522
1673612258.090997,,,,2.642992,2.644696,6051321.000000,1673607138.243529
1673612258.091208,,,,2.702684,2.702224,6051322.000000,1673607138.244536
1673612258.091419,,,,2.749491,2.750354,6051323.000000,1673607138.245543
1673612258.091522,,,,2.761343,2.760811,6051324.000000,1673607138.246551
1673612258.096030,,,,2.752088,2.750979,6051325.000000,1673607138.247558
1673612258.096312,,,,2.758963,2.762374,6051326.000000,1673607138.248565
1673612258.096326,,,,2.762762,2.766317,6051327.000000,1673607138.249572
1673612258.098570,,,,2.761439,2.760787,6051328.000000,1673607138.250579
1673612258.098822,,,,2.750813,2.750354,6051329.000000,1673607138.251586
1673612258.098835,,,,2.737158,2.738478,6051330.000000,1673607138.252593
1673612258.098842,,,,2.722349,2.723212,6051331.000000,1673607138.253600
1673612258.112281,,,,2.697443,2.697825,6051332.000000,1673607138.254607
1673612258.112550,,,,2.685760,2.684987,6051333.000000,1673607138.255614
1673612258.113168,,,,2.699487,2.698330,6051334.000000,1673607138.256621
1673612258.113190,,,,2.706939,2.705903,6051335.000000,1673607138.257628
1673612258.120296,,,,2.726268,2.725832,6051336.000000,1673607138.258636
1673612258.120695,,,,2.742832,2.744969,6051337.000000,1673607138.259643
1673612258.120989,,,,2.754467,2.755955,6051338.000000,1673607138.260650
1673612258.121185,,,,2.765045,2.762326,6051339.000000,1673607138.261657
1673612258.125790,9.710374,4801738.000000,1673612258.064819,,,,
1673612258.126168,9.818917,4801739.000000,1673612258.065819,,,,
1673612258.126257,,,,2.751559,2.748406,6051340.000000,1673607138.262664
1673612258.126269,,,,2.749539,2.751892,6051341.000000,1673607138.263671
1673612258.126320,9.873184,4801740.000000,1673612258.066819,,,,
1673612258.127017,9.909362,4801741.000000,1673612258.067819,,,,
1673612258.127322,11.483201,4801757.000000,1673612258.083819,,,,
1673612258.127468,11.646019,4801758.000000,1673612258.084819,,,,
1673612258.128459,11.754553,4801759.000000,1673612258.085819,,,,
1673612258.128476,11.808828,4801760.000000,1673612258.086819,,,,
1673612258.128482,11.899274,4801761.000000,1673612258.087819,,,,
1673612258.128508,12.025906,4801762.000000,1673612258.088819,,,,
1673612258.128580,12.062092,4801763.000000,1673612258.089819,,,,
1673612258.128589,12.170626,4801764.000000,1673612258.090819,,,,
1673612258.128622,12.315347,4801765.000000,1673612258.091819,,,,
1673612258.128638,12.351533,4801766.000000,1673612258.092819,,,,
1673612258.128644,14.540433,4801789.000000,1673612258.115819,,,,
1673612258.128648,14.594708,4801790.000000,1673612258.116819,,,,
1673612258.128665,14.721340,4801791.000000,1673612258.117819,,,,
1673612258.128722,14.775607,4801792.000000,1673612258.118819,,,,
1673612258.128731,14.884150,4801793.000000,1673612258.119819,,,,
1673612258.128742,14.974595,4801794.000000,1673612258.120819,,,,
1673612258.128755,15.155502,4801795.000000,1673612258.121819,,,,
1673612258.128768,15.209769,4801796.000000,1673612258.122819,,,,
1673612258.128774,15.318312,4801797.000000,1673612258.123819,,,,
1673612258.128791,15.463033,4801798.000000,1673612258.124819,,,,
1673612258.128808,,,,2.746366,2.746219,6051342.000000,1673607138.264678
1673612258.129055,,,,2.719489,2.719558,6051343.000000,1673607138.265685
1673612258.129064,,,,2.672730,2.672606,6051344.000000,1673607138.266692
1673612258.129069,,,,2.648160,2.648926,6051345.000000,1673607138.267699
1673612258.133727,,,,2.654050,2.650922,6051346.000000,1673607138.268706
1673612258.133741,,,,2.676769,2.676020,6051347.000000,1673607138.269713
1673612258.134048,,,,2.693645,2.694700,6051348.000000,1673607138.270720
1673612258.134282,,,,2.706843,2.707802,6051349.000000,1673607138.271728
1673612258.135849,,,,2.709848,2.712442,6051350.000000,1673607138.272735
1673612258.136006,,,,2.700641,2.703378,6051351.000000,1673607138.273742
1673612258.136255,,,,2.684966,2.687079,6051352.000000,1673607138.274749
1673612258.141586,,,,2.669749,2.666717,6051353.000000,1673607138.275756
1673612258.142607,,,,2.649266,2.650033,6051354.000000,1673607138.276763
1673612258.142756,,,,2.646405,2.650249,6051355.000000,1673607138.277770
1673612258.142774,,,,2.662921,2.663832,6051356.000000,1673607138.278777
1673612258.142802,,,,2.664388,2.664529,6051357.000000,1673607138.279784
1673612258.142844,,,,2.687202,2.689531,6051358.000000,1673607138.280791
1673612258.142853,,,,2.742399,2.745762,6051359.000000,1673607138.281798
1673612258.142860,,,,2.795192,2.799565,6051360.000000,1673607138.282805
1673612258.144114,,,,2.807621,2.810263,6051361.000000,1673607138.283813
1673612258.144453,,,,2.798894,2.799276,6051362.000000,1673607138.284820
1673612258.144576,,,,2.788124,2.787737,6051363.000000,1673607138.285827
1673612258.144998,,,,2.770719,2.770908,6051364.000000,1673607138.286834
1673612258.145113,,,,2.741654,2.743815,6051365.000000,1673607138.287841
1673612258.145401,,,,2.720859,2.721745,6051366.000000,1673607138.288848
1673612258.148708,,,,2.692347,2.692296,6051367.000000,1673607138.289855
1673612258.148804,,,,2.667777,2.671549,6051368.000000,1673607138.290862
1673612258.148965,,,,2.655493,2.658182,6051369.000000,1673607138.291869
1673612258.149043,,,,2.647511,2.648782,6051370.000000,1673607138.292876
1673612258.149203,,,,2.617076,2.618756,6051371.000000,1673607138.293883
1673612258.149235,,,,2.597795,2.598730,6051372.000000,1673607138.294890
1673612258.149272,,,,2.619841,2.618708,6051373.000000,1673607138.295897
1673612258.150762,,,,2.656286,2.654576,6051374.000000,1673607138.296905
1673612258.150909,,,,2.671648,2.672534,6051375.000000,1673607138.297912
1673612258.150961,,,,2.679702,2.681189,6051376.000000,1673607138.298919
1673612258.150995,,,,2.677538,2.678280,6051377.000000,1673607138.299926
1673612258.155978,,,,2.664580,2.665971,6051378.000000,1673607138.300933
1673612258.156118,,,,2.638736,2.637219,6051379.000000,1673607138.301940
1673612258.156258,,,,2.620586,2.620294,6051380.000000,1673607138.302947
1673612258.156352,,,,2.639313,2.643205,6051381.000000,1673607138.303954
1673612258.158418,,,,2.686289,2.691695,6051382.000000,1673607138.304961
1673612258.158623,,,,2.714873,2.715807,6051383.000000,1673607138.305968
1673612258.159009,,,,2.712132,2.712898,6051384.000000,1673607138.306975
1673612258.159220,,,,2.705112,2.708523,6051385.000000,1673607138.307982
1673612258.172813,,,,2.697059,2.697032,6051386.000000,1673607138.308990
1673612258.172943,,,,2.645251,2.645970,6051387.000000,1673607138.309997
1673612258.173397,,,,2.601425,2.602985,6051388.000000,1673607138.311004
1673612258.179915,,,,2.622245,2.625896,6051389.000000,1673607138.312011
1673612258.180443,,,,2.641766,2.640056,6051390.000000,1673607138.313018
1673612258.180767,,,,2.644242,2.643734,6051391.000000,1673607138.314025
1673612258.180910,,,,2.681745,2.681958,6051392.000000,1673607138.315032
1673612258.181843,15.535389,4801799.000000,1673612258.121073,,,,
1673612258.183326,15.571575,4801800.000000,1673612258.122073,,,,
1673612258.183347,22.228735,4801850.000000,1673612258.172073,,,,
1673612258.183355,22.427732,4801851.000000,1673612258.173073,,,,
1673612258.183362,22.644808,4801852.000000,1673612258.174073,,,,
1673612258.183373,22.807619,4801853.000000,1673612258.175073,,,,
1673612258.183386,23.024704,4801854.000000,1673612258.176073,,,,
1673612258.183398,23.205603,4801855.000000,1673612258.177073,,,,
1673612258.183410,23.440777,4801856.000000,1673612258.178073,,,,
1673612258.183420,23.621675,4801857.000000,1673612258.179073,,,,
1673612258.183442,23.820671,4801858.000000,1673612258.180073,,,,
1673612258.183462,23.983480,4801859.000000,1673612258.181073,,,,
1673612258.186144,,,,2.724128,2.726770,6051393.000000,1673607138.316039
1673612258.186554,,,,2.754131,2.757253,6051394.000000,1673607138.317046
1673612258.186853,,,,2.804159,2.804277,6051395.000000,1673607138.318053
1673612258.186870,,,,2.818295,2.819013,6051396.000000,1673607138.319060
1673612258.188304,,,,2.770094,2.767927,6051397.000000,1673607138.320067
1673612258.188454,,,,2.720691,2.724390,6051398.000000,1673607138.321074
1673612258.193656,,,,2.689871,2.694892,6051399.000000,1673607138.322082
1673612258.193787,,,,2.693765,2.696936,6051400.000000,1673607138.323089
1673612258.194146,,,,2.692275,2.690757,6051401.000000,1673607138.324096
1673612258.194483,,,,2.684630,2.684603,6051402.000000,1673607138.325103
1673612258.199533,,,,2.707252,2.709316,6051403.000000,1673607138.326110
1673612258.199810,,,,2.713262,2.714293,6051404.000000,1673607138.327117
1673612258.199827,,,,2.707781,2.706239,6051405.000000,1673607138.328124
1673612258.199832,,,,2.726340,2.728621,6051406.000000,1673607138.329131
1673612258.199878,,,,2.771560,2.774539,6051407.000000,1673607138.330138
1673612258.199888,,,,2.821324,2.820768,6051408.000000,1673607138.331145
1673612258.199913,,,,2.897052,2.896520,6051409.000000,1673607138.332152
1673612258.199924,,,,2.947465,2.946308,6051410.000000,1673607138.333159
1673612258.199932,,,,2.997590,2.994990,6051411.000000,1673607138.334167
1673612258.200308,,,,3.026126,3.027902,6051412.000000,1673607138.335174
1673612258.200528,,,,3.014250,3.015665,6051413.000000,1673607138.336181
1673612258.200859,,,,2.942537,2.944024,6051414.000000,1673607138.337188
1673612258.200871,,,,2.853370,2.853608,6051415.000000,1673607138.338195
1673612258.200876,,,,2.753025,2.751772,6051416.000000,1673607138.339202
1673612258.200944,,,,2.654026,2.652461,6051417.000000,1673607138.340209
1673612258.201121,,,,2.602195,2.603610,6051418.000000,1673607138.341216
1673612258.201251,,,,2.584044,2.586277,6051419.000000,1673607138.342223
1673612258.201504,,,,2.565172,2.566924,6051420.000000,1673607138.343230
1673612258.201598,,,,2.580582,2.580748,6051421.000000,1673607138.344237
1673612258.201607,,,,2.608686,2.608202,6051422.000000,1673607138.345244
1673612258.201636,,,,2.649531,2.648734,6051423.000000,1673607138.346251
1673612258.201661,,,,2.768291,2.766413,6051424.000000,1673607138.347259
1673612258.201756,,,,2.848803,2.846179,6051425.000000,1673607138.348266
1673612258.201886,,,,2.872867,2.870773,6051426.000000,1673607138.349273
1673612258.202008,,,,2.921453,2.920705,6051427.000000,1673607138.350280
1673612258.202093,,,,2.938979,2.941428,6051428.000000,1673607138.351287
1673612258.202169,,,,2.921261,2.920873,6051429.000000,1673607138.352294
1673612258.202652,,,,2.868059,2.871037,6051430.000000,1673607138.353301
1673612258.202657,,,,2.810746,2.813773,6051431.000000,1673607138.354308
1673612258.202662,,,,2.794399,2.796656,6051432.000000,1673607138.355315
1673612258.202666,,,,2.808246,2.812210,6051433.000000,1673607138.356322
1673612258.202706,,,,2.830027,2.833366,6051434.000000,1673607138.357329
1673612258.202725,,,,2.848610,2.850987,6051435.000000,1673607138.358336
1673612258.202785,,,,2.848610,2.851324,6051436.000000,1673607138.359344
1673612258.202796,,,,2.852024,2.854834,6051437.000000,1673607138.360351
1673612258.202816,,,,2.829690,2.828774,6051438.000000,1673607138.361358
1673612258.203886,,,,2.811131,2.812571,6051439.000000,1673607138.362365
1673612258.204091,,,,2.829402,2.834111,6051440.000000,1673607138.363372
1673612258.204240,,,,2.890729,2.896472,6051441.000000,1673607138.364379
1673612258.204365,,,,3.008480,3.011963,6051442.000000,1673607138.365386
1673612258.204374,,,,3.040430,3.040259,6051443.000000,1673607138.366393
1673612258.204479,,,,2.923665,2.920753,6051444.000000,1673607138.367400
1673612258.204511,,,,2.704559,2.704628,6051445.000000,1673607138.368407
1673612258.204600,,,,2.515024,2.515381,6051446.000000,1673607138.369414
1673612258.204708,,,,2.464106,2.465521,6051447.000000,1673607138.370421
1673612258.204814,,,,2.499181,2.499971,6051448.000000,1673607138.371428
1673612258.211618,,,,2.517692,2.515646,6051449.000000,1673607138.372436
1673612258.211690,,,,2.518245,2.516992,6051450.000000,1673607138.373443
1673612258.211947,,,,2.522548,2.523050,6051451.000000,1673607138.374450
1673612258.212138,,,,2.582482,2.585363,6051452.000000,1673607138.375457
1673612258.212328,,,,2.619672,2.618131,6051453.000000,1673607138.376464
1673612258.212519,,,,2.615874,2.616087,6051454.000000,1673607138.377471
1673612258.212631,,,,2.605536,2.604716,6051455.000000,1673607138.378478
1673612258.212827,,,,2.622293,2.621689,6051456.000000,1673607138.379485
1673612258.213137,,,,2.660950,2.660634,6051457.000000,1673607138.380492
1673612258.213148,,,,2.678499,2.678064,6051458.000000,1673607138.381499
1673612258.213161,,,,2.662392,2.663471,6051459.000000,1673607138.382506
1673612258.216866,,,,2.666359,2.667222,6051460.000000,1673607138.383513
1673612258.216974,,,,2.677177,2.677391,6051461.000000,1673607138.384521
1673612258.217159,,,,2.719104,2.719606,6051462.000000,1673607138.385528
1673612258.217171,,,,2.776849,2.776991,6051463.000000,1673607138.386535
1673612258.217714,,,,2.781706,2.782159,6051464.000000,1673607138.387542
1673612258.217727,,,,2.765430,2.765211,6051465.000000,1673607138.388549
1673612258.217906,,,,2.767426,2.769634,6051466.000000,1673607138.389556
1673612258.217920,,,,2.791490,2.794372,6051467.000000,1673607138.390563
1673612258.217925,,,,2.779782,2.783602,6051468.000000,1673607138.391570
1673612258.217951,,,,2.733769,2.737396,6051469.000000,1673607138.392577
1673612258.217955,,,,2.713430,2.716000,6051470.000000,1673607138.393584
1673612258.218622,,,,2.725739,2.724823,6051471.000000,1673607138.394591
1673612258.218842,,,,2.736413,2.738358,6051472.000000,1673607138.395598
1673612258.219058,,,,2.675975,2.676044,6051473.000000,1673607138.396605
1673612258.219109,,,,2.601666,2.603490,6051474.000000,1673607138.397613
1673612258.219529,,,,2.608397,2.610462,6051475.000000,1673607138.398620
1673612258.219540,,,,2.648689,2.651427,6051476.000000,1673607138.399627
1673612258.219544,,,,2.661551,2.662822,6051477.000000,1673607138.400634
1673612258.232909,,,,2.631452,2.631545,6051478.000000,1673607138.401641
1673612258.232934,,,,2.603613,2.603851,6051479.000000,1673607138.402648
1673612258.233130,,,,2.637871,2.639359,6051480.000000,1673607138.403655
1673612258.240611,,,,2.669508,2.668423,6051481.000000,1673607138.404662
1673612258.240923,,,,2.665878,2.664841,6051482.000000,1673607138.405669
1673612258.240943,,,,2.668787,2.670178,6051483.000000,1673607138.406676
1673612258.240961,,,,2.691794,2.695782,6051484.000000,1673607138.407683
1673612258.246123,24.236744,4801860.000000,1673612258.185513,,,,
1673612258.246195,24.363377,4801861.000000,1673612258.186513,,,,
1673612258.246458,,,,2.756150,2.756604,6051485.000000,1673607138.408690
1673612258.246588,25.503054,4801866.000000,1673612258.191513,,,,
1673612258.246598,25.738218,4801867.000000,1673612258.192513,,,,
1673612258.246602,25.882940,4801868.000000,1673612258.193513,,,,
1673612258.246672,26.172390,4801869.000000,1673612258.194513,,,,
1673612258.247709,26.425644,4801870.000000,1673612258.195513,,,,
1673612258.247717,26.660818,4801871.000000,1673612258.196513,,,,
1673612258.247724,26.859806,4801872.000000,1673612258.197513,,,,
1673612258.247731,27.113070,4801873.000000,1673612258.198513,,,,
1673612258.247863,27.366333,4801874.000000,1673612258.199513,,,,
1673612258.247873,27.529142,4801875.000000,1673612258.200513,,,,
1673612258.247882,37.587254,4801911.000000,1673612258.236513,,,,
1673612258.247888,37.894783,4801912.000000,1673612258.237513,,,,
1673612258.247895,38.184223,4801913.000000,1673612258.238513,,,,
1673612258.247935,38.437489,4801914.000000,1673612258.239513,,,,
1673612258.247939,38.690750,4801915.000000,1673612258.240513,,,,
1673612258.247969,38.980190,4801916.000000,1673612258.241513,,,,
1673612258.248002,39.305813,4801917.000000,1673612258.242513,,,,
1673612258.248015,39.559074,4801918.000000,1673612258.243513,,,,
1673612258.248025,39.848515,4801919.000000,1673612258.244513,,,,
1673612258.248035,40.101780,4801920.000000,1673612258.245513,,,,
1673612258.248056,,,,2.790192,2.789299,6051486.000000,1673607138.409698
1673612258.248059,,,,2.849163,2.849641,6051487.000000,1673607138.410705
1673612258.248074,,,,2.880080,2.883682,6051488.000000,1673607138.411712
1673612258.248348,,,,2.851712,2.855170,6051489.000000,1673607138.412719
1673612258.248503,,,,2.804376,2.806825,6051490.000000,1673607138.413726
1673612258.248599,,,,2.735572,2.735473,6051491.000000,1673607138.414733
1673612258.248791,,,,2.676648,2.675539,6051492.000000,1673607138.415740
1673612258.248837,,,,2.652680,2.655273,6051493.000000,1673607138.416747
1673612258.248968,,,,2.643544,2.646330,6051494.000000,1673607138.417754
1673612258.249102,,,,2.644891,2.649047,6051495.000000,1673607138.418761
1673612258.249225,,,,2.678836,2.680636,6051496.000000,1673607138.419768
1673612258.249451,,,,2.731148,2.730953,6051497.000000,1673607138.420775
1673612258.249709,,,,2.748818,2.749416,6051498.000000,1673607138.421782
1673612258.249717,,,,2.802332,2.803964,6051499.000000,1673607138.422790
1673612258.253485,,,,2.867218,2.868248,6051500.000000,1673607138.423797
1673612258.253534,,,,2.896643,2.895246,6051501.000000,1673607138.424804
1673612258.255749,,,,2.916429,2.915656,6051502.000000,1673607138.425811
1673612258.255896,,,,2.947080,2.951236,6051503.000000,1673607138.426818
1673612258.256110,,,,2.933161,2.933663,6051504.000000,1673607138.427825
1673612258.256118,,,,2.874141,2.875172,6051505.000000,1673607138.428832
1673612258.261465,,,,2.815290,2.816826,6051506.000000,1673607138.429839
1673612258.261580,,,,2.775575,2.775861,6051507.000000,1673607138.430846
1673612258.261622,,,,2.782787,2.784083,6051508.000000,1673607138.431853
1673612258.261632,,,,2.760406,2.763023,6051509.000000,1673607138.432860
1673612258.263525,,,,2.726412,2.729318,6051510.000000,1673607138.433867
1673612258.263539,,,,2.723071,2.725544,6051511.000000,1673607138.434875
1673612258.263875,,,,2.708502,2.708836,6051512.000000,1673607138.435882
1673612258.269693,,,,2.732591,2.730953,6051513.000000,1673607138.436889
1673612258.269961,,,,2.740692,2.743887,6051514.000000,1673607138.437896
1673612258.270162,,,,2.760670,2.763889,6051515.000000,1673607138.438903
1673612258.270183,,,,2.788557,2.788795,6051516.000000,1673607138.439910
1673612258.270425,,,,2.789663,2.791800,6051517.000000,1673607138.440917
1673612258.270486,,,,2.765358,2.765667,6051518.000000,1673607138.441924
1673612258.270640,,,,2.735259,2.735208,6051519.000000,1673607138.442931
1673612258.270667,,,,2.729850,2.731818,6051520.000000,1673607138.443938
1673612258.271218,,,,2.747688,2.747974,6051521.000000,1673607138.444945
1673612258.271564,,,,2.721244,2.720976,6051522.000000,1673607138.445952
1673612258.271985,,,,2.677947,2.679578,6051523.000000,1673607138.446959
1673612258.272303,,,,2.675999,2.678545,6051524.000000,1673607138.447967
1673612258.272324,,,,2.696290,2.698354,6051525.000000,1673607138.448974
1673612258.272554,,,,2.687010,2.688209,6051526.000000,1673607138.449981
1673612258.276227,,,,2.687731,2.690397,6051527.000000,1673607138.450988
1673612258.276492,,,,2.666599,2.670106,6051528.000000,1673607138.451995
1673612258.276513,,,,2.668402,2.670804,6051529.000000,1673607138.453002
1673612258.276660,,,,2.774517,2.775187,6051530.000000,1673607138.454009
1673612258.278941,,,,2.814665,2.814927,6051531.000000,1673607138.455016
1673612258.279102,,,,2.802500,2.803676,6051532.000000,1673607138.456023
1673612258.279267,,,,2.818608,2.819807,6051533.000000,1673607138.457030
1673612258.279521,,,,2.912270,2.914623,6051534.000000,1673607138.458037
1673612258.279695,,,,3.019178,3.021315,6051535.000000,1673607138.459044
1673612258.280065,,,,3.030117,3.030354,6051536.000000,1673607138.460052
1673612258.280168,,,,2.913376,2.914454,6051537.000000,1673607138.461059
1673612258.292315,,,,2.801154,2.801007,6051538.000000,1673607138.462066
1673612258.292640,,,,2.698910,2.697849,6051539.000000,1673607138.463073
1673612258.292976,,,,2.600512,2.603442,6051540.000000,1673607138.464080
1673612258.293191,,,,2.587458,2.590724,6051541.000000,1673607138.465087
1673612258.299722,,,,2.544906,2.545528,6051542.000000,1673607138.466094
1673612258.299901,,,,2.495791,2.496678,6051543.000000,1673607138.467101
1673612258.300078,,,,2.516827,2.514468,6051544.000000,1673607138.468108
1673612258.300869,41.241455,4801924.000000,1673612258.243277,,,,
1673612258.300878,41.585175,4801925.000000,1673612258.244277,,,,
1673612258.300953,41.802250,4801926.000000,1673612258.245277,,,,
1673612258.301362,42.145966,4801927.000000,1673612258.246277,,,,
1673612258.301533,42.417320,4801928.000000,1673612258.247277,,,,
1673612258.301719,42.688671,4801929.000000,1673612258.248277,,,,
1673612258.301728,42.996201,4801930.000000,1673612258.249277,,,,
1673612258.301738,43.303734,4801931.000000,1673612258.250277,,,,
1673612258.301742,43.556995,4801932.000000,1673612258.251277,,,,
1673612258.301755,43.900703,4801933.000000,1673612258.252277,,,,
1673612258.301779,54.809048,4801972.000000,1673612258.291277,,,,
1673612258.301784,55.062313,4801973.000000,1673612258.292277,,,,
1673612258.301791,55.333664,4801974.000000,1673612258.293277,,,,
1673612258.301796,55.605015,4801975.000000,1673612258.294277,,,,
1673612258.301800,55.894459,4801976.000000,1673612258.295277,,,,
1673612258.301805,56.238174,4801977.000000,1673612258.296277,,,,
1673612258.301816,56.473339,4801978.000000,1673612258.297277,,,,
1673612258.301840,56.762783,4801979.000000,1673612258.298277,,,,
1673612258.301845,57.088402,4801980.000000,1673612258.299277,,,,
1673612258.301852,57.377842,4801981.000000,1673612258.300277,,,,
1673612258.306185,,,,2.543271,2.542932,6051545.000000,1673607138.469115
1673612258.306447,,,,2.586376,2.589042,6051546.000000,1673607138.470122
1673612258.306619,,,,2.649074,2.649792,6051547.000000,1673607138.471129
1673612258.306776,,,,2.666551,2.668375,6051548.000000,1673607138.472136
1673612258.308298,,,,2.644891,2.645008,6051549.000000,1673607138.473144
1673612258.308600,,,,2.602916,2.601735,6051550.000000,1673607138.474151
1673612258.308676,,,,2.601233,2.603057,6051551.000000,1673607138.475158
1673612258.314170,,,,2.636429,2.640609,6051552.000000,1673607138.476165
1673612258.314632,,,,2.724393,2.728549,6051553.000000,1673607138.477172
1673612258.314895,,,,2.864549,2.866061,6051554.000000,1673607138.478179
1673612258.314919,,,,3.000883,3.002563,6051555.000000,1673607138.479186
1673612258.314954,,,,3.063268,3.065189,6051556.000000,1673607138.480193
1673612258.315283,,,,3.076803,3.077425,6051557.000000,1673607138.481200
1673612258.315561,,,,3.062980,3.064516,6051558.000000,1673607138.482207
1673612258.315577,,,,3.031727,3.034297,6051559.000000,1673607138.483214
1673612258.316317,,,,2.937729,2.939841,6051560.000000,1673607138.484221
1673612258.316518,,,,2.783653,2.785765,6051561.000000,1673607138.485229
1673612258.316850,,,,2.640155,2.642508,6051562.000000,1673607138.486236
1673612258.317095,,,,2.606594,2.604908,6051563.000000,1673607138.487243
1673612258.317155,,,,2.562937,2.562982,6051564.000000,1673607138.488250
1673612258.317511,,,,2.468890,2.470185,6051565.000000,1673607138.489257
1673612258.317769,,,,2.369362,2.368157,6051566.000000,1673607138.490264
1673612258.321105,,,,2.332700,2.334356,6051567.000000,1673607138.491271
1673612258.321347,,,,2.427732,2.428475,6051568.000000,1673607138.492278
1673612258.321611,,,,2.494421,2.494634,6051569.000000,1673607138.493285
1673612258.321870,,,,2.552768,2.551154,6051570.000000,1673607138.494292
1673612258.323805,,,,2.626187,2.627747,6051571.000000,1673607138.495299
1673612258.323970,,,,2.618759,2.619958,6051572.000000,1673607138.496306
1673612258.324551,,,,2.661214,2.661043,6051573.000000,1673607138.497313
1673612258.324571,,,,2.754347,2.755979,6051574.000000,1673607138.498321
1673612258.324580,,,,2.787812,2.789973,6051575.000000,1673607138.499328
1673612258.324629,,,,2.800914,2.803916,6051576.000000,1673607138.500335
1673612258.324642,,,,2.836566,2.838198,6051577.000000,1673607138.501342
1673612258.328652,,,,2.816083,2.819182,6051578.000000,1673607138.502349
1673612258.329212,,,,2.803005,2.802546,6051579.000000,1673607138.503356
1673612258.329241,,,,2.832744,2.832476,6051580.000000,1673607138.504363
1673612258.329280,,,,2.883253,2.884235,6051581.000000,1673607138.505370
1673612258.330891,,,,2.966986,2.966863,6051582.000000,1673607138.506377
1673612258.331215,,,,2.990137,2.988788,6051583.000000,1673607138.507384
1673612258.336900,,,,3.000979,3.001337,6051584.000000,1673607138.508391
1673612258.337086,,,,3.037160,3.038768,6051585.000000,1673607138.509398
1673612258.337097,,,,3.158998,3.157937,6051586.000000,1673607138.510406
1673612258.337330,,,,3.234341,3.232511,6051587.000000,1673607138.511413
1673612258.337445,,,,3.188808,3.187988,6051588.000000,1673607138.512420
1673612258.337624,,,,3.078005,3.080022,6051589.000000,1673607138.513427
1673612258.338030,,,,2.930685,2.932317,6051590.000000,1673607138.514434
1673612258.338051,,,,2.776705,2.778553,6051591.000000,1673607138.515441
1673612258.338735,,,,2.695208,2.696166,6051592.000000,1673607138.516448
1673612258.338751,,,,2.640467,2.640032,6051593.000000,1673607138.517455
1673612258.338768,,,,2.605320,2.605221,6051594.000000,1673607138.518462
1673612258.352294,,,,2.614335,2.615486,6051595.000000,1673607138.519469
1673612258.352336,,,,2.564187,2.569401,6051596.000000,1673607138.520476
1673612258.352482,,,,2.547791,2.552957,6051597.000000,1673607138.521483
1673612258.352617,,,,2.571519,2.574665,6051598.000000,1673607138.522491
1673612258.363352,,,,2.655396,2.659793,6051599.000000,1673607138.523498
1673612258.363432,,,,2.685255,2.687031,6051600.000000,1673607138.524505
1673612258.363660,,,,2.685327,2.685180,6051601.000000,1673607138.525512
1673612258.364135,,,,2.675615,2.675924,6051602.000000,1673607138.526519
1673612258.364978,57.667286,4801982.000000,1673612258.304201,,,,
1673612258.364994,57.938637,4801983.000000,1673612258.305201,,,,
1673612258.365011,58.155724,4801984.000000,1673612258.306201,,,,
1673612258.366288,,,,2.627726,2.630247,6051603.000000,1673607138.527526
1673612258.366407,74.075035,4802033.000000,1673612258.355201,,,,
1673612258.366425,74.436829,4802034.000000,1673612258.356201,,,,
1673612258.366440,74.762466,4802035.000000,1673612258.357201,,,,
1673612258.366455,75.142349,4802036.000000,1673612258.358201,,,,
1673612258.366467,75.467972,4802037.000000,1673612258.359200,,,,
1673612258.366476,75.811684,4802038.000000,1673612258.360201,,,,
1673612258.366486,76.191582,4802039.000000,1673612258.361201,,,,
1673612258.366541,76.553383,4802040.000000,1673612258.362200,,,,
1673612258.366547,76.860909,4802041.000000,1673612258.363201,,,,
1673612258.366569,77.240799,4802042.000000,1673612258.364201,,,,
1673612258.366749,,,,2.651454,2.651667,6051604.000000,1673607138.528533
1673612258.366759,,,,2.746510,2.746171,6051605.000000,1673607138.529540
1673612258.366974,,,,2.854356,2.855411,6051606.000000,1673607138.530547
1673612258.367214,,,,2.887724,2.888539,6051607.000000,1673607138.531554
1673612258.367439,,,,2.810122,2.807474,6051608.000000,1673607138.532561
1673612258.371199,,,,2.752352,2.752686,6051609.000000,1673607138.533568
1673612258.371262,,,,2.789495,2.791679,6051610.000000,1673607138.534575
1673612258.371274,,,,2.851495,2.853776,6051611.000000,1673607138.535583
1673612258.371334,,,,2.896667,2.897337,6051612.000000,1673607138.536590
1673612258.371340,,,,2.856880,2.857911,6051613.000000,1673607138.537597
1673612258.371507,,,,2.664868,2.664914,6051614.000000,1673607138.538604
1673612258.371760,,,,2.555893,2.556346,6051615.000000,1673607138.539611
1673612258.373461,,,,2.613013,2.614188,6051616.000000,1673607138.540618
1673612258.373631,,,,2.776152,2.776245,6051617.000000,1673607138.541625
1673612258.373813,,,,2.928641,2.927124,6051618.000000,1673607138.542632
1673612258.374006,,,,2.981867,2.980422,6051619.000000,1673607138.543639
1673612258.378190,,,,2.990017,2.991937,6051620.000000,1673607138.544646
1673612258.378581,,,,2.947225,2.946140,6051621.000000,1673607138.545653
1673612258.378830,,,,2.810506,2.810287,6051622.000000,1673607138.546660
1673612258.378847,,,,2.675759,2.677294,6051623.000000,1673607138.547668
1673612258.379210,,,,2.631188,2.635969,6051624.000000,1673607138.548675
1673612258.379369,,,,2.559811,2.562645,6051625.000000,1673607138.549682
1673612258.379527,,,,2.401240,2.399602,6051626.000000,1673607138.550689
1673612258.379535,,,,2.244183,2.244733,6051627.000000,1673607138.551696
1673612258.381003,,,,2.176749,2.178694,6051628.000000,1673607138.552703
1673612258.381392,,,,2.246515,2.249012,6051629.000000,1673607138.553710
1673612258.385555,,,,2.437012,2.440014,6051630.000000,1673607138.554717
1673612258.386093,,,,2.600440,2.602096,6051631.000000,1673607138.555724
1673612258.386118,,,,2.676528,2.678400,6051632.000000,1673607138.556731
1673612258.386132,,,,2.755453,2.758023,6051633.000000,1673607138.557738
1673612258.388741,,,,2.797380,2.801872,6051634.000000,1673607138.558745
1673612258.389277,,,,2.797981,2.800358,6051635.000000,1673607138.559752
1673612258.389333,,,,2.785865,2.785982,6051636.000000,1673607138.560760
1673612258.389349,,,,2.761512,2.760234,6051637.000000,1673607138.561767
1673612258.391000,,,,2.718839,2.718644,6051638.000000,1673607138.562774
1673612258.391428,,,,2.737735,2.740762,6051639.000000,1673607138.563781
1673612258.391524,,,,2.880753,2.884740,6051640.000000,1673607138.564788
1673612258.396229,,,,2.938834,2.940178,6051641.000000,1673607138.565795
1673612258.396517,,,,2.920756,2.921739,6051642.000000,1673607138.566802
1673612258.396531,,,,2.898182,2.897698,6051643.000000,1673607138.567809
1673612258.396535,,,,2.889575,2.888587,6051644.000000,1673607138.568816
1673612258.398755,,,,2.872338,2.873850,6051645.000000,1673607138.569823
1673612258.398769,,,,2.866569,2.865941,6051646.000000,1673607138.570830
1673612258.398965,,,,2.878973,2.879043,6051647.000000,1673607138.571837
1673612258.399244,,,,2.836830,2.838438,6051648.000000,1673607138.572845
1673612258.399392,,,,2.751222,2.750113,6051649.000000,1673607138.573852
1673612258.399486,,,,2.659051,2.660827,6051650.000000,1673607138.574859
1673612258.399571,,,,2.562744,2.562573,6051651.000000,1673607138.575866
1673612258.404110,,,,2.512019,2.511391,6051652.000000,1673607138.576873
1673612258.404293,,,,2.607219,2.606952,6051653.000000,1673607138.577880
1673612258.404448,,,,2.744996,2.744584,6051654.000000,1673607138.578887
1673612258.404774,,,,2.859717,2.859834,6051655.000000,1673607138.579894
1673612258.404813,,,,3.017712,3.017829,6051656.000000,1673607138.580901
1673612258.404860,,,,3.114066,3.115313,6051657.000000,1673607138.581908
1673612258.404871,,,,3.112816,3.114087,6051658.000000,1673607138.582915
1673612258.404877,,,,3.072740,3.072761,6051659.000000,1673607138.583922
1673612258.405796,,,,3.001172,3.002731,6051660.000000,1673607138.584929
1673612258.405807,,,,2.940638,2.942822,6051661.000000,1673607138.585937
1673612258.420450,,,,2.884599,2.886447,6051662.000000,1673607138.586944
1673612258.420476,,,,2.783749,2.785429,6051663.000000,1673607138.587951
1673612258.420486,,,,2.686024,2.689002,6051664.000000,1673607138.588958
1673612258.420504,,,,2.598589,2.597143,6051665.000000,1673607138.589965
1673612258.427785,,,,2.503436,2.504058,6051666.000000,1673607138.590972
1673612258.427825,,,,2.481127,2.479994,6051667.000000,1673607138.591979
1673612258.427835,,,,2.549642,2.548149,6051668.000000,1673607138.592986
1673612258.428348,,,,2.624913,2.626689,6051669.000000,1673607138.593993
1673612258.429556,77.602615,4802043.000000,1673612258.368591,,,,
1673612258.431087,95.927902,4802094.000000,1673612258.419591,,,,
1673612258.431100,96.235428,4802095.000000,1673612258.420591,,,,
1673612258.431112,96.579155,4802096.000000,1673612258.421591,,,,
1673612258.431121,96.850510,4802097.000000,1673612258.422591,,,,
1673612258.431139,97.139946,4802098.000000,1673612258.423591,,,,
1673612258.431148,97.393196,4802099.000000,1673612258.424591,,,,
1673612258.431156,97.700745,4802100.000000,1673612258.425591,,,,
1673612258.431173,98.008270,4802101.000000,1673612258.426591,,,,
1673612258.431178,98.261536,4802102.000000,1673612258.427591,,,,
1673612258.431189,98.532890,4802103.000000,1673612258.428591,,,,
1673612258.433949,,,,2.697491,2.696503,6051670.000000,1673607138.595000
1673612258.434152,,,,2.714079,2.714341,6051671.000000,1673607138.596007
1673612258.434404,,,,2.691914,2.693257,6051672.000000,1673607138.597014
1673612258.434914,,,,2.622245,2.624021,6051673.000000,1673607138.598022
1673612258.434932,,,,2.563946,2.565121,6051674.000000,1673607138.599029
1673612258.434947,,,,2.627822,2.628372,6051675.000000,1673607138.600036
1673612258.434963,,,,2.718816,2.719486,6051676.000000,1673607138.601043
1673612258.436728,,,,2.800289,2.799853,6051677.000000,1673607138.602050
1673612258.436754,,,,2.948379,2.947823,6051678.000000,1673607138.603057
1673612258.436762,,,,3.021967,3.023767,6051679.000000,1673607138.604064
1673612258.436797,,,,2.966673,2.967319,6051680.000000,1673607138.605071
1673612258.436805,,,,2.864044,2.863873,6051681.000000,1673607138.606078
1673612258.436833,,,,2.743385,2.743454,6051682.000000,1673607138.607085
1673612258.436840,,,,2.690279,2.692127,6051683.000000,1673607138.608092
1673612258.436878,,,,2.689270,2.693113,6051684.000000,1673607138.609099
1673612258.441245,,,,2.651117,2.652773,6051685.000000,1673607138.610106
1673612258.441496,,,,2.548344,2.546562,6051686.000000,1673607138.611114
1673612258.443573,,,,2.453360,2.454895,6051687.000000,1673607138.612121
1673612258.444141,,,,2.538680,2.541321,6051688.000000,1673607138.613128
1673612258.444160,,,,2.732543,2.733910,6051689.000000,1673607138.614135
1673612258.444166,,,,2.818968,2.821249,6051690.000000,1673607138.615142
1673612258.448445,,,,2.745116,2.746411,6051691.000000,1673607138.616149
1673612258.448735,,,,2.612292,2.614429,6051692.000000,1673607138.617156
1673612258.448744,,,,2.560004,2.563438,6051693.000000,1673607138.618163
1673612258.448751,,,,2.555171,2.556707,6051694.000000,1673607138.619170
1673612258.450949,,,,2.560797,2.562357,6051695.000000,1673607138.620177
1673612258.451174,,,,2.538463,2.542716,6051696.000000,1673607138.621184
1673612258.451185,,,,2.715786,2.716288,6051697.000000,1673607138.622191
1673612258.456506,,,,2.761103,2.762518,6051698.000000,1673607138.623199
1673612258.456636,,,,2.795481,2.796656,6051699.000000,1673607138.624206
1673612258.456900,,,,2.868203,2.869066,6051700.000000,1673607138.625213
1673612258.456908,,,,2.891979,2.893587,6051701.000000,1673607138.626220
1673612258.456922,,,,2.859332,2.859810,6051702.000000,1673607138.627227
1673612258.456932,,,,2.769998,2.770884,6051703.000000,1673607138.628234
1673612258.456943,,,,2.713647,2.716288,6051704.000000,1673607138.629241
1673612258.456952,,,,2.698045,2.701936,6051705.000000,1673607138.630248
1673612258.458405,,,,2.726052,2.726578,6051706.000000,1673607138.631255
1673612258.458518,,,,2.827671,2.826490,6051707.000000,1673607138.632262
1673612258.458681,,,,2.999032,3.001409,6051708.000000,1673607138.633269
1673612258.458802,,,,3.135895,3.140123,6051709.000000,1673607138.634276
1673612258.463778,,,,3.142674,3.143921,6051710.000000,1673607138.635283
1673612258.463788,,,,3.121831,3.121131,6051711.000000,1673607138.636291
1673612258.463838,,,,3.137602,3.137286,6051712.000000,1673607138.637298
1673612258.463999,,,,3.111734,3.111875,6051713.000000,1673607138.638305
1673612258.464236,,,,3.060840,3.062256,6051714.000000,1673607138.639312
1673612258.464287,,,,2.914001,2.912483,6051715.000000,1673607138.640319
1673612258.465882,,,,2.668402,2.666717,6051716.000000,1673607138.641326
1673612258.465888,,,,2.482569,2.486797,6051717.000000,1673607138.642333
1673612258.465896,,,,2.538367,2.540239,6051718.000000,1673607138.643340
1673612258.479737,,,,2.595584,2.595292,6051719.000000,1673607138.644347
1673612258.479824,,,,2.625274,2.625319,6051720.000000,1673607138.645354
1673612258.479932,,,,2.638376,2.639310,6051721.000000,1673607138.646361
1673612258.480079,,,,2.653377,2.654865,6051722.000000,1673607138.647368
1673612258.487379,,,,2.665421,2.665803,6051723.000000,1673607138.648376
1673612258.487601,,,,2.652103,2.654672,6051724.000000,1673607138.649383
1673612258.487788,,,,2.647079,2.651090,6051725.000000,1673607138.650390
1673612258.487916,,,,2.625923,2.627819,6051726.000000,1673607138.651397
1673612258.493778,102.150894,4802118.000000,1673612258.446513,,,,
1673612258.493906,102.367981,4802119.000000,1673612258.447513,,,,
1673612258.493922,102.603157,4802120.000000,1673612258.448514,,,,
1673612258.494572,,,,2.650180,2.649528,6051727.000000,1673607138.652404
1673612258.494581,,,,2.714103,2.717562,6051728.000000,1673607138.653411
1673612258.494609,,,,2.843057,2.843823,6051729.000000,1673607138.654418
1673612258.494752,,,,2.975136,2.974532,6051730.000000,1673607138.655425
1673612258.494767,,,,3.001364,3.002443,6051731.000000,1673607138.656432
1673612258.494858,,,,3.060961,3.062400,6051732.000000,1673607138.657439
1673612258.494875,,,,3.189433,3.190248,6051733.000000,1673607138.658446
1673612258.495583,102.784065,4802121.000000,1673612258.449513,,,,
1673612258.495598,103.037331,4802122.000000,1673612258.450513,,,,
1673612258.495610,103.145859,4802123.000000,1673612258.451514,,,,
1673612258.495759,103.308678,4802124.000000,1673612258.452513,,,,
1673612258.495764,103.471481,4802125.000000,1673612258.453513,,,,
1673612258.495773,103.742836,4802126.000000,1673612258.454513,,,,
1673612258.495781,103.887566,4802127.000000,1673612258.455513,,,,
1673612258.495801,107.234238,4802155.000000,1673612258.483513,,,,
1673612258.495810,107.342773,4802156.000000,1673612258.484514,,,,
1673612258.495848,107.433212,4802157.000000,1673612258.485513,,,,
1673612258.495867,107.505585,4802158.000000,1673612258.486513,,,,
1673612258.495872,107.577942,4802159.000000,1673612258.487513,,,,
1673612258.495934,107.704567,4802160.000000,1673612258.488513,,,,
1673612258.495946,107.813118,4802161.000000,1673612258.489513,,,,
1673612258.495952,107.903564,4802162.000000,1673612258.490513,,,,
1673612258.495957,108.012100,4802163.000000,1673612258.491513,,,,
1673612258.495969,108.084473,4802164.000000,1673612258.492513,,,,
1673612258.496134,,,,3.274296,3.275880,6051734.000000,1673607138.659453
1673612258.496327,,,,3.268310,3.269437,6051735.000000,1673607138.660460
1673612258.496368,,,,3.156257,3.154740,6051736.000000,1673607138.661468
1673612258.501404,,,,2.963764,2.963353,6051737.000000,1673607138.662475
1673612258.501417,,,,2.911452,2.912267,6051738.000000,1673607138.663482
1673612258.501662,,,,2.932608,2.933615,6051739.000000,1673607138.664489
1673612258.501674,,,,2.878998,2.880798,6051740.000000,1673607138.665496
1673612258.501679,,,,2.739490,2.739559,6051741.000000,1673607138.666503
1673612258.503686,,,,2.560364,2.559905,6051742.000000,1673607138.667510
1673612258.503841,,,,2.431387,2.430302,6051743.000000,1673607138.668517
1673612258.504111,,,,2.425521,2.423931,6051744.000000,1673607138.669524
1673612258.504352,,,,2.478674,2.477085,6051745.000000,1673607138.670531
1673612258.504597,,,,2.495022,2.495404,6051746.000000,1673607138.671538
1673612258.504799,,,,2.470909,2.468719,6051747.000000,1673607138.672545
1673612258.508715,,,,2.457206,2.455929,6051748.000000,1673607138.673553
1673612258.508731,,,,2.420857,2.422657,6051749.000000,1673607138.674560
1673612258.508978,,,,2.429367,2.431216,6051750.000000,1673607138.675567
1673612258.509286,,,,2.527429,2.530599,6051751.000000,1673607138.676574
1673612258.511235,,,,2.644867,2.648830,6051752.000000,1673607138.677581
1673612258.511393,,,,2.675014,2.676934,6051753.000000,1673607138.678588
1673612258.511800,,,,2.602002,2.600581,6051754.000000,1673607138.679595
1673612258.511819,,,,2.545219,2.549062,6051755.000000,1673607138.680602
1673612258.512102,,,,2.571471,2.574521,6051756.000000,1673607138.681609
1673612258.512118,,,,2.678115,2.680684,6051757.000000,1673607138.682616
1673612258.516374,,,,2.774734,2.775885,6051758.000000,1673607138.683623
1673612258.516793,,,,2.759781,2.759970,6051759.000000,1673607138.684630
1673612258.516978,,,,2.804448,2.805022,6051760.000000,1673607138.685637
1673612258.517095,,,,2.970592,2.972609,6051761.000000,1673607138.686645
1673612258.517719,,,,3.037785,3.038552,6051762.000000,1673607138.687652
1673612258.517777,,,,3.007807,3.011939,6051763.000000,1673607138.688659
1673612258.517790,,,,2.956240,2.960155,6051764.000000,1673607138.689666
1673612258.517842,,,,2.892364,2.894212,6051765.000000,1673607138.690673
1673612258.518511,,,,2.839451,2.841563,6051766.000000,1673607138.691680
1673612258.518817,,,,2.783388,2.782328,6051767.000000,1673607138.692687
1673612258.519076,,,,2.785071,2.785213,6051768.000000,1673607138.693694
1673612258.523760,,,,2.783196,2.786054,6051769.000000,1673607138.694701
1673612258.523936,,,,2.760502,2.764177,6051770.000000,1673607138.695708
1673612258.524418,,,,2.793894,2.798555,6051771.000000,1673607138.696715
1673612258.524706,,,,2.916909,2.920993,6051772.000000,1673607138.697722
1673612258.525809,,,,3.021534,3.023046,6051773.000000,1673607138.698730
1673612258.525909,,,,3.006581,3.008862,6051774.000000,1673607138.699737
1673612258.526115,,,,2.993911,2.997274,6051775.000000,1673607138.700744
1673612258.533830,,,,2.948354,2.950563,6051776.000000,1673607138.701751
1673612258.533993,,,,2.930228,2.930946,6051777.000000,1673607138.702758
1673612258.534337,,,,2.947201,2.949169,6051778.000000,1673607138.703765
1673612258.534640,,,,2.868925,2.868176,6051779.000000,1673607138.704772
1673612258.534659,,,,2.644747,2.644936,6051780.000000,1673607138.705779
1673612258.534670,,,,2.405880,2.405107,6051781.000000,1673607138.706786
1673612258.534675,,,,2.373329,2.375393,6051782.000000,1673607138.707793
1673612258.534681,,,,2.416794,2.417584,6051783.000000,1673607138.708800
1673612258.546334,,,,2.523366,2.522521,6051784.000000,1673607138.709807
1673612258.546698,,,,2.640395,2.640681,6051785.000000,1673607138.710814
1673612258.547117,,,,2.701554,2.701335,6051786.000000,1673607138.711822
1673612258.547131,,,,2.683933,2.683425,6051787.000000,1673607138.712829
1673612258.548511,,,,2.684510,2.686262,6051788.000000,1673607138.713836
1673612258.548756,108.193008,4802165.000000,1673612258.487648,,,,
1673612258.548783,108.247276,4802166.000000,1673612258.488648,,,,
1673612258.548792,108.355827,4802167.000000,1673612258.489648,,,,
1673612258.548829,,,,2.796971,2.799853,6051789.000000,1673607138.714843
1673612258.550362,108.464355,4802168.000000,1673612258.490648,,,,
1673612258.550379,115.591873,4802216.000000,1673612258.538648,,,,
1673612258.550392,115.718498,4802217.000000,1673612258.539648,,,,
1673612258.550406,115.917496,4802218.000000,1673612258.540648,,,,
1673612258.550414,116.080299,4802219.000000,1673612258.541648,,,,
1673612258.550419,116.225029,4802220.000000,1673612258.542648,,,,
1673612258.550449,116.405914,4802221.000000,1673612258.543648,,,,
1673612258.550524,116.623001,4802222.000000,1673612258.544648,,,,
1673612258.550529,116.767731,4802223.000000,1673612258.545648,,,,
1673612258.550539,116.912445,4802224.000000,1673612258.546648,,,,
1673612258.550570,117.075264,4802225.000000,1673612258.547648,,,,
1673612258.553953,,,,2.916092,2.919503,6051790.000000,1673607138.715850
1673612258.554125,,,,2.993623,2.996913,6051791.000000,1673607138.716857
1673612258.554323,,,,3.076082,3.079373,6051792.000000,1673607138.717864
1673612258.554556,,,,3.062139,3.064876,6051793.000000,1673607138.718871
1673612258.555070,,,,2.965856,2.966887,6051794.000000,1673607138.719878
1673612258.555091,,,,2.791442,2.791728,6051795.000000,1673607138.720885
1673612258.555101,,,,2.602892,2.604403,6051796.000000,1673607138.721892
1673612258.555113,,,,2.469659,2.469800,6051797.000000,1673607138.722899
1673612258.556114,,,,2.395302,2.395684,6051798.000000,1673607138.723907
1673612258.556132,,,,2.461125,2.464704,6051799.000000,1673607138.724914
1673612258.556195,,,,2.517091,2.521199,6051800.000000,1673607138.725921
1673612258.561204,,,,2.456629,2.457396,6051801.000000,1673607138.726928
1673612258.561540,,,,2.486584,2.484898,6051802.000000,1673607138.727935
1673612258.561893,,,,2.630130,2.627891,6051803.000000,1673607138.728942
1673612258.561907,,,,2.762641,2.761917,6051804.000000,1673607138.729949
1673612258.563991,,,,2.874670,2.873946,6051805.000000,1673607138.730956
1673612258.564008,,,,2.904144,2.903131,6051806.000000,1673607138.731963
1673612258.564031,,,,2.764156,2.764345,6051807.000000,1673607138.732970
1673612258.568893,,,,2.661383,2.660274,6051808.000000,1673607138.733977
1673612258.569242,,,,2.790937,2.789131,6051809.000000,1673607138.734984
1673612258.569689,,,,3.009682,3.008573,6051810.000000,1673607138.735991
1673612258.569706,,,,3.141665,3.143657,6051811.000000,1673607138.736999
1673612258.570186,,,,3.228547,3.230299,6051812.000000,1673607138.738006
1673612258.570211,,,,3.416881,3.419714,6051813.000000,1673607138.739013
1673612258.570222,,,,3.656469,3.658149,6051814.000000,1673607138.740020
1673612258.570999,,,,3.692001,3.694282,6051815.000000,1673607138.741027
1673612258.571279,,,,3.568360,3.570689,6051816.000000,1673607138.742034
1673612258.571594,,,,3.335167,3.339587,6051817.000000,1673607138.743041
1673612258.571904,,,,3.012495,3.016482,6051818.000000,1673607138.744048
1673612258.576345,,,,2.715690,2.716192,6051819.000000,1673607138.745055
1673612258.576622,,,,2.465741,2.466916,6051820.000000,1673607138.746062
1673612258.576654,,,,2.164080,2.166265,6051821.000000,1673607138.747069
1673612258.578567,,,,2.004210,2.004736,6051822.000000,1673607138.748076
1673612258.579149,,,,2.091093,2.092989,6051823.000000,1673607138.749084
1673612258.579181,,,,2.308828,2.309306,6051824.000000,1673607138.750091
1673612258.579196,,,,2.460331,2.461771,6051825.000000,1673607138.751098
1673612258.583863,,,,2.695280,2.696936,6051826.000000,1673607138.752105
1673612258.583972,,,,2.943739,2.945611,6051827.000000,1673607138.753112
1673612258.584099,,,,3.008961,3.010545,6051828.000000,1673607138.754119
1673612258.584274,,,,2.969702,2.968906,6051829.000000,1673607138.755126
1673612258.584508,,,,3.041776,3.042590,6051830.000000,1673607138.756133
1673612258.584523,,,,3.064134,3.064492,6051831.000000,1673607138.757140
1673612258.584528,,,,2.956600,2.959771,6051832.000000,1673607138.758147
1673612258.584533,,,,2.838682,2.843150,6051833.000000,1673607138.759154
1673612258.586226,,,,2.797067,2.799180,6051834.000000,1673607138.760161
1673612258.586241,,,,2.768411,2.769153,6051835.000000,1673607138.761168
1673612258.586245,,,,2.689342,2.690637,6051836.000000,1673607138.762176
1673612258.586428,,,,2.538920,2.538100,6051837.000000,1673607138.763183
1673612258.586518,,,,2.438479,2.436577,6051838.000000,1673607138.764190
1673612258.586638,,,,2.438310,2.439149,6051839.000000,1673607138.765197
1673612258.586805,,,,2.439104,2.440904,6051840.000000,1673607138.766204
1673612258.600581,,,,2.339648,2.341015,6051841.000000,1673607138.767211
1673612258.600609,,,,2.265988,2.268485,6051842.000000,1673607138.768218
1673612258.600903,,,,2.356597,2.360320,6051843.000000,1673607138.769225
1673612258.601226,,,,2.443094,2.443476,6051844.000000,1673607138.770232
1673612258.607336,,,,2.552070,2.551851,6051845.000000,1673607138.771239
1673612258.607789,,,,2.613927,2.615751,6051846.000000,1673607138.772246
1673612258.613955,,,,2.611186,2.612433,6051847.000000,1673607138.773253
1673612258.614303,,,,2.576159,2.576012,6051848.000000,1673607138.774261
1673612258.614610,,,,2.546397,2.545384,6051849.000000,1673607138.775268
1673612258.614630,,,,2.549955,2.550312,6051850.000000,1673607138.776275
1673612258.614660,117.201881,4802226.000000,1673612258.553176,,,,
1673612258.616240,,,,2.577770,2.577262,6051851.000000,1673607138.777282
1673612258.616347,117.274254,4802227.000000,1673612258.554176,,,,
1673612258.616364,117.491325,4802228.000000,1673612258.555176,,,,
1673612258.616414,117.599876,4802229.000000,1673612258.556176,,,,
1673612258.616425,117.726501,4802230.000000,1673612258.557176,,,,
1673612258.616433,117.871231,4802231.000000,1673612258.558176,,,,
1673612258.616443,117.979759,4802232.000000,1673612258.559176,,,,
1673612258.616465,118.106400,4802233.000000,1673612258.560176,,,,
1673612258.616474,118.214935,4802234.000000,1673612258.561176,,,,
1673612258.616505,123.388702,4802277.000000,1673612258.604176,,,,
1673612258.616516,123.551521,4802278.000000,1673612258.605176,,,,
1673612258.616523,123.678146,4802279.000000,1673612258.606176,,,,
1673612258.616539,123.822876,4802280.000000,1673612258.607176,,,,
1673612258.616547,123.913322,4802281.000000,1673612258.608176,,,,
1673612258.616560,124.094223,4802282.000000,1673612258.609176,,,,
1673612258.616579,124.238937,4802283.000000,1673612258.610176,,,,
1673612258.616616,124.365578,4802284.000000,1673612258.611176,,,,
1673612258.616623,124.528397,4802285.000000,1673612258.612176,,,,
1673612258.616654,124.600754,4802286.000000,1673612258.613176,,,,
1673612258.616682,,,,2.563658,2.565506,6051852.000000,1673607138.778289
1673612258.617018,,,,2.564139,2.563511,6051853.000000,1673607138.779296
1673612258.617455,,,,2.616499,2.615871,6051854.000000,1673607138.780303
1673612258.617479,,,,2.668883,2.667871,6051855.000000,1673607138.781310
1673612258.617487,,,,2.700424,2.700277,6051856.000000,1673607138.782317
1673612258.617502,,,,2.735596,2.737444,6051857.000000,1673607138.783324
1673612258.624032,,,,2.808439,2.811080,6051858.000000,1673607138.784331
1673612258.624350,,,,2.893542,2.895631,6051859.000000,1673607138.785338
1673612258.624392,,,,2.926742,2.928614,6051860.000000,1673607138.786345
1673612258.624627,,,,2.940806,2.942245,6051861.000000,1673607138.787353
1673612258.624635,,,,3.001580,3.004414,6051862.000000,1673607138.788360
1673612258.624948,,,,2.995690,2.994509,6051863.000000,1673607138.789367
1673612258.625102,,,,2.935108,2.934528,6051864.000000,1673607138.790374
1673612258.625419,,,,2.782715,2.782520,6051865.000000,1673607138.791381
1673612258.628807,,,,2.645925,2.649648,6051866.000000,1673607138.792388
1673612258.628825,,,,2.593516,2.593489,6051867.000000,1673607138.793395
1673612258.628830,,,,2.637486,2.638565,6051868.000000,1673607138.794402
1673612258.629155,,,,2.726340,2.727347,6051869.000000,1673607138.795409
1673612258.631188,,,,2.841735,2.842020,6051870.000000,1673607138.796416
1673612258.631285,,,,2.933089,2.934889,6051871.000000,1673607138.797423
1673612258.638454,,,,2.982757,2.984196,6051872.000000,1673607138.798430
1673612258.638565,,,,2.963933,2.967079,6051873.000000,1673607138.799438
1673612258.638688,,,,2.933882,2.936668,6051874.000000,1673607138.800445
1673612258.638751,,,,2.894167,2.894236,6051875.000000,1673607138.801452
1673612258.645951,,,,2.845245,2.845771,6051876.000000,1673607138.802459
1673612258.646460,,,,2.669605,2.670154,6051877.000000,1673607138.803466
1673612258.646492,,,,2.558080,2.558799,6051878.000000,1673607138.804473
1673612258.646712,,,,2.641237,2.639935,6051879.000000,1673607138.805480
1673612258.660409,,,,2.617412,2.617962,6051880.000000,1673607138.806487
1673612258.660449,,,,2.637510,2.639671,6051881.000000,1673607138.807494
1673612258.661333,,,,2.764997,2.768552,6051882.000000,1673607138.808501
1673612258.661975,,,,2.822911,2.825913,6051883.000000,1673607138.809508
1673612258.661992,,,,2.859477,2.862719,6051884.000000,1673607138.810515
1673612258.662004,,,,2.930541,2.933254,6051885.000000,1673607138.811522
1673612258.662015,,,,2.919818,2.919743,6051886.000000,1673607138.812530
1673612258.667322,,,,2.860150,2.861036,6051887.000000,1673607138.813537
1673612258.667727,,,,2.935541,2.937533,6051888.000000,1673607138.814544
1673612258.668149,,,,2.986507,2.988956,6051889.000000,1673607138.815551
1673612258.668171,,,,2.980521,2.981023,6051890.000000,1673607138.816558
1673612258.669580,124.763557,4802287.000000,1673612258.608678,,,,
1673612258.671795,124.872108,4802288.000000,1673612258.609678,,,,
1673612258.671826,124.944466,4802289.000000,1673612258.610678,,,,
1673612258.671839,125.089188,4802290.000000,1673612258.611678,,,,
1673612258.671853,126.427849,4802338.000000,1673612258.659678,,,,
1673612258.672051,126.482132,4802339.000000,1673612258.660678,,,,
1673612258.672067,126.427849,4802340.000000,1673612258.661678,,,,
1673612258.672082,126.445938,4802341.000000,1673612258.662678,,,,
1673612258.672175,126.482132,4802342.000000,1673612258.663678,,,,
1673612258.672214,126.536400,4802343.000000,1673612258.664678,,,,
1673612258.672257,126.554489,4802344.000000,1673612258.665678,,,,
1673612258.672263,126.572578,4802345.000000,1673612258.666678,,,,
1673612258.672270,126.590668,4802346.000000,1673612258.667678,,,,
1673612258.672296,126.572578,4802347.000000,1673612258.668678,,,,
1673612258.673871,,,,2.982612,2.983667,6051891.000000,1673607138.817565
1673612258.673893,,,,2.877315,2.879860,6051892.000000,1673607138.818572
1673612258.674155,,,,2.717445,2.717298,6051893.000000,1673607138.819579
1673612258.676197,,,,2.635298,2.634743,6051894.000000,1673607138.820586
1673612258.676217,,,,2.661983,2.662918,6051895.000000,1673607138.821593
1673612258.676497,,,,2.744154,2.746724,6051896.000000,1673607138.822600
1673612258.681546,,,,2.744755,2.745233,6051897.000000,1673607138.823607
1673612258.681666,,,,2.739250,2.739103,6051898.000000,1673607138.824615
1673612258.681934,,,,2.833441,2.833246,6051899.000000,1673607138.825622
1673612258.682031,,,,2.942729,2.943616,6051900.000000,1673607138.826629
1673612258.682086,,,,2.977804,2.981816,6051901.000000,1673607138.827636
1673612258.682122,,,,2.920564,2.921114,6051902.000000,1673607138.828643
1673612258.682134,,,,2.954076,2.953376,6051903.000000,1673607138.829650
1673612258.682140,,,,2.968452,2.969796,6051904.000000,1673607138.830657
1673612258.683676,,,,2.954437,2.955972,6051905.000000,1673607138.831664
1673612258.683930,,,,2.971722,2.972152,6051906.000000,1673607138.832671
1673612258.683940,,,,2.963428,2.963112,6051907.000000,1673607138.833678
1673612258.683963,,,,2.855991,2.855868,6051908.000000,1673607138.834685
1673612258.683975,,,,2.701939,2.700998,6051909.000000,1673607138.835692
1673612258.683980,,,,2.681384,2.680852,6051910.000000,1673607138.836699
1673612258.683984,,,,2.672393,2.674458,6051911.000000,1673607138.837707
1673612258.689043,,,,2.516731,2.513963,6051912.000000,1673607138.838714
1673612258.689499,,,,2.305294,2.303873,6051913.000000,1673607138.839721
1673612258.689516,,,,2.248294,2.249854,6051914.000000,1673607138.840728
1673612258.689704,,,,2.332989,2.334019,6051915.000000,1673607138.841735
1673612258.689839,,,,2.404798,2.405853,6051916.000000,1673607138.842742
1673612258.690035,,,,2.488603,2.488216,6051917.000000,1673607138.843749
1673612258.690909,,,,2.540843,2.542163,6051918.000000,1673607138.844756
1673612258.691082,,,,2.552191,2.554808,6051919.000000,1673607138.845763
1673612258.691255,,,,2.539497,2.542259,6051920.000000,1673607138.846770
1673612258.691502,,,,2.678163,2.678232,6051921.000000,1673607138.847777
1673612258.696659,,,,2.845124,2.844665,6051922.000000,1673607138.848784
1673612258.696908,,,,2.906596,2.905896,6051923.000000,1673607138.849792
1673612258.697113,,,,2.868131,2.869378,6051924.000000,1673607138.850799
1673612258.697286,,,,2.734226,2.737877,6051925.000000,1673607138.851806
1673612258.697465,,,,2.614672,2.615679,6051926.000000,1673607138.852813
1673612258.697674,,,,2.640612,2.640104,6051927.000000,1673607138.853820
1673612258.697879,,,,2.736822,2.738646,6051928.000000,1673607138.854827
1673612258.698086,,,,2.733889,2.735352,6051929.000000,1673607138.855834
1673612258.698244,,,,2.656935,2.655586,6051930.000000,1673607138.856841
1673612258.698527,,,,2.653257,2.653254,6051931.000000,1673607138.857848
1673612258.698539,,,,2.691409,2.692776,6051932.000000,1673607138.858855
1673612258.699128,,,,2.748890,2.748551,6051933.000000,1673607138.859862
1673612258.699143,,,,2.804953,2.806344,6051934.000000,1673607138.860869
1673612258.699208,,,,2.797909,2.798122,6051935.000000,1673607138.861876
1673612258.699474,,,,2.775815,2.776846,6051936.000000,1673607138.862884
1673612258.700213,,,,2.788389,2.790213,6051937.000000,1673607138.863891
1673612258.700237,,,,2.766272,2.769490,6051938.000000,1673607138.864898
1673612258.700247,,,,2.728263,2.729006,6051939.000000,1673607138.865905
1673612258.700288,,,,2.697203,2.697609,6051940.000000,1673607138.866912
1673612258.700297,,,,2.684005,2.682030,6051941.000000,1673607138.867919
1673612258.700361,,,,2.679774,2.680059,6051942.000000,1673607138.868926
1673612258.705331,,,,2.743721,2.744103,6051944.000000,1673607138.870940
1673612258.705350,,,,2.810867,2.812739,6051945.000000,1673607138.871947
1673612258.705393,,,,2.890080,2.890510,6051946.000000,1673607138.872954
1673612258.705401,,,,2.934579,2.934384,6051947.000000,1673607138.873961
1673612258.705415,,,,2.854476,2.857334,6051948.000000,1673607138.874969
1673612258.705421,,,,2.818488,2.819855,6051949.000000,1673607138.875976
1673612258.705696,,,,2.784470,2.787208,6051950.000000,1673607138.876983
1673612258.705709,,,,2.641020,2.642844,6051951.000000,1673607138.877990
1673612258.705723,,,,2.464731,2.465978,6051952.000000,1673607138.878997
1673612258.705729,,,,2.413476,2.415373,6051953.000000,1673607138.880004
1673612258.706276,,,,2.477112,2.478936,6051954.000000,1673607138.881011
1673612258.706406,,,,2.568947,2.568920,6051955.000000,1673607138.882018
1673612258.706939,,,,2.646670,2.646907,6051956.000000,1673607138.883025
1673612258.707119,,,,2.707805,2.706432,6051957.000000,1673607138.884032
1673612258.707133,,,,2.719801,2.719558,6051958.000000,1673607138.885039
1673612258.707156,,,,2.682586,2.685637,6051959.000000,1673607138.886046
1673612258.707163,,,,2.629505,2.629526,6051960.000000,1673607138.887053
1673612258.707192,,,,2.614167,2.614260,6051961.000000,1673607138.888061
1673612258.719782,,,,2.610994,2.612097,6051962.000000,1673607138.889068
1673612258.720084,,,,2.601281,2.603586,6051963.000000,1673607138.890075
1673612258.720302,,,,2.687346,2.685084,6051964.000000,1673607138.891082
1673612258.727583,,,,2.806395,2.804806,6051965.000000,1673607138.892089
1673612258.727594,,,,2.853202,2.855603,6051966.000000,1673607138.893096
1673612258.727738,,,,2.867458,2.866782,6051967.000000,1673607138.894103
1673612258.727855,,,,2.858852,2.859065,6051968.000000,1673607138.895110
1673612258.727985,,,,2.872386,2.871542,6051969.000000,1673607138.896117
1673612258.728085,,,,2.954028,2.953520,6051970.000000,1673607138.897124
1673612258.728192,,,,3.072933,3.076031,6051971.000000,1673607138.898131
1673612258.733947,,,,3.093728,3.096297,6051972.000000,1673607138.899138
1673612258.733955,,,,2.946407,2.949626,6051973.000000,1673607138.900146
1673612258.734120,,,,2.748385,2.749248,6051974.000000,1673607138.901153
1673612258.734354,,,,2.680543,2.680780,6051975.000000,1673607138.902160
1673612258.734533,,,,2.645179,2.645248,6051976.000000,1673607138.903167
1673612258.734749,,,,2.609599,2.610702,6051977.000000,1673607138.904174
1673612258.734871,,,,2.659508,2.661139,6051978.000000,1673607138.905181
1673612258.734969,126.753464,4802352.000000,1673612258.677946,,,,
1673612258.736114,126.789658,4802353.000000,1673612258.678946,,,,
1673612258.736129,126.843925,4802354.000000,1673612258.679946,,,,
1673612258.736139,126.898193,4802355.000000,1673612258.680946,,,,
1673612258.736150,126.898193,4802356.000000,1673612258.681946,,,,
1673612258.736154,126.970551,4802357.000000,1673612258.682946,,,,
1673612258.736248,127.024818,4802358.000000,1673612258.683946,,,,
1673612258.736256,127.024818,4802359.000000,1673612258.684946,,,,
1673612258.736266,127.042923,4802360.000000,1673612258.685946,,,,
1673612258.736274,127.061012,4802361.000000,1673612258.686946,,,,
1673612258.736296,127.278084,4802399.000000,1673612258.724946,,,,
1673612258.736300,127.223816,4802400.000000,1673612258.725946,,,,
1673612258.736309,127.133369,4802401.000000,1673612258.726946,,,,
1673612258.736316,127.024818,4802402.000000,1673612258.727946,,,,
1673612258.736321,126.970551,4802403.000000,1673612258.728946,,,,
1673612258.736348,126.880104,4802404.000000,1673612258.729946,,,,
1673612258.736352,126.771576,4802405.000000,1673612258.730946,,,,
1673612258.736355,126.681107,4802406.000000,1673612258.731946,,,,
1673612258.736367,126.590668,4802407.000000,1673612258.732946,,,,
1673612258.736386,126.464027,4802408.000000,1673612258.733946,,,,
1673612258.736644,,,,2.758747,2.757349,6051979.000000,1673607138.906188
1673612258.736652,,,,2.825748,2.822740,6051980.000000,1673607138.907195
1673612258.736660,,,,2.928954,2.927484,6051981.000000,1673607138.908202
1673612258.736688,,,,3.075529,3.076344,6051982.000000,1673607138.909209
1673612258.736695,,,,3.121350,3.124689,6051983.000000,1673607138.910216
1673612258.736711,,,,3.115292,3.118438,6051984.000000,1673607138.911223
1673612258.736716,,,,3.117552,3.116179,6051985.000000,1673607138.912230
1673612258.736729,,,,2.971097,2.969844,6051986.000000,1673607138.913238
1673612258.741545,,,,2.808679,2.810912,6051987.000000,1673607138.914245
1673612258.741605,,,,2.762305,2.762494,6051988.000000,1673607138.915252
1673612258.741857,,,,2.710161,2.711408,6051989.000000,1673607138.916259
1673612258.742122,,,,2.691626,2.690637,6051990.000000,1673607138.917266
1673612258.742148,,,,2.713214,2.712153,6051991.000000,1673607138.918273
1673612258.742157,,,,2.622076,2.621424,6051992.000000,1673607138.919280
1673612258.742186,,,,2.490286,2.489995,6051993.000000,1673607138.920287
1673612258.743460,,,,2.382080,2.383062,6051994.000000,1673607138.921294
1673612258.743693,,,,2.362198,2.361354,6051995.000000,1673607138.922301
1673612258.743861,,,,2.371165,2.372677,6051996.000000,1673607138.923308
1673612258.748535,,,,2.470693,2.472325,6051997.000000,1673607138.924315
1673612258.748714,,,,2.637006,2.640032,6051998.000000,1673607138.925323
1673612258.749196,,,,2.855991,2.860964,6051999.000000,1673607138.926330
1673612258.749216,,,,3.029876,3.032493,6052000.000000,1673607138.927337
1673612258.751306,,,,3.120677,3.119761,6052001.000000,1673607138.928344
1673612258.751471,,,,3.135029,3.135435,6052002.000000,1673607138.929351
1673612258.751491,,,,3.057883,3.058602,6052003.000000,1673607138.930358
1673612258.756207,,,,2.942753,2.943279,6052004.000000,1673607138.931365
1673612258.756760,,,,2.802260,2.801224,6052005.000000,1673607138.932372
1673612258.756793,,,,2.646021,2.643998,6052006.000000,1673607138.933379
1673612258.756927,,,,2.475573,2.475883,6052007.000000,1673607138.934386
1673612258.759141,,,,2.387393,2.392823,6052008.000000,1673607138.935393
1673612258.759358,,,,2.456677,2.457708,6052009.000000,1673607138.936400
1673612258.759602,,,,2.553705,2.552644,6052010.000000,1673607138.937407
1673612258.759622,,,,2.644915,2.645008,6052011.000000,1673607138.938415
1673612258.759759,,,,2.705906,2.707994,6052012.000000,1673607138.939422
1673612258.760201,,,,2.693405,2.695132,6052013.000000,1673607138.940429
1673612258.760217,,,,2.702204,2.702705,6052014.000000,1673607138.941436
1673612258.763981,,,,2.690592,2.691502,6052015.000000,1673607138.942443
1673612258.763996,,,,2.720402,2.723020,6052016.000000,1673607138.943450
1673612258.764460,,,,2.776969,2.778842,6052017.000000,1673607138.944457
1673612258.764740,,,,2.830099,2.832476,6052018.000000,1673607138.945464
1673612258.764958,,,,2.867723,2.869979,6052019.000000,1673607138.946471
1673612258.765040,,,,2.933618,2.935658,6052020.000000,1673607138.947478
1673612258.765054,,,,2.908640,2.911714,6052021.000000,1673607138.948485
1673612258.765945,,,,2.844379,2.847237,6052022.000000,1673607138.949492
1673612258.766159,,,,2.773532,2.775091,6052023.000000,1673607138.950500
1673612258.766412,,,,2.691674,2.693810,6052024.000000,1673607138.951507
1673612258.766699,,,,2.641789,2.642003,6052025.000000,1673607138.952514
1673612258.779992,,,,2.568802,2.569448,6052026.000000,1673607138.953521
1673612258.780462,,,,2.489541,2.490764,6052027.000000,1673607138.954528
1673612258.780671,,,,2.455788,2.456290,6052028.000000,1673607138.955535
1673612258.787413,,,,2.538992,2.539446,6052029.000000,1673607138.956542
1673612258.787655,,,,2.594213,2.596158,6052030.000000,1673607138.957549
1673612258.787662,,,,2.599142,2.604572,6052031.000000,1673607138.958556
1673612258.789282,126.373581,4802409.000000,1673612258.728692,,,,
1673612258.789485,126.246956,4802410.000000,1673612258.729692,,,,
1673612258.789497,126.084137,4802411.000000,1673612258.730692,,,,
1673612258.790500,126.066048,4802412.000000,1673612258.731692,,,,
1673612258.790509,125.921333,4802413.000000,1673612258.732692,,,,
1673612258.790513,119.354614,4802460.000000,1673612258.779692,,,,
1673612258.790532,119.246078,4802461.000000,1673612258.780692,,,,
1673612258.790550,119.065170,4802462.000000,1673612258.781692,,,,
1673612258.790614,118.974724,4802463.000000,1673612258.782692,,,,
1673612258.790621,118.811913,4802464.000000,1673612258.783692,,,,
1673612258.790626,118.739555,4802465.000000,1673612258.784692,,,,
1673612258.790630,118.594826,4802466.000000,1673612258.785692,,,,
1673612258.790677,118.468201,4802467.000000,1673612258.786692,,,,
1673612258.790686,118.287292,4802468.000000,1673612258.787692,,,,
1673612258.790697,118.233025,4802469.000000,1673612258.788692,,,,
1673612258.794015,,,,2.621884,2.623852,6052032.000000,1673607138.959563
1673612258.794032,,,,2.626428,2.628132,6052033.000000,1673607138.960570
1673612258.794445,,,,2.661743,2.661355,6052034.000000,1673607138.961577
1673612258.794547,,,,2.672009,2.671356,6052035.000000,1673607138.962584
1673612258.794960,,,,2.703694,2.703427,6052036.000000,1673607138.963592
1673612258.794990,,,,2.752857,2.755907,6052037.000000,1673607138.964599
1673612258.794999,,,,2.816612,2.820913,6052038.000000,1673607138.965606
1673612258.795006,,,,2.906235,2.910079,6052039.000000,1673607138.966613
1673612258.796291,,,,2.968188,2.970397,6052040.000000,1673607138.967620
1673612258.796686,,,,3.023000,3.024127,6052041.000000,1673607138.968627
1673612258.796774,,,,3.053700,3.054491,6052042.000000,1673607138.969634
1673612258.797051,,,,2.951985,2.952006,6052043.000000,1673607138.970641
1673612258.797059,,,,2.776609,2.776630,6052044.000000,1673607138.971648
1673612258.797080,,,,2.641982,2.643806,6052045.000000,1673607138.972655
1673612258.797276,,,,2.542574,2.542427,6052046.000000,1673607138.973662
1673612258.801088,,,,2.482064,2.481869,6052047.000000,1673607138.974669
1673612258.801276,,,,2.507018,2.507905,6052048.000000,1673607138.975677
1673612258.801588,,,,2.552719,2.555024,6052049.000000,1673607138.976684
1673612258.801641,,,,2.601618,2.601374,6052050.000000,1673607138.977691
1673612258.803503,,,,2.656935,2.658519,6052051.000000,1673607138.978698
1673612258.803791,,,,2.684942,2.684843,6052052.000000,1673607138.979705
1673612258.803991,,,,2.676480,2.677294,6052053.000000,1673607138.980712
1673612258.809028,,,,2.701554,2.702801,6052054.000000,1673607138.981719
1673612258.809044,,,,2.784638,2.784419,6052055.000000,1673607138.982726
1673612258.809352,,,,2.785143,2.786054,6052056.000000,1673607138.983733
1673612258.812013,,,,2.842576,2.845458,6052057.000000,1673607138.984740
1673612258.812407,,,,2.901812,2.904357,6052058.000000,1673607138.985747
1673612258.812437,,,,2.936815,2.938086,6052059.000000,1673607138.986754
1673612258.812849,,,,2.950807,2.951693,6052060.000000,1673607138.987761
1673612258.812960,,,,2.976314,2.979580,6052061.000000,1673607138.988769
1673612258.812977,,,,2.916140,2.919166,6052062.000000,1673607138.989776
1673612258.813062,,,,2.816492,2.818701,6052063.000000,1673607138.990783
1673612258.813069,,,,2.755646,2.755306,6052064.000000,1673607138.991790
1673612258.816733,,,,2.777835,2.778265,6052065.000000,1673607138.992797
1673612258.816750,,,,2.754059,2.755162,6052066.000000,1673607138.993804
1673612258.816762,,,,2.669364,2.668447,6052067.000000,1673607138.994811
1673612258.816877,,,,2.696217,2.695806,6052068.000000,1673607138.995818
1673612258.817057,,,,2.853346,2.856132,6052069.000000,1673607138.996825
1673612258.817224,,,,3.005883,3.008020,6052070.000000,1673607138.997832
1673612258.817419,,,,3.075505,3.074997,6052071.000000,1673607138.998839
1673612258.820432,,,,3.146449,3.144739,6052072.000000,1673607138.999846
1673612258.820609,,,,3.200780,3.198782,6052073.000000,1673607139.000854
1673612258.821023,,,,3.135799,3.133848,6052074.000000,1673607139.001861
1673612258.821058,,,,3.004177,3.003861,6052075.000000,1673607139.002868
1673612258.823754,,,,2.884286,2.882889,6052076.000000,1673607139.003875
1673612258.823823,,,,3.032448,3.032085,6052077.000000,1673607139.004882
1673612258.828550,,,,3.289081,3.288646,6052078.000000,1673607139.005889
1673612258.828957,,,,3.313194,3.314056,6052079.000000,1673607139.006896
1673612258.829314,,,,3.257732,3.260638,6052080.000000,1673607139.007903
1673612258.829401,,,,3.203689,3.204143,6052081.000000,1673607139.008910
1673612258.846246,,,,3.053099,3.054418,6052082.000000,1673607139.009917
1673612258.846599,,,,2.938714,2.940178,6052083.000000,1673607139.010924
1673612258.846606,,,,2.842913,2.844857,6052084.000000,1673607139.011931
1673612258.846851,,,,2.670302,2.672703,6052085.000000,1673607139.012938
1673612258.848521,,,,2.408356,2.409338,6052086.000000,1673607139.013946
1673612258.848675,,,,2.148237,2.149244,6052087.000000,1673607139.014953
1673612258.848690,,,,2.089987,2.088662,6052088.000000,1673607139.015960
1673612258.854118,,,,2.162397,2.162707,6052089.000000,1673607139.016967
1673612258.854279,,,,2.299308,2.300098,6052090.000000,1673607139.017974
1673612258.854521,,,,2.426747,2.426744,6052091.000000,1673607139.018981
1673612258.854946,,,,2.518389,2.518435,6052092.000000,1673607139.019988
1673612258.854966,,,,2.561566,2.561203,6052093.000000,1673607139.020995
1673612258.855218,,,,2.523702,2.523146,6052094.000000,1673607139.022002
1673612258.855481,118.088295,4802470.000000,1673612258.794136,,,,
1673612258.855498,,,,2.482208,2.483432,6052095.000000,1673607139.023009
1673612258.855830,,,,2.458408,2.459511,6052096.000000,1673607139.024016
1673612258.856715,,,,2.426555,2.427609,6052097.000000,1673607139.025023
1673612258.856926,,,,2.449201,2.450905,6052098.000000,1673607139.026031
1673612258.856946,,,,2.497715,2.500044,6052099.000000,1673607139.027038
1673612258.857075,,,,2.561807,2.563438,6052100.000000,1673607139.028045
1673612258.857111,,,,2.625634,2.624862,6052101.000000,1673607139.029052
1673612258.857122,,,,2.628183,2.627603,6052102.000000,1673607139.030059
1673612258.857130,,,,2.670157,2.669361,6052103.000000,1673607139.031066
1673612258.857318,117.925499,4802471.000000,1673612258.795136,,,,
1673612258.858497,117.889320,4802472.000000,1673612258.796136,,,,
1673612258.858518,114.180847,4802521.000000,1673612258.845136,,,,
1673612258.858576,114.180847,4802522.000000,1673612258.846136,,,,
1673612258.858589,114.162743,4802523.000000,1673612258.847136,,,,
1673612258.858598,114.144653,4802524.000000,1673612258.848136,,,,
1673612258.858653,114.108475,4802525.000000,1673612258.849136,,,,
1673612258.858679,114.108475,4802526.000000,1673612258.850136,,,,
1673612258.858685,114.126564,4802527.000000,1673612258.851136,,,,
1673612258.858725,114.072296,4802528.000000,1673612258.852136,,,,
1673612258.858735,114.090385,4802529.000000,1673612258.853136,,,,
1673612258.858768,114.144653,4802530.000000,1673612258.854136,,,,
1673612258.861863,,,,2.776489,2.775644,6052104.000000,1673607139.032073
1673612258.862226,,,,2.828080,2.830288,6052105.000000,1673607139.033080
1673612258.862234,,,,2.802861,2.803748,6052106.000000,1673607139.034087
1673612258.862297,,,,2.764156,2.766677,6052107.000000,1673607139.035094
1673612258.862346,,,,2.748722,2.749176,6052108.000000,1673607139.036101
1673612258.862371,,,,2.772714,2.774563,6052109.000000,1673607139.037108
1673612258.863606,,,,2.736389,2.739680,6052110.000000,1673607139.038116
1673612258.863616,,,,2.713815,2.714389,6052111.000000,1673607139.039123
1673612258.863646,,,,2.761463,2.760643,6052112.000000,1673607139.040130
1673612258.863657,,,,2.822382,2.823004,6052113.000000,1673607139.041137
1673612258.868730,,,,2.887724,2.886928,6052114.000000,1673607139.042144
1673612258.868745,,,,2.883998,2.885101,6052115.000000,1673607139.043151
1673612258.868818,,,,2.936166,2.936331,6052116.000000,1673607139.044158
1673612258.868841,,,,2.985713,2.983619,6052117.000000,1673607139.045165
1673612258.870901,,,,2.941527,2.940755,6052118.000000,1673607139.046172
1673612258.871152,,,,2.854188,2.856709,6052119.000000,1673607139.047179
1673612258.871257,,,,2.790817,2.792377,6052120.000000,1673607139.048186
1673612258.871524,,,,2.675278,2.676068,6052121.000000,1673607139.049193
1673612258.877212,,,,2.525121,2.527930,6052122.000000,1673607139.050200
1673612258.877234,,,,2.410327,2.411502,6052123.000000,1673607139.051208
1673612258.877333,,,,2.385277,2.387486,6052124.000000,1673607139.052215
1673612258.877351,,,,2.514976,2.515309,6052125.000000,1673607139.053222
1673612258.877385,,,,2.682009,2.683641,6052126.000000,1673607139.054229
1673612258.877396,,,,2.804712,2.806561,6052127.000000,1673607139.055236
1673612258.877419,,,,2.853154,2.853007,6052128.000000,1673607139.056243
1673612258.879163,,,,2.808607,2.807835,6052129.000000,1673607139.057250
1673612258.879190,,,,2.739899,2.743262,6052130.000000,1673607139.058257
1673612258.879224,,,,2.684341,2.690012,6052131.000000,1673607139.059264
1673612258.879377,,,,2.641261,2.644720,6052132.000000,1673607139.060271
1673612258.883580,,,,2.658906,2.661404,6052133.000000,1673607139.061278
1673612258.883589,,,,2.668859,2.673136,6052134.000000,1673607139.062285
1673612258.885853,,,,2.677947,2.680516,6052135.000000,1673607139.063293
1673612258.886002,,,,2.694559,2.695181,6052136.000000,1673607139.064300
1673612258.886101,,,,2.733528,2.734367,6052137.000000,1673607139.065307
1673612258.886209,,,,2.756367,2.756268,6052138.000000,1673607139.066314
1673612258.891156,,,,2.764781,2.764105,6052139.000000,1673607139.067321
1673612258.891322,,,,2.802573,2.803820,6052140.000000,1673607139.068328
1673612258.891561,,,,2.922872,2.924479,6052141.000000,1673607139.069335
1673612258.891566,,,,3.111590,3.109952,6052142.000000,1673607139.070342
1673612258.893717,,,,3.190996,3.186713,6052143.000000,1673607139.071349
1673612258.893859,,,,3.158854,3.157817,6052144.000000,1673607139.072356
1673612258.894026,,,,3.229316,3.229482,6052145.000000,1673607139.073363
1673612258.894091,,,,3.372117,3.372427,6052146.000000,1673607139.074370
1673612258.894226,,,,3.514606,3.519266,6052147.000000,1673607139.075377
1673612258.894411,,,,3.452725,3.455367,6052148.000000,1673607139.076385
1673612258.894564,,,,3.156209,3.154932,6052149.000000,1673607139.077392
1673612258.907715,,,,2.832671,2.833293,6052150.000000,1673607139.078399
1673612258.907883,,,,2.651454,2.652148,6052151.000000,1673607139.079406
1673612258.908062,,,,2.478146,2.479104,6052152.000000,1673607139.080413
1673612258.908295,,,,2.345442,2.347098,6052153.000000,1673607139.081420
1673612258.908307,,,,2.341235,2.342121,6052154.000000,1673607139.082427
1673612258.908472,,,,2.330585,2.331375,6052155.000000,1673607139.083434
1673612258.908696,,,,2.308563,2.309979,6052156.000000,1673607139.084441
1673612258.908823,,,,2.370708,2.372701,6052157.000000,1673607139.085448
1673612258.914860,,,,2.542526,2.547572,6052158.000000,1673607139.086455
1673612258.914874,,,,2.695376,2.699676,6052159.000000,1673607139.087462
1673612258.921144,,,,2.828416,2.830962,6052160.000000,1673607139.088470
1673612258.921313,,,,2.939844,2.942221,6052161.000000,1673607139.089477
1673612258.921679,,,,2.922968,2.924864,6052162.000000,1673607139.090484
1673612258.921872,,,,2.779638,2.781342,6052163.000000,1673607139.091491
1673612258.923675,112.082382,4802582.000000,1673612258.911971,,,,
1673612258.923691,111.991936,4802583.000000,1673612258.912971,,,,
1673612258.923700,111.937653,4802584.000000,1673612258.913971,,,,
1673612258.923706,111.937653,4802585.000000,1673612258.914971,,,,
1673612258.923727,111.883385,4802586.000000,1673612258.915971,,,,
1673612258.923793,111.829117,4802587.000000,1673612258.916971,,,,
1673612258.923801,111.720589,4802588.000000,1673612258.917971,,,,
1673612258.923848,111.738678,4802589.000000,1673612258.918971,,,,
1673612258.923855,111.630127,4802590.000000,1673612258.919971,,,,
1673612258.923890,111.539680,4802591.000000,1673612258.920971,,,,
1673612258.924012,,,,2.679966,2.681381,6052164.000000,1673607139.092498
1673612258.924027,,,,2.582505,2.583488,6052165.000000,1673607139.093505
1673612258.924430,,,,2.543536,2.544446,6052166.000000,1673607139.094512
1673612258.924615,,,,2.480982,2.479128,6052167.000000,1673607139.095519
1673612258.924995,,,,2.381238,2.378687,6052168.000000,1673607139.096526
1673612258.925006,,,,2.347605,2.346424,6052169.000000,1673607139.097533
1673612258.925147,,,,2.432445,2.432946,6052170.000000,1673607139.098540
1673612258.929001,,,,2.545026,2.543389,6052171.000000,1673607139.099547
1673612258.929017,,,,2.625298,2.623612,6052172.000000,1673607139.100554
1673612258.929119,,,,2.685495,2.685108,6052173.000000,1673607139.101562
1673612258.929127,,,,2.741269,2.743190,6052174.000000,1673607139.102569
1673612258.936871,,,,2.772570,2.774442,6052175.000000,1673607139.103576
1673612258.937093,,,,2.766921,2.766220,6052176.000000,1673607139.104583
1673612258.937438,,,,2.716628,2.714701,6052177.000000,1673607139.105590
1673612258.937452,,,,2.676456,2.676141,6052178.000000,1673607139.106597
1673612258.937464,,,,2.637150,2.637387,6052179.000000,1673607139.107604
1673612258.937788,,,,2.640876,2.641330,6052180.000000,1673607139.108611
1673612258.937952,,,,2.708021,2.709292,6052181.000000,1673607139.109618
1673612258.938155,,,,2.756487,2.757277,6052182.000000,1673607139.110625
1673612258.938174,,,,2.768988,2.769826,6052183.000000,1673607139.111632
1673612258.938190,,,,2.695953,2.699580,6052184.000000,1673607139.112639
1673612258.944297,,,,2.613854,2.616712,6052185.000000,1673607139.113647
1673612258.944498,,,,2.610729,2.611952,6052186.000000,1673607139.114654
1673612258.944640,,,,2.705545,2.707321,6052187.000000,1673607139.115661
1673612258.944648,,,,2.797524,2.798098,6052188.000000,1673607139.116668
1673612258.944776,,,,2.829426,2.830529,6052189.000000,1673607139.117675
1673612258.944846,,,,2.882508,2.883875,6052190.000000,1673607139.118682
1673612258.944852,,,,2.893975,2.894597,6052191.000000,1673607139.119689
1673612258.944922,,,,2.868780,2.870340,6052192.000000,1673607139.120696
1673612258.945054,,,,2.839643,2.841323,6052193.000000,1673607139.121703
1673612258.945062,,,,2.815194,2.816369,6052194.000000,1673607139.122710
1673612258.945152,,,,2.755093,2.752950,6052195.000000,1673607139.123717
1673612258.946261,,,,2.641501,2.642724,6052196.000000,1673607139.124724
1673612258.946266,,,,2.608590,2.612385,6052197.000000,1673607139.125731
1673612258.946277,,,,2.629481,2.633613,6052198.000000,1673607139.126739
1673612258.946392,,,,2.728167,2.729174,6052199.000000,1673607139.127746
1673612258.946476,,,,2.831974,2.834159,6052200.000000,1673607139.128753
1673612258.946568,,,,2.894191,2.897097,6052201.000000,1673607139.129760
1673612258.946610,,,,2.907005,2.907434,6052202.000000,1673607139.130767
1673612258.951625,,,,2.893734,2.894933,6052203.000000,1673607139.131774
1673612258.952223,,,,2.844067,2.846540,6052204.000000,1673607139.132781
