2.351034517060745657e+02
2.348732544110200138e+02
2.350140361574315477e+02
2.347174616556739295e+02
2.344678534706146706e+02
2.346881614938761800e+02
2.350995798911853285e+02
2.352251695009846344e+02
2.352927543606551524e+02
2.354473796372798802e+02
2.358376801319922151e+02
2.364312284546182923e+02
2.371718595250028443e+02
2.368865292964350147e+02
2.364971449846940175e+02
2.366552643231653406e+02
2.371216621402917610e+02
2.370520196210652841e+02
2.366052759547372375e+02
2.366376477811181473e+02
2.371489923772572297e+02
2.373684102163007026e+02
2.369794705685174847e+02
2.369117510120449310e+02
2.371419102658993552e+02
2.367322024531713112e+02
2.364228255320999210e+02
2.362102409687295790e+02
2.359677465584151719e+02
2.353477680216888928e+02
2.341799528061059164e+02
2.335180968510401271e+02
2.336656220506216641e+02
2.331602395627254509e+02
2.324836260184441414e+02
2.324051158108740651e+02
2.323737585750180870e+02
2.318828638536178914e+02
2.314573525450899183e+02
2.312441985004309117e+02
2.313583193015213624e+02
2.316773245840262803e+02
2.321879628912033695e+02
2.321507015227755346e+02
2.318387666606037953e+02
2.317285107547149892e+02
2.324228923584576023e+02
2.327132352245521361e+02
2.324318328549083219e+02
2.323939189674864849e+02
2.333818696803412536e+02
2.345469607172477708e+02
2.346797512876980534e+02
2.351239675190218179e+02
2.366062007573081587e+02
2.374914474312681989e+02
2.375603923146053944e+02
2.377017741431580760e+02
2.385124606495600688e+02
2.385258981887332652e+02
2.377238753052727134e+02
2.376015927651760080e+02
2.380585826932725695e+02
2.381110189593635482e+02
2.377046313788216594e+02
2.380256714236641642e+02
2.389496311487208970e+02
2.393099057166482453e+02
2.392270328181353136e+02
2.395783403580371669e+02
2.403594487092888130e+02
2.410324251066678016e+02
2.415982235833191965e+02
2.421203485334301604e+02
2.428129927222228162e+02
2.432235138971144579e+02
2.438718351412485390e+02
2.443785570008782599e+02
2.441339047614154651e+02
2.436830409870254641e+02
2.440848954638168209e+02
2.446754103938351648e+02
2.445566094032317039e+02
2.444071692753986440e+02
2.452259753017292496e+02
2.459722299022871539e+02
2.463657803854464703e+02
2.460834585961619609e+02
2.461461788037767349e+02
2.462973046347519812e+02
2.458221927802063078e+02
2.449379219598163218e+02
2.440215053121886797e+02
2.433110100287657360e+02
2.422896366429824297e+02
2.413989580936614345e+02
2.415034250207675086e+02
2.413652047069597302e+02
2.406943911375736320e+02
2.405919053459892325e+02
2.409009690791209835e+02
2.410962364068583099e+02
2.412339618463178681e+02
2.416405485550735079e+02
2.422817501956597539e+02
2.428343274273183567e+02
2.435222959055186038e+02
2.441807784682521572e+02
2.442991967693756123e+02
2.442008681067133580e+02
2.448627345607607708e+02
2.459289037230569761e+02
2.463155844816998297e+02
2.468888320850361424e+02
2.480673748409389816e+02
2.489506046847550920e+02
2.498722371136134939e+02
2.507167895713902794e+02
2.511325114004503689e+02
2.515505854569802864e+02
2.520175497924552133e+02
2.519984449411523997e+02
2.518072961443805298e+02
2.516508246104700390e+02
2.512551874012460189e+02
2.513705224813161578e+02
2.521434069787638066e+02
2.523845416542438898e+02
2.520457784984440650e+02
2.522817319992673788e+02
2.530111110685637072e+02
2.531201498279466477e+02
2.526128836544180274e+02
2.530209651254232028e+02
2.534564824714576616e+02
2.535221187447151578e+02
2.539004527547490966e+02
2.547063686642771927e+02
2.549038467105795576e+02
2.548152728919405661e+02
2.556417263149693326e+02
2.568285735172836439e+02
2.571241561290823938e+02
2.575120876277015896e+02
2.586050567944233194e+02
2.597433539719424402e+02
2.605821829351173164e+02
2.613825299729796257e+02
2.616374457933319491e+02
2.620163327141494847e+02
2.622898880974884150e+02
2.621408314262135377e+02
2.616834903464514923e+02
2.613817586605109113e+02
2.610676883699733253e+02
2.607918961220333358e+02
2.608367656303798867e+02
2.604975727175402653e+02
2.597215261548076910e+02
2.593150961486765027e+02
2.594359858485393602e+02
2.589094719015069472e+02
2.579626108509169171e+02
2.576360460195110136e+02
2.575497233427790889e+02
2.574052071748709523e+02
2.569345855821885038e+02
2.568655745515956141e+02
2.570548420252846427e+02
2.566647447800901887e+02
2.564108853634888874e+02
2.566034573361607727e+02
2.564886178582030993e+02
2.558785592276411762e+02
2.556085452995667424e+02
2.558147687155808683e+02
2.560682232273705949e+02
2.561483111322185096e+02
2.560133212579264068e+02
2.561733433177149664e+02
2.564792039012930331e+02
2.566207807830783736e+02
2.566040462022018573e+02
2.565671347041658237e+02
2.564402803524294541e+02
2.564962199680225012e+02
2.567862735003446915e+02
2.569838280661730892e+02
2.564978326002977269e+02
2.562572833644372281e+02
2.569748267361510443e+02
2.570285991003656250e+02
2.562577648880969718e+02
2.558621630329984100e+02
2.560443243265385149e+02
2.565523342378647840e+02
2.564311771895203833e+02
2.575226424131029148e+02
2.587319349378541915e+02
2.590717957745302442e+02
2.594794714652207972e+02
2.603820344301665273e+02
2.610776282215729225e+02
2.613287837085410956e+02
2.616800427996199687e+02
2.624078142677943219e+02
2.632876156395699354e+02
2.644832331943968029e+02
2.648829827747649688e+02
2.651536127874088038e+02
2.660842207448785075e+02
2.667488813247122721e+02
2.666290182108393196e+02
2.661678034237917245e+02
2.656197899608387729e+02
2.651565786658525781e+02
2.647019734729515790e+02
2.641771172820581910e+02
2.636151284311856671e+02
2.631481772864924551e+02
2.635361885717626933e+02
2.634751587476742429e+02
2.631046532511376768e+02
2.630518199870613785e+02
2.634779693713893494e+02
2.638115046318607142e+02
2.639308265103083500e+02
2.642451049484845953e+02
2.649551439592881366e+02
2.654574206398497722e+02
2.657534209841443271e+02
2.661608051063446965e+02
2.665226912776145127e+02
2.664314522907088190e+02
2.662299911674513737e+02
2.662437831755354409e+02
2.663566183823097049e+02
2.666378108625435175e+02
2.665562400715056697e+02
2.663746806773951903e+02
2.669324545809996039e+02
2.674855563002707299e+02
2.673227563171151360e+02
2.668613866041766300e+02
2.667086606090738883e+02
2.666347124012299901e+02
2.658752537142972301e+02
2.646898072770713384e+02
2.637368213557979288e+02
2.630520636209471377e+02
2.628963452499102686e+02
2.626953287488274782e+02
2.621649886657672255e+02
2.619745285568896520e+02
2.626762709635326587e+02
2.631329494626136238e+02
2.631668493942078157e+02
2.634865735627151935e+02
2.644084727908565355e+02
2.649676025389220513e+02
2.651854691126404191e+02
2.656214836272023945e+02
2.660876156692660857e+02
2.661957313459099055e+02
2.661712506216753127e+02
2.665679897298291507e+02
2.676783073672139039e+02
2.687072747026113007e+02
2.693715785465728345e+02
2.702799634770037756e+02
2.716258426343862880e+02
2.729880371693174084e+02
2.737393471569679377e+02
2.742253431180217831e+02
2.748106155620491791e+02
2.750173553546380845e+02
2.746920871266536324e+02
2.739070899292739227e+02
2.728101233799980605e+02
2.720105369325993934e+02
2.718397667029955755e+02
2.712139344300672974e+02
2.708206104117713267e+02
2.707281060900683087e+02
2.705042235305361942e+02
2.704439949923634003e+02
2.704612034247199404e+02
2.700891827073301670e+02
2.700743071596547793e+02
2.704406135044317239e+02
2.705931393017621076e+02
2.704632193227715220e+02
2.708191353183964907e+02
2.709639186741364369e+02
2.708873898309592505e+02
2.708967964145575706e+02
2.715267667451220177e+02
2.723272267799494557e+02
2.728988267327178505e+02
2.734613104012851750e+02
2.745034809779816669e+02
2.762834278619026804e+02
2.778716917618091884e+02
2.787264225241617623e+02
2.798884094138148271e+02
2.812259877054241883e+02
2.815687810025373210e+02
2.811987980698266369e+02
2.808244774046532939e+02
2.810137074962726729e+02
2.811383760806895680e+02
2.808667725280446348e+02
2.807541034360753542e+02
2.810956453115076101e+02
2.814028617865703268e+02
2.820702148499435111e+02
2.827301253122096227e+02
2.830501914877182230e+02
2.835681125540795051e+02
2.841857116171341318e+02
2.845130592696737040e+02
2.849441910187052827e+02
2.853671507488597285e+02
2.857364245488402048e+02
2.861246977599570300e+02
2.860872297587820867e+02
2.865278364561399940e+02
2.874526695337513615e+02
2.878438389610622608e+02
2.880038997053337653e+02
2.887884150501225236e+02
2.900761264958059655e+02
2.914848426797178149e+02
2.925782873585584412e+02
2.933532141856472322e+02
2.946843760824903597e+02
2.956994900431349151e+02
2.955678593196051338e+02
2.955101322760003200e+02
2.955150871250466480e+02
2.953361488998916684e+02
2.952647528122616905e+02
2.949696170649992268e+02
2.946484597139462380e+02
2.950569803607927497e+02
2.958561376541803156e+02
2.964693550070709875e+02
2.973214971357406284e+02
2.983714547670910520e+02
2.994449673627837001e+02
3.003669179670952758e+02
3.017311008665413965e+02
3.028457133851117646e+02
3.035480529642185274e+02
3.043659777451516106e+02
3.049019491520657539e+02
3.050764736022646275e+02
3.054981696435069125e+02
3.059699084112818923e+02
3.064570292389650490e+02
3.068512045206509811e+02
3.078587700758868095e+02
3.091445357808019025e+02
3.097852954401231500e+02
3.102069785335788765e+02
3.110245286819128410e+02
3.116040799009827538e+02
3.110771407565932236e+02
3.103477309270603541e+02
3.101704438519620908e+02
3.098282142217645969e+02
3.089436261182646604e+02
3.079583486517657889e+02
3.071964923854113749e+02
3.067950258572372491e+02
3.066130792072700046e+02
3.062838911744634061e+02
3.060614564978368435e+02
3.055030524856135230e+02
3.052789269794441793e+02
3.058627400342977580e+02
3.062016892326226412e+02
3.057983031338111459e+02
3.056434970804839963e+02
3.059370081837876683e+02
3.059122935968906063e+02
3.052116599045498333e+02
3.050645131967520456e+02
3.049765469237875095e+02
3.051840713723087219e+02
3.054535127745621708e+02
3.057252711186517331e+02
3.062003052475675986e+02
3.067946816959208149e+02
3.075620863555461142e+02
3.079441124040072850e+02
3.080917982797245713e+02
3.078450749591958697e+02
3.067866896502402483e+02
3.060563099540967755e+02
3.054907628725966902e+02
3.044960668442146243e+02
3.035470757647821642e+02
3.028498872944417144e+02
3.024404144518055659e+02
3.021668469230708638e+02
3.015189725102125067e+02
3.008425581873944452e+02
3.002251744340222217e+02
2.997600968428758392e+02
2.997309961048626974e+02
2.999319444733993691e+02
2.994883041531711569e+02
2.992387814848823950e+02
2.995591509190228408e+02
2.993553421876242737e+02
2.987348691480761431e+02
2.989562561824376985e+02
2.988332809450624836e+02
2.986312276447770842e+02
2.992351272775091502e+02
2.997284515463425123e+02
3.000628104455288394e+02
3.008773517338581769e+02
3.015251254035317743e+02
3.022533264558017549e+02
3.029380319629945575e+02
3.025456048787946202e+02
3.017147058167435034e+02
3.018826882180005100e+02
3.017416969707301178e+02
3.005556483629387117e+02
2.994958389710585038e+02
2.989982281511510109e+02
2.989259231236677579e+02
2.981361303581034576e+02
2.977066415555137837e+02
2.975987752900083478e+02
2.970957643849251326e+02
2.960305214776011553e+02
2.956840338234832188e+02
2.956402261263604032e+02
2.950344219255425173e+02
2.943447791849302462e+02
2.945606526477189391e+02
2.947300859493586813e+02
2.944926486097767224e+02
2.943921060259084470e+02
2.945428875087409892e+02
2.948065722972162348e+02
2.955092287603609975e+02
2.958390976543803959e+02
2.962899487077020240e+02
2.968827104584113385e+02
2.975254732645149147e+02
2.981454866615579817e+02
2.984835447253659595e+02
2.981676304479817077e+02
2.980248643569864839e+02
2.985121356486393438e+02
2.985178732649000608e+02
2.981471505094763188e+02
2.979476117366153289e+02
2.978983947434913375e+02
2.980274382792484289e+02
2.978093477869816752e+02
2.975152116042103216e+02
2.973244835797130463e+02
2.972283801658959419e+02
2.964192729783291043e+02
2.955347709518841839e+02
2.954617670683999791e+02
2.953537923183355360e+02
2.950174088383199091e+02
2.950757551388786624e+02
2.956987272690128066e+02
2.962934431989570498e+02
2.967959865815693092e+02
2.973871552205764601e+02
2.981923253157771114e+02
2.991376457066999137e+02
2.999681558383757647e+02
3.006957964848593292e+02
3.014032531981138163e+02
3.021336104457166698e+02
3.025900856574243107e+02
3.030306740366657436e+02
3.031360715905384495e+02
3.029384747611405828e+02
3.030301895797556995e+02
3.032968217425017201e+02
3.030845737388858652e+02
3.026841275823175579e+02
3.025785748153907662e+02
3.023945882184547145e+02
3.020569754797563178e+02
3.017007218284412602e+02
3.008924890762777409e+02
3.004417622932881500e+02
2.989563311890286741e+02
2.972889256772735393e+02
2.964925069151705657e+02
2.955586736132949000e+02
2.941916929241626804e+02
2.932071922298384834e+02
2.927599785007292326e+02
2.922755584686223642e+02
2.915895892629833384e+02
2.908133145939551696e+02
2.902053926882726387e+02
2.902218469176259532e+02
2.899782740857896215e+02
2.896290719295748772e+02
2.899160417192032924e+02
2.904737416560804490e+02
2.908066234256045846e+02
2.915280753720152234e+02
2.919857111508922571e+02
2.920178644016596650e+02
2.920782045361023052e+02
2.923198883412423470e+02
2.923853279671035921e+02
2.915825575239801992e+02
2.911467914450765875e+02
2.909067322188386697e+02
2.901408395098001165e+02
2.894311221085487773e+02
2.893671077492205086e+02
2.891667327198484827e+02
2.885786855420921597e+02
2.881808432181109652e+02
2.879867893636150598e+02
2.877854557026855673e+02
2.875876734658187956e+02
2.874835809983873105e+02
2.878980585714434710e+02
2.886896154409818109e+02
2.891710983164184654e+02
2.891611622116961939e+02
2.895047529489737599e+02
2.906738200621781516e+02
2.911565330921399095e+02
2.907506684980114642e+02
2.913347834891936827e+02
2.925923502852600677e+02
2.933138352061922092e+02
2.937792324980628109e+02
2.944062482801271017e+02
2.954068833678256851e+02
2.964802892034795150e+02
2.973940777793201846e+02
2.979529809319299147e+02
2.977474827043286041e+02
2.978544987833464575e+02
2.980674383105195488e+02
2.974285272009863093e+02
2.963971441713959507e+02
2.963533695978912874e+02
2.963937356043456361e+02
2.955733061052669655e+02
2.949385253033596541e+02
2.945127726700986841e+02
2.942157323629277244e+02
2.940890185477590535e+02
2.938117764686934947e+02
2.938957606088026751e+02
2.945040444898847909e+02
2.943861442150906669e+02
2.934985537298357485e+02
2.934666574276924393e+02
2.938825830340557559e+02
2.934243432773830591e+02
2.922556094148585544e+02
2.919317174281881080e+02
2.925460780070507667e+02
2.926476697498205795e+02
2.923947506302467900e+02
2.928034858850646742e+02
2.936696074174942623e+02
2.943116872084726197e+02
2.951466033166224747e+02
2.956949463160239588e+02
2.959048109814247027e+02
2.963039251908790561e+02
2.964072410719321624e+02
2.959128892700061897e+02
2.951837728145721371e+02
2.945294185397247020e+02
2.938108747237272951e+02
2.931459732270504901e+02
2.922971034844529186e+02
2.911513805380531039e+02
2.905017717288100130e+02
2.901785583962119404e+02
2.896437936377610072e+02
2.892906650016356025e+02
2.896189135318853687e+02
2.896926869464527954e+02
2.891452591088432769e+02
2.891213182206512897e+02
2.893453691396682643e+02
2.891232841992290332e+02
2.881795252494229089e+02
2.872440411638243063e+02
2.868790100733432951e+02
2.867128490943906058e+02
2.861575653119015215e+02
2.858000114589738132e+02
2.863874855161461710e+02
2.870300900180551480e+02
2.874478110874939034e+02
2.876703551032089194e+02
2.881296497636160439e+02
2.887828731301902963e+02
2.893227214080002341e+02
2.890519001318555752e+02
2.881440971975952152e+02
2.875492826473263221e+02
2.868816084306474750e+02
2.857199488383355401e+02
2.842420304070029147e+02
2.829791123083950879e+02
2.820883300163266654e+02
2.809735793402022637e+02
2.798230195786307490e+02
2.789764678818223729e+02
2.786880698840540731e+02
2.784314402122231513e+02
2.776345530881879995e+02
2.771954155551262602e+02
2.770490025429079424e+02
2.764715483561862470e+02
2.753341150012163325e+02
2.745268782459456247e+02
2.739543860607722650e+02
2.732802835019417671e+02
2.724629801946603607e+02
2.719682000032155997e+02
2.725264890006046699e+02
2.731114409508883796e+02
2.728552798958325525e+02
2.737154364120234504e+02
2.750194079079940934e+02
2.757898203497813938e+02
2.768050896983853022e+02
2.774455975232825722e+02
2.768992475286646595e+02
2.764225450237588007e+02
2.758447879015561170e+02
2.743093633008669485e+02
2.724556212591156168e+02
2.711193567332261409e+02
2.699357147740872733e+02
2.681255664283567057e+02
2.665992786021005259e+02
2.654635783561271865e+02
2.648638440226749822e+02
2.642001236311848515e+02
2.634913272583272601e+02
2.631911934441243943e+02
2.630343373738347168e+02
2.621463730454496499e+02
2.609848558278872588e+02
2.602485756170600553e+02
2.601217683959279725e+02
2.596539000761450779e+02
2.589891932918051793e+02
2.590280536339575974e+02
2.600553788102170643e+02
2.611302860691878891e+02
2.618448699894486253e+02
2.631790814737801156e+02
2.654508387905428890e+02
2.677069965771574971e+02
2.700140020423339706e+02
2.720307599676518180e+02
2.735844635254564992e+02
2.749351895887632509e+02
2.757030466122553776e+02
2.759392620618388037e+02
2.761797998312623577e+02
2.760811742633434847e+02
2.753119065690882508e+02
2.748690487688000417e+02
2.747852113569413177e+02
2.746392205736868846e+02
2.749733886846676114e+02
2.754688652922980623e+02
2.754637628628664174e+02
2.757239760893154994e+02
2.764139643168088014e+02
2.762303329414191921e+02
2.753783739089989240e+02
2.751459086144683965e+02
2.754532616428020901e+02
2.754342961352095926e+02
2.747658914274746849e+02
2.747988366961468500e+02
2.754594423015938105e+02
2.762560430179985360e+02
2.765950282600236960e+02
2.771723394044725524e+02
2.786847268989565691e+02
2.801771426071749715e+02
2.812577592289286486e+02
2.824933555473799629e+02
2.836062296786457750e+02
2.845021128786985400e+02
2.851949443907517434e+02
2.857342521103232116e+02
2.860907745929742987e+02
2.860460538618326609e+02
2.852824963478161635e+02
2.847364143177888991e+02
2.845145557406751209e+02
2.841584919224916916e+02
2.836886049158882201e+02
2.837372969689818660e+02
2.836153869323476329e+02
2.830418578303750792e+02
2.827577923189056719e+02
2.823658212709717077e+02
2.813870813235042192e+02
2.807672791794653335e+02
2.804398005637405049e+02
2.799186478182232349e+02
2.791744431824553203e+02
2.782727869247289618e+02
2.778484757467309691e+02
2.782250721522996173e+02
2.781052407714729497e+02
2.773557289800042440e+02
2.778074808763988131e+02
2.789216760666598702e+02
2.793005463604477541e+02
2.797392025627216867e+02
2.807098990720374445e+02
2.815642376728571321e+02
2.818126439658487925e+02
2.819346897980055928e+02
2.823118814494984008e+02
2.824570671141068487e+02
2.818861341709294379e+02
2.813025287075627148e+02
2.811339585951358231e+02
2.810658323013299196e+02
2.806901714945940967e+02
2.802395052112659073e+02
2.800852410388645808e+02
2.801388697335635811e+02
2.798334891642673483e+02
2.794059511752759022e+02
2.793247384770103281e+02
2.792700973604568730e+02
2.791289963054877603e+02
2.794915477161170543e+02
2.795918859553039511e+02
2.793641040834514797e+02
2.795879470960670119e+02
2.804847606901254267e+02
2.805652395398105341e+02
2.801550839772414747e+02
2.809306036546263954e+02
2.820151776484171364e+02
2.824115772542987202e+02
2.832015517967813025e+02
2.842438251550566974e+02
2.852594571899444418e+02
2.858898646320256489e+02
2.863107356320448389e+02
2.867243216678118642e+02
2.871576646194278055e+02
2.868966211748227124e+02
2.862259273737798253e+02
2.859466927733589046e+02
2.857786393864927277e+02
2.849160089460322638e+02
2.841399844097516052e+02
2.837209426290150986e+02
2.832978000134377226e+02
2.823789213049550995e+02
2.813257709520589174e+02
2.808647909867991075e+02
2.804002670341682801e+02
2.798332895211364075e+02
2.792599927266963391e+02
2.788368707246432905e+02
2.786918940333976593e+02
2.784058910311297268e+02
2.781778984219467930e+02
2.780244817080520079e+02
2.774286146044703969e+02
2.773517772951834672e+02
2.778650905082771487e+02
2.780101573349529076e+02
2.782986077818187027e+02
2.791890565120881433e+02
2.801172956738321318e+02
2.806302455200132613e+02
2.811214211681204915e+02
2.817729053708956144e+02
2.819936532931246234e+02
2.822260511634422073e+02
2.820866956980142959e+02
2.816927327784799218e+02
2.817517273135653113e+02
2.817673292182647060e+02
2.816649746368250931e+02
2.814474406929942347e+02
2.812473254260037834e+02
2.811226160875656888e+02
2.807257047689093383e+02
2.804746335576492129e+02
2.806535809250694342e+02
2.808355172257435015e+02
2.806481682936272932e+02
2.806260744514481758e+02
2.809026401922366176e+02
2.808749321750664194e+02
2.806685753203724971e+02
2.805900765949752440e+02
2.806629496380118098e+02
2.803613260501501827e+02
2.802308296167581148e+02
2.805168642923006246e+02
2.807378096994109455e+02
2.810603127620612440e+02
2.822012351758637010e+02
2.829940933290033058e+02
2.831461685280787606e+02
2.839494115900644147e+02
2.847792906111815796e+02
2.847001809688439380e+02
2.844074110802725386e+02
2.843427750166376882e+02
2.841372514251451094e+02
2.838956467197237998e+02
2.834146093948830298e+02
2.827718109966383508e+02
2.821547141062084734e+02
2.815274377243531490e+02
2.808668495298044263e+02
2.799924310897654323e+02
2.797517205726028351e+02
2.795958216873894457e+02
2.785129012275411355e+02
2.775671253573499939e+02
2.773818182856328463e+02
2.770652744879272404e+02
2.764544897749835854e+02
2.761161162444003594e+02
2.758803284411212644e+02
2.751477041946937447e+02
2.750051072495911058e+02
2.754633873495678245e+02
2.750931223921116953e+02
2.749105026361538080e+02
2.756209607643282311e+02
2.757207127510685041e+02
2.753910073225137012e+02
2.754001244134805120e+02
2.755609103414483911e+02
2.754120973244300217e+02
2.754538985361987216e+02
2.755404092620408392e+02
2.753309093533080727e+02
2.753965428072052646e+02
2.751140895019926802e+02
2.743649704130743885e+02
2.742553612159932754e+02
2.741969248702495747e+02
2.734522466368869686e+02
2.723412038675973008e+02
2.720099523519594413e+02
2.719772068380831342e+02
2.708020584529029975e+02
2.695965433119399108e+02
2.692404998885548935e+02
2.686850399362059534e+02
2.677090957901298793e+02
2.669246855817268056e+02
2.664073119866722550e+02
2.659007744772209207e+02
2.654555815453144874e+02
2.654549254782577350e+02
2.655663697372078786e+02
2.658387352636739251e+02
2.658159073296830570e+02
2.660608668255117664e+02
2.666973808732912516e+02
2.674267317252890166e+02
2.678637039286244317e+02
2.682410993739171090e+02
2.690395768863471062e+02
2.699096262724622193e+02
2.702351430394168119e+02
2.707580056613131774e+02
2.713059064652529742e+02
2.712452863091021982e+02
2.714268257070176560e+02
2.719030087899727164e+02
2.714675215307162830e+02
2.704549655215287771e+02
2.700986868515208243e+02
2.701978594184213875e+02
2.693436145399774659e+02
2.682676349073394704e+02
2.675303616394741653e+02
2.666026028834774024e+02
2.655933522011654304e+02
2.642681399944110581e+02
2.630465941340085010e+02
2.622200246809911732e+02
2.617379949973025077e+02
2.612288560513643461e+02
2.608808232620900753e+02
2.604047603412873855e+02
2.600945083997917777e+02
2.599375525052486751e+02
2.600365709822343661e+02
2.603413402642402161e+02
2.611037327827405079e+02
2.616836376764904912e+02
2.623460849741107381e+02
2.632132768587524652e+02
2.641403318675496621e+02
2.650505487115416372e+02
2.657424687237489138e+02
2.664108141568786436e+02
2.674762975571085803e+02
2.683600091794024820e+02
2.686396919314433376e+02
2.690108555499385261e+02
2.695663479622644445e+02
2.701059708082195243e+02
2.701878466413744491e+02
2.700616423228353824e+02
2.696157382114689085e+02
2.690900278631104356e+02
2.682574381719910548e+02
2.668268599532088956e+02
2.656878841975261025e+02
2.653253633213480498e+02
2.644373070550142302e+02
2.637152392879976333e+02
2.632917273659934381e+02
2.625603082007403373e+02
2.620638513812598376e+02
2.617946297375460176e+02
2.612415974914061394e+02
2.612030909394108562e+02
2.617495416774449382e+02
2.618402420339086234e+02
2.616781461955534382e+02
2.620108656136036416e+02
2.625638205097416176e+02
2.628041333687301062e+02
2.628008222104768379e+02
2.626659061419106251e+02
2.628645940460741599e+02
2.633703249595556031e+02
2.634889859988521721e+02
2.636193781341625595e+02
2.646216946774917460e+02
2.658743971153000416e+02
2.663552174538421582e+02
2.662114159817678001e+02
2.666298948768708215e+02
2.665804347580610170e+02
2.653552431865094263e+02
2.636721224631575637e+02
2.620355463333388570e+02
2.604159480914933624e+02
2.580453670137162590e+02
2.554095777699493510e+02
2.533985830962946295e+02
2.511782132250260418e+02
2.488106702343603445e+02
2.466505483074797667e+02
2.446343725950611656e+02
2.432879785078924613e+02
2.420370201649324997e+02
2.409378573822184819e+02
2.403928893855965612e+02
2.404103162976307999e+02
2.404753977071888471e+02
2.404388289604963234e+02
2.400652729468291398e+02
2.395283145523847281e+02
2.393547274738708950e+02
2.398265697097528459e+02
2.396558092623174616e+02
2.393487103927023441e+02
2.403141933816405071e+02
2.415264113717510099e+02
2.421452082838313231e+02
2.421979042038794887e+02
2.426069436522164153e+02
2.435084170534944406e+02
2.438407010044877552e+02
2.433860402060548722e+02
2.429926735323306275e+02
2.428861464935976073e+02
2.421366961271540390e+02
2.410043174225134521e+02
2.404570478152496094e+02
2.398034133419658360e+02
2.385226899634322990e+02
2.373001904691043364e+02
2.359722058863373491e+02
2.348306266524376440e+02
2.338933596385605540e+02
2.327983997790303192e+02
2.322548161339911417e+02
2.325406747299142012e+02
2.328176258770916149e+02
2.330220442111026387e+02
2.327651797783797463e+02
2.325329825874452752e+02
2.323764704021100727e+02
2.326394017483560219e+02
2.328648734235513871e+02
2.329767978188465918e+02
2.337579642543223599e+02
2.348195029457021690e+02
2.356809693752032047e+02
2.364327299806051315e+02
2.372217400764477304e+02
2.387707069750867674e+02
2.403160164482827383e+02
2.411940155500689116e+02
2.416612044740195699e+02
2.424178424213280323e+02
2.430330300740067173e+02
2.429234151356843938e+02
2.428131825801791592e+02
2.432619669808253207e+02
2.435073369084111334e+02
2.425360782240934725e+02
2.420644612466894614e+02
2.421260158031283538e+02
2.419865833113306905e+02
2.413796680019639211e+02
2.414052120142014530e+02
2.418633521496268202e+02
2.424420588302209012e+02
2.426450961498901506e+02
2.422134578472272040e+02
2.416817372567659845e+02
2.413993121196047582e+02
2.407790357662286738e+02
2.398381365665491671e+02
2.394793367329223770e+02
2.392265031797121537e+02
2.387858951640445468e+02
2.385871203482272733e+02
2.385266142608621465e+02
2.382451287524351926e+02
2.385900671220380787e+02
2.393538422658365334e+02
2.394059181005262076e+02
2.392778571665556626e+02
2.400398223066317769e+02
2.406358934321237655e+02
2.401358434181387622e+02
2.394583910694660460e+02
2.391632122522465806e+02
2.386692880428470289e+02
2.376404487240448589e+02
2.365500728774243839e+02
2.356251985702728859e+02
2.347131793746651169e+02
2.338721770712294585e+02
2.334061203098168562e+02
2.334508589198148911e+02
2.339774942996448033e+02
2.341515276635831810e+02
2.339547672503050535e+02
2.340059523953822804e+02
2.339617491012702146e+02
2.331500206492812879e+02
2.323121536733520998e+02
2.321337186046307579e+02
2.321412631076241837e+02
2.317408074632182036e+02
2.314608084725546178e+02
2.313431228251222933e+02
2.316381499234566661e+02
2.320717604520964983e+02
2.327471938842420514e+02
2.336438102639464773e+02
2.347739792813631539e+02
2.360185756426097328e+02
2.372722983067144469e+02
2.382381267149642667e+02
2.391055406659727680e+02
2.398089844913725983e+02
2.402157443840665678e+02
2.405037924231367015e+02
2.407205416454610258e+02
2.407629057972749536e+02
2.406417890890639910e+02
2.405995325263621680e+02
2.407772951718820309e+02
2.414797314685734761e+02
2.424804574314834724e+02
2.432643016680496260e+02
2.434614174776096149e+02
2.441939226061597026e+02
2.446814625513455042e+02
2.445383336635008504e+02
2.443106796632584405e+02
2.446083157921715951e+02
2.451337982683676273e+02
2.450128370566910689e+02
2.444407347255067293e+02
2.439960415911370433e+02
2.437333300316605289e+02
2.431790767069172432e+02
2.425621899586729455e+02
2.424020839760162289e+02
2.425833615401453471e+02
2.425741938486909817e+02
2.421179673056940942e+02
2.421983558870059881e+02
2.424482260141768393e+02
2.423421614935147659e+02
2.420282850800750509e+02
2.418304447946699725e+02
2.414424326012234019e+02
2.409309816718780723e+02
2.405703577492437262e+02
2.397580434094157340e+02
2.392668302084544507e+02
2.394633625450072714e+02
2.394922542770466123e+02
2.395691821781062174e+02
2.398842765000544546e+02
2.399167104534760995e+02
2.398506901599056391e+02
2.397537416992376507e+02
2.399307855362053772e+02
2.401164261839175538e+02
2.399083151211960967e+02
2.398431796630568726e+02
2.398670735427895409e+02
2.396132190815499712e+02
2.396098612433004007e+02
2.394389590319610193e+02
2.391005866686447803e+02
2.390116388157410938e+02
2.393779398931044398e+02
2.395617500535737179e+02
2.395085167681231155e+02
2.398205457107637528e+02
2.401258495765553960e+02
2.402492016199224452e+02
2.403172121028929382e+02
2.397316150721065924e+02
2.392410763669819289e+02
2.392526016166528393e+02
2.387878136682088268e+02
2.377681861037289082e+02
2.373527821682550325e+02
2.374108502848145008e+02
2.371623841229995833e+02
2.367691926486291720e+02
2.366551052553411978e+02
2.365010191173886369e+02
2.364497664442945393e+02
2.363097722129901967e+02
2.359851531778324443e+02
2.356972047806054320e+02
2.355123686077099592e+02
2.356695103657539505e+02
2.359388720433204298e+02
2.362160870876547847e+02
2.367817594168961364e+02
2.371656854136987818e+02
2.372790683886079535e+02
2.377564650871086940e+02
2.384559350992685438e+02
2.390668102562547688e+02
2.395026386040525210e+02
2.399853327338816200e+02
2.407314883438830293e+02
2.412720773476029024e+02
2.415425677782376965e+02
2.416595408782118568e+02
2.423284063436588838e+02
2.430271278092437228e+02
2.431326577730968097e+02
2.426685528432005867e+02
2.424251206653326847e+02
2.425978825924409250e+02
2.425144296906987051e+02
2.419559222853157507e+02
2.417192277016693254e+02
2.415720888855741748e+02
2.410323671927660598e+02
2.405933781068405892e+02
2.403730893932712434e+02
2.399070487074335460e+02
2.395480889496415102e+02
2.396101196903957202e+02
2.398480152445376348e+02
2.402316628634134759e+02
2.406191439386658715e+02
2.407832304010352971e+02
2.408688035635969129e+02
2.413519013653292689e+02
2.418369748254284275e+02
2.422667876209544033e+02
2.426387725158903663e+02
2.430713112578347932e+02
2.435084987727861403e+02
2.437620672424986310e+02
2.439749944880722978e+02
2.440845208778814026e+02
2.445653169613752027e+02
2.455329275763995440e+02
2.456210600574199816e+02
2.451627164195746218e+02
2.447583028106166410e+02
2.450062140888752538e+02
2.446362993932481231e+02
2.438942500619383509e+02
2.436587426212205116e+02
2.437220688680504850e+02
2.431958563616401818e+02
2.422486790405924353e+02
2.415542967975272575e+02
2.411471721786707860e+02
2.405252125745910234e+02
2.394668567161598958e+02
2.390788184895426127e+02
2.392757563068203410e+02
2.390712196335865087e+02
2.386002036803544115e+02
2.386224858781357057e+02
2.390471089652980368e+02
2.392449062571091645e+02
2.393238964718591149e+02
2.394593605886653336e+02
2.392491048855522422e+02
2.392470420115529066e+02
2.392616732186986042e+02
2.391868991102595885e+02
2.393113538770260220e+02
2.400614404241348154e+02
2.411610981769381965e+02
2.417495507460004092e+02
2.418331569468132898e+02
2.420118588602690579e+02
2.426110913341524054e+02
2.427758177109056419e+02
2.424999321072748444e+02
2.424356897259568200e+02
2.427540038044722337e+02
2.429573922846974767e+02
2.427500521829010722e+02
2.424312128026762991e+02
2.423868329367598449e+02
2.421351032844185625e+02
2.412639729836506604e+02
2.405406519917019921e+02
2.402640389708429325e+02
2.401370517142825349e+02
2.399441915002880421e+02
2.393665768350705889e+02
2.397965709157313086e+02
2.405783458496673575e+02
2.410203555692406212e+02
2.414918909039021173e+02
2.419925662170715555e+02
2.427666586955445496e+02
2.435731162992698557e+02
2.439874261378119229e+02
2.443288357981676029e+02
2.453534013122125259e+02
2.467302838838653827e+02
2.476369353546379841e+02
2.477904527670102368e+02
2.483004497662061851e+02
2.491206220605331794e+02
2.495384988540187692e+02
2.491574435860024437e+02
2.486584627334245283e+02
2.489398228264876138e+02
2.497965754800216018e+02
2.498400908488361836e+02
2.496320973159879486e+02
2.497957488993174877e+02
2.500210527930263424e+02
2.494431831120194261e+02
2.485927078103885322e+02
2.485563817144155223e+02
2.483449776299170821e+02
2.480856523540436456e+02
2.479710914657163130e+02
2.481643435853096946e+02
2.483949049708057828e+02
2.487182275906747009e+02
2.490006219702779902e+02
2.493910425072273540e+02
2.499601676269532788e+02
2.506523686893065417e+02
2.507859709658523286e+02
2.508114235971411574e+02
2.517972142533535873e+02
2.533050365364465790e+02
2.545119987799088221e+02
2.551614251343256967e+02
2.559022943188570878e+02
2.570706180436212662e+02
2.575832095610787746e+02
2.572621228976091174e+02
2.567962557376227437e+02
2.568535134125430659e+02
2.571540127385306960e+02
2.566799697266938551e+02
2.561715807098394180e+02
2.557520721957094452e+02
2.551490188420472691e+02
2.541005546443216190e+02
2.525840042707267230e+02
2.514029859964259401e+02
2.504023665559594747e+02
2.490775271052785058e+02
2.481012273713281502e+02
2.471794639934437896e+02
2.463030153960500570e+02
2.453014776874628922e+02
2.447240813520248537e+02
2.444638481073529874e+02
2.442177489618003108e+02
2.441221901446756135e+02
2.439420752961753180e+02
2.436541348101305289e+02
2.436188738803280955e+02
2.445614268823052271e+02
2.453527952645170558e+02
2.457560049486879166e+02
2.460383541825459304e+02
2.471379750892768641e+02
2.477500648687122862e+02
2.478229918697746825e+02
2.480992727841759233e+02
2.487013101339952357e+02
2.495683561719135071e+02
2.503649247015021615e+02
2.510506402106067299e+02
2.522085052130148881e+02
2.529895593534782279e+02
2.528006958450987725e+02
2.531140182203504310e+02
2.534367081923337821e+02
2.531668772248405048e+02
2.524519912409686526e+02
2.522315569782633418e+02
2.526021011193281538e+02
2.526054355633403077e+02
2.518444535077931903e+02
2.515815538747189066e+02
2.514612673257047675e+02
2.512142509378383295e+02
2.508129108086166639e+02
2.507788099573786553e+02
2.506853478422604837e+02
2.505659624405321324e+02
2.508881797857946481e+02
2.514661386294260979e+02
2.519792576240656672e+02
2.523617486568214758e+02
2.526312139709541498e+02
2.527965273485104092e+02
2.527171583206007313e+02
2.522259714243604378e+02
2.519875229868208066e+02
2.519766941139652090e+02
2.520085843461054651e+02
2.519807434197598752e+02
2.524869343742780927e+02
2.529408942647214644e+02
2.529329442611405625e+02
2.531515288932918679e+02
2.537357653685141372e+02
2.538541240414938613e+02
2.536944872262288584e+02
2.536545109287611695e+02
2.540598742030474000e+02
2.543449029494455829e+02
2.541397113131996832e+02
2.535379059983860941e+02
2.532026412994156885e+02
2.529603373719803585e+02
2.523571844501160797e+02
2.516773081580982137e+02
2.512561814338425847e+02
2.509392596162574307e+02
2.507351498828576553e+02
2.505379975923578968e+02
2.503563104326368318e+02
2.504286060268554479e+02
2.501664615126924218e+02
2.500600512573419962e+02
2.492628916626017315e+02
2.479601406434547357e+02
2.470234455216090055e+02
2.466357320549685710e+02
2.453603933756066340e+02
2.443096426198558788e+02
2.441297957810677701e+02
2.439706986192447005e+02
2.432356751355387701e+02
2.427857901138767147e+02
2.430263419811931271e+02
2.432178358826103590e+02
2.430074668783181266e+02
2.429967221837110856e+02
2.436254433210187358e+02
2.445882937530891184e+02
2.452030238795630908e+02
2.452862329242234125e+02
2.459636819232747769e+02
2.472642840660485604e+02
2.481400319940763382e+02
2.486390011807067708e+02
2.495329640523559078e+02
2.507632323323824721e+02
2.516946195122474137e+02
2.522701685298011398e+02
2.528891707843540075e+02
2.533928445025379972e+02
2.539965231967163106e+02
2.543237608855076246e+02
2.541352214493707322e+02
2.537069194111958552e+02
2.534056867800255191e+02
2.529712272977039618e+02
2.524656542422129917e+02
2.517127768829821264e+02
2.512818998025857411e+02
2.508561631980165316e+02
2.504131968724517208e+02
2.501123794605820194e+02
2.499074297955494330e+02
2.494809960715175237e+02
2.491304306796538981e+02
2.489401955341863868e+02
2.490452120939493739e+02
2.491948123907516788e+02
2.489689941498947405e+02
2.484391902630266031e+02
2.482650401124124926e+02
2.483513800135326335e+02
2.479965092682153625e+02
2.474958975296604535e+02
2.474455572761638678e+02
2.478834934481657797e+02
2.485005229961842872e+02
2.488907782554749133e+02
2.494888933228015446e+02
2.500565189312913787e+02
2.506310951125634858e+02
2.509575034865873704e+02
2.508089127350434069e+02
2.504365688810052575e+02
2.500522426936456384e+02
2.494933387115194421e+02
2.487107789597440046e+02
2.478920665315127394e+02
2.472797341668861577e+02
2.467505183125477970e+02
2.465605059334286295e+02
2.466273066125129105e+02
2.467986685000229841e+02
2.465234310129587811e+02
2.461483611780262493e+02
2.460275534402423432e+02
2.465183212756379305e+02
2.468434023678120184e+02
2.467026760675900903e+02
2.466230883925491923e+02
2.469475364534330311e+02
2.472400975767613716e+02
2.472334550946940794e+02
2.472047226135931624e+02
2.476552624378734890e+02
2.482429427823379342e+02
2.488017068655934168e+02
2.493097090325949807e+02
2.499167073995323562e+02
2.506886742395026602e+02
2.515084085887792753e+02
2.523263522611154315e+02
2.530049348770680524e+02
2.535210787541630566e+02
2.536665747790226533e+02
2.533766431037002178e+02
2.530034297450097824e+02
2.530412782788277468e+02
2.525034940988650192e+02
2.516495621091675048e+02
2.513354696155528245e+02
2.515923682934799217e+02
2.517847550931142280e+02
2.517034194353891507e+02
2.511845134861987106e+02
2.511979493129403522e+02
2.521057113441182196e+02
2.529135609246277170e+02
2.531330586771657352e+02
2.532133392918847790e+02
2.538241802227637436e+02
2.545354898325487909e+02
2.545841445420055607e+02
2.544344536380939417e+02
2.547379067163793138e+02
2.550770914449081488e+02
2.555275431695170880e+02
2.555650249952674642e+02
2.554554567854109450e+02
2.561061201348099985e+02
2.569404487395784713e+02
2.573926345522208408e+02
2.576022196624513754e+02
2.583949726507424316e+02
2.590044274247400153e+02
2.585945536015702260e+02
2.579740215106453434e+02
2.579233427098882885e+02
2.578471216337190981e+02
2.570476491173691329e+02
2.563237344459889187e+02
2.563442863335590118e+02
2.568603262516886616e+02
2.567200113557216810e+02
2.559768787416460896e+02
2.558988818290866902e+02
2.564971321039457166e+02
2.568561650404616330e+02
2.563420771608367659e+02
2.560954213140743150e+02
2.566883748532649179e+02
2.575682882240847107e+02
2.576660475804799830e+02
2.576480384406565918e+02
2.580206327770145549e+02
2.584766252527545021e+02
2.587695679375844975e+02
2.587115164795305873e+02
2.581525067665496067e+02
2.579911490365332725e+02
2.582837378413897227e+02
2.584371166843329206e+02
2.581476983663195597e+02
2.581727143805946980e+02
2.581534732487756969e+02
2.578128641967829253e+02
2.571773112175437177e+02
2.565772987265621623e+02
2.560838971985145918e+02
2.555496735671799513e+02
2.546953345112796967e+02
2.541060740842443124e+02
2.543025277839546732e+02
2.543358099402740891e+02
2.535766626682068079e+02
2.530024069837364777e+02
2.531716114959401978e+02
2.537055771499111927e+02
2.529722939604446594e+02
2.522664312146839336e+02
2.526295435882931031e+02
2.535157021918411715e+02
2.538613130682604435e+02
2.539504995495663309e+02
2.542730591258957986e+02
2.548204872625672124e+02
2.556739787515532782e+02
2.562193960784696856e+02
2.562719506926544000e+02
2.567491113465277408e+02
2.578942862285845194e+02
2.585590072179606977e+02
2.587842174214883926e+02
2.592187163908304228e+02
2.599183812505208380e+02
2.604024060463074193e+02
2.601464140465018318e+02
2.595750220784283329e+02
2.589206262750266774e+02
2.582516197933016429e+02
2.577901819066008215e+02
2.573026519696744572e+02
2.570190480338848715e+02
2.568438494499678768e+02
2.562954473675191593e+02
2.559416618275516271e+02
2.556850596785916423e+02
2.553074534630767403e+02
2.545444382657584299e+02
2.537423405225791839e+02
2.534039125940332724e+02
2.533886311553193025e+02
2.531609650827185476e+02
2.531861386142753361e+02
2.531614817013260961e+02
2.532978744536070508e+02
2.538238807350404898e+02
2.538948320732754951e+02
2.533066691530169976e+02
2.530474642740449838e+02
2.534332283189878581e+02
2.535756386847668296e+02
2.532642910161300449e+02
2.534876938235923092e+02
2.540677981411417647e+02
2.545155294860617801e+02
2.547171857920876334e+02
2.548614248328081544e+02
2.550674627973217241e+02
2.555087584392771305e+02
2.559046194692131735e+02
2.561679371182503928e+02
2.567914692070876868e+02
2.578485404845689573e+02
2.580108489883526772e+02
2.578725911175453120e+02
2.582931029324991528e+02
2.584167773706661251e+02
2.578703620270219972e+02
2.571938637157980452e+02
2.571531412855401868e+02
2.572308797183063689e+02
2.567886713573997781e+02
2.567143600695724786e+02
2.569348887144575997e+02
2.569218889844676141e+02
2.569154263813660464e+02
2.570684736300938198e+02
2.568484529353192443e+02
2.564295730181701742e+02
2.561453798811827482e+02
2.560294083163039431e+02
2.554501093550894666e+02
2.550698169461735461e+02
2.547886796666914790e+02
2.543292821359595450e+02
2.539196200297751886e+02
2.529046094051435603e+02
2.522176418430248077e+02
2.517857245960691728e+02
2.505920852602727109e+02
2.496799146646089298e+02
2.497630496544012715e+02
2.496213796146023469e+02
2.490782510394658971e+02
2.487974632566217110e+02
2.490105076341802715e+02
2.485476833406560786e+02
2.472892119728040825e+02
2.460603378769542360e+02
2.456810534845033658e+02
2.454316876072493301e+02
2.447643863249803360e+02
2.441930102556089537e+02
2.444909051859926876e+02
2.446113508011561066e+02
2.445550011363040710e+02
2.448790693803229601e+02
2.452167333858971574e+02
2.454940950040680718e+02
2.460093654735617861e+02
2.464470171315347216e+02
2.469359728487760037e+02
2.475754263891611799e+02
2.484495830675465697e+02
2.494176041524877974e+02
2.503380226333439964e+02
2.508986947176603053e+02
2.513543702505713213e+02
2.520134113473114610e+02
2.524832349123331880e+02
2.526950196461960445e+02
2.529529263545888114e+02
2.534577109238651360e+02
2.534857561116122895e+02
2.531197510939200583e+02
2.530470441683061722e+02
2.528568331983230735e+02
2.520515308994272345e+02
2.508652528544215556e+02
2.500671959501231925e+02
2.498470356526011358e+02
2.496733899622238084e+02
2.491711121283607326e+02
2.490088976887847139e+02
2.490650955949429317e+02
2.492470945406927569e+02
2.491803072488982593e+02
2.491032944204259820e+02
2.492615081582666505e+02
2.494573512912080560e+02
2.493875083671597395e+02
2.494524296442116622e+02
2.494937616764455584e+02
2.498832849233479010e+02
2.504482175762009604e+02
2.510719851207915951e+02
2.514135452608201717e+02
2.516330148566091225e+02
2.518493998581592450e+02
2.520356619397912254e+02
2.522890722942910884e+02
2.526166799672904801e+02
2.529476355054694068e+02
2.529405980657439557e+02
2.532228288953141657e+02
2.537598345258716392e+02
2.537886310903782032e+02
2.534040062845980401e+02
2.528167344710531950e+02
2.519174471806643680e+02
2.513621869037673946e+02
2.505498520381216849e+02
2.494592561311771135e+02
2.486168887985013782e+02
2.479615593264720985e+02
2.473061927314013246e+02
2.462838475437566501e+02
2.453866323551671940e+02
2.448976767063099373e+02
2.444398423299412002e+02
2.438469650560712410e+02
2.433494087756755277e+02
2.427234173889559656e+02
2.422134203274452489e+02
2.423278017120862273e+02
2.424947486591772190e+02
2.423450762877291993e+02
2.422520167684505168e+02
2.426315893733635960e+02
2.429893003307840331e+02
2.433119083680634560e+02
2.436938008906959396e+02
2.443135780440658777e+02
2.449915631674556948e+02
2.454340421501793230e+02
2.461494793915988168e+02
2.468119566611030677e+02
2.472280422332839009e+02
2.472045515549636718e+02
2.474204768614138743e+02
2.477121800064465731e+02
2.477306796481977926e+02
2.477625718505274790e+02
2.477927326652500710e+02
2.479882537543550711e+02
2.484320058009124637e+02
2.485643082823932275e+02
2.485420326822098787e+02
2.489071947775314868e+02
2.492581488448062430e+02
2.496153351686373867e+02
2.499198603368034242e+02
2.502584762318669505e+02
2.504533665100224198e+02
2.506641992829519836e+02
2.511417629426418898e+02
2.516188703436856144e+02
2.521835096676824435e+02
2.525357701843517475e+02
2.527045084780369848e+02
2.533616580360345836e+02
2.539109621309695513e+02
2.538952925073299980e+02
2.540574199734650165e+02
2.546056647115699434e+02
2.550110365057744843e+02
2.555077469454482184e+02
2.556968386409838843e+02
2.555198596643777762e+02
2.556143284069541153e+02
2.557475202201228228e+02
2.554778777372464162e+02
2.552009015893194146e+02
2.548604598534069225e+02
2.545204798472904315e+02
2.540744080332466979e+02
2.534533615994440936e+02
2.527870580304926307e+02
2.520041000691481372e+02
2.511416509243036614e+02
2.504629218616144612e+02
2.497785476591194538e+02
2.490052725383962695e+02
2.481719070363012918e+02
2.473725497058146914e+02
2.467782113479248380e+02
2.464257018504959262e+02
2.461091226150429065e+02
2.454497724543849131e+02
2.453087996729325369e+02
2.454127524471994661e+02
2.453788576734859816e+02
2.449377788211086227e+02
2.446339436638411655e+02
2.442904940045696094e+02
2.440565905992889668e+02
2.441458678066431389e+02
2.439064386382447935e+02
2.431374603707129722e+02
2.425982900980778538e+02
2.427791503148878007e+02
2.427379351314635869e+02
2.422575242186656510e+02
2.420521418639513342e+02
2.419088118615914311e+02
2.416587788365928873e+02
2.414869937113886067e+02
2.413892026541431051e+02
2.413235801094774331e+02
2.411806826752247730e+02
2.409102169158569779e+02
2.409359860010986552e+02
2.410657164265704182e+02
2.409327011269342336e+02
2.408465223164641031e+02
2.407723438278021604e+02
2.410067849243544629e+02
2.412825647912476370e+02
2.413640382753382596e+02
2.413789632630726203e+02
2.416357495897345302e+02
2.418668266049871249e+02
2.416517947825826695e+02
2.415098319919505343e+02
2.415624846366686143e+02
2.415760113209075826e+02
2.416603458761420029e+02
2.419973927605189772e+02
2.423381439945733860e+02
2.426263235129900409e+02
2.433329326821626069e+02
2.439718806676255269e+02
2.440856481207496245e+02
2.445241431737471771e+02
2.449613664034814065e+02
2.450034302186352306e+02
2.450365077870048083e+02
2.449823244866039715e+02
2.448560325240150632e+02
2.451768585950383965e+02
2.453630286263800429e+02
2.451729697272218118e+02
2.449972341738549630e+02
2.452263955720949298e+02
2.452715865767091259e+02
2.449449624017569818e+02
2.448551809141393392e+02
2.450588158608133540e+02
2.451541624256155671e+02
2.451084558344006439e+02
2.454331903054790018e+02
2.458154344027915954e+02
2.459949956964233309e+02
2.463624630656231886e+02
2.465828245159995049e+02
2.465659022136374574e+02
2.466158302566497014e+02
2.466075476942531850e+02
2.464969932243954531e+02
2.465510405847523145e+02
2.468591514387483699e+02
2.468185251451257898e+02
2.462864869210674499e+02
2.458889564679149373e+02
2.458957237236917308e+02
2.459346183755405093e+02
2.456645317576308116e+02
2.451691550388741234e+02
2.448165581964549631e+02
2.448436599515763987e+02
2.445052781763135386e+02
2.436479110663180450e+02
2.431683239689587595e+02
2.430370184101207087e+02
2.426126392971777648e+02
2.420810490695170643e+02
2.414990756332921364e+02
2.411269576643600772e+02
2.408969214565876769e+02
2.408347928163470328e+02
2.405583059918020012e+02
2.403198989959261667e+02
2.401270989119810508e+02
2.399541299781050441e+02
2.397945615319969193e+02
2.393105291676118327e+02
2.388094808306552466e+02
2.385468163505981352e+02
2.382882423308901139e+02
2.379515879306967747e+02
2.380577669524775501e+02
2.384326245159527389e+02
2.384187956560211887e+02
2.382871001567426674e+02
2.384165711382183019e+02
2.387800330354576204e+02
2.390066758059923870e+02
2.390366289434615510e+02
2.394101345030256880e+02
2.399829240707474867e+02
2.404945832922623197e+02
2.405284259046376576e+02
2.404768197666566891e+02
2.407962062106491601e+02
2.407692786767108544e+02
2.404082370724090367e+02
2.400217357251187877e+02
2.392159556599425514e+02
2.388691136569901232e+02
2.390225291739874081e+02
2.383818303841346165e+02
2.378248144678936455e+02
2.379497318468880280e+02
2.379315281243588629e+02
2.375400383441026690e+02
2.379349658674797752e+02
2.382810549336288375e+02
2.380029204903627829e+02
2.381630135438301181e+02
2.383605284115548670e+02
2.385573280639349036e+02
2.388199736425074491e+02
2.388876833914589497e+02
2.388606879097893909e+02
2.387436434912819436e+02
2.388894607826289871e+02
2.390395035951514160e+02
2.389162403737291811e+02
2.390677914908274602e+02
2.395131015793154461e+02
2.396021823114176073e+02
2.395445795135811409e+02
2.395177064991046336e+02
2.394001580151805229e+02
2.391091800981511142e+02
2.390873593158337371e+02
2.389246900199910044e+02
2.384987402825532001e+02
2.387186536733440221e+02
2.390115867409451198e+02
2.387413695403012923e+02
2.387966494408447033e+02
2.392284559813168698e+02
2.393316290768607928e+02
2.392501037605647412e+02
2.395353589954100642e+02
2.396489406105411035e+02
2.396873166557652439e+02
2.401734579148052262e+02
2.401908138661692362e+02
2.403833399380978051e+02
2.411400021704370999e+02
2.415552009108962181e+02
2.415899673479514718e+02
2.418475767859253551e+02
2.420641070324999475e+02
2.420219090725495619e+02
2.422000432883552037e+02
2.425040632428901404e+02
2.429091315153881681e+02
2.431624982331073852e+02
2.430874438313285282e+02
2.431791527267932622e+02
2.431484483522052074e+02
2.427178017551759126e+02
2.424042228524879192e+02
2.420355242312154758e+02
2.414503942968018180e+02
2.412744615524799201e+02
2.411515723046820483e+02
2.407063976491835717e+02
2.405510091842473059e+02
2.406992280224397405e+02
2.406219722048872711e+02
2.401900670541548379e+02
2.399730777592438926e+02
2.399563801233823597e+02
2.395517198108291836e+02
2.391084889933509317e+02
2.388626435870042997e+02
2.388952875352515832e+02
2.387543540382766309e+02
2.383537838384978897e+02
2.377366275262503734e+02
2.375749696767015280e+02
2.374486243140318891e+02
2.365564699065541845e+02
2.355123697519162818e+02
2.351763936880439871e+02
2.349744632286301567e+02
2.339399800149939779e+02
2.327786501023756500e+02
2.323283516744378971e+02
2.319996259287322857e+02
2.313621719506843988e+02
2.308362500561532329e+02
2.307159252232617348e+02
2.303936629545045207e+02
2.299001528156433096e+02
2.299813603131485706e+02
2.301094178685048064e+02
2.297978904586050248e+02
2.297327752149419666e+02
2.298694388975330014e+02
2.295939400323450457e+02
2.292960449357111656e+02
2.287289463588171259e+02
2.280284582132096034e+02
2.275645476021410900e+02
2.270412133341385470e+02
2.263962596449925115e+02
2.263755038444942613e+02
2.263978156099716159e+02
2.261629443100509889e+02
2.260477000631016438e+02
2.264591676778790372e+02
2.267975712551133540e+02
2.265710754409828951e+02
2.267207878428598633e+02
2.273561932537367056e+02
2.274851447461072667e+02
2.272898250498130608e+02
2.276164106271882872e+02
2.282267006503890343e+02
2.287926852490901979e+02
2.292349830201306418e+02
2.297046717849060542e+02
2.302310897231706974e+02
2.308949240415265365e+02
2.317140432864627257e+02
2.322770704816873888e+02
2.326624502234511169e+02
2.331873822407085868e+02
2.337600529148767237e+02
2.340663028646944781e+02
2.340698808080274489e+02
2.341637359824013629e+02
2.343539476297466706e+02
2.344598176706701338e+02
2.340900464549503681e+02
2.337352057351359349e+02
2.337992140542926052e+02
2.338526805129523041e+02
2.338355327650717186e+02
2.337477365867756021e+02
2.341109938476158163e+02
2.342795659866366123e+02
2.335645896854525745e+02
2.331408805083679852e+02
2.333564634054408202e+02
2.330696735757683200e+02
2.320165082962051883e+02
2.310460020181127732e+02
2.306462905847702984e+02
2.302323661967127180e+02
2.296796089876366977e+02
2.295076020467971318e+02
2.295639682177500163e+02
2.295680520038579857e+02
2.295904864792437365e+02
2.300679879236415672e+02
2.306429007134879043e+02
2.309361901368338579e+02
2.318070704663255981e+02
2.330860517997202521e+02
2.335230490211095571e+02
2.337562198545455772e+02
2.342980219908432105e+02
2.344494556636988420e+02
2.336618566046765295e+02
2.331655499704836529e+02
2.331861779267166810e+02
2.329901827345644563e+02
2.325473048394364355e+02
2.325552399982199745e+02
2.331391417648378592e+02
2.333367885470109115e+02
2.329531539463138756e+02
2.331633967690516442e+02
2.336809948332212343e+02
2.340059702961494281e+02
2.340900718039113713e+02
2.338563753028591350e+02
2.338081643115838801e+02
2.339367889815281103e+02
2.339175545565023526e+02
2.339372720195667057e+02
2.344206454006166780e+02
2.349158543067428582e+02
2.348994544186871281e+02
2.353230266101497534e+02
2.360664061599750312e+02
2.364686068329686179e+02
2.368923520389503494e+02
2.379704466661673337e+02
2.389027851593348259e+02
2.394945557014267195e+02
2.400575270194919995e+02
2.402538822091070756e+02
2.398612171099909176e+02
2.395555635656889137e+02
2.394718645137187991e+02
2.389225261017332400e+02
2.382910290598453571e+02
2.381111245890607506e+02
2.382578887241689927e+02
2.384313071680219309e+02
2.383714985405887887e+02
2.383816708584128037e+02
2.381649681249908213e+02
2.379581044404726242e+02
2.380803443589346386e+02
2.379973643180057365e+02
2.377136905270874365e+02
2.379138748297973791e+02
2.379867195497445209e+02
2.378524537148965692e+02
2.380158891049970009e+02
2.383562669583190541e+02
2.385121384061322374e+02
2.384130775976557572e+02
2.387603851230073531e+02
2.393774038617935389e+02
2.398998820231515765e+02
2.413025987279875721e+02
2.424610148049438862e+02
2.432000720685274189e+02
2.443877972835936987e+02
2.455121621917204777e+02
2.454672662697435328e+02
2.449746606317009991e+02
2.452078355443768203e+02
2.448745837792383782e+02
2.437741895667540462e+02
2.432401265690273249e+02
2.433443444489500678e+02
2.430644759459867146e+02
2.423189105035252737e+02
2.419227670995082349e+02
2.417599927611491637e+02
2.411447535912297155e+02
2.404446226091801009e+02
2.400241513065963090e+02
2.396552347338368634e+02
2.396153177850744669e+02
2.394593409729898212e+02
2.390827332721997891e+02
2.395766711713538371e+02
2.401849747685265299e+02
2.403809512822662668e+02
2.404524316481956703e+02
2.407822471024778110e+02
2.409660311396307577e+02
2.413262986328678608e+02
2.421004687584147632e+02
2.425886068524095265e+02
2.428639247381597954e+02
2.438722114678627122e+02
2.448816354299154341e+02
2.451069528713422869e+02
2.449614704675055066e+02
2.452300872397780722e+02
2.452139604410384095e+02
2.447285748831787089e+02
2.445387729791741549e+02
2.448018271166351951e+02
2.448010792972300180e+02
2.443362670304085782e+02
2.440808951626311796e+02
2.439231618776818493e+02
2.437014378802651322e+02
2.432594985454620371e+02
2.432276968700932969e+02
2.434182083395238010e+02
2.434647512772638152e+02
2.436674536765851542e+02
2.437340466654774787e+02
2.437282482300689992e+02
2.444014831451603698e+02
2.452020229364303248e+02
2.454899517305262862e+02
2.456026421788925802e+02
2.460141189481360016e+02
2.464830487645685935e+02
2.470020108928080163e+02
2.477143474214162779e+02
2.482113186175678265e+02
2.489998463688453967e+02
2.500381555609702957e+02
2.505876234753737890e+02
2.506859124267604102e+02
2.513048791964155839e+02
2.518168042662202595e+02
2.515876424516837062e+02
2.512947954639478780e+02
2.516052460703510860e+02
2.517360065861701344e+02
2.513149899308460817e+02
2.509213389625432740e+02
2.507305799389080789e+02
2.504391504129162342e+02
2.500560000395960003e+02
2.494971807109527333e+02
2.494954417547374419e+02
2.497738216296300777e+02
2.499120115221782328e+02
2.502705957142398745e+02
2.507775520358588892e+02
2.513856421878310812e+02
2.522761735973712121e+02
2.528085507387264101e+02
2.528887339567470178e+02
2.529654946805587485e+02
2.532720191037581969e+02
2.536703804775366677e+02
2.538246369238722764e+02
2.536325136874448845e+02
2.534805148835311570e+02
2.535901003983935880e+02
2.537377791053930878e+02
2.532944833040396304e+02
2.532841140224631147e+02
2.534553451792558576e+02
2.531912835296236892e+02
2.526956856116541417e+02
2.526096043052678510e+02
2.527757225199229083e+02
2.527974278935184316e+02
2.526653151841593399e+02
2.524016695376232065e+02
2.520266622195254911e+02
2.518520035583754293e+02
2.515252447429106155e+02
2.513646173851875574e+02
2.515611368453045884e+02
2.519822498997694424e+02
2.525061725038283669e+02
2.526921475991493367e+02
2.528299136950353727e+02
2.534455723371185627e+02
2.538103282303633250e+02
2.536293315157971051e+02
2.537805391756255062e+02
2.542947243655378315e+02
2.545193662329306221e+02
2.544518329316698555e+02
2.543888868163670907e+02
2.546626951584158007e+02
2.552491148641841505e+02
2.555025690659524003e+02
2.553527324346269722e+02
2.557768059260538394e+02
2.560598880770866685e+02
2.555860209156483052e+02
2.549507655017057175e+02
2.546127521229829256e+02
2.542200665191056999e+02
2.536871903790419651e+02
2.533068408343584963e+02
2.526688430960298604e+02
2.518274717312819462e+02
2.510589434929823938e+02
2.503194698637909994e+02
2.500419008102075793e+02
2.497545302572231094e+02
2.495962200675753309e+02
2.499373775748593971e+02
2.499731613885787453e+02
2.498709593677656642e+02
2.501109153500044897e+02
2.502049397653112521e+02
2.499842226002220400e+02
2.496986149384000271e+02
2.493954013939917900e+02
2.490266560466311887e+02
2.487293260879210095e+02
2.482836676028477711e+02
2.478222316742381963e+02
2.479345386562941087e+02
2.483352002689061635e+02
2.484624864152701207e+02
2.485905811398344838e+02
2.486863745097749074e+02
2.487312807389024556e+02
2.488105011157622926e+02
2.487888816233414104e+02
2.486714004039541521e+02
2.484077737711422174e+02
2.485038062234542338e+02
2.485051453090156315e+02
2.482163463443555713e+02
2.478664759716858725e+02
2.479558870585175896e+02
2.485477685590925887e+02
2.488016254826062266e+02
2.488741678812185683e+02
2.495272663528741646e+02
2.499885054437153826e+02
2.500609497231874059e+02
2.506307242206116541e+02
2.516448884937838386e+02
2.520468099787584038e+02
2.521599450622183554e+02
2.526155186827101033e+02
2.532286609567878202e+02
2.532253144564092224e+02
2.528979319703230146e+02
2.530017750816603836e+02
2.534544846233406759e+02
2.536879225525242987e+02
2.538279066346726722e+02
2.543371179976693384e+02
2.550005054143666712e+02
2.550583289826960538e+02
2.550747640311295470e+02
2.553543298969462967e+02
2.554753055296826005e+02
2.550706750805861134e+02
2.547069740687051365e+02
2.544716127641176797e+02
2.538347421798405890e+02
2.531191802063083856e+02
2.526738651094246677e+02
2.525277264747565766e+02
2.524162338686388125e+02
2.519590153867661115e+02
2.516337254110982542e+02
2.517632047719379500e+02
2.516364318020464168e+02
2.513630217866641772e+02
2.513060139891514666e+02
2.511558586834728715e+02
2.507813714650955887e+02
2.502008023991418781e+02
2.498190263414055039e+02
2.494071154291378321e+02
2.485366095132339410e+02
2.478580476827748384e+02
2.476748403125205584e+02
2.472671478215429204e+02
2.466102765427477266e+02
2.463774344151643731e+02
2.466665549367733945e+02
2.465155951125496472e+02
2.462227055729888718e+02
2.460013035031711013e+02
2.458234794842830695e+02
2.454592731308707130e+02
2.449472376298266454e+02
2.446407950695265470e+02
2.443144444056037798e+02
2.436592574213929936e+02
2.431753816878996588e+02
2.433923742184816774e+02
2.437834517871919218e+02
2.440830031561565079e+02
2.443909059436444409e+02
2.449344421255401301e+02
2.452844048431159081e+02
2.454686374264225321e+02
2.458064472359912997e+02
2.461057691475187710e+02
2.460265697775848821e+02
2.459624044251964392e+02
2.457726742901922705e+02
2.447514158639561401e+02
2.434505153748783357e+02
2.425700417235175337e+02
2.418739086218051852e+02
2.411208663511864358e+02
2.403855038347674622e+02
2.401792855833534190e+02
2.400754380370808008e+02
2.396087844321623948e+02
2.393630467202560794e+02
2.394429837970043309e+02
2.393194823391019384e+02
2.387711600178502351e+02
2.385087141418395333e+02
2.387310771268155349e+02
2.384979549945862800e+02
2.377774497137151002e+02
2.375947745652734113e+02
2.379632889940259020e+02
2.384659704138246923e+02
2.388919121738225044e+02
2.396180042014517539e+02
2.404488515874475070e+02
2.411175873473685272e+02
2.415642288181943513e+02
2.421867912705445747e+02
2.432021372726800337e+02
2.436547280683300869e+02
2.436914554046051364e+02
2.441931941942406468e+02
2.443541494544992361e+02
2.436432979128380794e+02
2.430527744172928521e+02
2.428687479319851548e+02
2.427970743098213688e+02
2.425659180543735260e+02
2.425720564534021264e+02
2.428153196541059060e+02
2.427759264780442834e+02
2.426345172776997572e+02
2.426378069723868975e+02
2.424907835677247192e+02
2.418328651502416164e+02
2.410620657139565992e+02
2.406334329311171416e+02
2.399780093606790956e+02
2.390680151125093289e+02
2.385546391074096846e+02
2.382243389777909783e+02
2.378897111263526085e+02
2.377101139846311924e+02
2.377751770060123135e+02
2.380620922901364906e+02
2.383086197595277156e+02
2.389129522488885016e+02
2.394165113565697141e+02
2.396788320773810312e+02
2.405670412349673484e+02
2.410831040668136893e+02
2.412559009456699073e+02
2.414301827427444209e+02
2.410877383254787389e+02
2.404378436000115755e+02
2.397798809429412472e+02
2.392372927193516716e+02
2.385935261547439552e+02
2.381645136380250847e+02
2.381717832537603385e+02
2.378558670971065681e+02
2.373232683292360434e+02
2.372317777566741483e+02
2.369609329594704832e+02
2.360372003089099735e+02
2.352587118763583760e+02
2.352457001767830889e+02
2.347141653531840575e+02
2.336194422141629730e+02
2.330992067976081898e+02
2.327883916265518849e+02
2.322456981925484740e+02
2.319024934875029089e+02
2.316092200192152575e+02
2.313560595835458287e+02
2.313942668865412315e+02
2.312286863262444285e+02
2.309346386799175832e+02
2.307077534614159902e+02
2.308235731365891752e+02
2.309779629069677469e+02
2.310420632335788014e+02
2.307517613008711237e+02
2.304238004571651288e+02
2.301684958259470761e+02
2.299642257564329100e+02
2.293610783278282952e+02
2.287984470745348347e+02
2.289509524888584338e+02
2.290421834050233088e+02
2.288293407477311234e+02
2.289906072526905518e+02
2.291973042618578233e+02
2.290656769169185623e+02
2.287183545420643043e+02
2.282922557466130513e+02
2.282411073384546967e+02
2.281654778374658861e+02
2.275157435875660781e+02
2.267249086133084006e+02
2.264306372762487172e+02
2.258384570795527395e+02
2.251164218645898529e+02
2.248247578279526238e+02
2.245086411091133698e+02
2.242051871033436043e+02
2.242603141952604062e+02
2.239405752498634286e+02
2.233439782058812284e+02
2.229881833872829588e+02
2.228580618775367554e+02
2.227811081060372089e+02
2.223318607639488675e+02
2.217331568675484732e+02
2.211593583417925686e+02
2.206668655266006738e+02
2.199541590162334330e+02
2.192287416131049156e+02
2.191682702491548298e+02
2.192425934277094370e+02
2.188443194997620935e+02
2.184768723456648161e+02
2.185082429168012936e+02
2.184077972444066233e+02
2.176554690372635719e+02
2.168370980865897764e+02
2.165781421795496442e+02
2.163323811152471023e+02
2.156231513011813092e+02
2.147370898630981060e+02
2.142575062270729234e+02
2.139901080051954523e+02
2.134484621532514836e+02
2.129150050890125385e+02
2.127673503173249969e+02
2.125205726030504252e+02
2.121552745569419756e+02
2.118982622136057898e+02
2.116859746794348780e+02
2.114781845596192511e+02
2.115691070068069735e+02
2.120944311873806782e+02
2.122647888365814595e+02
2.120332610850075241e+02
2.122398054815849378e+02
2.127364398784584409e+02
2.126711881747383472e+02
2.127701553496441704e+02
2.134049340720270322e+02
2.139528212455488188e+02
2.141671091755672478e+02
2.143785636741721135e+02
2.148060370472183536e+02
2.154328086092652370e+02
2.157872965305872697e+02
2.155521894813014967e+02
2.152304173422300551e+02
2.153579907342922866e+02
2.154820175901192272e+02
2.152586819497667818e+02
2.148228819187579575e+02
2.147042891095256607e+02
2.145709344623782613e+02
2.141624600105711238e+02
2.137671486559738696e+02
2.134989983193026148e+02
2.133480265912087646e+02
2.129273113688705621e+02
2.122953951286212373e+02
2.117420106112328995e+02
2.114044912699364716e+02
2.110331773502879855e+02
2.102872271012453496e+02
2.096236755434005659e+02
2.094073155015006478e+02
2.092792875017477741e+02
2.086192265543586757e+02
2.079157404091263288e+02
2.079171008277063493e+02
2.083587053867930763e+02
2.079641584885198711e+02
2.074905093546199168e+02
2.079522940796106809e+02
2.086661189210218765e+02
2.086872280541076918e+02
2.086494898971834004e+02
2.088932366745258946e+02
2.093592197839841731e+02
2.097468421544052433e+02
2.101048783878393351e+02
2.103171045107826558e+02
2.105487093316356493e+02
2.106426667558830275e+02
2.107976639412768236e+02
2.107633747878189183e+02
2.106967332620913282e+02
2.106912521232852669e+02
2.106645002850530943e+02
2.104421420698873249e+02
2.100993470624828490e+02
2.100688636249417982e+02
2.104802412720470386e+02
2.104406874905990890e+02
2.100136844897417348e+02
2.099136527467346127e+02
2.102364208530384246e+02
2.104035069683856705e+02
2.099576214683871740e+02
2.097624350074567019e+02
2.103087842734226740e+02
2.104890707221582034e+02
2.101340708006607656e+02
2.103473263154138806e+02
2.110642506416053266e+02
2.113843732528261228e+02
2.112525647076646749e+02
2.114599158715936653e+02
2.119461879478836295e+02
2.123046659156138674e+02
2.125260703302534750e+02
2.125430876394646020e+02
2.129219794683784528e+02
2.132691296109988457e+02
2.136132881813779250e+02
2.135548111824351736e+02
2.135350704653164371e+02
2.137466959415693850e+02
2.140351695141389996e+02
2.138583426179467608e+02
2.133439321654312266e+02
2.131316302499480173e+02
2.132160511412236019e+02
2.130530508078008722e+02
2.122437139340047452e+02
2.115207881399091434e+02
2.114102208193270940e+02
2.110602411022603633e+02
2.102641676561495387e+02
2.096888338683538677e+02
2.094475187172162123e+02
2.088863996073024225e+02
2.079195504090289148e+02
2.075660325407862103e+02
2.076541252170554230e+02
2.076468175497511197e+02
2.072616987175948964e+02
2.070993469782521856e+02
2.071094993633355728e+02
2.072237792894381130e+02
2.074397583780470598e+02
2.075860938174571402e+02
2.077558543226014649e+02
2.078886672210795155e+02
2.079799317723076797e+02
2.082316163912922491e+02
2.084703297854383663e+02
2.083073341360267250e+02
2.084531174431968452e+02
2.089838049806914171e+02
2.089600097255491846e+02
2.084997859226629657e+02
2.087503276547971609e+02
2.094142065205504082e+02
2.091053455264375316e+02
2.080816602814371379e+02
2.079267598953270806e+02
2.080723701994394332e+02
2.076548374519227025e+02
2.068774739287406987e+02
2.065454778265661560e+02
2.063428400024840812e+02
2.057168420735465588e+02
2.051476192289054836e+02
2.050911136094883318e+02
2.050494695242375940e+02
2.045502936298963732e+02
2.043201015768961213e+02
2.043386151957408856e+02
2.042120057300684834e+02
2.040733795686800818e+02
2.040916464661178793e+02
2.042076093073598599e+02
2.042929489887232535e+02
2.045130564537734301e+02
2.045947654419146318e+02
2.046642396418274643e+02
2.046208786867040317e+02
2.047499337043077503e+02
2.051908913128949052e+02
2.054468995353426521e+02
2.054095069604272794e+02
2.057341707681067930e+02
2.065267635963710688e+02
2.071008588347280863e+02
2.074387418141564297e+02
2.077409576718037272e+02
2.085484611199628091e+02
2.094644777258130830e+02
2.098813949189744221e+02
2.100570711024391244e+02
2.104518634066589016e+02
2.107121729653389366e+02
2.106897589628567289e+02
2.106855392405010434e+02
2.107937001537960100e+02
2.102756718884463965e+02
2.098835136040334248e+02
2.097053186778667566e+02
2.092991722186628181e+02
2.087858725265020894e+02
2.087049315592996095e+02
2.084874488288650412e+02
2.081624889824035449e+02
2.080534740595734604e+02
2.080494483955633882e+02
2.077990938825809906e+02
2.073532702324852437e+02
2.070413929797732635e+02
2.070239091131824125e+02
2.068231865820277449e+02
2.062992117819477755e+02
2.059079474826152136e+02
2.061284629372465247e+02
2.059954382839776201e+02
2.059658864431373217e+02
2.061730450930882341e+02
2.066800964949703712e+02
2.072082194853127248e+02
2.076959132717625209e+02
2.081852516164823896e+02
2.087866748563210422e+02
2.092381242643439236e+02
2.097123072580512826e+02
2.103785694402563138e+02
2.107552362714161234e+02
2.106578609173358814e+02
2.107244553148106831e+02
2.108811406559109685e+02
2.110332594618815278e+02
2.108937740161912018e+02
2.110311959335236338e+02
2.113334008061021905e+02
2.114900928627960184e+02
2.115064220104584365e+02
2.116233906280328654e+02
2.115489031169652776e+02
2.113475105497510640e+02
2.109776548387757771e+02
2.104326775942068650e+02
2.098967264955286112e+02
2.095173911993083493e+02
2.088511778891673316e+02
2.084250871751586942e+02
2.081713613167876531e+02
2.081273808823747515e+02
2.075574865608523396e+02
2.073587716214471186e+02
2.078196202029964752e+02
2.079806960328411947e+02
2.078317528637747387e+02
2.079840536589406952e+02
2.082115925243971333e+02
2.082702406427202675e+02
2.083881334881308760e+02
2.083978928016613281e+02
2.082396257703468905e+02
2.079896191284759652e+02
2.078450902728560266e+02
2.076962797985111706e+02
2.074335498572676784e+02
2.073079454682365963e+02
2.071129865031060433e+02
2.070754187316853177e+02
2.072501546585583299e+02
2.077286809104274710e+02
2.080456679100024076e+02
2.083830397599450066e+02
2.088324582096870472e+02
2.092003978010273215e+02
2.095507610367955920e+02
2.097861877218163897e+02
2.099670884110558120e+02
2.101823291080395109e+02
2.104248683061941847e+02
2.111466231392630561e+02
2.114814921802795595e+02
2.116030479750723430e+02
2.121669985523005550e+02
2.129736056054512119e+02
2.136835696792357737e+02
2.144502468841413929e+02
2.156298614799472375e+02
2.166126894431803009e+02
2.172675678239751846e+02
2.180565580484785926e+02
2.189500024446940358e+02
2.192478453845793638e+02
2.197380570000240994e+02
2.203707610063066511e+02
2.207496714051789297e+02
2.210264755799871637e+02
2.214928391353556094e+02
2.218169520819282923e+02
2.222704933960026779e+02
2.227274984769807133e+02
2.229988417360644917e+02
2.232377873487232307e+02
2.236655485404363617e+02
2.238597707528062131e+02
2.239144583104932735e+02
2.239191917178834501e+02
2.241038825885885046e+02
2.242413465819255407e+02
2.243148116786763921e+02
2.246057684337270643e+02
2.249816553099623775e+02
2.251005464595637307e+02
2.254226857943094160e+02
2.261515690553233355e+02
2.266195240094385497e+02
2.267184633941775189e+02
2.275870711989133213e+02
2.288008907478549645e+02
2.295693001961899995e+02
2.299031588473006877e+02
2.307317582770940021e+02
2.318126642953948249e+02
2.324373901428153886e+02
2.326271939062026490e+02
2.329211175232929634e+02
2.330930842184909579e+02
2.329399867093475223e+02
2.323562011657419077e+02
2.320644877148196201e+02
2.319273065353589516e+02
2.314683095204301253e+02
2.305055062472775944e+02
2.299281356708277997e+02
2.296452562079393260e+02
2.291946754211432165e+02
2.281741536226043081e+02
2.275039985415815522e+02
2.269193704426139675e+02
2.265204876956745181e+02
2.262333174726898903e+02
2.258845441306951898e+02
2.253415179105297454e+02
2.249248502532145437e+02
2.253627204002298470e+02
2.255739839446950441e+02
2.251926608584012968e+02
2.254503719877147319e+02
2.263080181804990616e+02
2.270430836644314923e+02
2.274074641331520752e+02
2.280858666910556849e+02
2.289343875940043347e+02
2.297629765875180112e+02
2.306007175815466326e+02
2.314953402533508324e+02
2.325815216755358961e+02
2.333924098687447781e+02
2.339648032589523723e+02
2.345402950302472505e+02
2.353401474965227180e+02
2.360017778965240041e+02
2.363287966917427809e+02
2.363814274908004052e+02
2.365254993860917523e+02
2.372341790086172466e+02
2.375866344139140267e+02
2.377202503329313572e+02
2.379476774783866801e+02
2.383735448764225282e+02
2.389236315875012053e+02
2.393078649080886748e+02
2.393148615189472252e+02
2.393479005967538455e+02
2.400042884287107938e+02
2.403673083744907331e+02
2.396295038475563217e+02
2.389777792785710346e+02
2.395667097706387381e+02
2.399423095142330169e+02
2.393180130149867750e+02
2.390610236180899051e+02
2.397346696113744429e+02
2.400963419574798650e+02
2.399236918142850641e+02
2.400561476064960402e+02
2.408018314380878167e+02
2.413032817240475651e+02
2.417169835683999395e+02
2.423078575017359242e+02
2.428343210054981114e+02
2.430005497739201417e+02
2.428809066309292461e+02
2.426073931895045916e+02
2.424980748036890361e+02
2.423959029086664714e+02
2.420249130399358251e+02
2.418330254266627151e+02
2.415994817978822198e+02
2.411405491330336588e+02
2.411481015148161759e+02
2.415264596777027180e+02
2.413609717517909417e+02
2.410890270158481599e+02
2.413736217745682779e+02
2.417716641151021122e+02
2.413053938837482804e+02
2.405345917717044699e+02
2.403034014603382218e+02
2.404303274839992355e+02
2.399111670587755043e+02
2.391980978162776807e+02
2.392137935287435369e+02
2.393269896658157450e+02
2.387760562880168607e+02
2.387410195742170345e+02
2.394809666202389167e+02
2.401530069630262574e+02
2.408477021677177561e+02
2.416542111672106046e+02
2.425399380937409433e+02
2.431119563995732449e+02
2.437821928920273535e+02
2.441538461484488778e+02
2.443974053628261629e+02
2.444896659200345823e+02
2.446395188006315493e+02
2.449267133512209966e+02
2.449813010409780532e+02
2.447560209597450012e+02
2.449407330272975400e+02
2.455010707832659591e+02
2.460585713945444581e+02
2.464948164133236048e+02
2.474572791711162267e+02
2.487534700555466998e+02
2.494907044233764850e+02
2.496746468301863615e+02
2.505987174205645545e+02
2.516026752391260857e+02
2.517908373423282455e+02
2.518235476490837925e+02
2.523123808706800446e+02
2.526577260761426658e+02
2.522735044280162811e+02
2.518763162816993315e+02
2.520225027449526181e+02
2.523238960068053700e+02
2.522752724524165728e+02
2.523722513933058451e+02
2.530275124648922542e+02
2.532364068778277044e+02
2.530011630406357881e+02
2.531510962915305925e+02
2.536324148540899728e+02
2.536013773761725076e+02
2.532659063395656176e+02
2.533470205404959756e+02
2.537928714563346944e+02
2.537095523253958618e+02
2.533015833706967612e+02
2.531100657658622595e+02
2.536331787711120000e+02
2.540846218374027785e+02
2.541816409576974252e+02
2.544168533797100054e+02
2.549514677944214611e+02
2.550808033194148265e+02
2.555048868573115612e+02
2.560377800729996807e+02
2.561779091879770931e+02
2.560453386107458300e+02
2.563119305827913763e+02
2.566179554281317223e+02
2.563418599312402648e+02
2.561277888073689724e+02
2.565816304344451169e+02
2.567972133689474390e+02
2.566793444177039305e+02
2.570073113466260111e+02
2.575372490086685957e+02
2.572971345393943352e+02
2.569644270427571087e+02
2.570201034590344875e+02
2.573702365983612026e+02
2.575532626789860160e+02
2.574064069195346747e+02
2.572288536689288776e+02
2.574199323066549709e+02
2.576839796997718963e+02
2.572141499015863246e+02
2.564164029025147897e+02
2.562847678249970613e+02
2.564202736777377822e+02
2.561734659622591153e+02
2.557786126331352818e+02
2.559087771079477989e+02
2.561485188876242205e+02
2.563606977647840495e+02
2.566845369827468630e+02
2.570237569957902792e+02
2.570797243238147303e+02
2.572656726231019775e+02
2.575813856437348477e+02
2.573000819756213104e+02
2.570391174645798174e+02
2.570619458327627171e+02
2.569366681211572541e+02
2.564056536789846632e+02
2.560744158754708906e+02
2.559490764159828586e+02
2.555323618055704742e+02
2.548212807244280498e+02
2.542276841464446875e+02
2.542577572110336348e+02
2.544040739548870533e+02
2.541814775418774275e+02
2.542724169975525683e+02
2.547797731800240228e+02
2.556105973294085629e+02
2.561021462029942768e+02
2.561973755562364090e+02
2.562833171634150631e+02
2.567665318285714307e+02
2.570064158861561623e+02
2.569232281058672811e+02
2.568751109070821030e+02
2.571198838911305984e+02
2.573256811831188884e+02
2.577458536827003854e+02
2.580755378048725106e+02
2.583362503019840801e+02
2.590511838072496289e+02
2.599896196539899620e+02
2.602820194740403394e+02
2.609411121654596855e+02
2.619304318249722883e+02
2.625813047348027567e+02
2.627302517212619364e+02
2.629957665313843336e+02
2.632901656384395324e+02
2.636305511924653047e+02
2.633399368098895366e+02
2.627313192899594014e+02
2.625874354506711938e+02
2.627683644561324741e+02
2.626824695832721090e+02
2.624919141273518335e+02
2.624928856424943433e+02
2.628605879735933399e+02
2.632105214836107052e+02
2.630719262582327360e+02
2.626440005748418116e+02
2.628446648132829750e+02
2.631433075885993276e+02
2.629947994912488412e+02
2.629112940988757714e+02
2.629715934862288691e+02
2.630070892108233238e+02
2.628456907164723475e+02
2.627860211562981476e+02
2.629458849553643063e+02
2.631338952499412471e+02
2.631902834187590088e+02
2.634384637257510349e+02
2.637204451532360849e+02
2.640539616002466232e+02
2.643305050284411664e+02
2.643284476981381772e+02
2.644567224492809601e+02
2.644390110590582594e+02
2.642061268751307352e+02
2.634308216174664494e+02
2.623596189075329335e+02
2.616123182428872838e+02
2.609043525644314059e+02
2.600417939747148921e+02
2.593976713954847924e+02
2.589914574925275588e+02
2.587305409029535781e+02
2.585829178938641348e+02
2.582293360854832258e+02
2.572411123551125343e+02
2.566758771061182642e+02
2.565595001280607903e+02
2.562084434265057666e+02
2.556177522020415722e+02
2.550990068823900856e+02
2.544908913193099806e+02
2.537192295515654905e+02
2.532003810904255374e+02
2.529269632472161788e+02
2.527856994485122755e+02
2.525381033748291202e+02
2.525940343924495437e+02
2.527194720335016314e+02
2.529092557162626917e+02
2.529752026110139411e+02
2.532426392534190427e+02
2.535418684429388918e+02
2.538758510197272358e+02
2.540549806012761564e+02
2.541670022018132045e+02
2.542133714842941288e+02
2.544777970701983918e+02
2.547412198662852916e+02
2.550898664488763643e+02
2.557727896453757808e+02
2.564714169791011500e+02
2.571091035927522057e+02
2.579495954395857780e+02
2.584781037043016454e+02
2.585048319603551477e+02
2.586255134876971624e+02
2.589217971517583692e+02
2.590981879284034903e+02
2.589980106511798112e+02
2.589801865114727661e+02
2.590977333502178794e+02
2.586025118341579514e+02
2.577334319896775696e+02
2.575928085416686599e+02
2.580571132926812652e+02
2.579055999823949605e+02
2.573495042551694496e+02
2.575965815832905719e+02
2.579526436608529707e+02
2.576364368537032306e+02
2.578257501780313987e+02
2.584863630630469515e+02
2.590221314931188772e+02
2.592320465570334704e+02
2.592514031054459451e+02
2.595938358092219573e+02
2.601801177137350010e+02
2.603951237351499799e+02
2.606091238006807771e+02
2.611796359738281694e+02
2.620736230800345083e+02
2.624659919301469131e+02
2.627576623299697758e+02
2.628133721791291464e+02
2.627870562645342147e+02
2.628482044981231525e+02
2.630195060437653183e+02
2.632956016369895451e+02
2.631683240423167263e+02
2.629373180635897143e+02
2.629622783004317625e+02
2.627634687357710277e+02
2.620791886618603144e+02
2.612558845966535728e+02
2.607762039243726235e+02
2.599760739802486000e+02
2.589239238031950094e+02
2.580633349524381970e+02
2.570190653574393309e+02
2.555741870126830690e+02
2.541186991846396381e+02
2.532294218515540933e+02
2.524447793811000338e+02
2.515743327416016371e+02
2.504179956291286260e+02
2.496917525626723489e+02
2.493614375662824045e+02
2.490850142983330500e+02
2.487196004051876912e+02
2.482576324786228952e+02
2.481776890581709836e+02
2.481791258103581868e+02
2.479604601144193339e+02
2.474589041065944457e+02
2.470711223697891228e+02
2.468366169543516833e+02
2.469631814917077577e+02
2.471959622725648558e+02
2.470147939087152338e+02
2.470103158041090694e+02
2.478180859610796176e+02
2.485875589632342724e+02
2.485361764426598370e+02
2.488790937348010175e+02
2.498425674182335570e+02
2.500798580338780255e+02
2.499047664567459890e+02
2.503069542801299008e+02
2.505790924773383495e+02
2.500482042282434634e+02
2.493576915489481394e+02
2.488963520677656902e+02
2.483639855443211673e+02
2.478411210179331192e+02
2.474531191815463842e+02
2.473738099294996857e+02
2.478818857308927477e+02
2.485226582309333025e+02
2.488037068677034540e+02
2.491692483989511402e+02
2.502287901287456862e+02
2.509864988248680504e+02
2.514227410254650295e+02
2.518127460829921063e+02
2.520551039698795535e+02
2.517964026203753178e+02
2.519473341244878952e+02
2.521965783108248900e+02
2.522525154550265256e+02
2.525413268543425147e+02
2.534661941264355107e+02
2.539965922863936498e+02
2.542674259324297736e+02
2.547200977796698567e+02
2.553698595819817285e+02
2.555985320565013126e+02
2.556006077217229517e+02
2.557744680299900892e+02
2.559643133970659505e+02
2.550488728382594275e+02
2.537761785506689307e+02
2.524478277864993743e+02
2.510143276543274169e+02
2.495285414666780639e+02
2.479660040480360408e+02
2.464819004529657889e+02
2.455333142128017130e+02
2.444356858606498122e+02
2.429740653284409859e+02
2.421816640273128485e+02
2.420804850233340915e+02
2.414682347319703695e+02
2.408003073048249689e+02
2.409290001039303206e+02
2.411392001307069108e+02
2.407361118492963783e+02
2.406103308684709816e+02
2.407741402106973965e+02
2.403397716103445134e+02
2.397234978412690793e+02
2.398081447543958120e+02
2.400721228676380008e+02
2.396375881717100356e+02
2.395557852143692230e+02
2.400938713360284567e+02
2.404030348076149437e+02
2.405329225197844494e+02
2.413018711032696331e+02
2.423501605403997701e+02
2.430490848873897107e+02
2.434679224527840802e+02
2.437083633108306628e+02
2.437413883236578727e+02
2.438956335393523887e+02
2.435718878082876699e+02
2.432502158410400739e+02
2.436270341381924140e+02
2.435586937146792366e+02
2.427154058398490690e+02
2.427860456562207787e+02
2.430889298420026421e+02
2.428889219794079679e+02
2.424194168389998936e+02
2.426011653697764245e+02
2.433598304563926149e+02
2.439412103557095293e+02
2.442364104990983833e+02
2.446481824034825650e+02
2.450910194762998628e+02
2.452484813129475185e+02
2.456985515206966966e+02
2.464744222719539550e+02
2.466853697103047409e+02
2.467775845584995977e+02
2.475066546528903189e+02
2.480394886999041262e+02
2.481663542682687762e+02
2.487275838429580972e+02
2.498168952176335438e+02
2.504823270192072187e+02
2.504524580322373311e+02
2.503707542861413060e+02
2.504254440667338031e+02
2.499196965596101450e+02
2.491132400451370472e+02
2.487124238844162392e+02
2.486604091801358720e+02
2.483594052910208347e+02
2.474143325397609772e+02
2.465697493129402460e+02
2.463530456013131129e+02
2.462591257006444039e+02
2.456400310356230250e+02
2.449377160135149154e+02
2.453211091333702996e+02
2.462071687260549879e+02
2.463576202313158490e+02
2.463648639510458906e+02
2.465798355775361870e+02
2.468438678740694172e+02
2.469164196488438847e+02
2.471136428035541712e+02
2.472421173905336786e+02
2.473631378240305025e+02
2.475393191155820887e+02
2.477234926405838564e+02
2.476565492140341291e+02
2.481507282381109576e+02
2.491675878657520116e+02
2.499186095049696235e+02
2.501590450204912770e+02
2.505282098728278584e+02
2.510994706857580070e+02
2.512622283665517671e+02
2.510223523101785190e+02
2.509399918818740503e+02
2.511212220607359313e+02
2.511932582413838304e+02
2.506802469506457385e+02
2.498706853733251023e+02
2.492594889688640194e+02
2.486717057085159865e+02
2.478688003124754573e+02
2.465634731658743419e+02
2.458323542756202187e+02
2.458001387231186072e+02
2.453858157997512990e+02
2.449819307139150624e+02
2.448368199514522985e+02
2.448788756108115763e+02
2.448959635464294422e+02
2.447936957853509625e+02
2.445845569180529537e+02
2.444493570667956419e+02
2.444668529199076374e+02
2.441538110234752139e+02
2.432717427209276480e+02
2.429726024697920082e+02
2.436617839177129667e+02
2.439180151842722921e+02
2.433211253025325504e+02
2.431821046791068568e+02
2.435594391042432107e+02
2.435385884733674970e+02
2.431862103739380245e+02
2.428105749473358799e+02
2.428145123895406812e+02
2.429953207254592371e+02
2.428184413112096536e+02
2.424584722113135342e+02
2.421930451378511293e+02
2.421584074597308245e+02
2.418224443085636040e+02
2.411259274139212607e+02
2.405108046003349500e+02
2.404526907435396765e+02
2.401789156970501438e+02
2.398586502142647419e+02
2.395108071118651765e+02
2.394413434356506514e+02
2.391858419036294663e+02
2.388719855723769001e+02
2.387239376480160331e+02
2.388690414230705414e+02
2.391015977449002605e+02
2.391213438138672132e+02
2.388362544868073769e+02
2.388673868270577714e+02
2.393360414256001150e+02
2.399309389684666485e+02
2.401935299658481995e+02
2.405414010614253471e+02
2.413519090478386033e+02
2.419994873576796692e+02
2.421704808505545259e+02
2.422261166940082830e+02
2.427205684557813754e+02
2.433287615877496251e+02
2.434233057040982544e+02
2.436022986002346897e+02
2.438517312755123783e+02
2.440016059778747035e+02
2.438411943541919698e+02
2.432571947930775593e+02
2.427448889871129722e+02
2.426522962528013352e+02
2.427484909678766201e+02
2.426502591163162492e+02
2.424403661112638133e+02
2.423105766602711810e+02
2.418830050805943301e+02
2.411367371377582458e+02
2.406829268586089370e+02
2.403666092858658203e+02
2.399101229293714255e+02
2.391472638918024529e+02
2.381497198781751479e+02
2.373742179203578360e+02
2.369484545088920413e+02
2.367248149363975358e+02
2.363541510378484816e+02
2.361741426521624874e+02
2.363806643215190206e+02
2.365828108670558549e+02
2.361285371652267031e+02
2.356331033241272337e+02
2.355227904427468104e+02
2.355231501797546514e+02
2.350580816406426266e+02
2.345817887244593578e+02
2.342109363718692521e+02
2.339081568874509571e+02
2.335202077894173556e+02
2.327421138149302635e+02
2.319820633623186552e+02
2.319009636612270242e+02
2.316467869561218151e+02
2.310664409735150855e+02
2.310955877140474399e+02
2.314158240899115526e+02
2.311834110464994581e+02
2.307299815731277022e+02
2.309889020819365726e+02
2.314742375935518623e+02
2.317380232017452215e+02
2.313412094784556245e+02
2.306565824466914876e+02
2.301336828100374987e+02
2.301432832505473129e+02
2.300400418259079629e+02
2.299896987195175484e+02
2.305000012329875290e+02
2.309648720845777632e+02
2.312846142541776260e+02
2.314418883942000207e+02
2.318341977157190854e+02
2.321964738558054933e+02
2.321035962010068374e+02
2.319712920038442689e+02
2.319919009567352646e+02
2.318406366645397441e+02
2.316001274325858503e+02
2.316753869781834965e+02
2.317443261764842362e+02
2.318310502598453979e+02
2.323346274834755150e+02
2.326987454013652155e+02
2.326482605392075129e+02
2.332984412161823116e+02
2.339448468100734715e+02
2.341886198960354193e+02
2.341864267913052799e+02
2.345967835312639806e+02
2.349206610189846742e+02
2.351346537841450868e+02
2.355193962409382493e+02
2.357474425066292838e+02
2.356801126027154965e+02
2.358483023171812647e+02
2.360866342452904973e+02
2.362966570040117631e+02
2.366562657990189962e+02
2.371198534520257510e+02
2.373160273450878890e+02
2.374588992557993663e+02
2.375559823786725531e+02
2.377158595454392866e+02
2.375142506250375618e+02
2.372495743255269645e+02
2.369904805363462685e+02
2.368244271161409529e+02
2.366841945518953025e+02
2.366333961953048117e+02
2.366397739189491460e+02
2.366798270811237330e+02
2.366649308533974363e+02
2.367120806219359395e+02
2.367555499926980644e+02
2.367830671696482909e+02
2.367733805854104503e+02
2.368536782778502356e+02
2.368955773528857378e+02
2.369927270419705394e+02
2.369191034670520821e+02
2.369983957419069327e+02
2.371068815506540091e+02
2.371460578394624861e+02
2.369384852529033765e+02
2.364357338911869419e+02
2.360480963909725460e+02
2.359984272126550309e+02
2.358876505804982457e+02
2.356318664068262478e+02
2.356388815368439396e+02
2.357005187991880746e+02
2.353838246030191783e+02
2.349888842948887202e+02
2.345861053847825985e+02
2.340481823829826737e+02
2.335309355532459961e+02
2.331192386568244217e+02
2.324144975199346845e+02
2.315738614698739752e+02
2.310024396532206765e+02
2.303574706703952302e+02
2.296543869935229623e+02
2.292336821092732180e+02
2.293209509590577966e+02
2.291402156536162238e+02
2.289016475376204482e+02
2.287344409057139956e+02
2.285502273346345419e+02
2.284924611517724315e+02
2.286149245462917179e+02
2.287365550656412836e+02
2.289421445606517409e+02
2.292697610510591346e+02
2.294517023990416078e+02
2.292176372100161359e+02
2.292533364669953357e+02
2.297714911522879220e+02
2.306106817037800170e+02
2.313095409291471469e+02
2.320913265848045626e+02
2.330081542356966224e+02
2.337252687537736051e+02
2.341468828679694525e+02
2.346880492281745774e+02
2.351812313340372498e+02
2.358649003388756853e+02
2.368236860794121696e+02
2.371614702605677678e+02
2.368799111549659528e+02
2.373348488238987954e+02
2.377770762956527619e+02
2.372720148807284204e+02
2.367850615164210524e+02
2.371332507098308042e+02
2.371946164424263088e+02
2.366629284878820840e+02
2.364933742554092646e+02
2.363620030479372645e+02
2.363509668916784676e+02
2.364990919311682944e+02
2.364959854146046609e+02
2.360883741924241122e+02
2.360832942368309091e+02
2.362423204396666847e+02
2.356985209404423074e+02
2.348993439474778029e+02
2.345237904750634925e+02
2.344436559640253677e+02
2.339748459718048537e+02
2.333905880997536144e+02
2.331551009609657399e+02
2.328680708876878498e+02
2.325605994276722015e+02
2.322484577705478728e+02
2.315726451457751978e+02
2.310439888287109795e+02
2.310604770217052248e+02
2.304470036990673805e+02
2.294339669427840249e+02
2.290530881513217594e+02
2.290659572713485659e+02
2.283082841546214468e+02
2.271839073937852334e+02
2.269323065594417699e+02
2.268448900269274304e+02
2.263657884293365044e+02
2.259510543726606215e+02
2.262266007259094067e+02
2.262242061724593611e+02
2.258149983544204815e+02
2.255891718603357106e+02
2.255675637291247995e+02
2.250451778364371478e+02
2.248221053654781088e+02
2.245727036570561097e+02
2.240866231078722137e+02
2.234273962578872954e+02
2.233126410942059863e+02
2.233633710476616159e+02
2.233846130945364905e+02
2.233513653774881504e+02
2.236027721532022952e+02
2.240726867128571484e+02
2.244183178750116099e+02
2.242083232308056324e+02
2.239618074235078495e+02
2.243468434783461021e+02
2.247025698882010261e+02
2.239548569939459810e+02
2.231888952839834417e+02
2.234644121764035560e+02
2.236117322274447190e+02
2.225415899116445075e+02
2.219007713769186978e+02
2.220313543592088195e+02
2.221495773670222604e+02
2.222574677690979570e+02
2.225280815609883120e+02
2.227922593501741346e+02
2.230357585114353469e+02
2.232434266778599863e+02
2.232854660132522611e+02
2.233146904124817809e+02
2.236332015302090781e+02
2.236492114448608390e+02
2.233231706983064271e+02
2.231650352352838809e+02
2.230727658256421080e+02
2.229599694051576648e+02
2.229476306887037822e+02
2.230688541205128104e+02
2.230793595490032999e+02
2.233746518576950848e+02
2.239776717249906426e+02
2.243060297501404534e+02
2.242983856867045347e+02
2.247332851564483747e+02
2.256058474231550406e+02
2.261245413236729576e+02
2.259422546844412238e+02
2.260812129037978764e+02
2.267517935302298042e+02
2.264914477713007841e+02
2.258731467076151773e+02
2.259070814856073071e+02
2.258946302843505407e+02
2.255951308416291283e+02
2.252204473907358135e+02
2.249934580551629040e+02
2.249929283741229256e+02
2.249577043332711810e+02
2.248340727324616921e+02
2.247646979416358022e+02
2.251744032129872153e+02
2.254028767467397358e+02
2.250825305656169917e+02
2.246994552299825898e+02
2.245904293410038122e+02
2.246670140578295332e+02
2.243577362911852333e+02
2.239463893698531649e+02
2.236225856848686533e+02
2.233780864153227412e+02
2.232468813600420390e+02
2.231592880811989517e+02
2.229623172532316175e+02
2.227302331807017310e+02
2.225880086950895134e+02
2.224293723143183570e+02
2.221299886781080772e+02
2.220507393808759389e+02
2.221283374133793984e+02
2.217464106170915557e+02
2.212524579529708149e+02
2.214786488818975556e+02
2.216903320250425509e+02
2.214195157124817115e+02
2.212383708962050548e+02
2.217980477998160893e+02
2.223560600633691138e+02
2.227444869845865583e+02
2.233683690811272129e+02
2.241301992359255451e+02
2.249141566522370681e+02
2.257369942002771381e+02
2.264317663543860419e+02
2.269647771340883651e+02
2.272953110481346926e+02
2.275453583671671822e+02
2.277064458609218036e+02
2.276931439014660157e+02
2.277620257962304322e+02
2.281180696575229945e+02
2.286092510743357877e+02
2.291702672979274098e+02
2.297590450912413189e+02
2.304295358116970647e+02
2.307317437578786610e+02
2.313166275766339481e+02
2.316117076400853705e+02
2.320491198578060050e+02
2.325680858092166545e+02
2.327759076395667819e+02
2.322786034483022206e+02
2.317972860587785533e+02
2.317049732721261819e+02
2.312917517191966397e+02
2.304564804695792475e+02
2.303524525795263571e+02
2.304978726871639196e+02
2.299811075996907448e+02
2.297034756081757223e+02
2.299108178067912149e+02
2.303061965252846335e+02
2.308723434638461072e+02
2.312418802140741150e+02
2.315527324879150797e+02
2.316642449545937836e+02
2.317023054177261088e+02
2.315009091118174922e+02
2.308548437507714084e+02
2.302432356062257384e+02
2.304349966970728190e+02
2.309068702691918133e+02
2.308655288941868946e+02
2.304796291855426489e+02
2.309200281376917019e+02
2.315727086542752602e+02
2.320373052718489930e+02
2.318777518119669310e+02
2.319953634091680783e+02
2.328696621667986619e+02
2.333469255531974795e+02
2.325555410359798998e+02
2.322950657103501726e+02
2.327040172750637339e+02
2.324956907987331078e+02
2.314427269100161482e+02
2.309882973540313742e+02
2.311115648763535830e+02
2.304132893980433892e+02
2.295984949531178358e+02
2.293799140624237509e+02
2.295174134542120896e+02
2.296476947947810743e+02
2.296783080981182934e+02
2.296993066529233261e+02
2.295654885740340774e+02
2.293638785720031024e+02
2.288756499689860675e+02
2.279471505109368650e+02
2.271102624027440413e+02
2.268893756207161516e+02
2.267155494604182877e+02
2.263673386886261483e+02
2.261977276752722901e+02
2.264617081782290029e+02
2.270496907130143711e+02
2.276008763250420657e+02
2.278357727547935667e+02
2.280342163553770547e+02
2.288694123877324671e+02
2.296827798713818538e+02
2.292297137204186015e+02
2.286349762910012373e+02
2.291499977283696694e+02
2.289007965942033991e+02
2.277651302982647223e+02
2.266355808801704939e+02
2.262222142875529016e+02
2.256430376485515978e+02
2.247710071595925854e+02
2.242216824662502574e+02
2.239351899557376271e+02
2.238259858097222832e+02
2.238519443969772169e+02
2.238922534154054631e+02
2.242422531827207877e+02
2.247941133922881534e+02
2.249892817992878804e+02
2.245170918869542902e+02
2.238726333638796291e+02
2.237301650157558583e+02
2.240386119573617805e+02
2.239155605927344652e+02
2.235983245635865444e+02
2.235003070574446440e+02
2.241103035338664426e+02
2.247724983711112543e+02
2.248439984751977931e+02
2.250544703880546535e+02
2.259782393975090145e+02
2.270443859119494050e+02
2.276326984743693913e+02
2.277276178009929026e+02
2.283592130531943951e+02
2.289283602358476060e+02
2.288672842673322805e+02
2.284791894120576501e+02
2.283916408886797740e+02
2.280461975736834574e+02
2.275234452234391824e+02
2.274732050896320743e+02
2.274689322389321262e+02
2.270386010958296765e+02
2.272085178558631924e+02
2.280986590434857817e+02
2.286167024789075413e+02
2.290519779220715577e+02
2.299471523360492142e+02
2.306054064890909672e+02
2.306484326018324111e+02
2.306583869760400489e+02
2.313665964745801205e+02
2.319869878460835082e+02
2.320493066853517803e+02
2.321135831895980459e+02
2.327673476543006359e+02
2.334787315265311918e+02
2.337820895062707791e+02
2.341266818907349148e+02
2.355110791462806503e+02
2.375214223207385089e+02
2.387909271948898891e+02
2.392632629549982539e+02
2.404024379498489736e+02
2.417762411822355091e+02
2.423918572040912238e+02
2.421968412827865222e+02
2.424787980099134188e+02
2.427720595826821466e+02
2.426683687745124018e+02
2.422882720771477807e+02
2.423319754947302158e+02
2.422090179521539710e+02
2.417390523279876504e+02
2.417136638952522958e+02
2.416626008670593819e+02
2.411234130927855404e+02
2.402855800923870788e+02
2.392864828424275743e+02
2.381718469823230180e+02
2.369461854710549744e+02
2.362610527547853678e+02
2.361770403428332088e+02
2.356717345908737116e+02
2.350585895084035144e+02
2.354313733146493632e+02
2.360877770633692307e+02
2.361843933054296940e+02
2.364168681512608430e+02
2.373809171890209200e+02
2.388244391850084583e+02
2.401780724766138064e+02
2.411528337218463207e+02
2.419736662790620585e+02
2.430815877328270460e+02
2.442867891892367709e+02
2.449268504713074321e+02
2.459205891087840712e+02
2.466941981436918923e+02
2.469299865564875063e+02
2.474782313342491307e+02
2.488054086531491578e+02
2.494032083075017283e+02
2.494453036299289579e+02
2.501187310805387938e+02
2.509806599666469538e+02
2.513139565486929143e+02
2.510458476222478055e+02
2.507236170323849649e+02
2.504933946745295827e+02
2.499896061344953750e+02
2.495210850703894323e+02
2.492596903209396260e+02
2.490449068460579269e+02
2.486228787765562913e+02
2.487564833059416571e+02
2.492551715011722138e+02
2.492380712606868087e+02
2.490867184552961646e+02
2.492758030749184286e+02
2.495713642485846719e+02
2.498615159768369267e+02
2.500607101587229693e+02
2.500550137092785690e+02
2.502364073215026110e+02
2.503315400913671454e+02
2.503290962182911414e+02
2.502965368546649643e+02
2.507202500108952563e+02
2.514289042365079183e+02
2.518862485201872516e+02
2.524978918633622698e+02
2.533322027057312198e+02
2.537939515340451635e+02
2.541726750306732754e+02
2.545351243407340576e+02
2.546233066172935082e+02
2.539547880211245001e+02
2.531731640753376098e+02
2.525278151847083450e+02
2.515320287226352605e+02
2.503364825579800481e+02
2.492279462067570535e+02
2.482901399819425308e+02
2.476239738573662237e+02
2.472218445468951131e+02
2.467906496291945757e+02
2.460576160210960097e+02
2.457270815949800635e+02
2.456339339098451546e+02
2.451241425908926601e+02
2.445580516399313069e+02
2.446309761781569136e+02
2.443622074941447693e+02
2.439079042805315112e+02
2.437517830411228488e+02
2.435515049114813451e+02
2.432474488506025523e+02
2.433389700632071708e+02
2.442352815469481584e+02
2.451969952558418981e+02
2.462589597826643910e+02
2.477578555487797303e+02
2.490346904629844289e+02
2.504698622542256885e+02
2.519423228859241988e+02
2.530018586016213362e+02
2.536555284222046964e+02
2.543135945432476888e+02
2.548553716256860184e+02
2.549268217759714901e+02
2.550242240440471164e+02
2.554013791572846230e+02
2.551955254525853718e+02
2.550036574691152111e+02
2.556878331205144548e+02
2.566702021517762660e+02
2.567550972734108541e+02
2.567037486867365601e+02
2.577057151731032718e+02
2.585988247227363104e+02
2.583179824662255442e+02
2.586215321094923070e+02
2.594422089326070591e+02
2.595113743834725142e+02
2.589703138704328467e+02
2.586432608192833413e+02
2.584189169590439974e+02
2.581053988821470284e+02
2.577384288802230117e+02
2.576499410860291732e+02
2.577305022193392006e+02
2.577701414009550831e+02
2.574041933701280982e+02
2.575698245753396236e+02
2.579336197819551444e+02
2.577297864862885604e+02
2.569818310990676196e+02
2.563514097740919055e+02
2.561445179091667796e+02
2.555311415677639957e+02
2.546365961467562897e+02
2.543217021710407835e+02
2.542162624330789242e+02
2.539804487467503691e+02
2.540081133186023408e+02
2.545871787626574871e+02
2.551568928483339675e+02
2.552771619816491580e+02
2.555628886610664381e+02
2.562655913202560214e+02
2.566132323730333837e+02
2.566834431187419909e+02
2.570957037943046544e+02
2.573793310338901961e+02
2.568640165380700182e+02
2.567375352622352693e+02
2.570243161107218839e+02
2.569966199919997507e+02
2.568723369310715725e+02
2.572199090751573749e+02
2.578338972534269828e+02
2.583673824681907263e+02
2.588279248351889237e+02
2.598216739177470345e+02
2.607562579481092371e+02
2.613606095881397664e+02
2.616048464950002881e+02
2.617289025175325037e+02
2.621023700524175979e+02
2.623330948575276125e+02
2.621340264890088179e+02
2.621713589737892676e+02
2.624904024148266899e+02
2.622517342229817814e+02
2.620446438060661194e+02
2.627322881784411948e+02
2.638596921114265115e+02
2.639893299147013863e+02
2.642509736416931219e+02
2.653642116704724003e+02
2.663796755146336750e+02
2.665042000203668522e+02
2.672339924058363749e+02
2.685791484279294536e+02
2.688778672194385990e+02
2.687855458378408002e+02
2.693391268664813651e+02
2.698504377287633815e+02
2.698507761957466755e+02
2.702133463658440178e+02
2.706686670510445083e+02
2.710958749091784625e+02
2.711136110934047565e+02
2.710974856491670266e+02
2.716396935116203508e+02
2.720896633181785091e+02
2.718658171016538745e+02
2.714429662256042661e+02
2.718273745082008759e+02
2.725281435907938885e+02
2.726096863354813422e+02
2.724787189814922499e+02
2.725543027801194285e+02
2.729378348912193815e+02
2.734394660062151274e+02
2.737067036586077506e+02
2.741606325302269056e+02
2.744342764641309600e+02
2.747677979110583237e+02
2.756501812247532257e+02
2.761742444399855003e+02
2.762994497734628112e+02
2.776109206752742580e+02
2.792437246596365412e+02
2.799070548288562463e+02
2.800582411652579822e+02
2.809296629133688725e+02
2.817502717029444170e+02
2.820630460383608806e+02
2.824586750485809716e+02
2.832878616739662334e+02
2.836809201325971799e+02
2.836220092600282783e+02
2.837524147050850161e+02
2.842004649972735706e+02
2.843455459582891081e+02
2.843432376602468139e+02
2.840149600905678540e+02
2.838111631474345131e+02
2.840994987764563007e+02
2.840047538521234856e+02
2.837188008398252350e+02
2.834706727684659313e+02
2.832348759402698875e+02
2.828102968484221833e+02
2.821666286129744208e+02
2.815750560542431913e+02
2.808396223852821549e+02
2.796893757480112299e+02
2.789357477312457831e+02
2.783509681047889899e+02
2.774051451852990340e+02
2.771158702213870129e+02
2.775216433398962295e+02
2.774375444300327445e+02
2.771891237447912886e+02
2.777577687872082493e+02
2.787668640179261956e+02
2.793471933227027648e+02
2.793522298430304431e+02
2.796140448723315330e+02
2.801456390321629897e+02
2.801830104803779591e+02
2.797229503831525790e+02
2.796208028996110215e+02
2.798126610069260209e+02
2.795358156751305501e+02
2.788544920677579739e+02
2.784069105306809320e+02
2.786445062396486492e+02
2.791078234549475496e+02
2.793657743115073231e+02
2.795855664990928631e+02
2.799462079542922766e+02
2.801887183513613877e+02
2.803542180071440839e+02
2.803874249798876690e+02
2.801116479856975161e+02
2.796986236553653953e+02
2.790597348712560688e+02
2.783809736792684930e+02
2.775829355969011658e+02
2.769930803966997246e+02
2.768542080063775757e+02
2.765725001979727153e+02
2.764091180028743224e+02
2.766862388623680431e+02
2.773013139288989919e+02
2.778593507837224479e+02
2.782932931444535711e+02
2.788628631931925383e+02
2.792446579115356826e+02
2.792537514889742170e+02
2.792482822059720320e+02
2.788868198158931477e+02
2.782134210352201649e+02
2.775760791927923492e+02
2.768237662556481382e+02
2.758895119756166991e+02
2.750724485149259522e+02
2.745741424708456861e+02
2.742807207473079529e+02
2.740897788267222381e+02
2.737770057369640426e+02
2.734951101780557110e+02
2.734035113251394478e+02
2.731928017776578486e+02
2.724979633196270470e+02
2.719451673753226828e+02
2.714356626855494028e+02
2.701516410631978715e+02
2.682911866140554480e+02
2.670298687335585441e+02
2.664060616021057513e+02
2.653397092169997222e+02
2.644690197923907249e+02
2.642626498151557257e+02
2.647756625683948641e+02
2.651606820882869897e+02
2.653542998735291576e+02
2.659162343267558981e+02
2.669709937759126319e+02
2.674687803885490212e+02
2.677083653770511660e+02
2.682980040229508631e+02
2.686249834588442695e+02
2.685287868665226938e+02
2.685409329356332933e+02
2.688487716667464156e+02
2.692954063767540447e+02
2.696780186005423730e+02
2.701069915048320809e+02
2.704453559360964050e+02
2.704986748114826582e+02
2.706828817570906835e+02
2.708650946755497557e+02
2.706521614448676587e+02
2.700220220622226748e+02
2.692429615818809907e+02
2.687695267016355842e+02
2.678069754930919544e+02
2.663123335563525984e+02
2.646319680473914673e+02
2.633059677657671500e+02
2.621453346331868488e+02
2.608238881288615403e+02
2.596415688442020837e+02
2.591637106845909670e+02
2.588268828470295375e+02
2.584340739460246823e+02
2.585995134772175561e+02
2.591099361824085463e+02
2.590934356818846709e+02
2.590023271595474057e+02
2.594142213463173903e+02
2.595102157001620071e+02
2.590832653817268465e+02
2.588318975727395355e+02
2.591336428289804985e+02
2.597239721501514964e+02
2.600750629295303042e+02
2.605994908525728988e+02
2.617171057300614621e+02
2.629270731120427627e+02
2.639164750529797629e+02
2.652270791484788788e+02
2.666737708592979743e+02
2.677296754145915543e+02
2.685787992157611370e+02
2.697232350753798755e+02
2.707374561985826631e+02
2.712973148443547871e+02
2.716094969741898240e+02
2.718047003772018684e+02
2.721145051052430404e+02
2.722631869523877981e+02
2.721328898058063146e+02
2.721965611941849943e+02
2.725933341078638819e+02
2.726314501886180324e+02
2.723093349796710640e+02
2.726030781333377035e+02
2.729701227942318837e+02
2.729316727765710198e+02
2.730247488344804196e+02
2.733866323587917577e+02
2.735836816035435959e+02
2.737518183988332794e+02
2.742961683212006392e+02
2.751164391937840605e+02
2.757216444740435008e+02
2.765088488726029254e+02
2.775097407164279275e+02
2.785163511684043556e+02
2.793023757423287634e+02
2.799957177114995375e+02
2.807687048152493503e+02
2.814864133512977560e+02
2.821939830336990553e+02
2.830642435281538951e+02
2.841588788002682122e+02
2.851037355797513442e+02
2.857794323198637017e+02
2.862583746521197554e+02
2.869692170883245126e+02
2.876133081978143196e+02
2.878659585808497923e+02
2.878547495152339479e+02
2.881284957760962584e+02
2.884076776715783126e+02
2.878486863313473236e+02
2.873201525097039735e+02
2.870616403491607684e+02
2.865790034882964505e+02
2.860679827931248269e+02
2.857308954877669862e+02
2.853250426529370429e+02
2.849653589547175443e+02
2.848520721475040318e+02
2.850889420394639160e+02
2.852054545503942791e+02
2.853711707908792050e+02
2.856151569326050321e+02
2.853465695718616644e+02
2.851422442123586620e+02
2.848952048338335317e+02
2.841334432402632046e+02
2.827554512375172635e+02
2.817627176504662430e+02
2.811876416243130734e+02
2.803943601832202148e+02
2.795483691764275136e+02
2.793469875611448288e+02
2.788418594189755595e+02
2.782578105373091262e+02
2.783632419194759109e+02
2.787232109398918851e+02
2.785408229652323371e+02
2.784096804847807789e+02
2.784759158612590682e+02
2.785375534089747021e+02
2.784092938895244629e+02
2.782063013289969149e+02
2.780688623646275914e+02
2.783014181216649945e+02
2.784368037956555781e+02
2.783874090178621259e+02
2.785780630108404807e+02
2.791698851765148106e+02
2.798641680321607623e+02
2.804645712634623465e+02
2.814359796928670221e+02
2.825382630875266727e+02
2.829789971544553850e+02
2.832307882151093281e+02
2.836383022372519918e+02
2.838109521297404854e+02
2.833534422594130433e+02
2.828653720241907195e+02
2.827964926167089175e+02
2.827851335691287318e+02
2.824848505646513104e+02
2.827541771806827455e+02
2.833919197460522810e+02
2.834791296560261458e+02
2.837486343403605247e+02
2.847557251264394154e+02
2.854334202866214696e+02
2.854028825204944155e+02
2.852169769265712489e+02
2.851927592188756080e+02
2.847422517960510504e+02
2.836713680359452496e+02
2.824639481334519928e+02
2.815512736888796894e+02
2.802849511793359625e+02
2.789010822291858176e+02
2.775946962668796800e+02
2.767303061653602185e+02
2.760587978437720267e+02
2.753255125108091761e+02
2.746822800649763963e+02
2.745284302528738749e+02
2.742726679974896911e+02
2.735477981192943844e+02
2.729206354185666328e+02
2.724241344776898472e+02
2.711366507366695942e+02
2.694827919822416789e+02
2.685651022185452348e+02
2.676322064125687348e+02
2.659120097203085606e+02
2.645007536226867728e+02
2.642165182786783362e+02
2.636534908325237438e+02
2.623190968015891826e+02
2.618111419606622121e+02
2.621349109523301308e+02
2.621244756105697320e+02
2.614620190258675052e+02
2.612260527553178235e+02
2.610800928193608570e+02
2.605775563206343008e+02
2.596837316879192485e+02
2.592672874655042392e+02
2.589000888423478273e+02
2.580018244341467835e+02
2.568989651354589228e+02
2.564464854743723663e+02
2.562516320247592603e+02
2.553416085180723485e+02
2.543648520914863411e+02
2.541202585994919332e+02
2.536947754343071892e+02
2.529195769902529776e+02
2.520559392064404847e+02
2.511519785918293053e+02
2.496993730360954942e+02
2.481600019692935746e+02
2.469419176902102890e+02
2.458019303182786643e+02
2.438628460271128517e+02
2.420240291228386127e+02
2.411756135501788094e+02
2.398398315741223712e+02
2.378844308158930119e+02
2.366198943388122586e+02
2.362042368234813807e+02
2.355550483131612793e+02
2.346525081246057312e+02
2.340111755621179555e+02
2.335122506350002425e+02
2.325035119432512829e+02
2.315882833456457774e+02
2.310719647570984421e+02
2.304515370206777334e+02
2.296938436959113119e+02
2.289944227931328840e+02
2.282351537613518815e+02
2.280366473803975964e+02
2.279575534469014428e+02
2.276545894847053262e+02
2.277751744015030511e+02
2.279402556609962858e+02
2.278443272057512559e+02
2.279861908020707517e+02
2.284416685448878184e+02
2.285630184206962383e+02
2.282005468859118196e+02
2.282139643166147778e+02
2.288084037373241415e+02
2.284985325726428869e+02
2.276195700704583942e+02
2.274268693016889813e+02
2.273135009947517631e+02
2.264022799119915135e+02
2.253054842829180302e+02
2.248062305576154358e+02
2.242044756161391774e+02
2.231653120544112028e+02
2.222287076566800863e+02
2.219298477094377517e+02
2.217493181127314301e+02
2.208882873831877305e+02
2.201328853588711070e+02
2.201217153875044801e+02
2.198457324330376821e+02
2.190914105182867786e+02
2.186214873181538962e+02
2.185527394556437457e+02
2.184778538879947405e+02
2.183541141898865874e+02
2.184386965006201820e+02
2.184262817608424427e+02
2.181516690056455730e+02
2.181783895375577629e+02
2.187212702059727292e+02
2.188505511503861953e+02
2.181359856796658789e+02
2.177733906371352930e+02
2.182050112165762812e+02
2.182530209114914612e+02
2.175043943312572878e+02
2.172259891494855708e+02
2.173801373982590803e+02
2.170724651297359742e+02
2.161729638252750192e+02
2.152991230098600965e+02
2.144814309321826897e+02
2.133712624530712958e+02
2.120866248650077921e+02
2.110401316730737165e+02
2.098995077352308840e+02
2.084178308438695240e+02
2.071730053300577481e+02
2.064811095893418269e+02
2.058506718402401816e+02
2.051350137795469095e+02
2.046787602131023220e+02
2.044071346919359087e+02
2.040760485771785682e+02
2.039163297286448540e+02
2.039300131070212672e+02
2.038191463720848162e+02
2.031379565034962127e+02
2.028725515337746401e+02
2.032566525354394003e+02
2.033679853765503651e+02
2.026869115617131456e+02
2.026075843916372321e+02
2.032138784752367826e+02
2.034762488792595434e+02
2.033004608276518184e+02
2.035841331791663720e+02
2.041494814059904002e+02
2.043339942536794638e+02
2.040948505486067006e+02
2.036422185928230704e+02
2.029677511175848679e+02
2.019739043159102323e+02
2.005392893726937302e+02
1.991825565861911116e+02
1.977443013215819292e+02
1.958637377564938333e+02
1.939895222464561471e+02
1.925950036113511317e+02
1.915933804956948734e+02
1.906892009636751766e+02
1.900792796401800615e+02
1.899118773804806324e+02
1.897625665490730853e+02
1.895490818473734862e+02
1.896604307470139474e+02
1.899802761874699684e+02
1.897776412773382333e+02
1.895101603516558839e+02
1.896921007780714206e+02
1.899349396874803801e+02
1.894699698648410049e+02
1.891989656692444157e+02
1.899032001328579611e+02
1.901003939893195707e+02
1.896212523431451302e+02
1.897127835783281000e+02
1.904383480528074699e+02
1.905473800415538221e+02
1.902222035460885081e+02
1.900887298202746649e+02
1.897900130549581377e+02
1.887080776948624248e+02
1.871831580920380702e+02
1.857778781155484467e+02
1.840169899979922548e+02
1.815541607195756626e+02
1.791114951322101092e+02
1.773272935685007496e+02
1.754434017752758166e+02
1.735903669367468751e+02
1.722383936958900392e+02
1.713044175341940445e+02
1.703193666709402407e+02
1.692631054255975869e+02
1.685588354066381100e+02
1.678926757462580213e+02
1.662992328113119811e+02
1.647089793841701066e+02
1.635985352163212951e+02
1.623346133456222447e+02
1.602589226403100042e+02
1.584865618736133968e+02
1.576681065517252307e+02
1.565994953882454297e+02
1.549544068040312084e+02
1.538713933619496856e+02
1.535396527213846980e+02
1.531900436179703036e+02
1.524288776649374881e+02
1.518893105845748721e+02
1.517089896743512440e+02
1.509355215285632426e+02
1.493373462646728740e+02
1.479896518932547167e+02
1.468801761441789040e+02
1.448756487353903992e+02
1.424618169963533774e+02
1.407162291017736777e+02
1.390842840699146166e+02
1.371677044946738420e+02
1.355354186692671590e+02
1.343945065757571626e+02
1.335517424799889454e+02
1.327607792837497414e+02
1.322104933239035347e+02
1.318364523792058094e+02
1.312566839491951498e+02
1.305122198951803227e+02
1.302144027377795510e+02
1.301296055750008520e+02
1.294935875883171832e+02
1.287375073561369732e+02
1.284288258180663149e+02
1.279563209180919756e+02
1.267903197897610994e+02
1.257789704701853850e+02
1.253860369787447979e+02
1.249938869087519464e+02
1.241186048561886679e+02
1.233982311042842070e+02
1.229518955581556838e+02
1.223911813632622199e+02
1.211568694457552340e+02
1.195886120158904191e+02
1.182249837526768061e+02
1.162481818443284425e+02
1.137713138860001720e+02
1.113056966046181202e+02
1.090492553382392202e+02
1.064620208371552650e+02
1.039754637197528098e+02
1.018154699962314567e+02
9.988325111535112910e+01
9.785496590266556893e+01
9.627721257707204927e+01
9.500376063781338587e+01
9.381228724464477864e+01
9.286073987270474106e+01
9.242765312883976492e+01
9.241091838177398188e+01
9.206289213811858474e+01
9.177394056172916237e+01
9.217385290520419971e+01
9.244350100697050721e+01
9.171496637911818084e+01
9.080489626253010726e+01
9.064089994470539580e+01
9.057006839463069525e+01
9.000637997964290093e+01
8.924920828678726537e+01
8.892163417680424686e+01
8.896854666856100380e+01
8.879018835363525852e+01
8.833023370480422898e+01
8.770070626137164993e+01
8.682507614061239565e+01
8.572100146966131717e+01
8.461443578819097411e+01
8.341488215494447900e+01
8.210318196130663182e+01
8.091418085904403767e+01
7.984681924073252901e+01
7.866730072911495597e+01
7.748558600059342893e+01
7.642903460209974753e+01
7.541388622660561225e+01
7.429123932977094569e+01
7.332493591808673727e+01
7.259603477881427125e+01
7.196997217982280404e+01
7.127678468322443450e+01
7.076702544927101712e+01
7.067044322421719471e+01
7.064001396746857608e+01
7.009513505868559946e+01
6.924276111415109369e+01
6.820009711574282107e+01
6.745644205163921470e+01
6.695744813224516179e+01
6.585335559736218158e+01
6.461267248658731432e+01
6.370878023663541256e+01
6.298290111051433371e+01
6.191003819116180296e+01
6.084662458150654629e+01
5.982680955936653078e+01
5.866578141998618179e+01
5.743765004023824616e+01
5.621985388001196782e+01
5.511746297608600287e+01
5.428486845115319426e+01
5.359468507047090924e+01
5.294145226103745472e+01
5.244656321646835551e+01
5.183589158418691056e+01
5.137030805011198709e+01
5.084157839112229027e+01
5.019121027706531635e+01
4.994701271919202412e+01
4.970036138837571826e+01
4.909890569092367230e+01
4.855057976153256050e+01
4.849948266086656190e+01
4.822338466098605636e+01
4.774191067531814525e+01
4.736016307387180291e+01
4.723279067589913893e+01
4.707363054616990894e+01
4.674117845358176737e+01
4.652517611221156102e+01
4.645608113572259867e+01
4.622317863265413962e+01
4.583140222287087795e+01
4.549459360100104277e+01
4.532679819101233676e+01
4.498915186884983086e+01
4.451053505615303152e+01
4.407667608040309659e+01
4.370822134591828245e+01
4.341080563895960154e+01
4.325459592204668269e+01
4.326805907058114542e+01
4.328051690308404886e+01
4.321076905638173571e+01
4.313447129704659488e+01
4.304321440115302977e+01
4.289598799601262868e+01
4.273734936370357929e+01
4.275498965562569254e+01
4.293378319873450977e+01
4.308615002210369482e+01
4.318610762740028974e+01
4.334079744982494731e+01
4.352223378699051892e+01
4.362121581176515406e+01
4.374751674561035486e+01
4.393467646643489388e+01
4.394679042145829584e+01
4.383503618201230978e+01
4.382830214730979179e+01
4.385784542387425944e+01
4.383297132365449045e+01
4.370485593176724137e+01
4.347490860058891826e+01
4.325140695542740588e+01
4.301918510427120879e+01
4.262603126673160858e+01
4.213739995198020694e+01
4.171633138605536573e+01
4.136759316432720368e+01
4.107987790593676181e+01
4.088195915023391080e+01
4.076276669232594685e+01
4.055797588608558613e+01
4.026749712549462856e+01
3.994961537290689080e+01
3.959792089070467114e+01
3.923770835043148253e+01
3.905238896247258396e+01
3.909570323663042046e+01
3.917325769139821290e+01
3.916529511260999641e+01
3.920879475214442067e+01
3.930023569401479477e+01
3.930073388060647233e+01
3.935011573586330513e+01
3.949115309157571119e+01
3.949976874102812729e+01
3.938670133168028542e+01
3.924106198680250657e+01
3.913770366816826396e+01
3.898523083105831688e+01
3.871911284061957303e+01
3.841241742540712778e+01
3.805057922432863649e+01
3.765253786147499682e+01
3.719010754513096373e+01
3.665425241460611261e+01
3.619097265530692908e+01
3.577550866941982122e+01
3.537907636070778494e+01
3.502964838273184256e+01
3.487219716548725756e+01
3.474749898585747587e+01
3.441780218430454852e+01
3.410893353252839688e+01
3.369334000221829939e+01
3.313705585425899613e+01
3.261567948877825529e+01
3.234111405596095068e+01
3.206220955272060280e+01
3.162771373051671375e+01
3.131091970820047976e+01
3.122440997284268605e+01
3.099332068000204998e+01
3.073842777842410001e+01
3.064711164872116100e+01
3.053749910515423593e+01
3.034857025209929660e+01
3.014909211279696422e+01
3.001784166382276098e+01
2.993224822234884996e+01
2.987502219249939017e+01
2.977402074386241893e+01
2.970824690189127537e+01
2.968081740282916670e+01
2.965210749035788496e+01
2.962602830222883199e+01
2.960748397625529904e+01
2.957089205704433610e+01
2.955638313075587220e+01
2.953640811514021536e+01
2.945898716544881424e+01
2.936820476466974483e+01
2.932399211629094538e+01
2.926843193419101752e+01
2.913877349326808996e+01
2.899681699550810876e+01
2.889768435707475547e+01
2.879761559755127109e+01
2.865516312581125646e+01
2.853079551773403111e+01
2.844420854505855445e+01
2.834957598128231027e+01
2.825748077976119532e+01
2.814883039286118560e+01
2.805833050265884410e+01
2.801759645852204272e+01
2.802421638910024981e+01
2.806912798295568123e+01
2.812031429085560319e+01
2.813329189120751295e+01
2.811502604882358725e+01
2.807376112918077382e+01
2.805453258122967242e+01
2.805988707943753724e+01
2.806122444397457016e+01
2.805257738546698931e+01
2.805031912949784001e+01
2.808019588873877126e+01
2.807342151013364528e+01
2.802102093284781148e+01
2.793135475938538548e+01
2.785576473518782947e+01
2.786977513299255804e+01
2.786057961193391819e+01
2.779036074971483927e+01
2.763934552862857430e+01
2.754609819342644528e+01
2.750646447066382905e+01
2.739631891327541879e+01
2.731077186855339534e+01
2.721593882130343545e+01
2.711422408842398468e+01
2.699933911738421699e+01
2.685372966839906894e+01
2.676881269914472483e+01
2.668273912204116982e+01
2.662884180960528013e+01
2.658993177044474621e+01
2.658184613111983197e+01
2.658026656320530989e+01
2.647868351248297714e+01
2.644087657139661474e+01
2.641008961473230343e+01
2.636234149066139310e+01
2.631735300566876035e+01
2.642082656049303324e+01
2.654544781898044548e+01
2.638327104761253494e+01
2.626819219759216750e+01
2.618846931473865425e+01
2.605891239076158783e+01
2.586133384384607936e+01
2.569433391357042495e+01
2.562446505970030586e+01
2.556250775766571337e+01
2.541664716538701541e+01
2.531783758193299150e+01
2.523462501052188856e+01
2.514834218084120820e+01
2.512207367242217160e+01
2.515990272856118182e+01
2.515782459936143667e+01
2.510262809608510537e+01
2.498347127409646617e+01
2.487622427337914743e+01
2.477048017844794003e+01
2.472987882200032317e+01
2.472960231581511792e+01
2.473551350868891419e+01
2.472327024948765484e+01
2.472861800661710774e+01
2.480650974206952952e+01
2.487885158862749080e+01
2.486638395683131719e+01
2.483536249666595097e+01
2.492810278846925698e+01
2.507835448890438101e+01
2.506817711457714992e+01
2.495628906155818072e+01
2.484739279483914132e+01
2.472636900745937538e+01
2.462564251179707497e+01
2.447883694248294617e+01
2.441491311883614301e+01
2.437819372189806444e+01
2.422319094883098245e+01
2.403620635195699506e+01
2.389882356742635494e+01
2.373331734880519406e+01
2.356403408401841659e+01
2.340571385917196068e+01
2.326754122638418920e+01
2.312338640627569575e+01
2.294136246814471747e+01
2.275382195339573954e+01
2.257388502801168784e+01
2.244660146467751716e+01
2.233160745689282223e+01
2.221260116958474029e+01
2.204190615869014636e+01
2.190294608032984769e+01
2.187100867605886378e+01
2.186773969981063459e+01
