vars,S1,S1_conf
f2_0,0.026604031682233385,0.003420416518543738
f4_0,0.0006172765507549929,0.0006816351903604437
f6_01,0.002483592817461123,0.0011451702679710248
f8_01,0.0006891925726996804,0.0007223404952341014
f10_01,0.009388887289842506,0.002088555498964004
f12_01,0.0008793541011596585,0.0007749075935053259
f14_01,0.0004474169689523044,0.0006104843811936677
f16_02,0.011328271243640541,0.002331196839517131
f18_02,0.0027886343150870705,0.0012061291070572591
f20_02,0.017481061579874724,0.002814034327940217
f22_02,0.030586074056845904,0.00365413914393246
f24_02,0.0026674081570614325,0.0011740664061673904
f26_03,0.005014996476613793,0.0015597741697751437
f28_03,0.03553069920766981,0.003926722416059771
f30_03,0.0033010069268336615,0.001335974010107456
f32_03,0.011996374437278818,0.0024161359300430194
f34_03,0.02080095601450993,0.003098802845587442
f36_04,0.005351011922927631,0.0016504773852336497
f38_04,0.013602596385107869,0.0024599179634540763
f40_04,0.006235827960496579,0.001764467720760135
f42_04,0.020694736572597374,0.0030837614757163396
f44_04,0.012031005629602094,0.0023924800443519897
f46_04,0.0005393441882193372,0.0006782867709572352
f48_05,0.03740438015797886,0.0039829383145006236
f50_05,0.0020627533831638826,0.0010408657794213428
f52_05,0.01362493437970914,0.002487742709905417
f54_05,0.09761543334052113,0.0061183757637887975
f56_05,0.006862079710638529,0.001820595238471916
f58_06,0.0031979455042190556,0.0013015860676735811
f60_06,0.004220767676948102,0.0014703097047815714
f62_06,0.004899199246538021,0.0015798623396867427
f64_06,0.005265862305831487,0.0015960570041196232
f66_06,0.026447619938618855,0.003435482788638561
f68_07,0.027584686389157002,0.003507252036104083
f70_07,0.003802484195506466,0.0013975440063461742
f72_07,0.0038579063957104574,0.001435637120390153
f74_07,0.0009462107034740755,0.0007747260479512042
f76_07,0.011907583153841892,0.00235551702568039
f78_08,0.001910611183586358,0.0010290219386578352
f80_08,0.012083428346158461,0.002306358370323784
f82_08,0.0019032208046173408,0.0009963438449100942
f84_08,0.010399912762789407,0.002235048345828424
f86_08,0.010424284968646823,0.002201202127019766
f88_09,0.0072760461244636586,0.0018632914009767594
f90_09,0.014573986304020705,0.0026386927020764024
f92_09,0.0038062125998258216,0.0013745569072119565
f94_09,0.012845800877351174,0.0024398841123461764
f96_09,0.014402538752729593,0.002584736549229482
f98_1,0.008380728333892936,0.0019951376224690387
f100_1,0.029560399419579476,0.003609276294059586
f102_1,0.0012173963298972679,0.0008778175203021604
f104_1,0.01711441080098227,0.002761708484953598
f106_1,0.018285827339793052,0.0029146732892429547
f108_11,0.0038139169211962296,0.0014065600701838865
f110_11,0.036786525357109356,0.0039592652091570224
f112_11,0.0003585548485706735,0.0005377957949525265
f114_11,0.0014356909827809923,0.0008731620732082984
f116_11,0.016772629092556657,0.0027763945143547395
f118_12,0.01993323439509413,0.0029668466385576364
f120_12,0.010284800847734305,0.0022251221013507433
f122_12,0.002897795619633134,0.0012456091722267014
f124_12,0.005899308140772666,0.0017015685825306974
f126_12,0.008529139150265484,0.002023888234807148
f128_13,0.012050734538269796,0.002383252517299727
f130_13,0.004526380967307847,0.0014941952795736418
f132_13,0.016471642310270703,0.0027607651471820553
f134_13,0.008551572381796687,0.0020275753161630456
f136_13,0.012444105003351741,0.0023961827290151652
f138_13,0.0025834440954755687,0.0011867045896544986
f140_14,0.0038455725333743766,0.001387497269852891
f142_14,0.005261186212177198,0.0016462388767607419
f144_14,0.009043205472067791,0.0020874979585998516
f146_14,0.008435933248330717,0.002005632346305304
f148_14,0.008127143983043447,0.0020001656124540995
f150_15,0.005097069644152098,0.001574646477971793
f152_15,0.007661805147869523,0.0019226120964218765
f154_15,0.0049779305402764115,0.0015451011486601774
f156_15,0.0038387028078747335,0.0013993235896110764
f158_15,0.001712331090164016,0.0009835225651956927
f160_16,0.00554549768615808,0.0016252457818561568
f162_16,0.00425878151660103,0.0014882646362423522
f164_16,0.0009493152796511378,0.0007725044102327017
f166_16,0.00477989223243377,0.0015411162835270206
f168_16,0.004734271153616167,0.001519239110578985
f170_17,0.005482327056907003,0.0016523718925385707
f172_17,0.0029198575301353875,0.0012218389049104236
f174_17,0.0023503149864415114,0.0011006858255174674
f176_17,0.0029759386804140055,0.0012498371712001061
f178_17,0.0026507828189525646,0.0011894689450759575
f180_18,0.0015183556846958813,0.0009306083558295184
f182_18,0.0015234883275368981,0.0009267487178868291
f184_18,0.0008579404051632105,0.000772147789964676
f186_18,0.002310093794687108,0.0010906855318874424
f188_18,0.0017647725024771618,0.0009897876972944622
f190_19,0.0019275112732268184,0.0010373753666479732
f192_19,0.0013781031135439254,0.0008988711390456065
f194_19,0.0005839523903947523,0.0006784242935760872
f196_19,0.0014870602990718173,0.0009459984936403302
f198_19,0.0008899797436228349,0.0007695557034092641
f200_2,0.00112098087375909,0.0008459034038753456
f202_2,0.0024434193738689376,0.0011561464751143175
f204_2,0.0009598929641213556,0.0007604112365108912
f206_2,0.0007742873163612495,0.0007203297704854054
f208_2,0.001126260946880955,0.0008191338779090376
f210_21,0.000641225211383573,0.0006723775401512756
f212_21,0.0001610166061470524,0.0005286328850611632
f214_21,0.0005653320426683246,0.0006862026809511481
f216_21,0.0006085329368666672,0.0006686783073077572
f218_21,2.8003214802584055e-05,0.00043372480509180884
f220_22,0.0003799499384789235,0.0006131698064975129
f222_22,0.0010963427986755594,0.000832107539029523
f224_22,0.0013988521653106349,0.0008919313963052495
f226_22,0.00022691911511448626,0.0005523004477100174
f228_22,0.0004668117688924201,0.0006512258063939241
f230_22,0.0006146624982146212,0.0006910347417090663
f232_23,0.0002946319415072955,0.0005317101965692915
f234_23,0.00026713099088094443,0.0005811550005612765
f236_23,0.0005261449180739206,0.0006526867438758547
f238_23,0.0007753568738882043,0.0007508611244347173
f240_23,0.00024095792920081723,0.0005110287333740601
f242_24,0.00010075449441536563,0.0004871286133711879
f244_24,0.00033143237275183335,0.0005776104239030215
f246_24,0.0003349444596433357,0.000587299004063012
f248_24,0.00010914925747715657,0.00044848936106105393
f250_24,2.3336614537393407e-05,0.00046600822929398366
f252_25,0.00030418604070750146,0.0005182354184142962
f254_25,0.00024107184916983122,0.0004971122070529954
f256_25,0.0002304237612659446,0.0005392074498131081
f258_25,-2.4662372145423204e-05,0.00042516775042375623
f260_25,5.413489905740335e-06,0.00041515695116205913
f262_26,0.0004571016637770123,0.0006304722978230369
f264_26,0.00012170136976684485,0.00048698046468941724
f266_26,8.04352923528803e-05,0.0004960715824008672
f268_26,-6.14689232023509e-05,0.0004052783192926628
f270_26,7.636374015429731e-06,0.0004024441220918455
f272_27,4.896307016453164e-05,0.00044999523264445114
f274_27,0.00013051989419555804,0.0004205429225425412
f276_27,2.725426823860347e-05,0.00047861927791956036
f278_27,4.715971496927634e-06,0.00045431229305381836
f280_27,0.00013282718624479435,0.0004545646164726859
f282_28,0.0003466009364885243,0.0004890743085914874
f284_28,9.700237000412045e-05,0.0004448044072505596
f286_28,1.0701610228072776e-05,0.0004100739412276824
f288_28,0.00019014942790415934,0.0005099475268739559
f290_28,8.866757997528303e-06,0.000417505088306528
f292_29,0.00015010630646025475,0.00045614435322032404
f294_29,-7.739481130106834e-05,0.00040905612251319656
f296_29,0.00011344698708990673,0.0004557794057975702
f298_29,-5.375203923918792e-05,0.0004324926893303438
f300_29,0.00025530409210836616,0.0005052142257423588
f302_3,2.757937963151851e-06,0.000441854769548754
f304_3,0.00010071324094393499,0.0004524097270515174
f306_3,1.574833256556043e-05,0.00045585336317754244
f308_3,9.399243589000854e-05,0.0004517170412707702
f310_3,-6.885759959582391e-06,0.00041231562189813006
f312_3,-4.668170209961106e-05,0.00038727745048469534
f314_31,2.7118538464860665e-05,0.00041649254252904943
f316_31,-1.636551941566343e-05,0.0004563341826813776
f318_31,-7.410478052521783e-05,0.0003777460541378788
f320_31,-4.146746056872037e-05,0.0003666183408333014
f322_31,0.0002498138155387861,0.0005034234791903802
f324_32,-3.0632007516218876e-05,0.0004065384894928298
f326_32,2.2147417778527678e-05,0.0004224384311486217
f328_32,8.856177303615285e-05,0.00043609293089409457
f330_32,-1.1794097972908787e-05,0.00043584318357987336
f332_32,5.7682554543305896e-05,0.000349353791571626
f334_33,9.434765325817612e-05,0.00043368781885441107
f336_33,9.793275751628094e-05,0.0004058521403938335
f338_33,2.8888199428913893e-05,0.00043596374968148674
f340_33,6.262374730444314e-05,0.0004433928922113777
f342_33,-5.807145108419781e-06,0.0004327020096091281
f344_34,0.0001965050401019164,0.0005264839071166549
f346_34,3.6117020743996534e-05,0.00042958888047690195
f348_34,-1.0158791074776343e-05,0.00043817596672707747
f350_34,3.1872165326473766e-05,0.0004270313140261672
f352_34,4.330080924623054e-05,0.0004051275553861446
f354_35,1.4942879298551824e-05,0.0004000347142117289
f356_35,2.067494650336173e-06,0.000433383229216779
f358_35,-9.305743789837822e-05,0.0003922167703760392
f360_35,-3.176354171350855e-05,0.0003632801317392903
f362_35,3.11188130353269e-05,0.000397670102941017
f364_36,8.778503541893975e-05,0.00039136927078495145
f366_36,3.0247371870040576e-06,0.00039703614992240194
f368_36,5.8051195574058566e-05,0.0004203581898090483
f370_36,9.088423985056568e-06,0.0004149131081921093
f372_36,-5.3723372199330805e-05,0.00042493426459200306
f374_37,0.00013385732790622347,0.00043213152843241673
f376_37,-4.3978877265560615e-06,0.00035957818393325675
f378_37,-3.4593059212036613e-06,0.00040347216776474154
f380_37,0.00016458637772080763,0.0004676584621571438
f382_37,-9.983445194507206e-05,0.00041815133254143245
f384_38,4.0555894214077575e-05,0.00038877920165212334
f386_38,-0.00011019446182709551,0.0003774092929460606
f388_38,-0.0001390615685295084,0.00038067625792929477
f390_38,-6.261624234702568e-05,0.00039280266286914703
f392_38,-2.0778358865032034e-06,0.0004387413883273878
f394_39,-0.00012584261591960233,0.00038143056471434076
f396_39,8.630927922015895e-06,0.00041383046472111875
f398_39,1.5832677904493086e-06,0.0004275686887626412
f400_39,3.167104347793885e-05,0.0004670117334637794
f402_39,-2.8554231107238244e-06,0.00039812673003661395
f404_39,8.272221647116681e-05,0.00044384511357830513
f406_4,-7.399835852165478e-05,0.00039715418580130483
f408_4,-1.254085613786336e-05,0.0004030327663027326
f410_4,-6.625126795637427e-05,0.00042600004476337725
f412_4,-2.738471220175095e-05,0.0003769547937507688
f414_4,-6.2188902172168915e-06,0.00038445449395746917
f416_41,-4.584494355305434e-05,0.0003808932400264606
f418_41,0.00018509922778146083,0.0005065305796186766
f420_41,4.038758788390748e-05,0.00037695195771473986
f422_41,-1.9564876886278234e-05,0.00036317162918313574
f424_41,8.307879162181475e-05,0.0004233750354787734
f426_42,7.83058040748348e-06,0.00040858230333611415
f428_42,-1.4505810318031801e-05,0.0004186324856639826
f430_42,-1.4396295703587826e-05,0.00042379535892956004
f432_42,7.43713170076526e-06,0.00044299930867124364
f434_42,0.00016011428184862397,0.0004798418593236474
f436_43,-9.151903174262074e-05,0.00039220685060497115
f438_43,-2.7498186086667492e-05,0.00042688624212756097
f440_43,5.4719504054241274e-05,0.0004423594061588129
f442_43,8.278050013883683e-05,0.000457752495472485
f444_43,-5.437355810067519e-05,0.00040306301547922
f446_44,-9.551372376067884e-05,0.00039110215845330576
f448_44,4.217183187403068e-05,0.0003973341650630089
f450_44,0.00010028411983125063,0.0004520461044031799
f452_44,4.53319252971177e-05,0.0004697937148105925
f454_44,-6.26453567380092e-05,0.0004083862161729378
f456_45,3.977555667253964e-05,0.00048812148667825076
f458_45,-7.177851112722021e-05,0.00039138800030948497
f460_45,5.1346306159653096e-05,0.0004698658941247562
f462_45,6.226840828422206e-07,0.0004077882553816425
f464_45,1.1998519729512129e-05,0.0004419044301334439
f466_46,9.209413063092776e-05,0.0004342251017627133
f468_46,5.689139372094202e-05,0.00042383417988751184
f470_46,-2.0586815810654988e-05,0.00040683128045306395
f472_46,0.0001371782275431762,0.0004415037470017666
f474_46,1.1300609630998464e-05,0.00041598860616353506
f476_47,0.00010493130765047227,0.0004390837869902398
f478_47,2.33903763148368e-05,0.00040871652682422356
f480_47,3.2460613365043866e-07,0.0004476151941126002
f482_47,-9.137367473476305e-05,0.0003982535427956943
f484_47,-1.941442471433834e-05,0.000416014082654222
f486_48,-0.00013779346354469624,0.0003575600645579615
f488_48,0.00010559204589198482,0.0004359463313869342
f490_48,-9.54816922504859e-06,0.00038778267910565483
f492_48,3.252867853358282e-05,0.00040614515148078365
f494_48,-3.025964359712149e-05,0.00041142657215357284
f496_48,2.5386284601182645e-06,0.00042279457151681244
decay,0.012902739088285561,0.0024503194967128434
window,0.002913207824864412,0.0012031352330355643
