vars,S1,S1_conf
f2_0,0.00217683957979174,0.0010669117547577494
f4_0,0.0019948219026424373,0.0010758218410070843
f6_01,0.004582071552510096,0.0014959469477947235
f8_01,0.0012437400537003089,0.0008704141669086298
f10_01,0.010829958250743453,0.002266943115323837
f12_01,0.0012662568491014845,0.0008749909980123534
f14_01,0.000819891856167283,0.000717662922420226
f16_02,0.018690014740111848,0.0028735668721257585
f18_02,0.006025025414074725,0.001716010071400173
f20_02,0.029509702087106134,0.0035944462204462882
f22_02,0.02016149917920904,0.00307145357314434
f24_02,0.004179021267606848,0.0014478764463169544
f26_03,0.005455409042960311,0.00165440035453488
f28_03,0.004855293905184424,0.0015492101177779602
f30_03,0.0052636454089237,0.0016350721294257776
f32_03,0.0013735258064832554,0.0008693500851117932
f34_03,0.01862074587751682,0.002897886678855626
f36_04,0.0067165661414315585,0.001830067999067417
f38_04,0.02640564393976126,0.0033809897407598858
f40_04,0.008548359036102418,0.002034522396790815
f42_04,0.02081691228479864,0.003103817762824174
f44_04,0.011511422972617265,0.002342270525323051
f46_04,0.0009157306459435027,0.000736892848681415
f48_05,0.01774669504724719,0.002829528469131908
f50_05,0.0017146439253454774,0.0009829740060873446
f52_05,0.018863012227547975,0.0029692705823372526
f54_05,0.1448786759987516,0.007058899312617955
f56_05,0.012371495203173854,0.0024246648053443997
f58_06,0.004861814212901455,0.001546732559374633
f60_06,0.002892781415331705,0.001241282901442647
f62_06,0.0057274407450304,0.0016842898427285753
f64_06,0.010075247239445901,0.0021670710443596674
f66_06,0.03993462051770267,0.004107042625055784
f68_07,0.018668404564926726,0.0028955741151439457
f70_07,0.005491375804222795,0.001643815207126054
f72_07,0.0033085272184733778,0.0013586819035129605
f74_07,0.0014612187403265297,0.0009003931545618677
f76_07,0.020422140001412372,0.003033168448544208
f78_08,0.003042319258697514,0.0012396685399329946
f80_08,0.009988126727299278,0.0021852546931123754
f82_08,0.003740552661214628,0.0013653991317046836
f84_08,0.0015968164102090024,0.0009437788280910272
f86_08,0.010809648518969279,0.002238720526853563
f88_09,0.001923717274008326,0.00104375607845327
f90_09,0.02192662868097621,0.0031334085412323192
f92_09,0.0067475968555513865,0.0018133120211758884
f94_09,0.013373568958507272,0.0024968871488983847
f96_09,0.006125724334275467,0.0017414053688696554
f98_1,0.0017785481159120439,0.0009591679559234368
f100_1,0.013417811813815154,0.0025283724276145623
f102_1,0.001272331514110466,0.000871144628592808
f104_1,0.003508491169641782,0.001334937381382897
f106_1,0.005453060125773259,0.001623763761103377
f108_11,0.0008478778859760455,0.000734417190121205
f110_11,0.015467908008600432,0.002695023171864196
f112_11,0.001289529407618318,0.0009037287545559788
f114_11,0.0019277670318560126,0.0010435441039534006
f116_11,0.004478537444758514,0.0014892693388925506
f118_12,0.008368371333087042,0.002010545252676831
f120_12,0.014357144890857824,0.002564520309028568
f122_12,0.004427372589137134,0.001481797248596796
f124_12,0.0020093210693831395,0.0010369562770366706
f126_12,0.01710513547626405,0.002757642886441679
f128_13,0.019748064226954954,0.0029804569582951358
f130_13,0.004719818084743262,0.0015235671251279293
f132_13,0.024036453820735135,0.0032747275187227642
f134_13,0.012600194706914416,0.002425815072485366
f136_13,0.018887643154453678,0.002925890131024235
f138_13,0.003641364604679911,0.001325270905385384
f140_14,0.005442975579396584,0.0016494704471720733
f142_14,0.006917333119820266,0.0018146896203774722
f144_14,0.010272642314367414,0.0021958717751946297
f146_14,0.010370136413858158,0.002215888812916704
f148_14,0.011053694000263486,0.0022735348827551834
f150_15,0.005445143376516415,0.0016384788758556047
f152_15,0.00964000524558373,0.0021496109906537406
f154_15,0.007610975392805246,0.0019262663027014974
f156_15,0.005841368682414463,0.0016659519354225048
f158_15,0.0025277103218793134,0.0011450377846250132
f160_16,0.006601974327126068,0.001803700146591565
f162_16,0.005797238155895615,0.0016795303714645068
f164_16,0.0016850789282268877,0.0010013563874909906
f166_16,0.005531152849214666,0.0016079372378564087
f168_16,0.005473533391575724,0.0016398757843066772
f170_17,0.007433944102433744,0.0018748653558376396
f172_17,0.003023578781490799,0.0012520302057849374
f174_17,0.0015173789459666522,0.000928075052299415
f176_17,0.0038144203577692728,0.0013967894862997312
f178_17,0.004314056026527562,0.001471688355251499
f180_18,0.002092532971979251,0.001089536725904312
f182_18,0.0020242050649279734,0.001035306097001184
f184_18,0.0013983838374229582,0.0009143702480035459
f186_18,0.002357135870567066,0.0011097854095604973
f188_18,0.0031309972168751085,0.001257800780049456
f190_19,0.0023189058283886533,0.0010903998815917574
f192_19,0.0021913837178124127,0.0010986373175677247
f194_19,0.0014611300675630458,0.0009136472067911528
f196_19,0.002031159476522978,0.0010665238136005964
f198_19,0.00167280979702362,0.0009623011131031075
f200_2,0.0013998769139143188,0.000918010332733943
f202_2,0.0025182690361989827,0.0011892688261903486
f204_2,0.000924350145999054,0.0007868328834051765
f206_2,0.00047123542965868837,0.0006147697022534886
f208_2,0.0011606010406528104,0.0008652424070581276
f210_21,0.0002094210365775363,0.0005664705209351121
f212_21,0.00048502861014311846,0.0006481014151082714
f214_21,0.0010212219351461733,0.0007819361003992129
f216_21,0.000960982099274732,0.000786966593494637
f218_21,-9.502350860914009e-05,0.00041838468325457434
f220_22,0.0008252160682761736,0.0007474801153756665
f222_22,0.0012204446023382134,0.0008709995929679114
f224_22,0.001416577812962919,0.0009210872613608745
f226_22,0.0005139384998654279,0.0006457190310247002
f228_22,5.58743304043743e-05,0.0004451105407830761
f230_22,0.0007188340110689416,0.000692685959506205
f232_23,0.0004465973071458245,0.0006266990722237261
f234_23,0.0002554065674392227,0.0005378977641906613
f236_23,0.00017727448290752446,0.0005204194698298269
f238_23,0.0006964178195432388,0.0007065533596428646
f240_23,0.00038681627766190665,0.0005796267657091637
f242_24,0.0002842333473609001,0.0005735879736831521
f244_24,0.0002735645110110616,0.0005548906647119278
f246_24,0.000611021222357432,0.0006588025705224376
f248_24,0.0005846969692986636,0.0006244387051610726
f250_24,0.0005163674002662898,0.0006469268997240406
f252_25,0.00015015148853573298,0.0005195011847348464
f254_25,0.000505189163883317,0.0006678672348932902
f256_25,0.00011767169692428246,0.00047201144474046607
f258_25,9.696909132054387e-05,0.00045693584452855196
f260_25,0.0001430416167491246,0.0005026498333114964
f262_26,-0.00011817130597708403,0.00039517279903563204
f264_26,-5.544215835701793e-05,0.00044159832569340234
f266_26,0.00019543251388454505,0.0004720730311088937
f268_26,5.3394682018985244e-05,0.0004597620083109714
f270_26,-0.00015102486885973772,0.0003760064876158538
f272_27,0.00022239735047727572,0.0004729708215388315
f274_27,0.0006068497238258018,0.0006320537201860911
f276_27,0.00019437916058135995,0.000489580676885763
f278_27,0.00020332973935254574,0.0005190543630107451
f280_27,0.0002991859486625664,0.0005262633887656883
f282_28,0.00022772963152620278,0.0005550182605537077
f284_28,-4.177400849177522e-05,0.0004119360433112698
f286_28,0.00017129282146140202,0.0005490833003724267
f288_28,-4.0871943067875306e-05,0.00043692304215352213
f290_28,-2.5905219183769987e-05,0.0004271643052748901
f292_29,0.0004012630454545766,0.0005439869183657631
f294_29,0.00014251155679976212,0.0004575026634442182
f296_29,-5.9099175198507135e-05,0.0004166344985232137
f298_29,0.00014298822964039208,0.00045123597623903235
f300_29,0.00013007457139556822,0.000420863959808357
f302_3,8.135471657670868e-05,0.000466128538877491
f304_3,-0.00010381376489140731,0.00040593957299048684
f306_3,0.00010952890049189536,0.0004451437252150164
f308_3,3.5973470300039976e-05,0.0004556477192809248
f310_3,6.030114489014428e-05,0.0003799086396549098
f312_3,0.00014125966395050061,0.0005111183452423788
f314_31,8.268548564020506e-05,0.00042989893339078725
f316_31,7.727027221086078e-06,0.00035871201604906634
f318_31,0.00010976640226453827,0.00048764371094065385
f320_31,6.351173139570527e-05,0.0004323894081543954
f322_31,6.706924788182168e-05,0.0004374681119193494
f324_32,-4.004124010952438e-06,0.0004532961335651036
f326_32,-5.688167265241375e-07,0.00043058216972262776
f328_32,-4.8481261468780884e-05,0.00040148788911546605
f330_32,8.295641692251775e-05,0.00046443328000162376
f332_32,0.00011308538902022946,0.00043201443057513245
f334_33,2.7304768431001577e-05,0.00037849895785334195
f336_33,-2.4046305783813316e-05,0.0004092034442227923
f338_33,8.231205581839284e-05,0.0004369474685727586
f340_33,-2.875443620689724e-05,0.00042900004638072594
f342_33,-3.0081687748952242e-05,0.0004372545556629769
f344_34,4.056602233390753e-05,0.00040890282409949356
f346_34,-7.276749159493891e-05,0.0003948381695164975
f348_34,4.655589160145054e-05,0.0004343135419525572
f350_34,3.671026148434559e-05,0.00041695147698126865
f352_34,0.00010100640424125066,0.00046071395408567637
f354_35,-1.8505054395745327e-05,0.0004349878907877085
f356_35,0.00011924298491862955,0.0004248824948474957
f358_35,0.00012413236468633056,0.00041155889702902134
f360_35,-5.414613202127627e-05,0.00042974659435114263
f362_35,-4.764914223923187e-05,0.0004113510014662856
f364_36,-1.0083325221298004e-05,0.0004043911369817173
f366_36,0.0001898540508832317,0.0004688810359122118
f368_36,3.450988023160289e-05,0.0004550230235472585
f370_36,4.4442573146868513e-07,0.00038162850636810273
f372_36,6.664352198818425e-05,0.0004346747035928831
f374_37,-7.814158409369238e-05,0.00038424667125556527
f376_37,-0.0001105069333548217,0.0003932894347808767
f378_37,1.0827019165559639e-05,0.0004252865513346307
f380_37,-6.655201584374019e-05,0.0004108706187126376
f382_37,-2.4568419778872076e-05,0.00042753876986971907
f384_38,4.747395110101622e-05,0.0004411890538577955
f386_38,-5.441630159152389e-05,0.00038601361422956515
f388_38,-5.948839689606236e-05,0.0004100665997727379
f390_38,8.690783306324713e-05,0.0004378988221540587
f392_38,-5.002495125771211e-05,0.00038865475526167953
f394_39,4.940102579616124e-06,0.00037728287160985514
f396_39,-9.729660427404405e-05,0.00039702123022139545
f398_39,0.00015059975215646516,0.00043747254842584906
f400_39,0.0002100077074888215,0.00041981218655269336
f402_39,-0.00011450814525601092,0.00039484943441717
f404_39,0.00023536860384176236,0.0005071599549485163
f406_4,0.0001160733195165809,0.0004326881717300882
f408_4,-0.00010030436146223412,0.00040859135618634103
f410_4,-0.0001656735863233476,0.00038369137177978255
f412_4,8.304394110723168e-05,0.0004705722286793169
f414_4,-4.108829946231703e-07,0.0004494610870748249
f416_41,2.6629305896285046e-05,0.00042052736380997804
f418_41,9.30246160789964e-05,0.00047888021852001187
f420_41,0.0002281996656153577,0.0004764438384344689
f422_41,-0.00014543954460815374,0.00036198125904724274
f424_41,7.266089644451378e-05,0.0004604441608687977
f426_42,-5.050556349335631e-05,0.00039461413402848037
f428_42,-0.0001842327295131513,0.0003327766515571201
f430_42,-3.3797165785258096e-05,0.0004215486034351361
f432_42,3.9449817930616894e-05,0.0003676476581382865
f434_42,-0.00015676586876374295,0.0003746526214788101
f436_43,-3.0021196617091074e-05,0.0003512110007137702
f438_43,-7.112555644917047e-05,0.0003981614341123139
f440_43,9.498092020555004e-06,0.00044917903722588087
f442_43,0.00023511044120432835,0.00048548411574487744
f444_43,9.196074122008936e-05,0.00040145386383082287
f446_44,9.282986136426458e-05,0.0004787588899376671
f448_44,-8.631491460036613e-05,0.00032841190724015645
f450_44,-7.861421542306254e-05,0.00037425687807597657
f452_44,0.00019257220366617546,0.0004733423150633692
f454_44,1.4385347291641305e-05,0.0004560903398406968
f456_45,0.0002499766355773347,0.0004842401076114339
f458_45,6.869944319509214e-05,0.00045674982062036734
f460_45,-2.1417644890326173e-06,0.0003979550687922485
f462_45,-3.6979106686114397e-05,0.0004040009780195762
f464_45,0.00016371885959196524,0.0005049514501069736
f466_46,3.5499143486078305e-06,0.0003735154486384238
f468_46,8.50452040410929e-06,0.00043106268645093837
f470_46,6.955007608737358e-05,0.0004180964978312794
f472_46,4.0667989852124944e-05,0.0003939320264483976
f474_46,9.589965399236177e-05,0.00045641638975257637
f476_47,-0.00015185449076477353,0.00037825228866962134
f478_47,-4.879762523680921e-06,0.00039747760620791804
f480_47,-1.9852233617910714e-05,0.0004151073516889261
f482_47,-7.739314136363259e-05,0.0003826418772865465
f484_47,-6.115868075872382e-05,0.0003520343660676708
f486_48,2.369672687382255e-08,0.0003778636455499292
f488_48,-0.00012595889936531368,0.00041178460659691023
f490_48,0.00013517781556694161,0.0004782271011320062
f492_48,8.458770475706435e-06,0.00044961875505345166
f494_48,0.00012590089660718365,0.0004000092292682393
f496_48,-7.464755228919488e-05,0.00040926834329855783
decay,0.006662884194376816,0.0018052830089584878
window,0.002099108654626917,0.0010526843772224212
