measure_time,emg_ch_1,grip_force_inter
1673609127.21572,2.448816,4.011983
1673609127.2167268,2.445931,3.9942562975679543
1673609127.2177339,2.439464,4.04766068431092
1673609127.218741,2.433358,4.011603450166905
1673609127.2197478,2.441051,3.9928849830750894
1673609127.2207558,2.444825,3.957716
1673609127.221763,2.440402,3.9600450557939912
1673609127.2227697,2.436171,4.0110817840286055
1673609127.2237768,2.441027,3.9918409804482593
1673609127.224784,2.442205,3.9585629836351988
1673609127.2257907,2.440787,3.9719092966629783
1673609127.2267978,2.44521,3.985258770077456
1673609127.227805,2.449754,3.998608243491934
1673609127.2288117,2.445979,4.011954556519713
1673609127.2298188,2.441941,3.99415278397711
1673609127.230826,2.441099,4.048116990142127
1673609127.2318327,2.436652,4.044399917546139
1673609127.2328398,2.432252,4.040681964752994
1673609127.2338479,2.4342,4.036960491171219
1673609127.234855,2.443816,4.033242538378073
1673609127.2358618,2.452422,4.029525465782086
1673609127.2368689,2.447518,4.025807512988941
1673609127.237876,2.441484,4.022089560195796
1673609127.2388828,2.440378,4.018372487599808
1673609127.2398899,2.440402,4.014654534806662
1673609127.240897,2.441364,4.010936582013517
1673609127.2419038,2.445547,4.00721950941753
1673609127.2429109,2.443984,4.003501556624384
1673609127.243918,2.440017,3.999783603831239
1673609127.2449248,2.44295,3.9960665312352512
1673609127.2459328,2.445979,3.992345057653476
1673609127.24694,2.443359,3.988627104860331
1673609127.2479467,2.447205,3.984910032264343
1673609127.2489538,2.449201,3.9811920794711977
1673609127.249961,2.44033,3.9774741266780524
1673609127.2509677,2.437445,3.973757054082065
1673609127.2519748,2.437806,3.97003910128892
1673609127.252982,2.441075,3.9663211484957746
1673609127.2539887,2.440642,3.9626040758997867
1673609127.2549958,2.430593,3.9588861231066415
1673609127.256003,2.432156,3.955168170313496
1673609127.2570097,2.43593,3.9514510977175084
1673609127.2580168,2.444729,3.947733144924363
1673609127.2590249,2.449922,3.9440116713425883
1673609127.260032,2.453504,3.9402937185494427
1673609127.2610388,2.4561,3.9365766459534552
1673609127.2620459,2.452879,3.93285869316031
1673609127.263053,2.455307,3.9291407403671648
1673609127.2640598,2.46651,3.925423667771177
1673609127.2650669,2.466318,3.9217057149780317
1673609127.266074,2.458841,3.9179877621848864
1673609127.2670808,2.463,3.9142706895888986
1673609127.2680879,2.467856,3.9105527367957533
1673609127.269095,2.46639,3.906834784002608
1673609127.2701018,2.468337,3.9031177114066207
1673609127.2711098,2.464803,3.8993962378248455
1673609127.272117,2.45812,3.8956782850317
1673609127.2731237,2.45913,3.8919612124357124
1673609127.2741308,2.457158,3.888243259642567
1673609127.275138,2.448263,3.884525306849422
1673609127.2761447,2.450956,3.880808234253434
1673609127.2771518,2.461317,3.877090281460289
1673609127.278159,2.459226,3.8733723286671435
1673609127.2791657,2.455884,3.869655256071156
1673609127.2801728,2.453288,3.867262
1673609127.28118,2.472664,3.880499957091776
1673609127.2821867,2.496609,3.91018169527897
1673609127.2831938,2.513654,3.9077881909871244
1673609127.2842019,2.514591,3.8923683588459705
1673609127.285209,2.503268,3.924878696543504
1673609127.2862158,2.48192,3.957716
1673609127.2872229,2.462615,3.9503190913209347
1673609127.28823,2.445883,3.9320991656734208
1673609127.2892368,2.419823,3.925259886518226
1673609127.2902439,2.409558,3.934145978257078
1673609127.291251,2.435185,3.9430320699959305
1673609127.2922578,2.440426,3.9519160580198824
1673609127.2932649,2.433623,3.9565993849627645
1673609127.294272,2.434007,3.9533842643647534
1673609127.2952788,2.436123,3.9501699049221863
1673609127.2962868,2.436507,3.946951739702397
1673609127.297294,2.436315,3.9437366191043854
1673609127.2983007,2.437301,3.940522259661819
1673609127.2993078,2.439705,3.9373071390638077
1673609127.300315,2.432685,3.934092018465796
1673609127.3013217,2.433502,3.9308776590232295
1673609127.3023288,2.432348,3.9276625384252184
1673609127.303336,2.436123,3.924447417827207
1673609127.3043427,2.434921,3.92123305838464
1673609127.3053498,2.430954,3.9180179377866287
1673609127.306357,2.438671,3.9148028171886176
1673609127.3073637,2.445378,3.911588457746051
1673609127.3083708,2.449105,3.9083733371480394
1673609127.3093789,2.456317,3.90515517192825
1673609127.310386,2.455716,3.9019400513302385
1673609127.3113928,2.450715,3.898725691887672
1673609127.3123999,2.448984,3.8955105712896607
1673609127.313407,2.449754,3.892295450691649
1673609127.3144138,2.452086,3.8890810912490825
1673609127.3154209,2.44634,3.8858659706510714
1673609127.316428,2.444585,3.88265085005306
1673609127.3174348,2.448335,3.8794364906104932
1673609127.3184419,2.450908,3.8762213700124817
1673609127.3194487,2.451557,3.873007010569915
1673609127.3204558,2.44509,3.869791889971904
1673609127.3214638,2.43956,3.866573724752114
1673609127.322471,2.437397,3.863358604154103
1673609127.3234777,2.43956,3.860144244711536
1673609127.3244848,2.437084,3.856929124113525
1673609127.325492,2.438815,3.8537140035155137
1673609127.3264987,2.44021,3.8504996440729466
1673609127.3275058,2.440306,3.8472845234749355
1673609127.328513,2.444393,3.844069402876924
1673609127.3295197,2.446652,3.8408550434343574
1673609127.3305268,2.448936,3.8376399228363463
1673609127.331534,2.450331,3.8344248022383347
1673609127.3325408,2.447157,3.831210442795768
1673609127.3335478,2.449008,3.827995322197757
1673609127.3345559,2.443551,3.824777156977967
1673609127.335563,2.439248,3.821562036379956
1673609127.3365698,2.442421,3.818347676937389
1673609127.3375769,2.443287,3.815132556339378
1673609127.338584,2.444465,3.8119174357413668
1673609127.3395908,2.447975,3.8087030762987997
1673609127.3405979,2.443768,3.8054879557007886
1673609127.3416047,2.44045,3.802273596258222
1673609127.3426118,2.427901,3.7990584756602104
1673609127.3436189,2.430281,3.7958433550621993
1673609127.3446257,2.446292,3.8206181874105867
1673609127.3456328,2.451028,3.831084
1673609127.3466408,2.448503,3.791691272293753
1673609127.347648,2.448672,3.776809
1673609127.3486547,2.444393,3.776809
1673609127.3496618,2.43932,3.8038320214592276
1673609127.350669,2.445811,3.812995
1673609127.3516757,2.448984,3.7992259186933715
1673609127.3526828,2.449634,3.7532307754469607
1673609127.35369,2.451557,3.740631
1673609127.3546968,2.45134,3.740631
1673609127.3557038,2.445571,3.740631
1673609127.356711,2.437589,3.740631
1673609127.3577178,2.433574,3.740631
1673609127.3587248,2.432492,3.740631
1673609127.3597329,2.432156,3.740631
1673609127.36074,2.434103,3.7479545865522175
1673609127.3617468,2.434777,3.7512642236276847
1673609127.3627539,2.435594,3.7330429273463555
1673609127.3637607,2.428117,3.7148406998808103
1673609127.3647678,2.430425,3.704453
1673609127.3657749,2.438599,3.696495392703863
1673609127.3667817,2.439681,3.7186870379022645
1673609127.3677888,2.436772,3.7423044697186456
1673609127.3687959,2.433286,3.730887116229117
1673609127.3698027,2.434151,3.7382919353414614
1673609127.3708098,2.444441,3.7332663966244377
1673609127.3718178,2.448672,3.7282360988745387
1673609127.372825,2.451268,3.7232105601575154
1673609127.3738317,2.447061,3.718186211198711
1673609127.3748388,2.446364,3.7131606724816875
1673609127.375846,2.447374,3.708135133764664
1673609127.3768528,2.445979,3.70311078480586
1673609127.3778598,2.443407,3.6980852460888367
1673609127.378867,2.443166,3.6930597073718134
1673609127.3798738,2.442662,3.688035358413009
1673609127.3808808,2.444994,3.6830098196959855
1673609127.381888,2.439801,3.6779842809789622
1673609127.3828948,2.438839,3.672959932020158
1673609127.3839018,2.437637,3.6679343933031348
1673609127.3849099,2.441219,3.6629040955532353
1673609127.3859167,2.441965,3.657879746594431
1673609127.3869238,2.445739,3.6528542078774078
1673609127.3879309,2.450715,3.6478286691603845
1673609127.3889377,2.449922,3.64280432020158
1673609127.3899448,2.454394,3.6377787814845566
1673609127.3909519,2.454947,3.6327532427675333
1673609127.3919587,2.452038,3.627728893808729
1673609127.3929658,2.451605,3.622703355091706
1673609127.3939729,2.450475,3.6176778163746826
1673609127.3949797,2.446893,3.612653467415878
1673609127.3959868,2.448552,3.6076279286988546
1673609127.3969948,2.445258,3.6025976309489556
1673609127.398002,2.441195,3.5975720922319323
1673609127.3990088,2.440402,3.5837212746781115
1673609127.4000158,2.443743,3.5655058190703217
1673609127.401023,2.443888,3.5721751962327133
1673609127.4020298,2.435233,3.602981547016707
1673609127.4030368,2.431435,3.601299221005001
1673609127.404044,2.437469,3.583087253934192
1673609127.4050508,2.448095,3.590781185680191
1673609127.4060578,2.450739,3.622067753750893
1673609127.407065,2.450138,3.632088
1673609127.4080718,2.444609,3.632088
1673609127.4090788,2.443022,3.632088
1673609127.4100869,2.441724,3.632088
1673609127.4110937,2.440738,3.632088
1673609127.4121008,2.440041,3.632088
1673609127.4131079,2.439488,3.632088
1673609127.4141147,2.439969,3.632088
1673609127.4151218,2.445571,3.632088
1673609127.4161289,2.44521,3.6012668283261804
1673609127.4171357,2.443575,3.5570481593236485
1673609127.4181428,2.441941,3.5626763193317426
1673609127.4191499,2.442445,3.5884742737243682
1673609127.4201567,2.442349,3.6017677120577596
1673609127.4211638,2.442253,3.611668862810851
1673609127.4221718,2.443143,3.621579389653671
1673609127.423179,2.438503,3.6314805404067627
1673609127.4241858,2.432853,3.6413793471374225
1673609127.4251928,2.434296,3.651280497890514
1673609127.4262,2.436002,3.6611816486436055
1673609127.4272068,2.435185,3.6710804553742653
1673609127.4282138,2.439921,3.680981606127357
1673609127.429221,2.443984,3.6908827568804488
1673609127.4302278,2.449706,3.700781563611108
1673609127.4312348,2.474275,3.7106827143642
1673609127.432242,2.493219,3.7205838651172916
1673609127.4332488,2.507764,3.7304826718479513
1673609127.4342558,2.505191,3.740383822601043
1673609127.4352639,2.490094,3.750294349443863
1673609127.4362707,2.452903,3.7601931561745223
1673609127.4372778,2.424078,3.7700943069276143
1673609127.4382849,2.409366,3.7799954576807058
1673609127.4392917,2.381503,3.7898942644113656
1673609127.4402988,2.375468,3.799795415164457
1673609127.4413059,2.391071,3.809696565917549
1673609127.4423127,2.401,3.8195953726482084
1673609127.4433198,2.402538,3.8294965234013
1673609127.4443269,2.408933,3.839397674154392
1673609127.4453337,2.420737,3.849296480885051
1673609127.4463408,2.42367,3.859197631638143
1673609127.4473488,2.423453,3.8691081584809632
1673609127.448356,2.425954,3.8790093092340547
1673609127.4493628,2.423141,3.888908115964714
1673609127.4503698,2.420665,3.898809266717806
1673609127.451377,2.426603,3.9087104174708975
1673609127.4523838,2.450355,3.9186092242015573
1673609127.4533908,2.443166,3.928510374954649
1673609127.454398,2.433069,3.938411525707741
1673609127.4554048,2.427396,3.9483103324384
1673609127.4564118,2.427925,3.9582114831914916
1673609127.457419,2.42492,3.9681126339445836
1673609127.4584258,2.416866,3.978011440675243
1673609127.4594328,2.412347,3.987912591428335
1673609127.4604409,2.413476,3.997823118271155
1673609127.4614477,2.411072,4.007721925001814
1673609127.4624548,2.410231,4.017623075754906
1673609127.4634619,2.408692,4.027524226507998
1673609127.4644687,2.411721,4.037423033238658
1673609127.4654758,2.414078,4.047324183991749
1673609127.4664829,2.417828,4.048161
1673609127.4674897,2.433046,4.048161
1673609127.4684968,2.441748,4.06508978516929
1673609127.4695039,2.446003,4.100366706793802
1673609127.4705107,2.445619,4.0681033122915675
1673609127.4715178,2.446701,4.04894241026253
1673609127.4725258,2.453143,4.06561597925608
1673609127.473533,2.462808,4.06625
1673609127.4745398,2.46651,4.137077891408114
1673609127.4755468,2.455307,4.143769262991074
1673609127.476554,2.446628,4.149034464169865
1673609127.4775608,2.446652,4.1542984188521634
1673609127.4785678,2.445451,4.159563620030954
1673609127.479575,2.439705,4.164828821209744
1673609127.4805818,2.436988,4.1700927758920425
1673609127.4815888,2.437397,4.175357977070833
1673609127.482596,2.437325,4.180623178249624
1673609127.4836028,2.435762,4.1858871329319225
1673609127.4846098,2.436387,4.191152334110713
1673609127.4856179,2.436844,4.196422521275468
1673609127.4866247,2.43908,4.201686475957767
1673609127.4876318,2.434873,4.206951677136558
1673609127.4886389,2.440161,4.212216878315347
1673609127.4896457,2.441195,4.217480832997647
1673609127.4906528,2.442614,4.222746034176437
1673609127.4916599,2.444609,4.228011235355227
1673609127.4926667,2.448407,4.233275190037526
1673609127.4936738,2.448624,4.238540391216317
1673609127.494681,2.442542,4.243805592395106
1673609127.4956877,2.437565,4.249069547077406
1673609127.4966948,2.438575,4.254334748256196
1673609127.4977028,2.436916,4.259604935420951
1673609127.49871,2.433959,4.2648701365997415
1673609127.4997168,2.435257,4.27013409128204
1673609127.5007238,2.432469,4.275399292460831
1673609127.501731,2.430064,4.280664493639621
1673609127.5027378,2.431315,4.28592844832192
1673609127.5037448,2.430834,4.291193649500711
1673609127.504752,2.431844,4.2964588506795005
1673609127.5057588,2.432589,4.3017228053618
1673609127.5067658,2.429704,4.30698800654059
1673609127.507773,2.434824,4.3122532077193805
1673609127.5087798,2.438527,4.317517162401679
1673609127.5097868,2.44432,4.32278236358047
1673609127.5107949,2.440282,4.328052550745225
1673609127.5118017,2.437397,4.333316505427524
1673609127.5128088,2.439416,4.338581706606314
1673609127.5138159,2.446148,4.343846907785104
1673609127.5148227,2.445186,4.349110862467404
1673609127.5158298,2.441412,4.3543760636461935
1673609127.516837,2.438094,4.359641264824984
1673609127.5178437,2.442445,4.364905219507283
1673609127.5188508,2.444777,4.370170420686073
1673609127.519858,2.439657,4.3794852023837905
1673609127.5208647,2.436796,4.397696326418694
1673609127.5218718,2.438455,4.409967
1673609127.5228798,2.442349,4.403872637339056
1673609127.523887,2.441484,4.404322542073897
1673609127.5248938,2.428959,4.434400520505484
1673609127.5259008,2.425304,4.459092824988078
1673609127.526908,2.434368,4.469119539213349
1673609127.5279148,2.439609,4.452869070338579
1673609127.5289218,2.441123,4.471088054200112
1673609127.529929,2.446051,4.489308019550187
1673609127.5309358,2.44646,4.507523671461496
1673609127.5319428,2.446652,4.525743012160229
1673609127.53295,2.446436,4.543959649106078
1673609127.5339568,2.450186,4.532238489985693
1673609127.5349638,2.450307,4.515646123986648
1673609127.5359719,2.44783,4.536599
1673609127.5369787,2.446749,4.536599
1673609127.5379858,2.443936,4.568636456366237
1673609127.538993,2.44033,4.625236561516452
1673609127.5399997,2.437829,4.645142
1673609127.5410068,2.438647,4.665484658994002
1673609127.542014,2.471174,4.709663266495627
1673609127.5430207,2.492546,4.753831415046614
1673609127.5440278,2.490575,4.79801002254824
1673609127.545035,2.485766,4.842188630049867
1673609127.5460417,2.470669,4.886356778600852
1673609127.5470488,2.448576,4.930535386102479
1673609127.5480568,2.432757,4.967715975202671
1673609127.549064,2.412106,4.954065120410109
1673609127.5500708,2.389412,4.952672
1673609127.5510778,2.390085,5.02045614973772
1673609127.552085,2.41463,4.973801711731045
1673609127.5530918,2.427155,5.0223502243146605
1673609127.5540988,2.44384,5.059686836909871
1673609127.555106,2.458408,5.11357893776824
1673609127.5561128,2.455283,5.115481
1673609127.5571198,2.436315,5.146624960208821
1673609127.558127,2.425064,5.178663948986722
1673609127.5591338,2.426098,5.21069535277675
1673609127.5601408,2.433046,5.242734341554651
1673609127.561149,2.431435,5.274803670284046
1673609127.5621557,2.429223,5.306835074074074
1673609127.5631628,2.430281,5.338874062851975
1673609127.56417,2.43194,5.370913051629876
1673609127.5651767,2.432084,5.402944455419904
1673609127.5661838,2.419967,5.434983444197805
1673609127.567191,2.404918,5.467022432975706
1673609127.5681977,2.407875,5.499053836765734
1673609127.5692048,2.423405,5.5310928255436345
1673609127.570212,2.428886,5.563131814321536
1673609127.5712187,2.424511,5.595163218111563
1673609127.5722258,2.42879,5.627202206889464
1673609127.5732338,2.435762,5.65927153561886
1673609127.574241,2.447662,5.69131052439676
1673609127.5752478,2.456846,5.723341928186788
1673609127.5762548,2.459009,5.75538091696469
1673609127.577262,2.455331,5.78741990574259
1673609127.5782688,2.449778,5.819451309532618
1673609127.5792758,2.451196,5.8514902983105195
1673609127.580283,2.452735,5.88352928708842
1673609127.5812898,2.447662,5.915560690878448
1673609127.5822968,2.447302,5.947599679656349
1673609127.583304,2.442469,5.97963866843425
1673609127.5843108,2.442133,6.011670072224278
1673609127.5853179,2.442493,6.044480064600715
1673609127.586326,2.439032,6.064229642584644
1673609127.5873327,2.43944,6.093989090909091
1673609127.5883398,2.443407,6.184804607324517
1673609127.589347,2.451917,6.238906163784334
1673609127.5903537,2.459033,6.28466272862958
1673609127.5913608,2.460957,6.3117157748389285
1673609127.592368,2.452807,6.3310774981349605
1673609127.5933747,2.447229,6.351376846675712
1673609127.5943818,2.449057,6.38996984571041
1673609127.595389,2.455668,6.5734938979891515
1673609127.5963957,2.455595,6.626893867883326
1673609127.5974028,2.451869,6.680306482809444
1673609127.5984108,2.441892,6.733769677863331
1673609127.599418,2.438431,6.787182292789449
1673609127.6004248,2.438238,6.840582262683624
1673609127.6014318,2.434728,6.893994877609741
1673609127.602439,2.432925,6.9474074925358575
1673609127.6034458,2.435642,7.000807462430032
1673609127.6044528,2.447326,7.054220077356149
1673609127.60546,2.45348,7.107632692282267
1673609127.6064668,2.453961,7.16103266217644
1673609127.6074739,2.452374,7.214445277102558
1673609127.608481,2.452711,7.267857892028675
1673609127.6094878,2.458913,7.32125786192285
1673609127.6104958,2.463697,7.374721056976738
1673609127.611503,2.456557,7.428133671902855
1673609127.6125097,2.446508,7.4815336417970295
1673609127.6135168,2.444561,7.534946256723146
1673609127.614524,2.442542,7.588358871649264
1673609127.6155307,2.45009,7.641758841543439
1673609127.6165378,2.453264,7.695171456469556
1673609127.617545,2.445667,7.748584071395673
1673609127.6185517,2.430377,7.801984041289847
1673609127.6195588,2.431387,7.855396656215964
1673609127.620566,2.440955,7.908809271142082
1673609127.6215727,2.458961,7.9622092410362555
1673609127.6225798,2.474467,8.015621855962372
1673609127.6235878,2.488363,8.06908505101626
1673609127.624595,2.502835,8.122497665942378
1673609127.6256018,2.51411,8.175897635836552
1673609127.6266088,2.512403,8.22931025076267
1673609127.627616,2.490046,8.282722865688788
1673609127.6286228,2.467303,8.336122835582962
1673609127.6296299,2.445811,8.38953545050908
1673609127.630637,2.43557,8.442948065435196
1673609127.6316438,2.421025,8.49634803532937
1673609127.6326509,2.410063,8.549760650255488
1673609127.633658,2.435233,8.603173265181605
1673609127.6346648,2.44884,8.65657323507578
1673609127.6356728,2.442373,8.710036430129668
1673609127.63668,2.443743,8.763449045055784
1673609127.6376867,2.4392,8.816849014949959
1673609127.6386938,2.44021,8.870261629876076
1673609127.639701,2.444537,8.955734658082976
1673609127.6407077,2.448864,8.999925937544697
1673609127.6417148,2.444417,9.11512706342394
1673609127.642722,2.437373,9.179134130185979
1673609127.6437287,2.438286,9.281800812589415
1673609127.6447358,2.442109,9.326564561144219
1673609127.645743,2.442445,9.379260779685266
1673609127.6467497,2.449489,9.53223044825942
1673609127.6477568,2.446989,9.613608176162098
1673609127.6487648,2.446749,9.634042811628376
1673609127.649772,2.447302,9.64948831455905
1673609127.6507788,2.448191,9.664930160883918
1673609127.6517859,2.446941,9.70821123383666
1673609127.652793,2.437685,9.793229191071012
1673609127.6537998,2.4298,9.878227020948062
1673609127.6548069,2.420544,9.963244978182413
1673609127.655814,2.407827,10.048262935416764
1673609127.6568208,2.38559,10.133260765293816
1673609127.6578279,2.370131,10.218278722528167
1673609127.658835,2.367896,10.303296679762518
1673609127.6598418,2.377993,10.388294509639568
1673609127.6608498,2.391936,10.473392976303119
1673609127.661857,2.400879,10.55841093353747
1673609127.6628637,2.421025,10.64340876341452
1673609127.6638708,2.462062,10.728426720648871
1673609127.664878,2.477905,10.813444677883222
1673609127.6658847,2.50471,10.898442507760274
1673609127.6668918,2.541661,10.983460464994625
1673609127.667899,2.549666,11.068478422228974
1673609127.6689057,2.534857,11.153476252106026
1673609127.6699128,2.521467,11.238494209340377
1673609127.67092,2.5225,11.323512166574728
1673609127.6719267,2.510047,11.408509996451778
1673609127.6729338,2.489853,11.49352795368613
1673609127.6739419,2.485887,11.57862642034968
1673609127.674949,2.465933,11.663644377584031
1673609127.6759558,2.447374,11.748642207461081
1673609127.6769629,2.448792,11.833660164695434
1673609127.67797,2.456317,11.918678121929783
1673609127.6789768,2.449754,12.003675951806835
1673609127.6799839,2.455043,12.088693909041186
1673609127.680991,2.462639,12.173711866275536
1673609127.6819978,2.49257,12.258709696152588
1673609127.6830049,2.518341,12.343727653386939
1673609127.684012,2.532597,12.42874561062129
1673609127.6850188,2.536564,12.513743440498342
1673609127.6860268,2.516418,12.59884190716189
1673609127.687034,2.475453,12.683859864396242
1673609127.6880407,2.450956,12.768857694273294
1673609127.6890478,2.440666,12.853875651507645
1673609127.690055,2.420544,12.938893608741996
1673609127.6910617,2.416241,13.023891438619046
1673609127.6920688,2.433118,13.108909395853397
1673609127.693076,2.438479,13.193927353087748
1673609127.6940827,2.440137,13.278925182964798
1673609127.6950898,2.452999,13.363943140199149
1673609127.696097,2.462495,13.4489610974335
1673609127.6971037,2.448359,13.533958927310552
1673609127.6981108,2.440522,13.618976884544903
1673609127.6991189,2.43908,13.704075351208452
1673609127.700126,2.446003,13.789093308442805
1673609127.7011328,2.452494,13.874091138319855
1673609127.7021399,2.437806,13.959109095554206
1673609127.703147,2.436027,14.03492213304721
1673609127.7041538,2.446821,14.135675026704817
1673609127.7051609,2.458745,14.28718462455304
1673609127.706168,2.474395,14.42275257892227
1673609127.7071748,2.478554,14.507282564377682
1673609127.7081819,2.47127,14.594598589511323
1673609127.709189,2.465428,14.700273237482117
1673609127.7101958,2.459322,14.824270016213639
1673609127.7112038,2.448191,14.951896431227652
1673609127.712211,2.44182,14.995904068702291
1673609127.7132177,2.432685,15.021822328244275
1673609127.7142248,2.441484,15.04774672519084
1673609127.715232,2.453672,15.073671122137405
1673609127.7162387,2.458985,15.09958938167939
1673609127.7172458,2.455427,15.145479544152744
1673609127.718253,2.453937,15.272891394849786
1673609127.7192597,2.454826,15.422632483686593
1673609127.7202668,2.466125,15.519918309785202
1673609127.721274,2.467351,15.724055107773008
1673609127.7222807,2.457014,15.872936320076208
1673609127.7232878,2.458601,16.002619490701
1673609127.7242959,2.457158,16.181759129318053
1673609127.725303,2.454057,16.352765793448754
1673609127.7263098,2.449922,16.523731973047223
1673609127.7273169,2.446436,16.694738637177924
1673609127.728324,2.436435,16.865745301308625
1673609127.7293308,2.438743,17.036711480907094
1673609127.7303379,2.456966,17.207718145037795
1673609127.731345,2.481199,17.378724809168496
1673609127.7323518,2.527525,17.54969098876697
1673609127.7333589,2.573106,17.720697652897666
1673609127.734366,2.598228,17.891704317028367
1673609127.7353728,2.590535,18.06267049662684
1673609127.7363808,2.554402,18.23383909888645
1673609127.737388,2.492257,18.40484576301715
1673609127.7383947,2.455115,18.575811942615623
1673609127.7394018,2.433935,18.746818606746324
1673609127.740409,2.391239,18.91782527087702
1673609127.7414157,2.392994,19.088791450475494
1673609127.7424228,2.40737,19.259798114606195
1673609127.74343,2.414558,19.430804778736892
1673609127.7444367,2.428886,19.601770958335365
1673609127.7454438,2.407779,19.772777622466066
1673609127.746451,2.403332,19.943784286596763
1673609127.7474577,2.415039,20.114750466195236
1673609127.7484648,2.412251,20.285757130325937
1673609127.7494729,2.393234,20.456925732585546
1673609127.75048,2.374074,20.627932396716247
1673609127.7514868,2.323901,20.79889857631472
1673609127.7524939,2.313684,20.96990524044542
1673609127.753501,2.335778,21.14091190457612
1673609127.7545078,2.354625,21.31187808417459
1673609127.7555149,2.383234,21.482884748305292
1673609127.756522,2.42266,21.65389141243599
1673609127.7575288,2.452182,21.824857592034462
1673609127.7585359,2.479131,21.995864256165163
1673609127.759543,2.507042,22.166870920295864
1673609127.7605498,2.518293,22.337837099894333
1673609127.7615578,2.512211,22.509005702153946
1673609127.762565,2.474059,22.680012366284647
1673609127.7635717,2.440955,22.850978545883116
1673609127.7645788,2.43819,23.021985210013817
1673609127.765586,2.463,23.192991874144518
1673609127.7665927,2.476246,23.36395805374299
1673609127.7675998,2.477232,23.534964717873688
1673609127.768607,2.490262,23.71253898190045
1673609127.7696137,2.463024,23.90561858011445
1673609127.7706208,2.417852,24.072696450119334
1673609127.771628,2.408981,24.229793266094422
1673609127.7726347,2.392249,24.393606097165993
1673609127.7736418,2.374916,24.580675013365155
1673609127.7746499,2.398764,24.769664424892703
1673609127.775657,2.46312,24.904518747558942
1673609127.7766638,2.493147,25.07347710119332
1673609127.7776709,2.502499,25.16209224980338
1673609127.778678,2.518942,25.193572526946557
1673609127.7796848,2.533054,25.225045351372607
1673609127.7806919,2.572529,25.256525628515785
1673609127.781699,2.567769,25.288005905658963
1673609127.7827058,2.550988,25.319478730085017
1673609127.7837129,2.538223,25.383657668097282
1673609127.78472,2.525962,25.504849581406436
1673609127.7857268,2.521226,25.63848360502141
1673609127.7867348,2.497594,25.81674525611133
1673609127.787742,2.476391,25.99483825852472
1673609127.7887487,2.507403,26.172889098768977
1673609127.7897558,2.544738,26.350982101182368
1673609127.790763,2.53868,26.52907510359576
1673609127.7917697,2.52226,26.707125943840015
1673609127.7927768,2.513557,26.885218946253406
1673609127.793784,2.504158,27.063311948666797
1673609127.7947907,2.49233,27.241362788911054
1673609127.7957978,2.473482,27.419455791324445
1673609127.796805,2.47704,27.597548793737836
1673609127.7978117,2.487473,27.775599633982093
1673609127.7988188,2.481583,27.953692636395484
1673609127.7998269,2.491176,28.131954287485403
1673609127.800834,2.495335,28.310047289898794
1673609127.8018408,2.480237,28.48809813014305
1673609127.8028479,2.480718,28.666191132556442
1673609127.803855,2.485694,28.844284134969833
1673609127.8048618,2.461317,29.02233497521409
1673609127.8058689,2.4511,29.20042797762748
1673609127.806876,2.451629,29.37852098004087
1673609127.8078828,2.440811,29.55657182028513
1673609127.8088899,2.430425,29.73466482269852
1673609127.809897,2.423573,29.91275782511191
1673609127.8109038,2.415087,30.09080866535617
1673609127.8119118,2.410471,30.26907031644609
1673609127.812919,2.404942,30.447163318859477
1673609127.8139257,2.401192,30.625214159103738
1673609127.8149328,2.400423,30.803307161517125
1673609127.81594,2.446652,30.981400163930516
1673609127.8169467,2.491704,31.159451004174777
1673609127.8179538,2.470453,31.337544006588168
1673609127.818961,2.460524,31.51563700900156
1673609127.8199677,2.449345,31.693687849245816
1673609127.8209748,2.425256,31.871780851659206
1673609127.821982,2.393162,32.049873854072594
1673609127.8229887,2.402899,32.227924694316854
1673609127.8239958,2.430762,32.406017696730245
1673609127.8250039,2.469299,32.584279347820164
1673609127.826011,2.464635,32.762372350233555
1673609127.8270178,2.467592,32.940423190477816
1673609127.8280249,2.502475,33.1185161928912
1673609127.829032,2.527236,33.29660919530459
1673609127.8300388,2.521996,33.47466003554885
1673609127.8310459,2.505744,33.65275303796224
1673609127.832053,2.486079,33.83084604037563
1673609127.8330598,2.474732,34.008896880619886
1673609127.8340669,2.464587,34.18698988303328
1673609127.8350737,2.44033,34.34241812967819
1673609127.8360808,2.434632,34.47530715116834
1673609127.8370888,2.45711,34.641975980686695
1673609127.838096,2.456677,34.85040466507748
1673609127.8391027,2.452639,35.068975623032905
1673609127.8401098,2.42992,35.2340739561278
1673609127.841117,2.423838,35.43384161382598
1673609127.8421237,2.440402,35.63877994802098
1673609127.8431308,2.508605,35.85295526013352
1673609127.844138,2.585102,36.31850101973798
1673609127.8451447,2.580246,36.860807141859524
1673609127.8461518,2.55284,37.40324168124892
1673609127.847159,2.508918,37.94567622063831
1673609127.8481658,2.49483,38.27426557606104
1673609127.8491728,2.474395,38.43212826466381
1673609127.8501809,2.454586,38.63355288510131
1673609127.851188,2.485911,38.82068005197902
1673609127.8521948,2.521274,39.009721965665236
1673609127.8532019,2.531131,39.18474823837902
1673609127.854209,2.518029,39.37432138721984
1673609127.8552158,2.473602,39.56176059418216
1673609127.8562229,2.423021,39.71781203003575
1673609127.8572297,2.419487,39.880949486352414
1673609127.8582368,2.450643,40.0507906193212
1673609127.8592439,2.450811,40.220631752289975
1673609127.8602507,2.438575,40.390432676657205
1673609127.8612578,2.492858,40.56027380962599
1673609127.8622658,2.551445,40.73027577700099
1673609127.863273,2.563273,40.900116909969775
1673609127.8642797,2.553176,41.069917834337
1673609127.8652868,2.506105,41.23975896730578
1673609127.866294,2.427396,41.40960010027457
1673609127.8673007,2.374531,41.57940102464179
1673609127.8683078,2.378738,41.749242157610574
1673609127.869315,2.421218,41.91908329057936
1673609127.8703218,2.471679,42.08888421494658
1673609127.8713288,2.484612,42.258725347915366
1673609127.872336,2.491031,42.42856648088415
1673609127.8733428,2.486488,42.59836740525138
1673609127.8743498,2.490863,42.76820853822016
1673609127.8753579,2.484901,42.938210505595166
1673609127.876365,2.456509,43.10805163856394
1673609127.8773718,2.450379,43.27785256293117
1673609127.8783789,2.469611,43.44769369589996
1673609127.8793857,2.503388,43.61749462026718
1673609127.8803928,2.509903,43.787335753235965
1673609127.8813999,2.510336,43.95717688620475
1673609127.8824067,2.505696,44.12697781057197
1673609127.8834138,2.49358,44.29681894354076
1673609127.8844209,2.45937,44.46666007650954
1673609127.8854277,2.484973,44.636461000876764
1673609127.8864348,2.492378,44.80630213384555
1673609127.8874428,2.495431,44.97630410122055
1673609127.88845,2.484612,45.157780731998095
1673609127.8894567,2.468313,45.35718572753277
1673609127.8904638,2.462928,45.45309077110157
1673609127.891471,2.481583,45.61437856223176
1673609127.8924778,2.489397,45.86661160333731
1673609127.8934848,2.499614,46.014899594659035
1673609127.894492,2.495166,46.19651487172151
1673609127.8954988,2.499614,46.288406907725324
1673609127.8965058,2.510095,46.48825669103722
1673609127.897513,2.50233,46.628005838099355
1673609127.8985198,2.500744,46.76772190060962
1673609127.8995268,2.491344,46.907471047671756
1673609127.9005349,2.461654,47.047352532941325
1673609127.9015417,2.431844,47.1870685954516
1673609127.9025488,2.429944,47.326817742513725
1673609127.9035559,2.443647,47.46656688957586
1673609127.9045627,2.487209,47.606282952086126
1673609127.9055698,2.510384,47.74603209914825
1673609127.9065769,2.500696,47.885781246210385
1673609127.9075837,2.494565,48.02549730872065
1673609127.9085908,2.508196,48.165246455782786
1673609127.9095979,2.53517,48.30499560284491
1673609127.9106047,2.527453,48.44471166535518
1673609127.9116118,2.512692,48.58446081241731
1673609127.9126198,2.496489,48.72434229768689
1673609127.913627,2.470933,48.864091444749015
1673609127.9146338,2.459009,49.00380750725928
1673609127.9156408,2.453192,49.143556654321415
1673609127.916648,2.44158,49.28330580138354
1673609127.9176548,2.422492,49.423021863893815
1673609127.9186618,2.391527,49.56277101095594
1673609127.919669,2.38095,49.702520158018075
1673609127.9206758,2.406361,49.84223622052834
1673609127.9216828,2.4511,49.98198536759047
1673609127.92269,2.449754,50.1217345146526
1673609127.9236968,2.429536,50.26145057716287
1673609127.9247038,2.449273,50.401199724225
1673609127.9257119,2.442037,50.54108120949457
1673609127.9267187,2.412875,50.680797272004845
1673609127.9277258,2.432709,50.82054641906697
1673609127.9287329,2.45348,50.960295566129105
1673609127.9297397,2.476391,51.10001162863937
1673609127.9307468,2.511778,51.2397607757015
1673609127.9317539,2.554643,51.37950992276363
1673609127.9327607,2.55421,51.5192259852739
1673609127.9337678,2.585775,51.65897513233603
1673609127.9347749,2.589069,51.79872427939816
1673609127.9357817,2.551806,51.938440341908425
1673609127.9367888,2.51262,52.07818948897056
1673609127.9377968,2.464322,52.218070974240135
1673609127.938804,2.465019,52.35782012130226
1673609127.9398108,2.470597,52.49753618381253
1673609127.9408178,2.477665,52.63728533087466
1673609127.941825,2.468217,52.77703447793679
1673609127.9428318,2.461942,52.91675054044706
1673609127.9438388,2.498075,53.05649968750919
1673609127.944846,2.527885,53.19624883457132
1673609127.9458528,2.513052,53.33596489708159
1673609127.9468598,2.476222,53.475714044143714
1673609127.947867,2.441484,53.61546319120585
1673609127.9488738,2.489541,53.755179253716115
1673609127.9498808,2.540459,53.89492840077824
1673609127.9508889,2.543295,54.03480988604782
1673609127.9518957,2.534857,54.1759790481067
1673609127.9529028,2.533751,54.307690520525064
1673609127.9539099,2.526683,54.398847467334285
1673609127.9549167,2.478506,54.50958422884386
1673609127.9559238,2.417443,54.65840451931331
1673609127.9569309,2.450186,54.762548118264185
1673609127.9579377,2.447806,54.86420620715137
1673609127.9589448,2.428622,54.97543782944259
1673609127.9599519,2.444224,55.064909689498805
1673609127.9609587,2.431002,55.15848672290073
1673609127.9619658,2.432925,55.176845468746244
1673609127.9629738,2.427781,55.19522159976775
1673609127.963981,2.439969,55.21358034561326
1673609127.9649878,2.4774,55.23193474516478
1673609127.9659948,2.537742,55.25029349101029
1673609127.967002,2.603878,55.312334200763
1673609127.9680088,2.602051,55.45465504958284
1673609127.9690158,2.546854,55.60352817978064
1673609127.970023,2.499349,55.715723583214114
1673609127.9710298,2.486319,55.822373277949936
1673609127.9720368,2.453576,55.96573073390558
1673609127.973044,2.440738,56.11360772103004
1673609127.9740508,2.454658,56.23535271154159
1673609127.9750578,2.455956,56.35004425642373
1673609127.9760659,2.476078,56.46484441072338
1673609127.9770727,2.493556,56.57950880325115
1673609127.9780798,2.502066,56.69420034813329
1673609127.9790869,2.514687,56.80889189301544
1673609127.9800937,2.489733,56.923556285543214
1673609127.9811008,2.447951,57.038247830425355
1673609127.9821079,2.427468,57.152939375307504
1673609127.9831147,2.437661,57.26760376783527
1673609127.9841218,2.473698,57.38229531271742
1673609127.9851289,2.49382,57.496986857599566
1673609127.9861357,2.501826,57.61165125012733
1673609127.9871428,2.493531,57.72634279500948
1673609127.9881508,2.449826,57.84114294930913
1673609127.989158,2.409101,57.95583449419127
1673609127.9901648,2.386912,58.070498886719044
1673609127.9911718,2.382873,58.18519043160119
1673609127.992179,2.402778,58.299881976483334
1673609127.9931858,2.419198,58.414546369011106
1673609127.9941928,2.490767,58.529237913893255
1673609127.9952,2.576111,58.643929458775396
1673609127.9962068,2.601714,58.75859385130317
1673609127.9972138,2.601882,58.87328539618531
1673609127.998221,2.577241,58.98797694106746
1673609127.9992278,2.5933,59.10264133359523
1673609128.0002348,2.594718,59.21733287847737
1673609128.0012429,2.556205,59.33213303277702
1673609128.0022497,2.492858,59.446797425304794
1673609128.0032568,2.452807,59.561488970186936
1673609128.0042639,2.426771,59.676180515069085
1673609128.0052707,2.418886,59.790844907596856
1673609128.0062778,2.425425,59.905536452479
1673609128.0072849,2.436123,60.02022799736115
1673609128.0082917,2.471534,60.13489238988892
1673609128.0092988,2.510889,60.24958393477106
1673609128.010306,2.528246,60.36427547965321
1673609128.0113127,2.510192,60.47893987218098
1673609128.0123198,2.478626,60.59363141706312
1673609128.0133278,2.442493,60.70843157136277
1673609128.014335,2.432781,60.823123116244915
1673609128.0153418,2.4442,60.937787508772686
1673609128.0163488,2.458168,61.052479053654835
1673609128.017356,2.449033,61.16717059853698
1673609128.0183628,2.436051,61.27775298044826
1673609128.0193698,2.445162,61.34524276371006
1673609128.020377,2.458553,61.4702716163567
1673609128.0213838,2.460067,61.58758071799762
1673609128.0223908,2.486295,61.668242564377685
1673609128.023398,2.506249,61.77002091273248
1673609128.0244048,2.503989,61.864710250297975
1673609128.0254118,2.50447,61.98521933166428
1673609128.0264199,2.498868,62.03862277443968
1673609128.0274267,2.469203,62.108182270681354
1673609128.0284338,2.493844,62.18492630505867
1673609128.0294409,2.504927,62.26167033943597
1673609128.0304477,2.490743,62.33839620524454
1673609128.0314548,2.472713,62.41514023962185
1673609128.032462,2.464683,62.49188427399916
1673609128.0334687,2.491103,62.56861013980773
1673609128.0344758,2.49983,62.64535417418504
1673609128.035483,2.526756,62.72209820856235
1673609128.0364897,2.564547,62.79882407437092
1673609128.0374968,2.585342,62.875568108748226
1673609128.0385048,2.592675,62.952384817400514
1673609128.039512,2.567528,63.02912885177783
1673609128.0405188,2.530554,63.105854717586396
1673609128.0415258,2.507499,63.1825987519637
1673609128.042533,2.509374,63.259342786341016
1673609128.0435398,2.507379,63.336068652149585
1673609128.0445468,2.463216,63.41281268652689
1673609128.045554,2.437325,63.489556720904204
1673609128.0465608,2.432324,63.566282586712774
1673609128.0475678,2.459442,63.64302662109008
1673609128.048575,2.483362,63.71977065546739
1673609128.0495818,2.503508,63.79649652127596
1673609128.0505888,2.500744,63.87324055565327
1673609128.0515969,2.490695,63.950057264305556
1673609128.0526037,2.490214,64.02678313011413
1673609128.0536108,2.507908,64.10352716449144
1673609128.054618,2.494108,64.18027119886875
1673609128.0556247,2.44884,64.25699706467731
1673609128.0566318,2.440666,64.33374109905462
1673609128.057639,2.466678,64.41048513343193
1673609128.0586457,2.466654,64.4872109992405
1673609128.0596528,2.43194,64.56395503361782
1673609128.06066,2.446725,64.64069906799513
1673609128.0616667,2.515649,64.71742493380368
1673609128.0626738,2.681865,64.794168968181
1673609128.0636818,2.796298,64.87098567683329
1673609128.064689,2.761992,64.9477297112106
1673609128.0656958,2.6384,65.02445557701917
1673609128.0667028,2.531299,65.10119961139648
1673609128.06771,2.472183,65.1779436457738
1673609128.0687168,2.442205,65.25466951158235
1673609128.0697238,2.414679,65.33141354595966
1673609128.070731,2.398668,65.40815758033698
1673609128.0717378,2.40463,65.48488344614555
1673609128.0727448,2.413981,65.56162748052286
1673609128.073752,2.403428,65.63837151490017
1673609128.0747588,2.419943,65.71338936385312
1673609128.0757658,2.460163,65.79444453242728
1673609128.076774,2.49995,65.844032
1673609128.0777807,2.52226,65.88624778688916
1673609128.0787878,2.524183,65.9259084635193
1673609128.079795,2.522621,65.96858669003338
1673609128.0808017,2.502547,66.05139277783076
1673609128.0818088,2.46639,66.0881505286123
1673609128.082816,2.432348,66.1426935245589
1673609128.0838227,2.41677,66.20805952164275
1673609128.0848298,2.429944,66.24827168819336
1673609128.085837,2.488868,66.28848385474397
1673609128.0868437,2.485189,66.32868650136878
1673609128.0878508,2.455187,66.3688986679194
1673609128.0888588,2.470405,66.40914891417317
1673609128.089866,2.473217,66.44936108072378
1673609128.0908728,2.505287,66.4895637273486
1673609128.0918798,2.53666,66.5297758938992
1673609128.092887,2.544522,66.5699880604498
1673609128.0938938,2.526852,66.61019070707462
1673609128.0949008,2.545387,66.65040287362523
1673609128.095908,2.542454,66.69061504017584
1673609128.0969148,2.5012,66.73081768680065
1673609128.0979218,2.462976,66.77102985335127
1673609128.098929,2.484204,66.81124201990187
1673609128.0999358,2.50447,66.85144466652669
1673609128.1009429,2.467207,66.89165683307729
1673609128.101951,2.440282,66.93190707933107
1673609128.1029577,2.451773,66.97210972595589
1673609128.1039648,2.51137,67.01232189250649
1673609128.104972,2.561687,67.05253405905711
1673609128.1059787,2.571351,67.09273670568192
1673609128.1069858,2.562696,67.13294887223253
1673609128.107993,2.562696,67.17316103878314
1673609128.1089997,2.568105,67.21336368540796
1673609128.1100068,2.523823,67.25357585195856
1673609128.111014,2.468313,67.29378801850916
1673609128.1120207,2.46437,67.33399066513398
1673609128.1130278,2.49757,67.37420283168458
1673609128.1140358,2.49709,67.41445307793838
1673609128.115043,2.485983,67.45466524448898
1673609128.1160498,2.482305,67.4948678911138
1673609128.1170568,2.472424,67.5350800576644
1673609128.118064,2.459562,67.575292224215
1673609128.1190708,2.4392,67.61549487083983
1673609128.1200778,2.458721,67.65570703739043
1673609128.121085,2.485454,67.69591920394105
1673609128.1220918,2.524352,67.73612185056585
1673609128.1230989,2.550892,67.77633401711647
1673609128.124106,2.547142,67.81654618366707
1673609128.1251128,2.559138,67.85674883029189
1673609128.1261208,2.522548,67.89699907654567
1673609128.127128,2.458553,67.93721124309627
1673609128.1281347,2.450908,67.97741388972109
1673609128.1291418,2.467423,68.01396092918455
1673609128.130149,2.474491,68.10374039165674
1673609128.1311557,2.500503,68.06949285193133
1673609128.1321628,2.527405,68.08715592703862
1673609128.13317,2.515577,68.15963000906056
1673609128.1341767,2.465019,68.17784409871244
1673609128.1351838,2.465044,68.19735703218117
1673609128.136191,2.490911,68.286186
1673609128.1371977,2.483963,68.28664560489148
1673609128.1382048,2.465068,68.3012423797906
1673609128.1392128,2.469323,68.3158529773932
1673609128.14022,2.465957,68.33044975229232
1673609128.1412268,2.461894,68.34504307151556
1673609128.1422338,2.444946,68.35963984641467
1673609128.143241,2.480958,68.37423662131378
1673609128.1442478,2.507523,68.38882994053702
1673609128.1452549,2.509302,68.40342671543614
1673609128.146262,2.518173,68.41802349033524
1673609128.1472688,2.516226,68.4326168095585
1673609128.1482759,2.500551,68.4472135844576
1673609128.149283,2.497162,68.46181035935672
1673609128.1502898,2.511297,68.47640367857996
1673609128.1512978,2.518269,68.49101427618257
1673609128.152305,2.50935,68.50561105108169
1673609128.1533117,2.478915,68.52020437030492
1673609128.1543188,2.448816,68.53480114520404
1673609128.155326,2.434752,68.54939792010315
1673609128.1563327,2.448912,68.56399123932638
1673609128.1573398,2.483723,68.5785880142255
1673609128.158347,2.528727,68.59318478912462
1673609128.1593537,2.525553,68.60777810834786
1673609128.1603608,2.503076,68.62237488324698
1673609128.161368,2.510095,68.63697165814608
1673609128.1623747,2.510937,68.65156497736932
1673609128.1633818,2.502403,68.66616175226844
1673609128.1643898,2.504494,68.68077234987105
1673609128.165397,2.526852,68.69536912477017
1673609128.1664038,2.534881,68.7099624439934
1673609128.1674109,2.526683,68.72455921889252
1673609128.168418,2.444224,68.73915599379164
1673609128.1694248,2.413452,68.75374931301488
1673609128.1704319,2.46437,68.76834608791398
1673609128.171439,2.497931,68.7829428628131
1673609128.1724458,2.513894,68.79753618203634
1673609128.1734529,2.507427,68.81213295693546
1673609128.17446,2.475597,68.82672973183456
1673609128.1754668,2.473842,68.8413230510578
1673609128.1764748,2.501225,68.85593364866043
1673609128.177482,2.531203,68.865067
1673609128.1784887,2.543416,68.865067
1673609128.1794958,2.531636,68.85093150429185
1673609128.180503,2.512692,68.8216970944206
1673609128.1815097,2.515649,68.84010024410011
1673609128.1825168,2.53779,68.883179
1673609128.183524,2.521587,68.89833511492608
1673609128.1845307,2.495767,68.89624330750894
1673609128.1855378,2.465068,68.85724181402003
1673609128.186545,2.440137,68.84963849797346
1673609128.1875517,2.424535,68.8557120600016
1673609128.1885588,2.426218,68.86178706024
1673609128.1895669,2.464467,68.86786781331956
1673609128.190574,2.508268,68.87394281355797
1673609128.1915808,2.527765,68.88001637558611
1673609128.1925879,2.522356,68.89191295922747
1673609128.193595,2.509879,68.91013135121602
1673609128.1946018,2.524087,68.87441761406437
1673609128.1956089,2.54844,68.84711949141631
1673609128.196616,2.559379,68.83734136266094
1673609128.1976228,2.575438,68.838900133969
1673609128.1986299,2.551109,68.87457212923223
1673609128.199637,2.514278,68.85430313614688
1673609128.2006438,2.514687,68.81915025506555
1673609128.2016518,2.520793,68.80792171098663
1673609128.202659,2.522741,68.8026084808111
1673609128.2036657,2.51887,68.79729650850257
1673609128.2046728,2.504398,68.79198327832704
1673609128.20568,2.510288,68.7866700481515
1673609128.2066867,2.557047,68.78135807584297
1673609128.2076938,2.580342,68.77604484566744
1673609128.208701,2.55409,68.77073161549193
1673609128.2097077,2.512932,68.76541964318339
1673609128.2107148,2.486776,68.76010641300786
1673609128.211722,2.494277,68.75479318283233
1673609128.2127287,2.494854,68.7494812105238
1673609128.2137358,2.492786,68.74416798034827
1673609128.2147439,2.501729,68.73884971870477
1673609128.215751,2.53279,68.73353648852925
1673609128.2167578,2.517476,68.72822451622072
1673609128.2177649,2.497955,68.72291128604519
1673609128.218772,2.487353,68.71759805586966
1673609128.2197788,2.436772,68.71228608356112
1673609128.2207859,2.395254,68.7069728533856
1673609128.221793,2.378017,68.70165962321008
1673609128.2227998,2.418092,68.69634765090153
1673609128.2238069,2.459105,68.69103442072601
1673609128.224814,2.480766,68.68572119055048
1673609128.2258208,2.513654,68.68040921824195
1673609128.2268288,2.500912,68.67509095659845
1673609128.227836,2.489733,68.66977772642292
1673609128.2288427,2.494349,68.66446575411439
1673609128.2298498,2.486247,68.65915252393886
1673609128.230857,2.520553,68.65383929376334
1673609128.2318637,2.557479,68.6485273214548
1673609128.2328708,2.56058,68.64321409127928
1673609128.233878,2.536684,68.63790086110374
1673609128.2348847,2.52226,68.63258888879521
1673609128.2358918,2.526443,68.62727565861968
1673609128.236899,2.511394,68.62196242844415
1673609128.2379057,2.49168,68.61665045613562
1673609128.2389128,2.485502,68.6113372259601
1673609128.2399209,2.466726,68.6060189643166
1673609128.240928,2.456798,68.60070573414107
1673609128.2419348,2.464298,68.59539376183254
1673609128.2429419,2.489925,68.59008053165701
1673609128.243949,2.525962,68.58476730148148
1673609128.2449558,2.542863,68.57945532917294
1673609128.2459629,2.531492,68.57414209899741
1673609128.24697,2.517187,68.5688288688219
1673609128.2479768,2.50459,68.56351689651336
1673609128.2489839,2.431819,68.55820366633783
1673609128.249991,2.440065,68.5528904361623
1673609128.2509978,2.442181,68.54757846385377
1673609128.2520058,2.459731,68.54226020221027
1673609128.253013,2.521803,68.53694697203474
1673609128.2540197,2.542382,68.53163499972621
1673609128.2550268,2.540314,68.52632176955068
1673609128.256034,2.523895,68.51893863456496
1673609128.2570407,2.524544,68.4838511888412
1673609128.2580478,2.522621,68.46416974105865
1673609128.259055,2.531371,68.430916
1673609128.2600617,2.557287,68.430916
1673609128.2610688,2.551397,68.43275767930376
1673609128.262076,2.553368,68.44703439856973
1673609128.2630827,2.507451,68.43509967429661
1673609128.2640898,2.468746,68.4715365810682
1673609128.2650979,2.483338,68.50053019857764
1673609128.266105,2.477112,68.47942711440999
1673609128.2671118,2.494301,68.45832902623765
1673609128.2681189,2.559379,68.43722594207001
1673609128.269126,2.593756,68.45645797854077
1673609128.2701328,2.600993,68.46967328775105
1673609128.2711399,2.569427,68.4733170708482
1673609128.272147,2.533655,68.47696085394534
1673609128.2731538,2.49959,68.48060377440443
1673609128.2741609,2.471703,68.48424755750158
1673609128.275168,2.460404,68.48789134059872
1673609128.2761748,2.473241,68.49153426105781
1673609128.2771828,2.478723,68.49518149470713
1673609128.27819,2.448095,68.49882527780427
1673609128.2791967,2.406721,68.50246819826337
1673609128.2802038,2.400254,68.5061119813605
1673609128.281211,2.418189,68.50975576445765
1673609128.2822177,2.480574,68.51339868491675
1673609128.2832248,2.520457,68.51704246801388
1673609128.284232,2.542094,68.52068625111103
1673609128.2852387,2.542598,68.52432917157013
1673609128.2862458,2.553849,68.52797295466726
1673609128.287253,2.582914,68.53161673776441
1673609128.2882597,2.581328,68.53525965822351
1673609128.2892668,2.567697,68.53890344132064
1673609128.2902749,2.576135,68.54255067496996
1673609128.291282,2.563946,68.5461944580671
1673609128.2922888,2.539209,68.5498373785262
1673609128.2932959,2.547671,68.55348116162334
1673609128.294303,2.545291,68.55712494472048
1673609128.2953098,2.50798,68.56076786517959
1673609128.2963169,2.483362,68.56441164827672
1673609128.297324,2.451629,68.56805543137386
1673609128.2983308,2.421097,68.57169835183296
1673609128.2993379,2.427636,68.5753421349301
1673609128.300345,2.469611,68.57898591802724
1673609128.3013518,2.460572,68.58262883848634
1673609128.3023598,2.474467,68.58627607213565
1673609128.303367,2.509999,68.5899198552328
1673609128.3043737,2.539497,68.5935627756919
1673609128.3053808,2.56272,68.59720655878903
1673609128.306388,2.55885,68.60085034188617
1673609128.3073947,2.538752,68.60449326234527
1673609128.3084018,2.515384,68.6081370454424
1673609128.309409,2.482882,68.61178082853955
1673609128.3104157,2.470453,68.61542374899865
1673609128.3114228,2.491368,68.61906753209578
1673609128.31243,2.510769,68.62271131519293
1673609128.3134367,2.520192,68.62635423565203
1673609128.3144438,2.517308,68.62999801874916
1673609128.3154519,2.502787,68.63364525239848
1673609128.316459,2.469851,68.63728903549563
1673609128.3174658,2.468986,68.64093195595473
1673609128.3184729,2.488026,68.64457573905186
1673609128.31948,2.47966,68.6425890844063
1673609128.3204868,2.493291,68.55874865855985
1673609128.3214939,2.516779,68.57830528373867
1673609128.322501,2.512043,68.61329009296782
1673609128.3235078,2.508581,68.629913
1673609128.3245149,2.515529,68.62476168049595
1673609128.325522,2.501465,68.5774755523242
1673609128.3265288,2.470428,68.59175224177396
1673609128.3275368,2.447542,68.57140319504053
1673609128.328544,2.4774,68.53905427327118
1673609128.3295507,2.521996,68.53582427331769
1673609128.3305578,2.524063,68.5325935085051
1673609128.331565,2.521875,68.52936274369252
1673609128.3325717,2.520793,68.52613274373903
1673609128.3335788,2.530169,68.52290197892644
1673609128.334586,2.5344,68.51967121411387
1673609128.3355927,2.537285,68.51644121416038
1673609128.3365998,2.550724,68.5132104493478
1673609128.337607,2.558297,68.50997968453521
1673609128.3386137,2.571303,68.50674968458172
1673609128.3396208,2.562504,68.50351891976914
1673609128.3406289,2.514375,68.50028509552018
1673609128.341636,2.445378,68.4970543307076
1673609128.3426428,2.447782,68.49382433075411
1673609128.3436499,2.475477,68.49059356594152
1673609128.344657,2.497811,68.48736280112894
1673609128.3456638,2.506682,68.48413280117545
1673609128.3466709,2.478194,68.48090203636286
1673609128.347678,2.42843,68.47767127155028
1673609128.3486848,2.460331,68.47444127159679
1673609128.3496919,2.4655,68.4712105067842
1673609128.3506987,2.45687,68.46798050683073
1673609128.3517058,2.513726,68.46474974201814
1673609128.3527138,2.494565,68.46151591776918
1673609128.353721,2.463289,68.45828515295659
1673609128.3547277,2.458769,68.4550551530031
1673609128.3557348,2.480189,68.45182438819052
1673609128.356742,2.538872,68.44859362337795
1673609128.3577487,2.546685,68.44536362342446
1673609128.3587558,2.509759,68.44213285861187
1673609128.359763,2.536324,68.43890209379929
1673609128.3607697,2.577481,68.4356720938458
1673609128.3617768,2.591352,68.43244132903321
1673609128.362784,2.561927,68.42921056422063
1673609128.3637908,2.528078,68.42598056426714
1673609128.3647978,2.4985560000000002,68.42274979945455
1673609128.3658059,2.479059,68.4195159752056
1673609128.366813,2.481006,68.41628521039301
1673609128.3678198,2.497402,68.41305521043952
1673609128.3688269,2.510841,68.40982444562694
1673609128.369834,2.515048,68.40659368081435
1673609128.3708408,2.532886,68.40336368086086
1673609128.3718479,2.531924,68.40013291604829
1673609128.3728547,2.51262,68.3969029160948
1673609128.3738618,2.51774,68.39367215128222
1673609128.3748689,2.518582,68.39044138646963
1673609128.3758757,2.468385,68.38721138651614
1673609128.3768828,2.402129,68.38398062170356
1673609128.3778908,2.397922,68.38074679745459
1673609128.378898,2.384868,68.37751603264202
1673609128.3799047,2.389604,68.37428603268853
1673609128.3809118,2.439032,68.37105526787595
1673609128.381919,2.450379,68.36782450306336
1673609128.3829257,2.45473,68.36459450310987
1673609128.3839328,2.523702,68.36136373829729
1673609128.38494,2.604407,68.35134974129708
1673609128.3859468,2.600512,68.31438806294707
1673609128.3869538,2.555292,68.37930484883167
1673609128.387961,2.532333,68.38916584672229
1673609128.3889678,2.54606,68.35565183261802
1673609128.3899748,2.56248,68.33743260133524
1673609128.3909829,2.539809,68.31919507699642
1673609128.39199,2.508797,68.31089498688603
1673609128.3929968,2.50673,68.340469
1673609128.3940039,2.512427,68.34142936696108
1673609128.3950107,2.480525,68.34633933024998
1673609128.3960178,2.463409,68.35125045621074
1673609128.3970249,2.491921,68.3561615821715
1673609128.3980317,2.542815,68.36107154546039
1673609128.3990388,2.557696,68.36598267142115
1673609128.4000459,2.550483,68.37089379738191
1673609128.4010527,2.552238,68.3758037606708
1673609128.4020598,2.556494,68.38071488663157
1673609128.4030678,2.545291,68.38563066327978
1673609128.404075,2.529905,68.39054178924054
1673609128.4050817,2.548705,68.39545175252944
1673609128.4060888,2.561326,68.4003628784902
1673609128.407096,2.566374,68.40527400445097
1673609128.4081028,2.492738,68.41018396773985
1673609128.4091098,2.488122,68.41509509370063
1673609128.410117,2.458384,68.42000621966139
1673609128.4111238,2.425545,68.42491618295028
1673609128.4121308,2.417443,68.42982730891104
1673609128.413138,2.411144,68.4347384348718
1673609128.4141448,2.411962,68.4396483981607
1673609128.4151518,2.418453,68.44455952412146
1673609128.4161599,2.444946,68.44947530076968
1673609128.4171667,2.4937,68.45438526405857
1673609128.4181738,2.533415,68.45929639001933
1673609128.4191809,2.546637,68.46420751598009
1673609128.4201877,2.537261,68.46911747926899
1673609128.4211948,2.497186,68.47402860522975
1673609128.4222019,2.464971,68.47893973119051
1673609128.4232087,2.519063,68.4838496944794
1673609128.4242158,2.536492,68.48876082044016
1673609128.4252229,2.511923,68.49367194640092
1673609128.4262297,2.4987,68.49858190968982
1673609128.4272368,2.487497,68.50349303565059
1673609128.4282448,2.489036,68.50840881229881
1673609128.429252,2.522164,68.51331993825957
1673609128.4302588,2.520938,68.51822990154847
1673609128.4312658,2.514014,68.52314102750923
1673609128.432273,2.51048,68.52805215346999
1673609128.4332798,2.517764,68.53296211675888
1673609128.4342868,2.529689,68.53787324271964
1673609128.435294,2.546974,68.5427843686804
1673609128.4363008,2.532405,68.5476943319693
1673609128.4373078,2.488699,68.55260545793006
1673609128.438315,2.479636,68.55751658389082
1673609128.4393218,2.467255,68.57564295155132
1673609128.4403288,2.438839,68.59339983309489
1673609128.4413369,2.438911,68.557541
1673609128.4423437,2.46425,68.557541
1673609128.4433508,2.47579,68.55538237828162
1673609128.4443579,2.457158,68.485184
1673609128.4453647,2.426026,68.485184
1673609128.4463718,2.444345,68.485184
1673609128.4473789,2.475141,68.4851417072409
1673609128.4483857,2.480021,68.48441862091813
1673609128.4493928,2.457302,68.48369536336962
1673609128.4503999,2.514615,68.4829721058211
1673609128.4514067,2.552719,68.48224901949834
1673609128.4524138,2.578082,68.48152576194984
1673609128.4534218,2.585006,68.48080181949835
1673609128.454429,2.593756,68.48007856194984
1673609128.4554358,2.582842,68.47935547562707
1673609128.4564428,2.52339,68.47863221807856
1673609128.45745,2.521322,68.47790896053006
1673609128.4584568,2.518005,68.4771858742073
1673609128.4594638,2.514182,68.47646261665878
1673609128.460471,2.513004,68.47573935911028
1673609128.4614778,2.469203,68.47501627278751
1673609128.4624848,2.41814,68.474293015239
1673609128.463492,2.402947,68.47356975769048
1673609128.4644988,2.391239,68.47284667136773
1673609128.4655058,2.440763,68.47212341381922
1673609128.4665139,2.486969,68.47139947136773
1673609128.4675207,2.493387,68.47067638504497
1673609128.4685278,2.497066,68.46995312749645
1673609128.4695349,2.511658,68.46922986994794
1673609128.4705417,2.523101,68.46850678362519
1673609128.4715488,2.52827,68.46778352607667
1673609128.4725559,2.509014,68.4662445284863
1673609128.4735627,2.502763,68.44803456008583
1673609128.4745698,2.508725,68.43201583190272
1673609128.4755769,2.480285,68.45146292967819
1673609128.4765837,2.47353,68.485184
1673609128.4775908,2.501321,68.48666338173581
1673609128.4785988,2.502162,68.50164736162097
1673609128.479606,2.489853,68.48868620982356
1673609128.4806128,2.476799,68.52323828755364
1673609128.4816198,2.477713,68.54225977716186
1673609128.482627,2.44307,68.56776526260639
1673609128.4836338,2.4342,68.59326470982047
1673609128.4846408,2.468577,68.618770195265
1673609128.485648,2.497234,68.64427568070953
1673609128.4866548,2.51173,68.66977512792361
1673609128.4876618,2.499205,68.69528061336814
1673609128.488669,2.483507,68.72078609881267
1673609128.4896758,2.462687,68.74628554602675
1673609128.4906828,2.469058,68.77179103147128
1673609128.4916909,2.503869,68.79732066983763
1673609128.4926977,2.520361,68.8228201170517
1673609128.4937048,2.49382,68.84832560249625
1673609128.4947119,2.469659,68.87383108794077
1673609128.4957187,2.445114,68.89933053515485
1673609128.4967258,2.490863,68.92483602059939
1673609128.4977329,2.530698,68.95034150604391
1673609128.4987397,2.518053,68.97584095325799
1673609128.4997468,2.502907,69.00134643870253
1673609128.5007539,2.519183,69.02685192414705
1673609128.5017607,2.542598,69.06418930083433
1673609128.5027678,2.555724,69.1417347825465
1673609128.5037758,2.533895,69.208794
1673609128.504783,2.47353,69.25113584105961
1673609128.5057898,2.400711,69.24860047461368
1673609128.5067968,2.37982,69.31104399944934
1673609128.507804,2.418525,69.3256750629139
1673609128.5088108,2.447855,69.36590684768213
1673609128.5098178,2.481006,69.3585486431718
1673609128.510825,2.567192,69.34225190914097
1673609128.5118318,2.61835,69.38770962052506
1673609128.5128388,2.587506,69.43843039008107
1673609128.513846,2.538055,69.43968189759367
1673609128.5148528,2.494541,69.4349114401485
1673609128.5158598,2.480261,69.43013985306622
1673609128.5168679,2.479035,69.42536374743558
1673609128.5178747,2.538151,69.4205932899904
1673609128.5188818,2.577168,69.41582170290813
1673609128.5198889,2.635924,69.41105011582586
1673609128.5208957,2.66119,69.40627965838068
1673609128.5219028,2.617821,69.40150807129841
1673609128.5229099,2.543728,69.39673648421613
1673609128.5239167,2.478122,69.39196602677096
1673609128.5249238,2.444056,69.38719443968868
1673609128.525931,2.415977,69.38242285260642
1673609128.5269377,2.405735,69.37765239516123
1673609128.5279448,2.401841,69.37288080807897
1673609128.5289528,2.400278,69.36810470244832
1673609128.52996,2.448792,69.36333311536606
1673609128.5309668,2.48555,69.35856265792087
1673609128.5319738,2.510047,69.35379107083861
1673609128.532981,2.526539,69.34901948375634
1673609128.5339878,2.515168,69.34424902631116
1673609128.5349948,2.516226,69.33947743922889
1673609128.536002,2.503436,69.33470585214661
1673609128.5370088,2.484685,69.32993539470144
1673609128.5380158,2.478915,69.32516380761916
1673609128.539023,2.489156,69.32039222053689
1673609128.5400298,2.500119,69.31562176309171
1673609128.5410368,2.461437,69.31085017600945
1673609128.5420449,2.423573,69.3060740703788
1673609128.5430517,2.391648,69.30130361293362
1673609128.5440588,2.370444,69.29653202585135
1673609128.5450659,2.401047,69.29176043876909
1673609128.5460727,2.462039,69.2869899813239
1673609128.5470798,2.527958,69.28221839424164
1673609128.548087,2.57111,69.27744680715936
1673609128.5490937,2.591713,69.27267634971419
1673609128.5501008,2.601377,69.26790476263191
1673609128.551108,2.567432,69.26313317554964
1673609128.5521147,2.509038,69.25836271810446
1673609128.5531218,2.489324,69.25359113102219
1673609128.5541298,2.485862,69.24881502539155
1673609128.555137,2.480982,69.24143088116219
1673609128.5561438,2.479444,69.24147861802575
1673609128.5571508,2.482473,69.2878942319809
1673609128.558158,2.502042,69.244972
1673609128.5591648,2.506778,69.244972
1673609128.5601718,2.48656,69.23248647446302
1673609128.561179,2.452831,69.1863995598474
1673609128.5621858,2.44872,69.18146373374613
1673609128.5631928,2.456725,69.19971039427207
1673609128.5642,2.478795,69.1728613007861
1673609128.5652068,2.47252,69.1738190615777
1673609128.5662138,2.463168,69.17477704916563
1673609128.5672219,2.486848,69.17573594393876
1673609128.5682287,2.490142,69.17669370473038
1673609128.5692358,2.500119,69.17765169231829
1673609128.570243,2.507259,69.17860967990622
1673609128.5712497,2.510144,69.17956744069782
1673609128.5722568,2.509807,69.18052542828575
1673609128.573264,2.524832,69.18148341587367
1673609128.5742707,2.51851,69.18244117666528
1673609128.5752778,2.494181,69.1833991642532
1673609128.576285,2.461437,69.18435715184113
1673609128.5772917,2.446893,69.18531491263273
1673609128.5782988,2.456125,69.18627290022066
1673609128.5793068,2.480117,69.18723179499379
1673609128.580314,2.500792,69.1881897825817
1673609128.5813208,2.508341,69.18914754337332
1673609128.5823278,2.488339,69.19010553096125
1673609128.583335,2.469828,69.19106351854916
1673609128.5843418,2.500359,69.19202127934078
1673609128.5853488,2.544257,69.19297926692869
1673609128.586356,2.544858,69.19393725451661
1673609128.5873628,2.552214,69.19489501530823
1673609128.5883698,2.583082,69.19585300289614
1673609128.589377,2.65155,69.19681099048407
1673609128.5903838,2.663234,69.19776875127569
1673609128.5913908,2.583683,69.1987267388636
1673609128.592399,2.492185,69.19968563363673
1673609128.5934057,2.421746,69.20064339442835
1673609128.5944128,2.359674,69.20160138201626
1673609128.59542,2.38619,69.20255936960419
1673609128.5964267,2.435882,69.20351713039581
1673609128.5974338,2.457206,69.20447511798372
1673609128.598441,2.464034,69.20543310557164
1673609128.5994477,2.485358,69.20639086636326
1673609128.6004548,2.534352,69.20734885395117
1673609128.601462,2.562696,69.2083068415391
1673609128.6024687,2.548392,69.208794
1673609128.6034758,2.493652,69.17247810846246
1673609128.605491,2.420064,69.172615
1673609128.6064978,2.436291,69.18209080662851
1673609128.6075048,2.486488,69.20991034874851
1673609128.608512,2.508004,69.23661327753935
1673609128.6095188,2.480357,69.21540538578923
1673609128.6105258,2.45372,69.190704
1673609128.611533,2.480189,69.19702240519759
1673609128.6125398,2.508172,69.20840577770161
1673609128.6135468,2.494998,69.219791845771
1673609128.614554,2.505936,69.23117791384037
1673609128.6155608,2.517452,69.2425612863444
1673609128.6165679,2.502066,69.25394735441378
1673609128.617576,2.498796,69.26534420474458
1673609128.6185827,2.510576,69.27672757724861
1673609128.6195898,2.544906,69.30343230042918
1673609128.620597,2.576063,69.2722589544696
1673609128.6216037,2.573322,69.26775424582738
1673609128.6226108,2.557936,69.281151
1673609128.623618,2.504181,69.30444463003576
1673609128.6246247,2.455595,69.3291000085837
1673609128.6256318,2.446941,69.32351859227468
1673609128.626639,2.458961,69.32935593921336
1673609128.6276457,2.471054,69.335419
1673609128.6286528,2.446268,69.32811616835015
1673609128.6296608,2.409293,69.31727093750521
1673609128.630668,2.385253,69.30643596704897
1673609128.6316748,2.396215,69.29560356168989
1673609128.6326818,2.442133,69.28476859123363
1673609128.633689,2.483242,69.27393362077738
1673609128.6346958,2.479492,69.2631012154183
1673609128.6357028,2.48793,69.25226624496204
1673609128.63671,2.501321,69.2414312745058
1673609128.6377168,2.506826,69.23059886914672
1673609128.6387239,2.516106,69.21976389869047
1673609128.639731,2.498267,69.20892892823422
1673609128.6407378,2.436652,69.19809652287513
1673609128.6417458,2.425136,69.1872512920302
1673609128.642753,2.456702,69.17641632157394
1673609128.6437597,2.480646,69.16558391621487
1673609128.6447668,2.4793,69.15474894575861
1673609128.645774,2.477496,69.14391397530237
1673609128.6467807,2.520529,69.13308156994329
1673609128.6477878,2.617124,69.12224659948703
1673609128.648795,2.684702,69.11141162903078
1673609128.6498017,2.657416,69.1005792236717
1673609128.6508088,2.595752,69.08974425321544
1673609128.651816,2.55885,69.0789092827592
1673609128.6528227,2.51774,69.06807687740012
1673609128.6538298,2.459754,69.05724190694387
1673609128.6548378,2.407394,69.04639667609892
1673609128.655845,2.406721,69.03556170564268
1673609128.6568518,2.467111,69.0247293002836
1673609128.6578588,2.534136,69.01389432982734
1673609128.658866,2.563009,69.0030593593711
1673609128.6598728,2.535266,68.99222695401201
1673609128.6608799,2.519615,68.98139198355577
1673609128.661887,2.500383,68.97055701309951
1673609128.6628938,2.478434,68.95972460774043
1673609128.6639009,2.460596,68.94888963728418
1673609128.664908,2.45824,68.93805466682792
1673609128.6659148,2.467135,68.92722226146884
1673609128.6669228,2.491007,68.9163770306239
1673609128.66793,2.530578,68.90554206016765
1673609128.6689367,2.549522,68.89470965480858
1673609128.6699438,2.569932,68.88387468435232
1673609128.670951,2.543632,68.87303971389608
1673609128.6719577,2.48918,68.862207308537
1673609128.6729648,2.481367,68.85137233808074
1673609128.673972,2.495623,68.84053736762449
1673609128.6749787,2.512139,68.82970496226541
1673609128.6759858,2.5303619999999998,68.81886999180915
1673609128.676993,2.558513,68.80803502135291
1673609128.6779997,2.541396,68.79720261599383
1673609128.6790068,2.53517,68.78636764553758
1673609128.6800148,2.546108,68.77552241469263
1673609128.681022,2.530963,68.76468744423639
1673609128.6820288,2.498652,68.7538550388773
1673609128.6830359,2.490214,68.74302006842105
1673609128.684043,2.479396,68.7321850979648
1673609128.6850498,2.455884,68.72135269260572
1673609128.6860569,2.473289,68.7369092353362
1673609128.687064,2.483675,68.68841219599427
1673609128.6880708,2.483242,68.684181
1673609128.6890779,2.495383,68.61646492346209
1673609128.690085,2.548632,68.64594129732951
1673609128.6910918,2.5889,68.648003
1673609128.6920998,2.56974,68.59600995565093
1673609128.693107,2.527044,68.593719
1673609128.6941137,2.501056,68.6113104135876
1673609128.6951208,2.499662,68.611824
1673609128.696128,2.515937,68.611824
1673609128.6971347,2.510817,68.611824
1673609128.6981418,2.494998,68.611824
1673609128.699149,2.483074,68.611824
1673609128.7001557,2.432324,68.611824
1673609128.7011628,2.33948,68.58540773056748
1673609128.70217,2.314646,68.46900044719905
1673609128.7031767,2.346524,68.57890637744397
1673609128.7041838,2.378257,68.62932252781722
1673609128.7051919,2.395663,68.62852973125045
1673609128.706199,2.429007,68.62773768472773
1673609128.7072058,2.46538,68.62694582571604
1673609128.7082129,2.522741,68.62615377919332
1673609128.70922,2.573106,68.6253617326706
1673609128.7102268,2.576832,68.6245698736589
1673609128.7112339,2.572481,68.62377782713618
1673609128.712241,2.565172,68.62298578061346
1673609128.7132478,2.545916,68.62219392160176
1673609128.7142549,2.563273,68.62140187507904
1673609128.715262,2.58765,68.62060982855633
1673609128.7162688,2.577433,68.61981796954463
1673609128.7172768,2.518774,68.61902517297784
1673609128.718284,2.439152,68.61823312645512
1673609128.7192907,2.37506,68.61744126744343
1673609128.7202978,2.333277,68.6166492209207
1673609128.721305,2.337508,68.61585717439799
1673609128.7223117,2.378305,68.61506531538629
1673609128.7233188,2.400423,68.61427326886357
1673609128.724326,2.452158,68.61348122234085
1673609128.7253327,2.494277,68.61268936332915
1673609128.7263398,2.605777,68.61189731680643
1673609128.727347,2.622172,68.59527739413447
1673609128.7283537,2.603012,68.61039079542203
1673609128.7293608,2.540771,68.611824
1673609128.7303689,2.483603,68.6287527851693
1673609128.731376,2.465813,68.64697212017168
1673609128.7323828,2.465789,68.59644937520858
1673609128.7333899,2.470212,68.57641066499762
1673609128.734397,2.469683,68.54075454601812
1673609128.7354038,2.463481,68.60970200810489
1673609128.7364109,2.493628,68.60297948474101
1673609128.737418,2.567817,68.59386969872445
1673609128.7384248,2.607412,68.5847620693807
1673609128.7394319,2.570678,68.57565228336414
1673609128.740439,2.5125,68.56654249734756
1673609128.7414458,2.480189,68.55743486800381
1673609128.7424538,2.48805,68.54831645529595
1673609128.743461,2.514327,68.53920666927937
1673609128.7444677,2.51387,68.53009903993562
1673609128.7454748,2.497811,68.52098925391905
1673609128.746482,2.482088,68.51187946790249
1673609128.7474887,2.482521,68.50277183855874
1673609128.7484958,2.484612,68.49366205254218
1673609128.749503,2.494902,68.4845522665256
1673609128.7505097,2.483603,68.47544463718187
1673609128.7515168,2.499253,68.46405832514898
1673609128.752524,2.545723,68.435845925608
1673609128.7535307,2.583203,68.48695235717692
1673609128.7545378,2.578058,68.50706769845053
1673609128.7555459,2.525385,68.53537172651406
1673609128.756553,2.480021,68.49459499070099
1673609128.7575598,2.466678,68.44238614827175
1673609128.7585669,2.460908,68.51410297567953
1673609128.759574,2.437301,68.46964316309013
1673609128.7605808,2.458336,68.48087572911004
1673609128.7615879,2.494493,68.45152389646614
1673609128.762595,2.498796,68.42217206382225
1673609128.7636018,2.505648,68.39282718000237
1673609128.7646089,2.494108,68.36347534735847
1673609128.765616,2.483723,68.33412351471458
1673609128.7666228,2.495431,68.30477863089469
1673609128.7676308,2.510216,68.27539900295473
1673609128.768638,2.510336,68.24754941630901
1673609128.7696447,2.489517,68.22933508915375
1673609128.7706518,2.462495,68.21112039437291
1673609128.771659,2.44997,68.19857799761564
1673609128.7726657,2.468217,68.20494172562574
1673609128.7736728,2.505143,68.15338468907963
1673609128.77468,2.528126,68.12660054744873
1673609128.7756867,2.532814,68.13812937362898
1673609128.7766938,2.535122,68.11297057926103
1673609128.777701,2.534977,68.06693805481947
1673609128.7787077,2.544137,68.05587954103372
1673609128.7797148,2.558008,68.04481840860865
1673609128.7807229,2.562504,68.03374680162635
1673609128.78173,2.521058,68.0226856692013
1673609128.7827368,2.474251,68.01162715541552
1673609128.7837439,2.439056,68.00056602299045
1673609128.784751,2.430113,67.98950489056539
1673609128.7857578,2.444633,67.97844637677963
1673609128.7867649,2.4511,67.96738524435456
1673609128.787772,2.46675,67.95632411192949
1673609128.7887788,2.497186,67.94526559814373
1673609128.7897859,2.499542,67.93420446571866
1673609128.790793,2.484949,67.9231433332936
1673609128.7917998,2.484516,67.91208481950783
1673609128.7928078,2.475477,67.90101321252554
1673609128.793815,2.451509,67.88995208010047
1673609128.7948217,2.472929,67.87889356631472
1673609128.7958288,2.447782,67.86783243388965
1673609128.796836,2.44634,67.85677130146458
1673609128.7978427,2.473313,67.8457127876788
1673609128.7988498,2.442301,67.83465165525375
1673609128.799857,2.438575,67.82359052282868
1673609128.8008637,2.442205,67.81253200904291
1673609128.8018708,2.431844,67.80147087661784
1673609128.802878,2.442253,67.79040974419279
1673609128.8038847,2.467904,67.77935123040702
1673609128.8048918,2.513365,67.76829009798195
1673609128.8058999,2.518414,67.77598298116806
1673609128.806907,2.46651,67.79044400858369
1673609128.8079138,2.444008,67.78712707725322
1673609128.8089209,2.442445,67.76744864830711
1673609128.809928,2.486416,67.75622469034566
1673609128.8109348,2.506682,67.78211113662375
1673609128.8119419,2.488243,67.77750465450644
1673609128.812949,2.487041,67.76542011561384
1673609128.8139558,2.505816,67.74181779017644
1673609128.8149629,2.521707,67.75746433643542
1673609128.81597,2.545748,67.74845110369007
1673609128.8169768,2.533222,67.73944000475929
1673609128.8179848,2.512692,67.73041823675565
1673609128.818992,2.49293,67.72140500401031
1673609128.8199987,2.467712,67.71239390507952
1673609128.8210058,2.452711,67.70338067233418
1673609128.822013,2.456653,67.69436743958883
1673609128.8230197,2.459105,67.68535634065805
1673609128.8240268,2.491344,67.67634310791269
1673609128.825034,2.525626,67.66732987516734
1673609128.8260407,2.564211,67.65831877623656
1673609128.8270478,2.636452,67.64930554349121
1673609128.828055,2.648257,67.64029231074586
1673609128.8290617,2.627053,67.63128121181508
1673609128.8300688,2.574789,67.62226797906972
1673609128.8310769,2.5280300000000002,67.6132462110661
1673609128.832084,2.487978,67.60423297832074
1673609128.8330908,2.464947,67.59522187938995
1673609128.8340979,2.46062,67.58620864664461
1673609128.835105,2.502883,67.57719541389926
1673609128.8361118,2.5303619999999998,67.56818431496848
1673609128.8371189,2.534881,67.55917108222313
1673609128.838126,2.521467,67.55015784947777
1673609128.8391328,2.51161,67.54114675054699
1673609128.8401399,2.489781,67.53213351780164
1673609128.841147,2.425857,67.5231202850563
1673609128.8421538,2.396047,67.51410918612551
1673609128.8431618,2.45812,67.50508741812187
1673609128.844169,2.513245,67.49607418537653
1673609128.8451757,2.529712,67.48706308644574
1673609128.8461828,2.514495,67.4780498537004
1673609128.84719,2.494517,67.46903662095504
1673609128.8481967,2.501176,67.46002552202425
1673609128.8492038,2.515649,67.4510122892789
1673609128.850211,2.514904,67.44199905653356
1673609128.8512177,2.50572,67.43298795760278
1673609128.8522248,2.490959,67.42397472485743
1673609128.853232,2.485718,67.41496149211207
1673609128.8542387,2.48067,67.40595039318129
1673609128.8552458,2.500984,67.38830855293276
1673609128.8562539,2.52488,67.3694713079857
1673609128.857261,2.529689,67.381683
1673609128.8582678,2.509134,67.381683
1673609128.8592749,2.507403,67.37542623265793
1673609128.860282,2.47276,67.36997733810205
1673609128.8612888,2.470212,67.37517458297567
1673609128.8622959,2.47954,67.37686682026222
1673609128.863303,2.475188,67.39300973819742
1673609128.8643098,2.452831,67.38053509675753
1673609128.8653169,2.44997,67.37749893940237
1673609128.8663237,2.451533,67.37446350083447
1673609128.8673308,2.468505,67.3714273434793
1673609128.8683388,2.5197600000000002,67.36838831097513
1673609128.869346,2.550796,67.36535215361997
1673609128.8703527,2.547022,67.35592968121126
1673609128.8713598,2.534328,67.35329871077731
1673609128.872367,2.51774,67.37151521406436
1673609128.8733737,2.535002,67.38972731330472
1673609128.8743808,2.575846,67.3670790538865
1673609128.875388,2.588684,67.3440168057211
1673609128.8763947,2.550003,67.37201741845493
1673609128.8774018,2.484372,67.39878909370529
1673609128.878409,2.442758,67.44390908726753
1673609128.8794158,2.430185,67.47480193888043
1673609128.8804228,2.408669,67.48032900539899
1673609128.8814309,2.406817,67.48586130588205
1673609128.882438,2.400374,67.49138837240062
1673609128.8834448,2.431988,67.49691413042805
1673609128.8844519,2.446051,67.5024411969466
1673609128.885459,2.456245,67.50796826346517
1673609128.8864658,2.473193,67.5134940214926
1673609128.8874729,2.4902860000000002,67.51902108801117
1673609128.8884797,2.466029,67.5245468460386
1673609128.8894868,2.478242,67.53007391255716
1673609128.8904939,2.504158,67.53560097907572
1673609128.8915007,2.499518,67.54112673710316
1673609128.8925078,2.483098,67.54665380362172
1673609128.8935158,2.470236,67.55218610410478
1673609128.894523,2.481391,67.55771317062334
1673609128.8955297,2.5532,67.56323892865078
1673609128.8965368,2.558297,67.56876599516934
1673609128.897544,2.507138,67.5742930616879
1673609128.8985507,2.521659,67.57981881971533
1673609128.8995578,2.522621,67.5853458862339
1673609128.900565,2.560172,67.59087295275245
1673609128.9015718,2.668763,67.5963987107799
1673609128.9025788,2.712036,67.60192577729845
1673609128.903586,2.692515,67.60745284381701
1673609128.9045928,2.609479,67.61297860184445
1673609128.9055998,2.538391,67.618505668363
1673609128.9066079,2.483459,67.62403796884607
1673609128.907615,2.497354,67.62956503536464
1673609128.9086218,2.519375,67.63509079339207
1673609128.9096289,2.503076,67.64061785991062
1673609128.9106357,2.507235,67.64614361793807
1673609128.9116428,2.455764,67.65167068445662
1673609128.9126499,2.463313,67.65719775097519
1673609128.9136567,2.474515,67.66272350900262
1673609128.9146638,2.498412,67.66825057552117
1673609128.9156709,2.483314,67.67377764203974
1673609128.9166777,2.472592,67.67930340006717
1673609128.9176848,2.505552,67.68483046658574
1673609128.9186928,2.514543,67.69036276706879
1673609128.9197,2.506922,67.69588983358736
1673609128.9207067,2.479251,67.70141559161479
1673609128.9217138,2.449634,67.70694265813336
1673609128.922721,2.428045,67.71246972465191
1673609128.9237278,2.460452,67.71799548267934
1673609128.9247348,2.496464,67.72352254919791
1673609128.925742,2.521611,67.71334860586552
1673609128.9267488,2.50108,67.7194745716329
1673609128.9277558,2.475381,67.725395
1673609128.928763,2.471703,67.725395
1673609128.9297698,2.487113,67.71284397711015
1673609128.9307768,2.48692,67.707306
1673609128.9317849,2.471462,67.707306
1673609128.9327917,2.447806,67.66846180925131
1673609128.9337988,2.457471,67.67918692205006
1673609128.9348059,2.487377,67.69542967085555
1673609128.9358127,2.498412,67.70400076168303
1673609128.9368198,2.499902,67.71257388213184
1673609128.9378269,2.50072,67.72114700258065
1673609128.9388337,2.493772,67.73024375995894
1673609128.9398408,2.508557,67.73985932900428
1673609128.9408479,2.508028,67.74947489804961
1673609128.9418547,2.481848,67.75908819068181
1673609128.9428618,2.444874,67.76870375972715
1673609128.9438698,2.464779,67.77832843442498
1673609128.944877,2.512764,67.78794400347032
1673609128.9458838,2.51298,67.79755729610253
1673609128.9468908,2.498436,67.80717286514786
1673609128.947898,2.494325,67.81678843419319
1673609128.9489048,2.495431,67.8264017268254
1673609128.9499118,2.50548,67.83601729587073
1673609128.950919,2.492594,67.84563286491606
1673609128.9519258,2.492882,67.85524615754827
1673609128.9529328,2.507114,67.8648617265936
1673609128.95394,2.487065,67.87447729563893
1673609128.9549468,2.478747,67.88409058827114
1673609128.9559538,2.47502,67.89370615731647
1673609128.9569619,2.462952,67.9033308320143
1673609128.9579687,2.464298,67.91294412464651
1673609128.9589758,2.467688,67.92255969369184
1673609128.9599829,2.475838,67.93217526273718
1673609128.9609897,2.496753,67.941788555369385
1673609128.9619968,2.500551,67.95140412441471
1673609128.9630039,2.48341,67.96101969346005
1673609128.9640107,2.461125,67.97063298609226
1673609128.9650178,2.503604,67.98024855513758
1673609128.9660249,2.574116,67.98986412418292
1673609128.9670317,2.566062,67.99947741681513
1673609128.9680388,2.507331,68.00909298586045
1673609128.9690468,2.499301,68.0187176605583
1673609128.970054,2.446436,68.02833322960362
1673609128.9710608,2.420713,68.03794652223583
1673609128.9720678,2.394701,68.04756209128116
1673609128.973075,2.351668,68.05717766032649
1673609128.9740818,2.363039,68.0667909529587
1673609128.9750888,2.396215,68.11051298927295
1673609128.976096,2.418862,68.1373098910348
1673609128.9771028,2.447903,68.18362868669527
1673609128.9781098,2.487161,68.15320527199046
1673609128.979117,2.529088,68.17008488173582
1673609128.9801238,2.538247,68.17765
1673609128.9811308,2.558705,68.13397767771157
1673609128.9821389,2.627125,68.18219678469242
1673609128.9831457,2.664075,68.22539664377682
1673609128.9841528,2.628399,68.22693249161567
1673609128.9851599,2.502907,68.22086017690535
1673609128.9861667,2.471943,68.21478929976952
1673609128.9871738,2.50423,68.20871698505921
1673609128.9881809,2.501777,68.20264467034889
1673609128.9891877,2.479804,68.19657379321306
1673609128.9901948,2.502499,68.19574
1673609128.9912019,2.531588,68.17989669606675
1673609128.9922087,2.540963,68.22555179685264
1673609128.9932158,2.499157,68.21582163662374
1673609128.9942238,2.465356,68.13263242407629
1673609128.995231,2.455788,68.13975108655221
1673609128.9962378,2.48055,68.17445833094898
1673609128.9972448,2.505888,68.26076462517882
1673609128.998252,2.489541,68.23460016185935
1673609128.9992588,2.4536,68.231918
1673609129.0002658,2.443431,68.231918
1673609129.001273,2.445763,68.231918
1673609129.0022798,2.474323,68.231918
1673609129.0032868,2.476703,68.231918
1673609129.004294,2.473914,68.231918
1673609129.0053008,2.480718,68.231918
1673609129.0063078,2.478867,68.231918
1673609129.0073159,2.500864,68.231918
1673609129.0083227,2.518991,68.231918
1673609129.0093298,2.518414,68.231918
1673609129.0103369,2.511802,68.231918
1673609129.0113437,2.488844,68.231918
1673609129.0123508,2.464851,68.231918
1673609129.0133579,2.47865,68.231918
1673609129.0143647,2.502835,68.231918
1673609129.0153718,2.511826,68.231918
1673609129.0163789,2.496825,68.231918
1673609129.0173857,2.489324,68.231918
1673609129.0183928,2.492426,68.231918
1673609129.0194008,2.49257,68.231918
1673609129.020408,2.491969,68.231918
1673609129.0214148,2.472953,68.231918
1673609129.0224218,2.473241,68.231918
1673609129.023429,2.471727,68.231918
1673609129.0244358,2.462687,68.231918
1673609129.0254428,2.441724,68.231918
1673609129.02645,2.451148,68.231918
1673609129.0274568,2.471054,68.231918
1673609129.0284638,2.489276,68.231918
1673609129.029471,2.494084,68.231918
1673609129.0304778,2.503124,68.231918
1673609129.0314848,2.511081,68.231918
1673609129.0324929,2.517115,68.231918
1673609129.0334997,2.520241,68.231918
1673609129.0345068,2.517091,68.231918
1673609129.0355139,2.491729,68.231918
1673609129.0365207,2.510408,68.231918
1673609129.0375278,2.52476,68.231918
1673609129.0385349,2.503364,68.231918
1673609129.0395417,2.514086,68.231918
1673609129.0405488,2.516779,68.231918
1673609129.041556,2.511346,68.231918
1673609129.0425627,2.492979,68.231918
1673609129.0435698,2.489661,68.231918
1673609129.0445778,2.508725,68.231918
1673609129.045585,2.52839,68.23249582908224
1673609129.0465918,2.498989,68.2676872587029
1673609129.0475988,2.500191,68.25162542966142
1673609129.048606,2.486079,68.30227038721983
1673609129.0496128,2.453913,68.25318236185934
1673609129.0506198,2.460524,68.32238
1673609129.051627,2.469491,68.32447620815451
1673609129.0526338,2.500599,68.35621318641239
1673609129.0536408,2.538584,68.32497653767287
1673609129.054648,2.579236,68.35829971714438
1673609129.0556548,2.569235,68.35499170657256
1673609129.0566618,2.561734,68.35168291266886
1673609129.0576699,2.568995,68.3483709854376
1673609129.0586767,2.509398,68.34506297486578
1673609129.0596838,2.474059,68.34175418096207
1673609129.0606909,2.47466,68.33844538705836
1673609129.0616977,2.402995,68.33513737648654
1673609129.0627048,2.372007,68.33182858258284
1673609129.063712,2.427564,68.32851978867913
1673609129.0647187,2.480429,68.32521177810732
1673609129.0657258,2.485646,68.32190298420362
1673609129.066733,2.508605,68.3185941902999
1673609129.0677397,2.539185,68.31528617972809
1673609129.0687468,2.529448,68.31197738582438
1673609129.0697548,2.543921,68.30866545859311
1673609129.070762,2.521515,68.30535666468941
1673609129.0717688,2.460932,68.3020486541176
1673609129.0727758,2.44872,68.29873986021389
1673609129.073783,2.484372,68.29543106631019
1673609129.0747898,2.495214,68.29212305573836
1673609129.0757968,2.489877,68.28881426183466
1673609129.076804,2.48769,68.28550546793095
1673609129.0778108,2.489132,68.28219745735913
1673609129.0788178,2.530049,68.27888866345543
1673609129.079825,2.529929,68.27557986955172
1673609129.0808318,2.529232,68.2722718589799
1673609129.0818388,2.533006,68.26896306507619
1673609129.0828469,2.512572,68.26565113784493
1673609129.0838537,2.496657,68.26234312727311
1673609129.0848608,2.499349,68.25903433336941
1673609129.085868,2.503556,68.2557255394657
1673609129.0868747,2.49983,68.25241752889389
1673609129.0878818,2.491368,68.24505632618025
1673609129.088889,2.479516,68.21667534287076
1673609129.0898957,2.487185,68.19326790081068
1673609129.0909028,2.494421,68.24258627723479
1673609129.09191,2.486439,68.25171567238912
1673609129.0929167,2.495743,68.213829
1673609129.0939238,2.52452,68.20240178307509
1673609129.0949318,2.556614,68.15422110014306
1673609129.095939,2.570197,68.1112798669528
1673609129.0969458,2.573298,68.12297556886276
1673609129.0979528,2.549546,68.1217610387825
1673609129.09896,2.503941,68.12054650870222
1673609129.0999668,2.469587,68.11933226615275
1673609129.1009738,2.431868,68.11811773607248
1673609129.101981,2.412996,68.11690320599222
1673609129.1029878,2.439512,68.11568896344275
1673609129.1039948,2.453384,68.11447443336247
1673609129.105002,2.483002,68.11325990328221
1673609129.1060088,2.517211,68.11204566073273
1673609129.1070158,2.525217,68.11083113065247
1673609129.108024,2.490142,68.10961545044903
1673609129.1090307,2.48216,68.10840120789955
1673609129.1100378,2.48793,68.10718667781929
1673609129.111045,2.495286,68.10597214773901
1673609129.1120517,2.501994,68.07317943490702
1673609129.1130588,2.495647,68.02476499165475
1673609129.114066,2.479468,68.03140938283671
1673609129.1150727,2.475141,68.051033
1673609129.1160798,2.482569,68.051033
1673609129.117087,2.473145,68.051033
1673609129.1180937,2.475742,68.05981871602289
1673609129.1191008,2.471655,68.069122
1673609129.1201088,2.461173,68.07818209296781
1673609129.121116,2.428117,68.08188935391628
1673609129.1221228,2.399677,68.07133652085923
1673609129.1231298,2.392561,68.06078118890731
1673609129.124137,2.41653,68.05521082598332
1673609129.1251438,2.470212,68.10226581330473
1673609129.1261508,2.480045,68.069122
1673609129.127158,2.478482,68.069122
1673609129.1281648,2.483362,68.06859827851389
1673609129.1291718,2.473818,68.0635590995678
1673609129.130179,2.456725,68.0585199206217
1673609129.1311858,2.451437,68.05348193466307
1673609129.1321929,2.477424,68.04844275571698
1673609129.133201,2.522597,68.04339880482112
1673609129.1342077,2.618999,68.03836081886249
1673609129.1352148,2.688741,68.0333216399164
1673609129.136222,2.691145,68.0282824609703
1673609129.1372287,2.631957,68.02324447501167
1673609129.1382358,2.555797,68.01820529606557
1673609129.139243,2.466053,68.01316611711948
1673609129.1402497,2.423501,68.00812813116084
1673609129.1412568,2.431507,68.00308895221475
1673609129.142264,2.47389,67.99804977326866
1673609129.1432707,2.487329,67.99301178731002
1673609129.1442778,2.490743,67.98797260836393
1673609129.1452858,2.444008,67.9829286574681
1673609129.146293,2.37982,67.977889478522
1673609129.1472998,2.414751,67.97285149256335
1673609129.1483068,2.484853,67.96781231361727
1673609129.149314,2.510119,67.96277313467118
1673609129.1503208,2.516659,67.95773514871253
1673609129.1513278,2.521515,67.95269596976645
1673609129.152335,2.512331,67.94765679082036
1673609129.1533418,2.511249,67.94261880486171
1673609129.1543489,2.528078,67.93757962591563
1673609129.155356,2.509615,67.93254044696954
1673609129.1563628,2.494661,67.92750246101089
1673609129.1573708,2.483987,67.92245851011505
1673609129.158378,2.456004,67.91741933116896
1673609129.1593847,2.436243,67.9123813452103
1673609129.1603918,2.461534,67.90734216626423
1673609129.161399,2.492378,67.90230298731814
1673609129.1624057,2.49846,67.89726500135949
1673609129.1634128,2.524616,67.89222582241341
1673609129.16442,2.554234,67.88718664346732
1673609129.1654267,2.566615,67.88214865750867
1673609129.1664338,2.548632,67.87710947856259
1673609129.167441,2.51137,67.8720702996165
1673609129.1684477,2.481151,67.86703231365784
1673609129.1694548,2.512283,67.86199313471177
1673609129.1704628,2.52916,67.85694918381591
1673609129.17147,2.513822,67.85191000486984
1673609129.1724768,2.504326,67.84687201891118
1673609129.1734838,2.5031,67.8418328399651
1673609129.174491,2.497041,67.83679366101902
1673609129.1754978,2.483627,67.8418652274678
1673609129.1765049,2.49858,67.87618054506437
1673609129.177512,2.485959,67.906303
1673609129.1785188,2.464995,67.83137572981701
1673609129.1795259,2.46389,67.81305305597417
1673609129.180533,2.461678,67.80375866666667
1673609129.1815398,2.474636,67.77217373627556
1673609129.1825478,2.488026,67.76604934337998
1673609129.183555,2.474059,67.77330233046287
1673609129.1845617,2.468241,67.74175784714747
1673609129.1855688,2.463072,67.63732918979495
1673609129.186576,2.459442,67.62825475107297
1673609129.1875827,2.474708,67.634949
1673609129.1885898,2.476727,67.62330307725323
1673609129.189597,2.465188,67.6191566222044
1673609129.1906037,2.479612,67.62271078285242
1673609129.1916108,2.504326,67.62626578512032
1673609129.192618,2.483074,67.62982078738821
1673609129.1936247,2.452062,67.63337494803625
1673609129.1946318,2.430641,67.63692995030414
1673609129.1956398,2.426482,67.64048831905144
1673609129.196647,2.455932,67.64404332131933
1673609129.1976538,2.483627,67.64759748196737
1673609129.1986609,2.5294,67.65115248423525
1673609129.199668,2.553633,67.65470748650316
1673609129.2006748,2.553849,67.65826164715118
1673609129.2016819,2.543512,67.66181664941908
1673609129.202689,2.519976,67.66537165168697
1673609129.2036958,2.508821,67.668925812335
1673609129.2047029,2.456365,67.67248081460289
1673609129.20571,2.441604,67.67603581687078
1673609129.2067168,2.446652,67.67958997751882
1673609129.2077248,2.436243,67.68314834626612
1673609129.208732,2.441628,67.68670334853401
1673609129.2097387,2.49293,67.69025750918205
1673609129.2107458,2.550604,67.69381251144993
1673609129.211753,2.587001,67.69736751371784
1673609129.2127597,2.537405,67.70092167436587
1673609129.2137668,2.455067,67.70447667663376
1673609129.214774,2.466222,67.70803167890165
1673609129.2157807,2.529616,67.71158583954968
1673609129.2167878,2.602195,67.71514084181757
1673609129.217795,2.602748,67.71869584408546
1673609129.2188017,2.587121,67.7222500047335
1673609129.2198088,2.539665,67.72580500700138
1673609129.2208169,2.500623,67.72936337574869
1673609129.221824,2.4608120000000002,67.73291837801659
1673609129.2228308,2.445907,67.73647253866461
1673609129.2238379,2.447614,67.74002754093252
1673609129.224845,2.444561,67.7435825432004
1673609129.2258518,2.400951,67.74713670384844
1673609129.2268589,2.421386,67.75069170611633
1673609129.227866,2.447374,67.75424670838422
1673609129.2288728,2.471294,67.75780086903225
1673609129.2298799,2.507355,67.76135587130014
1673609129.230887,2.476559,67.8466889544696
1673609129.2318938,2.447566,67.81774617525035
1673609129.2329018,2.476583,67.815857
1673609129.233909,2.522981,67.815857
1673609129.2349157,2.51024,67.8509404508822
1673609129.2359228,2.516202,67.852036
1673609129.23693,2.550436,67.8164434533969
1673609129.2379367,2.534833,67.85169957153076
1673609129.2389438,2.491031,67.92423772746781
1673609129.239951,2.474035,67.92502413437605
1673609129.2409577,2.494469,67.92565646663465
1673609129.2419648,2.527645,67.92628894862858
1673609129.242972,2.557936,67.92692143062251
1673609129.2439787,2.568875,67.92755376288113
1673609129.2449858,2.546901,67.92818624487506
1673609129.2459939,2.49834,67.92881932581028
1673609129.247001,2.455067,67.92945180780421
1673609129.2480078,2.418333,67.93008414006282
1673609129.2490149,2.401072,67.93071662205675
1673609129.250022,2.421698,67.93134910405068
1673609129.2510288,2.425545,67.9319814363093
1673609129.2520359,2.424824,67.93261391830323
1673609129.253043,2.421626,67.93324640029716
1673609129.2540498,2.438839,67.93387873255578
1673609129.2550569,2.470092,67.93451121454972
1673609129.256064,2.517211,67.93514369654365
1673609129.2570708,2.526203,67.93577602880225
1673609129.2580788,2.514038,67.93640910973747
1673609129.259086,2.539617,67.9370415917314
1673609129.2600927,2.559691,67.93767392399002
1673609129.2610998,2.533848,67.93830640598395
1673609129.262107,2.492834,67.93893888797788
1673609129.2631137,2.493171,67.93957122023649
1673609129.2641208,2.490743,67.94020370223042
1673609129.265128,2.473337,67.94083618422435
1673609129.2661347,2.495383,67.94146851648297
1673609129.2671418,2.506177,67.9421009984769
1673609129.268149,2.519976,67.94273348047084
1673609129.2691557,2.517884,67.94336581272944
1673609129.2701628,2.522621,67.94399829472337
1673609129.2711709,2.513052,67.94463137565859
1673609129.272178,2.507331,67.94526385765252
1673609129.2731848,2.503124,67.94589618991114
1673609129.2741919,2.52089,67.94652867190507
1673609129.275199,2.508677,67.947161153899
1673609129.2762058,2.505095,67.94779348615762
1673609129.2772129,2.517115,67.94842596815155
1673609129.27822,2.500119,67.94905845014549
1673609129.2792268,2.500263,67.94969078240409
1673609129.2802339,2.489421,67.95032326439802
1673609129.281241,2.473963,67.95095574639195
1673609129.2822478,2.474179,67.95158807865057
1673609129.2832558,2.490575,67.95222115958579
1673609129.284263,2.535122,67.95285364157972
1673609129.2852697,2.591184,67.95348597383833
1673609129.2862768,2.613277,67.95411845583226
1673609129.287284,2.585607,67.95475093782619
1673609129.2882907,2.512644,67.95538327008481
1673609129.2892978,2.456245,67.95601575207874
1673609129.290305,2.46514,67.95664823407267
1673609129.2913117,2.447157,67.95728056633128
1673609129.293326,2.48918,67.95854553031914
1673609129.2943327,2.503027,67.95917786257776
1673609129.2953398,2.492738,67.9598103445717
1673609129.2963479,2.479564,67.96044342550691
1673609129.297355,2.479107,67.960571
1673609129.2983618,2.48204,67.960571
1673609129.2993689,2.491248,67.99015945255127
1673609129.300376,2.515841,67.99675
1673609129.3013828,2.516538,68.00787667520585
1673609129.3023899,2.477064,68.0316283569794
1673609129.303397,2.445691,67.96892879828326
1673609129.3044038,2.427829,68.05315252765855
1673609129.3054109,2.418453,68.00689415637665
1673609129.306418,2.410928,68.01159575813939
1673609129.3074248,2.417852,68.02883823245806
1673609129.3084328,2.433166,68.04610112173566
1673609129.30944,2.429463,68.0633476790461
1673609129.3104467,2.41088,68.08059015336477
1673609129.3114538,2.421194,68.09783671067521
1673609129.312461,2.463096,68.11508326798567
1673609129.3134677,2.493003,68.13232574230432
1673609129.3144748,2.480237,68.14957229961477
1673609129.315482,2.459202,68.16681885692522
1673609129.3164887,2.435161,68.18406133124388
1673609129.3174958,2.425473,68.20130788855433
1673609129.318503,2.430329,68.21855444586478
1673609129.3195097,2.457206,68.23579692018343
1673609129.3205168,2.475429,68.25304347749389
1673609129.3215249,2.484637,68.27030636677148
1673609129.322532,2.511874,68.28755292408194
1673609129.3235388,2.522645,68.3047953984006
1673609129.3245459,2.491512,68.32204195571104
1673609129.325553,2.467616,68.33928851302149
1673609129.3265598,2.495791,68.35653098734015
1673609129.3275669,2.513245,68.3737775446506
1673609129.328574,2.51988,68.39102410196105
1673609129.3295808,2.522717,68.4082665762797
1673609129.3305879,2.53654,68.42551313359016
1673609129.331595,2.569524,68.4427596909006
1673609129.3326018,2.614912,68.46000216521927
1673609129.3336098,2.602363,68.47726505449687
1673609129.334617,2.568995,68.49451161180731
1673609129.3356237,2.500984,68.51175408612598
1673609129.3366308,2.47853,68.52900064343642
1673609129.337638,2.493988,68.54624720074686
1673609129.3386447,2.500335,68.56348967506553
1673609129.3396518,2.506634,68.58073623237598
1673609129.340659,2.543512,68.59798278968643
1673609129.3416657,2.538175,68.61522526400509
1673609129.3426728,2.502787,68.63247182131553
1673609129.34368,2.490671,68.64971837862598
1673609129.3446867,2.467303,68.66696085294464
1673609129.3456938,2.470573,68.6842074102551
1673609129.3467019,2.50471,68.70147029953269
1673609129.347709,2.508749,68.71871685684314
1673609129.3487158,2.480886,68.7359593311618
1673609129.3497229,2.482184,68.75320588847225
1673609129.35073,2.482112,68.7704524457827
1673609129.3517368,2.466294,68.78769492010136
1673609129.3527439,2.451989,68.76688964520744
1673609129.353751,2.430762,68.78262414592274
1673609129.3547578,2.415304,68.80588165244339
1673609129.3557649,2.421049,68.810806
1673609129.356772,2.443022,68.82422900429185
1673609129.3577788,2.475237,68.84244011179976
1673609129.3587868,2.501393,68.88806612589414
1673609129.359794,2.54707,68.87361230042919
1673609129.3608007,2.54106,68.865067
1673609129.3618078,2.511129,68.87061531341271
1673609129.362815,2.483891,68.87779988602318
1673609129.3638217,2.44985,68.88498275774052
1673609129.3648288,2.455163,68.89216733035099
1673609129.365836,2.476799,68.89935190296146
1673609129.3668427,2.518149,68.90653477467879
1673609129.3678498,2.570101,68.91371934728924
1673609129.368857,2.610777,68.92090391989971
1673609129.3698637,2.623807,68.92808679161705
1673609129.3708708,2.562167,68.93527136422752
1673609129.3718789,2.49846,68.94246274041053
1673609129.372886,2.482473,68.949647313021
1673609129.3738928,2.4818,68.95683018473832
1673609129.3748999,2.448215,68.96401475734879
1673609129.375907,2.402875,68.97119932995926
1673609129.3769138,2.401937,68.973618
1673609129.3779209,2.407635,68.94920796400477
1673609129.378928,2.439248,68.94978236957559
1673609129.3799348,2.507259,68.9804520751073
1673609129.3809419,2.522236,68.94136381764005
1673609129.3819487,2.513966,68.93206830901288
1673609129.3829558,2.538127,68.963122027897
1673609129.3839638,2.553681,68.94765593063171
1673609129.384971,2.52952,68.95055872150691
1673609129.3859777,2.49519,68.95222663486268
1673609129.3869848,2.486728,68.94767180972745
1673609129.387992,2.477136,68.94311698459222
1673609129.3889987,2.469659,68.93856323777734
1673609129.3900058,2.473001,68.93400841264211
1673609129.391013,2.490983,68.92945358750688
1673609129.3920197,2.500119,68.924899840692
1673609129.3930268,2.503004,68.92034501555678
1673609129.394034,2.527837,68.91579019042155
1673609129.3950408,2.520505,68.91123644360667
1673609129.3960478,2.534569,68.90668161847144
1673609129.3970559,2.55207,68.90212248005483
1673609129.398063,2.551541,68.89756765491961
1673609129.3990698,2.519399,68.89301390810472
1673609129.4000769,2.485598,68.88845908296949
1673609129.401084,2.47603,68.88390425783426
1673609129.4020908,2.509759,68.87935051101938
1673609129.4030979,2.524183,68.87479568588415
1673609129.4041047,2.523991,68.87024193906927
1673609129.4051118,2.538367,68.86568711393404
1673609129.4061189,2.52702,68.86113228879881
1673609129.4071257,2.508172,68.85657854198394
1673609129.4081328,2.489156,68.8520237168487
1673609129.4091408,2.484973,68.8474645784321
1673609129.410148,2.482689,68.84290975329688
1673609129.4111547,2.481487,68.83835600648199
1673609129.4121618,2.478458,68.83380118134676
1673609129.413169,2.483338,68.82924635621154
1673609129.4141757,2.494661,68.82469260939665
1673609129.4151828,2.476823,68.82013778426142
1673609129.41619,2.468024,68.8155829591262
1673609129.4171968,2.477064,68.81102921231131
1673609129.4182038,2.467496,68.86277701502145
1673609129.419211,2.459754,68.79525287267525
1673609129.4202178,2.454874,68.88063381258941
1673609129.4212248,2.418333,68.84775288224077
1673609129.4222329,2.384508,68.846985
1673609129.42324,2.405615,68.77505931258942
1673609129.4242468,2.482305,68.828896
1673609129.4252539,2.524424,68.8290383311874
1673609129.4262607,2.526515,68.847098662478
1673609129.4272678,2.507138,68.85484237710811
1673609129.4282749,2.494012,68.86258609173822
1673609129.4292817,2.488964,68.87032797310256
1673609129.4302888,2.483434,68.87807168773269
1673609129.4312959,2.469828,68.8858154023628
1673609129.4323027,2.454345,68.89355728372713
1673609129.4333098,2.434103,68.90130099835724
1673609129.4343178,2.434873,68.90905204605046
1673609129.435325,2.465813,68.91679576068057
1673609129.4363317,2.549859,68.92453764204491
1673609129.4373388,2.568274,68.93228135667502
1673609129.438346,2.522597,68.94002507130514
1673609129.4393528,2.516514,68.94776695266948
1673609129.4403598,2.53517,68.95551066729959
1673609129.441367,2.522308,68.9632543819297
1673609129.4423738,2.509446,68.97099626329404
1673609129.4433808,2.516586,68.97873997792416
1673609129.444388,2.459851,68.98648369255427
1673609129.4453948,2.399605,68.99422557391861
1673609129.4464018,2.416818,69.00196928854872
1673609129.4474099,2.492498,69.00972033624193
1673609129.4484167,2.56635,69.01746221760627
1673609129.4494238,2.522476,69.02520593223639
1673609129.4504309,2.469251,69.0329496468665
1673609129.4514377,2.46401,69.04069152823084
1673609129.4524448,2.491632,69.04843524286095
1673609129.4534519,2.503268,69.05617895749107
1673609129.4544587,2.526515,69.06392083885541
1673609129.4554658,2.560052,69.07166455348552
1673609129.4564729,2.546541,69.07940826811563
1673609129.4574797,2.554042,69.08715014947997
1673609129.4584868,2.516995,69.09489386411009
1673609129.4594948,2.490166,69.1026449118033
1673609129.460502,2.477304,69.1103886264334
1673609129.4615088,2.436219,69.11813050779774
1673609129.4625158,2.442421,69.12587422242787
1673609129.463523,2.46276,69.13361793705798
1673609129.4645298,2.465524,69.14135981842232
1673609129.4655368,2.476174,69.14910353305243
1673609129.466544,2.499421,69.15684724768253
1673609129.4675508,2.508869,69.16458912904687
1673609129.4685578,2.504807,69.172332843677
1673609129.469565,2.515024,69.1800765583071
1673609129.4705718,2.570029,69.18781843967145
1673609129.4715788,2.591328,69.20213425751072
1673609129.4725869,2.568394,69.24352344969003
1673609129.4735937,2.530963,69.28645911895113
1673609129.4746008,2.487041,69.32289350929899
1673609129.4756079,2.464058,69.3473748197425
1673609129.4766147,2.48692,69.34142998116806
1673609129.4776218,2.518534,69.35983095517406
1673609129.4786289,2.544401,69.34692626084883
1673609129.4796357,2.519399,69.36033395637664
1673609129.4806428,2.464851,69.3754873377639
1673609129.4816499,2.461846,69.38111886165517
1673609129.4826567,2.476968,69.38674905232583
1673609129.4836638,2.474732,69.392380576217107
1673609129.4846718,2.447181,69.39801743299084
1673609129.485679,2.433719,69.40364895688212
1673609129.4866858,2.438719,69.40927914755278
1673609129.4876928,2.460356,69.41491067144405
1673609129.4887,2.46901,69.42054219533533
1673609129.4897068,2.462375,69.42617238600597
1673609129.4907138,2.455644,69.43180390989725
1673609129.491721,2.454514,69.43743543378852
1673609129.4927278,2.479396,69.44306562445918
1673609129.4937348,2.528486,69.44869714835045
1673609129.494742,2.572601,69.45432867224173
1673609129.4957488,2.574644,69.45995886291239
1673609129.4967558,2.58854,69.46559038680365
1673609129.4977639,2.616307,69.4712272435774
1673609129.4987707,2.630803,69.47685743424806
1673609129.4997778,2.604455,69.48248895813933
1673609129.5007849,2.539497,69.4881204820306
1673609129.5017917,2.493628,69.49375067270125
1673609129.5027988,2.461005,69.49938219659253
1673609129.5038059,2.423814,69.5050137204838
1673609129.5048127,2.441388,69.51064391115446
1673609129.5058198,2.461413,69.51627543504573
1673609129.5068269,2.450186,69.52190695893701
1673609129.5078337,2.44646,69.52753714960767
1673609129.5088408,2.455043,69.53316867349893
1673609129.5098488,2.449585,69.53880553027268
1673609129.510856,2.411169,69.54443705416395
1673609129.5118628,2.413597,69.55006724483461
1673609129.5128698,2.454321,69.55569876872588
1673609129.513877,2.443046,69.56133029261716
1673609129.5148838,2.44408,69.566960483287815
1673609129.5158908,2.447734,69.57259200717908
1673609129.516898,2.467183,69.57822353107036
1673609129.5179048,2.518293,69.58385372174101
1673609129.5189118,2.567913,69.58948524563229
1673609129.519919,2.566374,69.59511676952356
1673609129.5209258,2.545435,69.60074696019421
1673609129.5219328,2.505167,69.60637848408548
1673609129.5229409,2.432733,69.61201534085923
1673609129.5239477,2.48531,69.61764553152989
1673609129.5249548,2.514952,69.62327705542116
1673609129.5259619,2.465981,69.62890857931244
1673609129.5269687,2.434368,69.6345387699831
1673609129.5279758,2.452566,69.64017029387436
1673609129.5289829,2.521154,69.64580181776563
1673609129.5299897,2.61246,69.65143200843629
1673609129.5309968,2.670446,69.65706353232757
1673609129.5320039,2.605056,69.66269505621884
1673609129.5330107,2.533655,69.6683252468895
1673609129.5340178,2.494301,69.67395677078076
1673609129.5350258,2.491897,69.68362222579876
1673609129.536033,2.461197,69.73178653576538
1673609129.5370398,2.446028,69.71706165379113
1673609129.5380468,2.484084,69.7296522398093
1673609129.539054,2.549522,69.6952144241774
1673609129.5400608,2.597387,69.68552484883166
1673609129.5410678,2.586232,69.72663347747317
1673609129.542075,2.526203,69.679131
1673609129.5430818,2.473482,69.68666383404864
1673609129.5440888,2.479973,69.73273500845248
1673609129.545096,2.473987,69.72804863541869
1673609129.5461028,2.453384,69.7233633718482
1673609129.5471098,2.449393,69.7186769988144
1673609129.5481179,2.463817,69.71398618792735
1673609129.5491247,2.499181,69.70930092435687
1673609129.5501318,2.545339,69.70461455132306
1673609129.5511389,2.539353,69.69992817828927
1673609129.5521457,2.526083,69.69524291471878
1673609129.5531528,2.555556,69.69055654168498
1673609129.5541599,2.576736,69.68587016865118
1673609129.5551667,2.573082,69.6811849050807
1673609129.5561738,2.532357,69.67649853204689
1673609129.557181,2.507764,69.6718121590131
1673609129.5581877,2.494613,69.6671268954426
1673609129.5591948,2.461654,69.66244052240882
1673609129.5602028,2.448335,69.65774971152176
1673609129.56121,2.487449,69.65306333848795
1673609129.5622168,2.505408,69.64837807491747
1673609129.5632238,2.521467,69.64369170188367
1673609129.564231,2.529232,69.63900532884988
1673609129.5652378,2.519952,69.63432006527938
1673609129.5662448,2.505648,69.62963369224559
1673609129.567252,2.474371,69.62494731921178
1673609129.5682588,2.436171,69.60695864916468
1673609129.5692658,2.431387,69.58874006986171
1673609129.570273,2.459851,69.570595
1673609129.5712798,2.48103,69.5704179856802
1673609129.5722868,2.511538,69.55412243562232
1673609129.5732949,2.538824,69.6424824355799
1673609129.5743017,2.543079,69.62314041193318
1673609129.5753088,2.556806,69.57203556413924
1673609129.5763159,2.538031,69.60714243549742
1673609129.5773227,2.513437,69.61506185735314
1673609129.5783298,2.494421,69.62298315451596
1673609129.579337,2.477881,69.63090445167879
1673609129.5803437,2.488531,69.6388238735345
1673609129.5813508,2.512451,69.64674517069733
1673609129.582358,2.486343,69.65466646786014
1673609129.5833647,2.46038,69.66258588971587
1673609129.5843718,2.4608120000000002,69.6705071868787
1673609129.5853798,2.506898,69.67843598526989
1673609129.586387,2.554306,69.68635728243271
1673609129.5873938,2.556686,69.69427670428843
1673609129.5884008,2.52327,69.70219800145125
1673609129.589408,2.497306,69.71011929861406
1673609129.5904148,2.495671,69.71803872046979
1673609129.5914218,2.49834,69.72596001763262
1673609129.592429,2.499157,69.73388131479543
1673609129.5934358,2.474828,69.74180073665116
1673609129.5944428,2.416097,69.74972203381398
1673609129.59545,2.413164,69.75764333097679
1673609129.5964568,2.402538,69.76556275283252
1673609129.5974638,2.351284,69.77348404999533
1673609129.5984719,2.366285,69.78141284838654
1673609129.5994787,2.432348,69.795262490593
1673609129.6004858,2.527044,69.81213314200477
1673609129.601493,2.623951,69.78579053361946
1673609129.6024997,2.723119,69.82942145649584
1673609129.6035068,2.716123,69.79627239709386
1673609129.604514,2.648881,69.823853
1673609129.6055207,2.583251,69.83296219599428
1673609129.6065278,2.565293,69.86470941247917
1673609129.607535,2.567504,69.8685272176611
1673609129.6085417,2.595511,69.84449222149195
1673609129.6095488,2.587458,69.85390842392376
1673609129.6105568,2.553633,69.86333354321394
1673609129.611564,2.502042,69.87274974564575
1673609129.6125708,2.465091,69.88216371886297
1673609129.6135778,2.473073,69.89157992129478
1673609129.614585,2.46175,69.91473030662851
1673609129.6155918,2.445018,69.94177375107296
1673609129.6165988,2.435185,69.95999035613826
1673609129.617606,2.400519,69.968567
1673609129.6186128,2.426867,69.98810520123986
1673609129.6196198,2.472688,69.97507680405245
1673609129.620627,2.482569,69.96049725298045
1673609129.6216338,2.503821,69.9381334434907
1673609129.6226408,2.543079,69.92457027485102
1673609129.623649,2.543055,69.9294120361887
1673609129.6246557,2.528511,69.92420810443915
1673609129.6256628,2.554595,69.91900294040646
1673609129.62667,2.563562,69.91379777637376
1673609129.6276767,2.537766,69.9085938446242
1673609129.6286838,2.521322,69.9033886805915
1673609129.629691,2.534761,69.89818351655882
1673609129.6306977,2.555268,69.89297958480927
1673609129.6317048,2.56058,69.88777442077657
1673609129.632712,2.542598,69.88256925674388
1673609129.6337187,2.504109,69.87736532499433
1673609129.6347258,2.496609,69.87216016096163
1673609129.6357338,2.494253,69.86695006779632
1673609129.636741,2.482233,69.86174490376362
1673609129.6377478,2.45134,69.85654097201409
1673609129.6387548,2.457423,69.85133580798139
1673609129.639762,2.474347,69.84613064394868
1673609129.6407688,2.491488,69.84092671219913
1673609129.6417758,2.516394,69.83572154816645
1673609129.642783,2.518414,69.83051638413374
1673609129.6437898,2.518774,69.8253124523842
1673609129.6447968,2.524929,69.82010728835151
1673609129.645804,2.536035,69.8149021243188
1673609129.6468108,2.545146,69.80969819256926
1673609129.6478179,2.540074,69.80449302853656
1673609129.648826,2.517957,69.79928293537125
1673609129.6498327,2.498604,69.79407900362172
1673609129.6508398,2.48656,69.78887383958902
1673609129.651847,2.486656,69.78366867555631
1673609129.6528537,2.522044,69.77846474380677
1673609129.6538608,2.537646,69.77325957977408
1673609129.654868,2.532285,69.76805441574137
1673609129.6558747,2.527212,69.76285048399183
1673609129.6568818,2.527837,69.75764531995914
1673609129.657889,2.544089,69.75244015592644
1673609129.6588957,2.534905,69.74723622417689
1673609129.6599028,2.520457,69.74203106014419
1673609129.6609108,2.518774,69.73682096697888
1673609129.661918,2.533559,69.7316158029462
1673609129.6629248,2.531371,69.72641187119665
1673609129.6639318,2.515649,69.72120670716394
1673609129.664939,2.513437,69.71600154313126
1673609129.6659458,2.483699,69.715309
1673609129.6669528,2.442109,69.68347857081545
1673609129.66796,2.476342,69.69517560658083
1673609129.6689668,2.494541,69.66488744433849
1673609129.6699739,2.49721,69.64474623557463
1673609129.670981,2.512692,69.62652784358608
1673609129.6719878,2.51738,69.624863
1673609129.6729958,2.535699,69.55809355589987
1673609129.674003,2.536083,69.61979069384836
1673609129.6750097,2.479564,69.62309397010684
1673609129.6760168,2.445042,69.62119211664061
1673609129.677024,2.434247,69.6192902631744
1673609129.6780307,2.434007,69.61738885995759
1673609129.6790378,2.42843,69.61548700649138
1673609129.680045,2.440907,69.61358515302516
1673609129.6810517,2.546998,69.61168374980835
1673609129.6820588,2.595464,69.60978189634213
1673609129.683066,2.613253,69.60788004287592
1673609129.6840727,2.580967,69.6059786396591
1673609129.6850798,2.539834,69.60407678619289
1673609129.6860878,2.535819,69.60217313172907
1673609129.687095,2.504927,69.60027127826287
1673609129.6881018,2.520938,69.59836987504605
1673609129.6891088,2.503701,69.59646802157984
1673609129.690116,2.503436,69.59456616811362
1673609129.6911228,2.503124,69.59266476489681
1673609129.6921299,2.459418,69.59076291143059
1673609129.693137,2.461437,69.58886105796438
1673609129.6941438,2.462952,69.58695965474756
1673609129.6951509,2.507836,69.58505780128135
1673609129.696158,2.55195,69.58315594781513
1673609129.6971648,2.597339,69.58125454459832
1673609129.6981728,2.619985,69.5793508901345
1673609129.69918,2.607363,69.5774490366683
1673609129.7001867,2.557528,69.57554763345148
1673609129.7011938,2.519207,69.57364577998527
1673609129.702201,2.51298,69.57174392651905
1673609129.7032077,2.487281,69.56984252330224
1673609129.7042148,2.464803,69.56794066983602
1673609129.705222,2.47115,69.56603881636981
1673609129.7062287,2.483963,69.56413741315299
1673609129.7072358,2.477136,69.56223555968678
1673609129.708243,2.505792,69.56033370622056
1673609129.7092497,2.515192,69.55843230300376
1673609129.7102568,2.494373,69.55653044953753
1673609129.7112648,2.481535,69.55462679507372
1673609129.712272,2.50298,69.55272494160751
1673609129.7132788,2.503508,69.55082353839069
1673609129.7142859,2.51274,69.54892168492448
1673609129.715293,2.542021,69.54701983145826
1673609129.7162998,2.561662,69.54511842824145
1673609129.7173069,2.57777,69.54321657477523
1673609129.718314,2.587795,69.54131472130902
1673609129.7193208,2.592314,69.5394133180922
1673609129.7203279,2.590391,69.537511464626
1673609129.721335,2.580053,69.535609611159785
1673609129.7223418,2.568754,69.52763585979972
1673609129.7233498,2.517548,69.516327
1673609129.724357,2.428766,69.50927513662376
1673609129.7253637,2.435401,69.51976882689556
1673609129.7263708,2.470212,69.51598163313469
1673609129.727378,2.472544,69.48435365045303
1673609129.7283847,2.463072,69.53143998426323
1673609129.7293918,2.478362,69.54482094803336
1673609129.730399,2.525457,69.534416
1673609129.7314057,2.565533,69.53626724082345
1673609129.7324128,2.578202,69.54051704584424
1673609129.73342,2.583924,69.54476685086503
1673609129.7344267,2.592579,69.54901564977668
1673609129.7354338,2.585799,69.55326545479747
1673609129.7364419,2.57539,69.55751928425484
1673609129.737449,2.544425,69.56176908927563
1673609129.7384558,2.509639,69.56601788818728
1673609129.7394629,2.482473,69.57026769320807
1673609129.74047,2.45824,69.57451749822886
1673609129.7414768,2.432685,69.5787662971405
1673609129.7424839,2.455788,69.5830161021613
1673609129.743491,2.47454,69.58726590718209
1673609129.7444978,2.482473,69.59151470609373
1673609129.7455049,2.496993,69.59576451111452
1673609129.746512,2.52101,69.60001431613532
1673609129.7475188,2.555797,69.60426311504698
1673609129.7485268,2.591545,69.60851694450433
1673609129.749534,2.603709,69.61276674952512
1673609129.7505407,2.555965,69.61701554843677
1673609129.7515478,2.478602,69.62126535345756
1673609129.752555,2.453552,69.62551515847836
1673609129.7535617,2.470501,69.62976395739001
1673609129.7545688,2.488219,69.6340137624108
1673609129.755576,2.494253,69.6382635674316
1673609129.7565827,2.508172,69.64251236634324
1673609129.7575898,2.519015,69.64676217136403
1673609129.758597,2.524328,69.65101197638482
1673609129.7596037,2.552431,69.65526077529647
1673609129.7606108,2.57224,69.65951058031726
1673609129.7616189,2.599046,69.66376440977463
1673609129.762626,2.580318,69.66801421479542
1673609129.7636328,2.53077,69.67226301370707
1673609129.7646399,2.512331,69.67651281872786
1673609129.765647,2.508317,69.68076262374865
1673609129.7666538,2.477881,69.6850114226603
1673609129.7676609,2.49596,69.68926122768109
1673609129.768668,2.540867,69.69351103270188
1673609129.7696748,2.583563,69.69775983161354
1673609129.7706819,2.557383,69.70200963663433
1673609129.771689,2.522837,69.70625944165512
1673609129.7726958,2.48079,69.71050824056677
1673609129.7737038,2.440426,69.71476207002414
1673609129.774711,2.465885,69.71901187504493
1673609129.7757177,2.479636,69.72326067395657
1673609129.7767248,2.481006,69.72751047897736
1673609129.777732,2.494373,69.73176028399816
1673609129.7787387,2.47579,69.7360090829098
1673609129.7797458,2.495142,69.7402588879306
1673609129.780753,2.532357,69.74450869295138
1673609129.7817597,2.603685,69.74875749186303
1673609129.7827668,2.673643,69.75300729688382
1673609129.783774,2.627486,69.75725710190461
1673609129.7847807,2.571038,69.76150590081626
1673609129.7857878,2.534208,69.76575570583705
1673609129.7867959,2.469347,69.76780250417164
1673609129.787803,2.446508,69.74958799856938
1673609129.7888098,2.521755,69.733414
1673609129.7898169,2.547863,69.715309
1673609129.790824,2.535074,69.70363001820388
1673609129.7918308,2.522597,69.70206140057225
1673609129.7928379,2.497378,69.73086333134684
1673609129.793845,2.46889,69.70728654887935
1673609129.7948518,2.474924,69.68063804554124
1673609129.7958589,2.484444,69.78488286345845
1673609129.796866,2.514447,69.76746967825737
1673609129.7978728,2.532117,69.75006061549598
1673609129.7988808,2.524303,69.7326309405362
1673609129.799888,2.550315,69.71521775533512
1673609129.8008947,2.569115,69.69780869257373
1673609129.8019018,2.549594,69.68039550737265
1673609129.802909,2.508581,69.66298232217159
1673609129.8039157,2.484997,69.64557325941018
1673609129.8049228,2.491055,69.62816007420912
1673609129.80593,2.512644,69.61074688900804
1673609129.8069367,2.535002,69.59333782624665
1673609129.8079438,2.552743,69.57592464104557
1673609129.808951,2.573058,69.55851145584451
1673609129.8099577,2.563706,69.54110239308311
1673609129.8109648,2.557143,69.52368920788204
1673609129.8119729,2.543896,69.50625953292226
1673609129.81298,2.574933,69.48884634772118
1673609129.8139868,2.558008,69.47103449093943
1673609129.8149939,2.549137,69.42508803551847
1673609129.816001,2.530987,69.37095052217454
1673609129.8170078,2.509398,69.37249464258464
1673609129.8180149,2.525433,69.37044615399284
1673609129.819022,2.561711,69.353508
1673609129.8200288,2.579308,69.33376223676682
1673609129.8210359,2.573707,69.3073269992847
1673609129.822043,2.551637,69.26885250727057
1673609129.8230498,2.524159,69.24212383154298
1673609129.8240578,2.493772,69.23705775824206
1673609129.825065,2.49733,69.23199647782032
1673609129.8260717,2.499542,69.22693639561837
1673609129.8270788,2.502619,69.22187511519664
1673609129.828086,2.550916,69.2168138347749
1673609129.8290927,2.57813,69.21175375257296
1673609129.8300998,2.55582,69.20669247215122
1673609129.831107,2.548897,69.20163119172948
1673609129.8321137,2.566471,69.19657110952754
1673609129.8331208,2.553633,69.1915098291058
1673609129.834128,2.545387,69.18644854868406
1673609129.8351347,2.534689,69.18138846648212
1673609129.8361418,2.541949,69.17632718606038
1673609129.8371499,2.533439,69.17126111275945
1673609129.838157,2.525553,69.16619983233771
1673609129.8391638,2.51411,69.16113975013577
1673609129.8401709,2.487497,69.15607846971403
1673609129.841178,2.469227,69.15451
1673609129.8421848,2.461197,69.12912329184549
1673609129.8431919,2.481391,69.14397749213161
1673609129.844199,2.496489,69.14155786194564
1673609129.8452058,2.509374,69.162580763528
1673609129.8462129,2.545435,69.1858172958989
1673609129.84722,2.610849,69.1506971442537
1673609129.8482268,2.693381,69.136421
1673609129.8492348,2.713238,69.12282190200285
1673609129.850242,2.661983,69.11658645807942
1673609129.8512487,2.58289,69.1142705851512
1673609129.8522558,2.500864,69.11195416382779
1673609129.853263,2.476847,69.10963774250436
1673609129.8542697,2.482449,69.10732186957614
1673609129.8552768,2.515985,69.10500544825271
1673609129.856284,2.469635,69.10268902692928
1673609129.8572907,2.441123,69.10037315400106
1673609129.8582978,2.435329,69.09805673267763
1673609129.859305,2.398908,69.09574031135422
1673609129.8603117,2.371357,69.09342443842598
1673609129.8613188,2.477424,69.09110801710257
1673609129.8623269,2.56159,69.08878940219834
1673609129.863334,2.610296,69.08647298087492
1673609129.8643408,2.646093,69.0841571079467
1673609129.8653479,2.595175,69.08184068662327
1673609129.866355,2.508629,69.07952426529985
1673609129.8673618,2.479107,69.07720839237162
1673609129.8683689,2.498604,69.0748919710482
1673609129.869376,2.522741,69.07257554972477
1673609129.8703828,2.540795,69.07025967679655
1673609129.8713899,2.543752,69.06794325547312
1673609129.872397,2.503821,69.0656268341497
1673609129.8734038,2.476198,69.06331096122148
1673609129.8744118,2.418212,69.06099234631725
1673609129.875419,2.39922,69.05867592499384
1673609129.8764257,2.452663,69.0563600520656
1673609129.8774328,2.517812,69.05404363074219
1673609129.87844,2.558729,69.05172720941876
1673609129.8794467,2.592555,69.04941133649054
1673609129.8804538,2.633135,69.04709491516711
1673609129.881461,2.667152,69.04477849384368
1673609129.8824677,2.68927,69.04246262091546
1673609129.8834748,2.70242,69.04014619959203
1673609129.884482,2.662056,69.03782977826862
1673609129.8854887,2.6027,69.03551390534038
1673609129.8864958,2.547358,69.03319748401697
1673609129.8875039,2.515745,69.03087886911274
1673609129.888511,2.491584,69.02856244778931
1673609129.8895178,2.50233,69.02624657486109
1673609129.8905249,2.51649,69.02393015353766
1673609129.891532,2.522645,69.02161373221425
1673609129.8925388,2.51613,69.01929785928601
1673609129.8935459,2.520505,69.0169814379626
