measure_time,emg_ch_1,grip_force_inter
1673609363.874712,10.40888,1.931618
1673609363.875719,10.405058,1.9498363611442193
1673609363.876726,10.404385,1.9670455264663806
1673609363.877733,10.401524,1.9150473671912256
1673609363.87874,10.402678,1.985893
1673609363.879747,10.401909,1.9840035984740103
1673609363.880754,10.400058,1.9338956347162615
1673609363.881761,10.404505,1.9850041154029565
1673609363.882768,10.407462,1.967796
1673609363.883776,10.405731,1.967796
1673609363.884783,10.402702,1.967796
1673609363.8857899,10.401909,1.967796
1673609363.886797,10.399913,1.967796
1673609363.887804,10.398278,1.967796
1673609363.8888109,10.39662,1.967796
1673609363.889818,10.399361,1.967796
1673609363.890825,10.401836,1.9616628197424895
1673609363.8918319,10.399119,1.9178669103694874
1673609363.892839,10.402004,1.9520015512637101
1673609363.893846,10.403447,2.0212349537815126
1673609363.8948529,10.405322,2.038212392331933
1673609363.89586,10.408111,1.9932697129916568
1673609363.896868,10.409938,1.9344387453505008
1673609363.897875,10.407005,1.9615088540772532
1673609363.898882,10.403952,2.025145483194279
1673609363.899889,10.404048,2.041096222684094
1673609363.900896,10.407293,2.0464258785029785
1673609363.901903,10.406284,2.0517542725662237
1673609363.90291,10.403447,2.057083928385108
1673609363.903917,10.400875,2.0624135842039926
1673609363.904924,10.397461,2.0677419782672377
1673609363.905931,10.395947,2.073071634086122
1673609363.906938,10.397942,2.0784012899050066
1673609363.907945,10.398711,2.0837296839682518
1673609363.908953,10.398759,2.089064386809692
1673609363.90996,10.400682,2.094394042628576
1673609363.9109669,10.401187,2.0997224366918217
1673609363.911974,10.400875,2.105052092510706
1673609363.912981,10.404697,2.1103817483295906
1673609363.9139879,10.40739,2.1157101423928357
1673609363.914995,10.405034,2.12103979821172
1673609363.916002,10.40388,2.1263694540306046
1673609363.9170089,10.40364,2.141728771816881
1673609363.918016,10.402101,2.1810466840724843
1673609363.919023,10.401836,2.158866473897497
1673609363.9200299,10.403952,2.142867421316166
1673609363.921037,10.404649,2.1933087315212205
1673609363.922045,10.404072,2.216699529439809
1673609363.923052,10.404337,2.189513233190272
1673609363.924059,10.401403,2.148703
1673609363.925066,10.388903000000001,2.167663239389604
1673609363.926073,10.369959,2.222084198075089
1673609363.92708,10.365824,2.2259189292275257
1673609363.928087,10.367675,2.229754568438488
1673609363.929094,10.36705,2.2335902076494505
1673609363.930101,10.375152,2.237424938801887
1673609363.931108,10.383806,2.241260578012849
1673609363.9321148,10.392725,2.2450953091652863
1673609363.933122,10.408039,2.2489309483762483
1673609363.93413,10.422751,2.2527702198213118
1673609363.935137,10.428473,2.256605859032274
1673609363.9361439,10.430012,2.260440590184711
1673609363.937151,10.423858,2.2642762293956733
1673609363.938158,10.414819,2.2681118686066353
1673609363.9391649,10.410058,2.2719465997590724
1673609363.940172,10.408376,2.2757822389700344
1673609363.941179,10.407149,2.279617878180997
1673609363.9421859,10.406885,2.2834526093334335
1673609363.943193,10.405611,2.287288248544396
1673609363.9442,10.405322,2.291123887755358
1673609363.9452069,10.405251,2.293424
1673609363.946214,10.403158,2.278591989270386
1673609363.947222,10.40037,2.257237
1673609363.948229,10.399361,2.2341664084406294
1673609363.949236,10.401957,2.210783413110846
1673609363.950243,10.399601,2.236939710061993
1673609363.95125,10.396187,2.257237
1673609363.952257,10.393975,2.2654339487485102
1673609363.953264,10.392581,2.275335
1673609363.9542708,10.393446,2.2723593103607578
1673609363.955278,10.398784,2.2659398450716055
1673609363.956285,10.400755,2.2595203797824537
1673609363.9572918,10.405755,2.2531024342530763
1673609363.958299,10.410178,2.2466829689639245
1673609363.959307,10.41114,2.2402574246356726
1673609363.960314,10.410227,2.2542322400954653
1673609363.9613209,10.411428,2.211600445636624
1673609363.962328,10.404337,2.1876466913550843
1673609363.963335,10.399793,2.200345152267303
1673609363.9643419,10.401427,2.234153469241774
1673609363.965349,10.401909,2.223445593474637
1673609363.966356,10.400466,2.221059
1673609363.9673629,10.399985,2.2050877155460182
1673609363.96837,10.401692,2.2018467779601343
1673609363.969377,10.402101,2.200575818973691
1673609363.970384,10.40073,2.199305160877159
1673609363.971391,10.399601,2.1980342018907155
1673609363.972399,10.401115,2.196762039344626
1673609363.973406,10.400322,2.1954910803581824
1673609363.974413,10.400226,2.1942204222616506
1673609363.97542,10.399913,2.192949463275207
1673609363.9764268,10.402221,2.1916788051786753
1673609363.977434,10.400995,2.190407846192232
1673609363.978441,10.399505,2.189136887205789
1673609363.9794478,10.400755,2.1878662291092565
1673609363.980455,10.392701,2.1865952701228135
1673609363.981462,10.390153,2.18532431113637
1673609363.9824688,10.395322,2.1840536530398382
1673609363.983476,10.3921,2.1827826940533948
1673609363.984484,10.398038,2.181510531507305
1673609363.985491,10.401572,2.1802395725208616
1673609363.9864979,10.392461,2.17896891442433
1673609363.987505,10.388446,2.1776979554378864
1673609363.988512,10.38734,2.176426996451443
1673609363.9895189,10.391788,2.175156338354911
1673609363.990526,10.394816,2.1738853793684676
1673609363.991533,10.400682,2.172614420382024
1673609363.99254,10.408039,2.1713437622854923
1673609363.993547,10.406284,2.170072803299049
1673609363.994554,10.399841,2.168801844312606
1673609363.995561,10.398711,2.1675311862160735
1673609363.996568,10.401187,2.1662602272296305
1673609363.997576,10.403543,2.164988064683541
1673609363.9985828,10.40388,2.1637174065870086
1673609363.99959,10.401307,2.1624464476005656
1673609364.000597,10.396716,2.161175488614122
1673609364.0016038,10.398542,2.1599048305175903
1673609364.002611,10.400033,2.158633871531147
1673609364.003618,10.401115,2.1573629125447034
1673609364.0046248,10.400562,2.1560922544481715
1673609364.005632,10.397388,2.154821295461728
1673609364.006639,10.395177,2.1535503364752846
1673609364.0076458,10.390634,2.152279678378753
1673609364.008653,10.392941,2.1510087193923093
1673609364.009661,10.391067,2.1497365568462197
1673609364.010668,10.390657,2.155500914265301
1673609364.011675,10.389191,2.184881
1673609364.012682,10.391811,2.173921498569385
1673609364.013689,10.402197,2.1343956574493443
1673609364.014696,10.404721,2.160401817293949
1673609364.015703,10.402557,2.2110085961813843
1673609364.01671,10.403904,2.226661673104435
1673609364.017717,10.402269,2.1677507747082636
1673609364.018724,10.40049,2.125716576372315
1673609364.019731,10.400562,2.166987692371706
1673609364.020738,10.398759,2.16777250612832
1673609364.021745,10.398254,2.168557505727642
1673609364.022753,10.397557,2.169343248697796
1673609364.0237598,10.394383,2.17012806245441
1673609364.024767,10.393062,2.170913062053732
1673609364.025774,10.393326,2.171698061653054
1673609364.0267808,10.391307,2.172482875409668
1673609364.027788,10.391619,2.1732678750089898
1673609364.028795,10.39008,2.1740528746083116
1673609364.0298018,10.389936,2.174837688364925
1673609364.030809,10.394913,2.175622687964247
1673609364.031816,10.396788,2.1764076875635694
1673609364.0328228,10.394383,2.177192501320183
1673609364.03383,10.39496,2.177977500919505
1673609364.034838,10.395874,2.1787632438896596
1673609364.035845,10.397605,2.1795482434889815
1673609364.036852,10.3971,2.180333057245595
1673609364.037859,10.395514,2.181118056844917
1673609364.038866,10.393495,2.181903056444239
1673609364.039873,10.39472,2.1826878702008528
1673609364.04088,10.397388,2.1834728698001746
1673609364.041887,10.400995,2.1842578693994965
1673609364.042894,10.395153,2.1850426831561105
1673609364.043901,10.384984,2.1858276827554324
1673609364.044908,10.378637,2.1866126823547543
1673609364.045915,10.380296,2.1873974961113682
1673609364.046922,10.382339,2.18818249571069
1673609364.04793,10.386955,2.1889682386808444
1673609364.0489368,10.388133,2.1897530524374584
1673609364.049944,10.390057,2.1905380520367803
1673609364.050951,10.393422,2.191323051636102
1673609364.0519578,10.395947,2.1921078653927157
1673609364.052965,10.396114,2.192892864992038
1673609364.053972,10.39924,2.19367786459136
1673609364.0549788,10.398639,2.1944626783479735
1673609364.055986,10.399505,2.1952476779472954
1673609364.056993,10.398759,2.1960326775466172
1673609364.0579998,10.392268,2.1968174913032312
1673609364.059007,10.392532,2.197602490902553
1673609364.060015,10.399024,2.198388233872708
1673609364.061022,10.399745,2.1991732334720298
1673609364.062029,10.39573,2.1999580472286433
1673609364.063036,10.395658,2.200743046827965
1673609364.064043,10.393951,2.2015280464272875
1673609364.06505,10.393999,2.202312860183901
1673609364.066057,10.394504,2.2148382050059596
1673609364.067064,10.394552,2.2722409928469243
1673609364.068071,10.39496,2.2701087906533144
1673609364.069078,10.391427,2.319561181688126
1673609364.070085,10.389336,2.271857768057211
1673609364.071092,10.38859,2.257237
1673609364.072099,10.394216,2.257237
1673609364.073107,10.400033,2.2688555573301548
1673609364.0741138,10.398182,2.311513
1673609364.075121,10.396356,2.311513
1673609364.076128,10.395033,2.3072613303933256
1673609364.0771348,10.394625,2.28030147639485
1673609364.078142,10.395634,2.248164522195704
1673609364.079149,10.389071,2.257237
1673609364.0801558,10.389143,2.316270536515513
1673609364.081163,10.394072,2.2968494124105012
1673609364.08217,10.395177,2.275335
1673609364.0831769,10.395033,2.275335
1673609364.084184,10.394456,2.2757397646821467
1673609364.085192,10.391764,2.2771425065478157
1673609364.086199,10.389647,2.278543921316166
1673609364.087206,10.392532,2.279945004310187
1673609364.088213,10.394239,2.2813464190785373
1673609364.08922,10.391211,2.2827478338468876
1673609364.090227,10.387965,2.284148916840908
1673609364.091234,10.390537,2.2855503316092585
1673609364.092241,10.391211,2.2869517463776092
1673609364.093248,10.391595,2.2883528293716298
1673609364.094255,10.394552,2.28975424413998
1673609364.095262,10.395105,2.2911556589083304
1673609364.096269,10.397701,2.2925567419023514
1673609364.097276,10.398904,2.293424
1673609364.098284,10.398639,2.3005146809728183
1673609364.0992908,10.396691,2.304297240104912
1673609364.100298,10.394913,2.300767400953516
1673609364.101305,10.392869,2.3189832308059133
1673609364.1023118,10.392581,2.306816070815451
1673609364.103319,10.391908,2.2676082972586413
1673609364.104326,10.389647,2.272940466857415
1673609364.1053329,10.390369,2.277470313066285
1673609364.10634,10.390441,2.258250118930303
1673609364.107347,10.391619,2.260527614599062
1673609364.1083539,10.390009,2.2628045710879756
1673609364.109361,10.391114,2.2650820667567353
1673609364.110369,10.391619,2.267361719144878
1673609364.111376,10.387917,2.2696392148136373
1673609364.112383,10.38258,2.271916171302551
1673609364.11339,10.381618,2.2741936669713105
1673609364.114397,10.379767,2.2764711626400698
1673609364.115404,10.376786,2.278748119128984
1673609364.116411,10.375199,2.281025614797743
1673609364.117418,10.378325,2.2833031104665023
1673609364.118425,10.389624,2.2855800669554163
1673609364.119432,10.398087,2.2878575626241755
1673609364.120439,10.397845,2.290135058292935
1673609364.121446,10.40299,2.2924120147818488
1673609364.122453,10.403111000000001,2.294689510450608
1673609364.123461,10.397341,2.2969691628387507
1673609364.1244678,10.392894,2.2992461193276643
1673609364.125475,10.375825,2.301523614996424
1673609364.126482,10.356833,2.3038011106651832
1673609364.1274889,10.355246,2.306078067154097
1673609364.128496,10.356568,2.3083555628228565
1673609364.129503,10.358034,2.3106330584916157
1673609364.1305099,10.362362,2.300337845255126
1673609364.131517,10.372579,2.293424
1673609364.132524,10.384407,2.2819900612780164
1673609364.1335309,10.396933,2.263772988081049
1673609364.134538,10.410875,2.292295103004292
1673609364.135546,10.419098,2.2996822591797805
1673609364.136553,10.417054,2.281466718235995
1673609364.13756,10.408015,2.275335
1673609364.138567,10.399985,2.299755581306629
1673609364.139574,10.390369,2.30975682812447
1673609364.140581,10.389696,2.3071646177678238
1673609364.141588,10.388975,2.304571793579694
1673609364.142595,10.387796,2.301978969391564
1673609364.143602,10.391788,2.299386759034918
1673609364.144609,10.393495,2.296793934846788
1673609364.145616,10.393783,2.294201110658658
1673609364.146623,10.393014,2.296924998976205
1673609364.14763,10.393615,2.3019260878079564
1673609364.148638,10.396379,2.3069319125192838
1673609364.1496449,10.397077,2.3119318173811414
1673609364.150652,10.398302,2.316932906212893
1673609364.151659,10.393591,2.321933995044645
1673609364.1526659,10.391042,2.3269338999065026
1673609364.153673,10.391788,2.3319349887382543
1673609364.15468,10.395586,2.336936077570006
1673609364.1556869,10.396956,2.3419359824318637
1673609364.156694,10.395706,2.3469370712636155
1673609364.157701,10.394745,2.3519381600953673
1673609364.1587079,10.392028,2.356938064957225
1673609364.159715,10.389527,2.3619391537889767
1673609364.160723,10.390657,2.3669449785003036
1673609364.16173,10.391547,2.3719460673320554
1673609364.162737,10.394672,2.3769459721939135
1673609364.163744,10.395754,2.381947061025665
1673609364.164751,10.394456,2.3869481498574165
1673609364.165758,10.392532,2.391948054719274
1673609364.166765,10.388903000000001,2.396949143551026
1673609364.167772,10.388037,2.4019502323827777
1673609364.168779,10.393831,2.4069501372446354
1673609364.169786,10.393855,2.411951226076387
1673609364.170793,10.390778,2.416952314908139
1673609364.1718,10.391378,2.4219522197699965
1673609364.172807,10.390657,2.4269533086017483
1673609364.173815,10.392172,2.4319591333130757
1673609364.1748219,10.392028,2.4369590381749333
1673609364.175829,10.393158,2.441960127006685
1673609364.176836,10.392918,2.446961215838437
1673609364.1778429,10.394263,2.4519611207002945
1673609364.17885,10.392725,2.4569622095320462
1673609364.179857,10.396547,2.4619632983637976
1673609364.1808639,10.397798,2.4669632032256557
1673609364.181871,10.39484,2.4719642920574074
1673609364.182878,10.392341,2.4769653808891587
1673609364.1838849,10.392653,2.481965285751017
1673609364.184892,10.389744,2.486966374582768
1673609364.1859,10.388373,2.4919721992940955
1673609364.186907,10.390778,2.4969732881258473
1673609364.187914,10.388903000000001,2.501973192987705
1673609364.188921,10.390104,2.5069742818194567
1673609364.189928,10.388927,2.5119753706512085
1673609364.190935,10.385368,2.516975275513066
1673609364.191942,10.384047,2.521976364344818
1673609364.192949,10.387485,2.5269774531765696
1673609364.193956,10.389624,2.5319773580384273
1673609364.194963,10.388206,2.536978446870179
1673609364.19597,10.391451,2.541979535701931
1673609364.196977,10.393134,2.5477523273724367
1673609364.197984,10.39097,2.5659704345649583
1673609364.198992,10.388614,2.5815279494515977
1673609364.1999989,10.387676,2.5633124747016707
1673609364.201006,10.382844,2.5515087224868984
1673609364.202013,10.384094,2.6043950064362336
1673609364.2030199,10.384023,2.6334486413924654
1673609364.204027,10.380969,2.604896142584645
1673609364.205034,10.379046,2.6350320374255065
1673609364.2060409,10.381089,2.6199577969754997
1673609364.207048,10.379431,2.627460908479403
1673609364.208055,10.376426,2.634964019983306
1673609364.2090619,10.372795,2.642465355182403
1673609364.210069,10.379358,2.6499684666863064
1673609364.211077,10.387003,2.655221
1673609364.212084,10.395177,2.660828296137339
1673609364.213091,10.388662,2.673311
1673609364.214098,10.384791,2.679175049356223
1673609364.215105,10.385777,2.691408
1673609364.216112,10.386787,2.697519614926085
1673609364.217119,10.391042,2.6845298671912254
1673609364.218126,10.395874,2.6689795704410013
1673609364.219133,10.394263,2.727586
1673609364.22014,10.389816,2.7304233202070836
1673609364.221147,10.390033,2.738231033923513
1673609364.222154,10.387485,2.74603689922287
1673609364.223162,10.386859,2.753852006607592
1673609364.224169,10.385513,2.761659720324022
1673609364.2251759,10.382508,2.7694655856233785
1673609364.226183,10.38282,2.7772732993398086
1673609364.22719,10.380753,2.7850810130562382
1673609364.2281969,10.378181,2.792886878355595
1673609364.229204,10.380969,2.800694592072025
1673609364.230211,10.388855,2.808502305788455
1673609364.2312179,10.387725,2.8163081710878117
1673609364.232225,10.382436,2.824115884804242
1673609364.233232,10.372891,2.8319235985206714
1673609364.2342389,10.374502,2.8397294638200283
1673609364.235246,10.375392,2.8475371775364584
1673609364.236254,10.372458,2.8553522849211803
1673609364.237261,10.374502,2.86315999863761
1673609364.238268,10.375392,2.870965863936967
1673609364.239275,10.379911,2.878773577653397
1673609364.240282,10.391138,2.8865812913698266
1673609364.241289,10.40138,2.8943871566691834
1673609364.242296,10.399192,2.902194870385613
1673609364.243303,10.390249,2.910002584102043
1673609364.24431,10.384359,2.9178084494014
1673609364.245317,10.384936,2.9256161631178297
1673609364.246324,10.384214,2.9334238768342598
1673609364.247331,10.382676,2.9412297421336167
1673609364.248339,10.379839,2.9490448495183386
1673609364.249346,10.377844,2.956852563234768
1673609364.2503529,10.377074,2.964658428534125
1673609364.25136,10.374671,2.972466142250555
1673609364.252367,10.375343,2.980273855966985
1673609364.2533739,10.381065,2.9880797212663417
1673609364.254381,10.384239000000001,2.9958874349827718
1673609364.255388,10.389768,3.0036951486992014
1673609364.2563949,10.39561,3.0115010139985583
1673609364.257402,10.39686,3.0193087277149884
1673609364.258409,10.393134,3.027116441431418
1673609364.2594159,10.387701,3.034922306730775
1673609364.260423,10.38508,3.0427300204472045
1673609364.261431,10.390249,3.0505451278319264
1673609364.262438,10.393374,3.065217553648069
1673609364.263445,10.389527,3.0591573605150217
1673609364.264452,10.390249,3.0777325508939213
1673609364.265459,10.388326,3.1017809196471147
1673609364.266466,10.386162,3.107481
1673609364.267473,10.385056,3.120123895828367
1673609364.26848,10.383109,3.12557
1673609364.269487,10.38282,3.151362136385312
1673609364.270494,10.38258,3.2251960603948895
1673609364.271501,10.380873,3.2098067543554007
1673609364.272508,10.382099,3.149956076776347
1673609364.273516,10.380921,3.160316403337306
1673609364.274523,10.380128,3.1953209079637577
1673609364.2755299,10.383517,3.1641029341917024
1673609364.276537,10.387388,3.1958217253873658
1673609364.277544,10.387532,3.232258007629947
1673609364.2785509,10.384094,3.1995218345255125
1673609364.279558,10.36717,3.2327669494515976
1673609364.280565,10.351231,3.244903996325912
1673609364.2815719,10.349861,3.2561127415911675
1673609364.282579,10.350222,3.267324141070315
1673609364.283586,10.351832,3.2785355405494627
1673609364.2845929,10.354068,3.2897442858147183
1673609364.2856,10.363949,3.3009556852938657
1673609364.286608,10.377436,3.3121777016285807
1673609364.287615,10.390537,3.323389101107728
1673609364.288622,10.408279,3.334597846372984
1673609364.289629,10.418425,3.3458092458521316
1673609364.290636,10.411765,3.357020645331279
1673609364.291643,10.398158,3.368229390596535
1673609364.29265,10.390561,3.3794407900756824
1673609364.293657,10.395033,3.39065218955483
1673609364.294664,10.394048,3.401860934820086
1673609364.295671,10.394095,3.4130723342992333
1673609364.296678,10.393254,3.4242837337783807
1673609364.297685,10.395153,3.4354924790436367
1673609364.298693,10.394985,3.4467144953783517
1673609364.2997,10.389816,3.457925894857499
1673609364.3007069,10.389095,3.4691346401227547
1673609364.301714,10.390104,3.480346039601902
1673609364.302721,10.391067,3.49155743908105
1673609364.3037279,10.38972,3.5027661843463056
1673609364.304735,10.386883,3.5139775838254534
1673609364.305742,10.388326,3.525188983304601
1673609364.3067489,10.388206,3.5363977285698565
1673609364.307756,10.383037,3.547609128049004
1673609364.308763,10.383037,3.5588205275281517
1673609364.3097699,10.382412,3.5700292727934073
1673609364.310777,10.385248,3.581240672272555
1673609364.311785,10.381595,3.5924626886072697
1673609364.312792,10.378421,3.6036740880864175
1673609364.313799,10.376162,3.614882833351673
1673609364.314806,10.381474,3.6260942328308206
1673609364.315813,10.386498,3.6373056323099684
1673609364.31682,10.394985,3.648514377575224
1673609364.317827,10.394865,3.6597257770543714
1673609364.318834,10.389383,3.668275
1673609364.319841,10.385297,3.6638260162136382
1673609364.320848,10.388422,3.663907766809728
1673609364.321855,10.391211,3.704453
1673609364.322862,10.389191,3.7438844109633473
1673609364.32387,10.386138,3.767694150178398
1673609364.324877,10.381739,3.775339368147908
1673609364.3258839,10.379502,3.7696977875445996
1673609364.326891,10.380825,3.7624750956860202
1673609364.327898,10.378325,3.8236266146610447
1673609364.3289049,10.373878,3.8025915982355745
1673609364.329912,10.3758,3.7993432443362436
1673609364.330919,10.380128,3.80703546558831
1673609364.3319259,10.380873,3.8147258657652694
1673609364.332933,10.383493,3.8224180870173354
1673609364.33394,10.386018,3.830110308269402
1673609364.3349469,10.387219,3.8378007084463612
1673609364.335954,10.385729,3.8454929296984273
1673609364.336962,10.386258,3.853192435250922
1673609364.337969,10.386522,3.860884656502988
1673609364.338976,10.387219,3.8685750566799473
1673609364.339983,10.385801,3.8762672779320138
1673609364.34099,10.386498,3.88395949918408
1673609364.341997,10.381835,3.891649899361039
1673609364.343004,10.380152,3.8993421206131056
1673609364.344011,10.377556,3.9070343418651716
1673609364.345018,10.37604,3.914724742042131
1673609364.346025,10.374959,3.9224169632941974
1673609364.347032,10.37431,3.9301091845462635
1673609364.348039,10.378036,3.937799584723223
1673609364.349047,10.376666,3.945499090275717
1673609364.350054,10.374599,3.9531913115277835
1673609364.3510609,10.378348,3.960881711704743
1673609364.352068,10.381931,3.968573932956809
1673609364.353075,10.38758,3.9762661542088753
1673609364.3540819,10.387196,3.9839565543858346
1673609364.355089,10.381162,3.9916487756379007
1673609364.356096,10.378878,3.999340996889967
1673609364.3571029,10.377724,4.0070313970669265
1673609364.35811,10.380248,4.0147236183189925
1673609364.359117,10.380128,4.0224158395710585
1673609364.3601239,10.383253,4.030106239748018
1673609364.361131,10.386426,4.037798461000085
1673609364.362139,10.388855,4.0454979665525785
1673609364.363146,10.388253,4.0531901878046455
1673609364.364153,10.381979,4.060880587981605
1673609364.36516,10.377724,4.068572809233671
1673609364.366167,10.372988,4.076265030485737
1673609364.367174,10.365054,4.083955430662696
1673609364.368181,10.367891,4.091647651914762
1673609364.369188,10.368949,4.099339873166829
1673609364.370195,10.359934,4.1070302733437885
1673609364.371202,10.36241,4.1147224945958545
1673609364.372209,10.369069,4.1224147158479205
1673609364.373216,10.372411,4.13010511602488
1673609364.374224,10.377147,4.1378046215773745
1673609364.375231,10.384527,4.154914077491655
1673609364.3762379,10.396547,4.173128156413925
1673609364.377245,10.398231,4.15824339761621
1673609364.378252,10.394336,4.206739881974249
1673609364.3792589,10.389672,4.143756175011921
1673609364.380266,10.38347,4.121685938259833
1673609364.381273,10.383133,4.120526
1673609364.3822799,10.386883,4.154892512160229
1673609364.383287,10.388614,4.122086957806913
1673609364.384294,10.385417,4.132444811440678
1673609364.3853009,10.384551,4.144894264993481
1673609364.386308,10.38484,4.157346666558018
1673609364.387316,10.386378,4.169810860169492
1673609364.388323,10.385801,4.142012886054827
1673609364.38933,10.383614,4.109475924177397
1673609364.390337,10.379287,4.124795935622317
1673609364.391344,10.377147,4.149921164004768
1673609364.392351,10.379167,4.1338447486886025
1673609364.393358,10.381233,4.124295207517441
1673609364.394365,10.380272,4.130235928619556
1673609364.395372,10.385729,4.136175243300957
1673609364.396379,10.389095,4.1421159644030725
1673609364.397386,10.389647,4.148056685505188
1673609364.398393,10.385874,4.153996000186589
1673609364.399401,10.386642,4.159942346971566
1673609364.400408,10.382412,4.165883068073682
1673609364.4014149,10.378781,4.1718223827550815
1673609364.402422,10.372771,4.177763103857197
1673609364.403429,10.372988,4.183703824959314
1673609364.4044359,10.380681,4.1896431396407134
1673609364.405443,10.386282,4.195583860742829
1673609364.40645,10.380561,4.201524581844945
1673609364.4074569,10.380248,4.207463896526345
1673609364.408464,10.383277,4.213404617628461
1673609364.409471,10.384936,4.219345338730577
1673609364.4104779,10.385825,4.225284653411977
1673609364.411485,10.381907,4.231225374514093
1673609364.412493,10.3802,4.23717172129907
1673609364.4135,10.382436,4.243112442401186
1673609364.414507,10.382075,4.2490517570825865
1673609364.415514,10.379214,4.254992478184702
1673609364.416521,10.377316,4.260933199286818
1673609364.417528,10.373468,4.2668725139682175
1673609364.418535,10.375849,4.272813235070333
1673609364.419542,10.378925,4.27875395617245
1673609364.420549,10.385177,4.284693270853849
1673609364.421556,10.388062,4.290633991955965
1673609364.422563,10.387485,4.296574713058081
1673609364.42357,10.382436,4.302514027739481
1673609364.424578,10.382604,4.308460374524459
1673609364.425585,10.383133,4.314401095626574
1673609364.4265919,10.378757,4.320340410307975
1673609364.427599,10.375079,4.326281131410091
1673609364.428606,10.378998,4.332221852512206
1673609364.4296129,10.381786,4.338161167193606
1673609364.43062,10.379767,4.344101888295722
1673609364.431627,10.380873,4.350042609397838
1673609364.4326339,10.381907,4.355981924079238
1673609364.433641,10.382652,4.3619226451813535
1673609364.434648,10.382363,4.367863366283469
1673609364.4356549,10.385297,4.37380268096487
1673609364.436662,10.383301,4.379743402066985
1673609364.43767,10.38407,4.385689748851963
1673609364.438677,10.388614,4.3916304699540785
1673609364.439684,10.386811,4.391878
1673609364.440691,10.382075,4.4094623712446355
1673609364.441698,10.380681,4.374547918712754
1673609364.442705,10.378998,4.40945805817835
1673609364.443712,10.380512,4.409967
1673609364.444719,10.381089,4.428056
1673609364.445726,10.378108,4.39200307892227
1673609364.446733,10.37645,4.410475820500596
1673609364.4477398,10.375849,4.446179291096382
1673609364.448747,10.37604,4.447844182948351
1673609364.449755,10.373445,4.449510651402451
1673609364.450762,10.375873,4.451175543254419
1673609364.4517689,10.374166,4.452840040955854
1673609364.452776,10.369983,4.454504932807822
1673609364.453783,10.363299,4.45616982465979
1673609364.4547899,10.361256,4.457834322361225
1673609364.455797,10.363853,4.459499214213193
1673609364.456804,10.362458,4.461164106065161
1673609364.4578109,10.360126,4.462828603766596
1673609364.458818,10.3589,4.464493495618564
1673609364.459825,10.34938,4.466158387470532
1673609364.4608319,10.332984,4.467822885171967
1673609364.461839,10.33873,4.469487777023935
1673609364.462847,10.351832,4.4711542454780355
1673609364.463854,10.352144,4.472819137330004
1673609364.464861,10.350558,4.474483635031439
1673609364.465868,10.346254,4.4761485268834065
1673609364.466875,10.351183,4.477813418735375
1673609364.467882,10.364958,4.47947791643681
1673609364.468889,10.385898,4.481142808288778
1673609364.4698958,10.402557,4.482807305990213
1673609364.470903,10.407895,4.484472197842181
1673609364.47191,10.398375,4.486137089694149
1673609364.4729168,10.381883,4.487801587395584
1673609364.473924,10.37003,4.489466479247552
1673609364.474932,10.372675,4.491132947701653
1673609364.475939,10.37544,4.492797839553621
1673609364.4769459,10.369742,4.494462337255055
1673609364.477953,10.36616,4.496127229107024
1673609364.47896,10.362866,4.497792120958992
1673609364.4799669,10.338946,4.499456618660426
1673609364.480974,10.299856,4.5011215105123945
1673609364.481981,10.288846,4.502786402364363
1673609364.4829879,10.296298,4.504450900065797
1673609364.483995,10.301467,4.5061157919177655
1673609364.485002,10.301323,4.507780683769734
1673609364.486009,10.317454,4.509445181471168
1673609364.487016,10.356592,4.511110073323136
1673609364.488024,10.402678,4.512776541777237
1673609364.489031,10.444605,4.514441433629205
1673609364.490038,10.425156,4.51610593133064
1673609364.491045,10.388566,4.517770823182608
1673609364.4920518,10.378805,4.519435320884043
1673609364.493059,10.386595,4.521100212736012
1673609364.494066,10.390033,4.522765104587979
1673609364.4950728,10.404649,4.524429602289414
1673609364.49608,10.411741,4.5260944941413825
1673609364.497087,10.397221,4.527759385993351
1673609364.4980938,10.38484,4.529423883694785
1673609364.499101,10.382075,4.5310887755467535
1673609364.500109,10.386522,4.532755244000854
1673609364.501116,10.397557,4.534420135852822
1673609364.5021229,10.393591,4.536084633554257
1673609364.50313,10.387196,4.486233374105866
1673609364.504137,10.389888,4.502388928247914
1673609364.5051439,10.391667,4.505670001669051
1673609364.506151,10.396019,4.500421
1673609364.507158,10.393662,4.487315700524559
1673609364.508165,10.385849,4.482323
1673609364.509172,10.380873,4.468974059847401
1673609364.510179,10.382964,4.477712332141154
1673609364.511186,10.387099,4.482323
1673609364.512193,10.384023,4.478619804283509
1673609364.513201,10.383541,4.473700824864935
1673609364.5142078,10.380344,4.46878766259326
1673609364.515215,10.38133,4.4655710505484025
1673609364.516222,10.387003,4.485255915375447
1673609364.5172288,10.388662,4.512166426869938
1673609364.518236,10.389576,4.456351668735083
1673609364.519243,10.388133,4.543611127324749
1673609364.5202498,10.379888,4.455989600619195
1673609364.521257,10.383614,4.534518117422434
1673609364.522264,10.382051,4.525186626609442
1673609364.5232708,10.378036,4.575127060786651
1673609364.524278,10.37859,4.592280674091735
1673609364.525286,10.380898,4.602700956425976
1673609364.526293,10.380392,4.613111380404178
1673609364.5273,10.381113,4.623519339793369
1673609364.528307,10.380008,4.6339297637715715
1673609364.529314,10.376906,4.644340187749773
1673609364.530321,10.373492,4.654748147138965
1673609364.531328,10.379478,4.665158571117166
1673609364.532335,10.38306,4.675568995095368
1673609364.533342,10.379046,4.68597695448456
1673609364.534349,10.385177,4.696387378462761
1673609364.535356,10.38758,4.7067978024409625
1673609364.536363,10.381666,4.717205761830154
1673609364.53737,10.381162,4.7276161858083565
1673609364.538378,10.380465,4.738036468142598
1673609364.5393848,10.382724,4.74844442753179
1673609364.540392,10.382051,4.758854851509991
1673609364.541399,10.381113,4.769265275488192
1673609364.5424058,10.376906,4.779673234877384
1673609364.543413,10.37568,4.790083658855586
1673609364.54442,10.372435,4.800494082833787
1673609364.5454268,10.369406,4.810902042222979
1673609364.546434,10.37056,4.821312466201181
1673609364.547441,10.37056,4.831722890179383
1673609364.5484478,10.370463,4.842130849568574
1673609364.549455,10.374094,4.852541273546776
1673609364.550463,10.37693,4.862961555881017
1673609364.55147,10.378637,4.873371979859219
1673609364.552477,10.377123,4.88377993924841
1673609364.553484,10.373637,4.894190363226612
1673609364.554491,10.376113,4.904600787204814
1673609364.555498,10.381306,4.9150087465940056
1673609364.556505,10.382316,4.925419170572207
1673609364.557512,10.380008,4.935829594550409
1673609364.558519,10.374959,4.9462375539396
1673609364.559526,10.371737,4.956647977917802
1673609364.560533,10.367963,4.967058401896003
1673609364.56154,10.369262,4.977466361285195
1673609364.562547,10.373156,4.9878767852633965
1673609364.563555,10.369839,4.998297067597639
1673609364.5645618,10.367699,5.00870502698683
1673609364.565569,10.373035,5.019115450965032
1673609364.566576,10.373781,5.056479804000952
1673609364.5675828,10.373757,5.057476664439141
1673609364.56859,10.374526,5.023182007629948
1673609364.569597,10.370656,5.059618506078665
1673609364.5706038,10.369815,5.143131530931872
1673609364.571611,10.370704,5.162715833202819
1673609364.572618,10.368925,5.182677650254005
1673609364.5736248,10.369766,5.171332872947615
1673609364.574632,10.364862,5.191095444009397
1673609364.57564,10.361496,5.218115549547403
1673609364.576647,10.357073,5.169749
1673609364.577654,10.357914,5.176361905340964
1673609364.578661,10.357265,5.221688403579952
1673609364.579668,10.355486,5.206466421540523
1673609364.580675,10.366208,5.210369366176396
1673609364.581682,10.386018,5.214273235023644
1673609364.582689,10.385945,5.218177103870891
1673609364.583696,10.379744,5.222080048506764
1673609364.584703,10.377483,5.225983917354012
1673609364.58571,10.377436,5.229887786201259
1673609364.586717,10.374118,5.233790730837132
1673609364.587724,10.3758,5.23769459968438
1673609364.588732,10.375463,5.2416021653771265
1673609364.5897388,10.374069,5.245505110012999
1673609364.590746,10.372868,5.249408978860247
1673609364.591753,10.37544,5.253312847707495
1673609364.5927598,10.379671,5.257215792343367
1673609364.593767,10.370752,5.261119661190615
1673609364.594774,10.370007,5.265023530037863
1673609364.5957808,10.37544,5.268926474673736
1673609364.596788,10.368132,5.272830343520984
1673609364.597795,10.353395,5.276734212368232
1673609364.5988019,10.339596,5.280637157004104
1673609364.599809,10.334619,5.284541025851352
1673609364.600817,10.336638,5.288448591544099
1673609364.601824,10.340821,5.2923524603913465
1673609364.602831,10.345029,5.296255405027219
1673609364.603838,10.35164,5.300159273874467
1673609364.604845,10.36354,5.304063142721715
1673609364.605852,10.373348,5.307966087357587
1673609364.606859,10.387244,5.311869956204835
1673609364.607866,10.398808,5.315773825052083
1673609364.608873,10.393831,5.3196767696879554
1673609364.60988,10.385657,5.323580638535203
1673609364.610887,10.369815,5.327484507382451
1673609364.611894,10.364117,5.3313874520183235
1673609364.612901,10.377844,5.335291320865571
1673609364.613909,10.382483,5.339198886558319
1673609364.6149158,10.390297,5.343101831194192
1673609364.615923,10.389456,5.347005700041439
1673609364.61693,10.383277,5.350909568888687
1673609364.6179368,10.36265,5.35481251352456
1673609364.618944,10.304064,5.358716382371807
1673609364.619951,10.283701,5.362620251219055
1673609364.6209579,10.28887,5.366523195854928
1673609364.621965,10.296659,5.368745
1673609364.622972,10.297861,5.368745
1673609364.6239789,10.309545,5.384910372436814
1673609364.624986,10.335075,5.396703082100239
1673609364.625994,10.385297,5.386834
1673609364.627001,10.446816,5.395317801382928
1673609364.628008,10.472804,5.379071703579952
1673609364.629015,10.457779,5.368146197666111
1673609364.630022,10.423665,5.386834
1673609364.631029,10.406861,5.394386806135648
1673609364.632036,10.404865,5.409695372890436
1673609364.633043,10.398999,5.425003939645223
1673609364.63405,10.392412,5.440308882212806
1673609364.635057,10.392821,5.455617448967593
1673609364.636064,10.395346,5.47092601572238
1673609364.637071,10.392581,5.486230958289963
1673609364.638078,10.389407,5.50153952504475
1673609364.639086,10.38847,5.516862588548358
1673609364.6400928,10.382724,5.532167531115941
1673609364.6411,10.381402,5.547476097870728
1673609364.642107,10.384984,5.562784664625516
1673609364.6431139,10.383397,5.578089607193098
1673609364.644121,10.386763,5.593398173947886
1673609364.645128,10.390826,5.608706740702673
1673609364.6461349,10.385585,5.624011683270256
1673609364.647142,10.377796,5.639320250025043
1673609364.648149,10.372724,5.65462881677983
1673609364.6491559,10.378036,5.669933759347413
1673609364.650163,10.381162,5.6852423261022
1673609364.651171,10.389407,5.700565389605808
1673609364.652178,10.387965,5.715873956360596
1673609364.653185,10.386763,5.731178898928178
1673609364.654192,10.382676,5.746487465682966
1673609364.655199,10.382219,5.761796032437753
1673609364.656206,10.38347,5.777100975005335
1673609364.657213,10.378637,5.792409541760123
1673609364.65822,10.381522,5.80771810851491
1673609364.659227,10.38597,5.823023051082493
1673609364.660234,10.385248,5.83833161783728
1673609364.661241,10.379575,5.853640184592067
1673609364.662248,10.379311,5.86894512715965
1673609364.663255,10.381378,5.884253693914437
1673609364.664263,10.375873,5.899576757418046
1673609364.6652699,10.374478,5.914881699985628
1673609364.666277,10.377147,5.930190266740415
1673609364.667284,10.375103,5.945498833495203
1673609364.6682909,10.379647,5.960803776062785
1673609364.669298,10.382893,5.976112342817572
1673609364.670305,10.375776,5.99142090957236
1673609364.6713119,10.374262,6.006725852139942
1673609364.672319,10.380128,6.02203441889473
1673609364.673326,10.37669,6.037342985649517
1673609364.6743329,10.37157,6.0526479282171
1673609364.67534,10.371737,6.067956494971887
1673609364.676348,10.375945,6.083279558475495
1673609364.677355,10.380561,6.098588125230283
1673609364.678362,10.376065,6.113893067797865
1673609364.679369,10.376594,6.129201634552652
1673609364.680376,10.377724,6.14451020130744
1673609364.681383,10.37592,6.159815143875022
1673609364.68239,10.377291,6.17512371062981
1673609364.683397,10.375008,6.1904322773845974
1673609364.684404,10.371305,6.20573721995218
1673609364.685411,10.378204,6.22635534334764
1673609364.686418,10.379407,6.273247
1673609364.687425,10.374358,6.265110184028605
1673609364.688432,10.378661,6.221817997615641
1673609364.68944,10.382532,6.240053641869337
1673609364.6904469,10.382916,6.258267720791607
1673609364.691454,10.379888,6.279723681287247
1673609364.692461,10.380873,6.3127908655221745
1673609364.6934679,10.387172,6.327523
1673609364.694475,10.390657,6.327523
1673609364.695482,10.387412,6.327523
1673609364.6964889,10.380993,6.327523
1673609364.697496,10.380488,6.327523
1673609364.698503,10.379358,6.313623995708155
1673609364.6995099,10.381931,6.287517900595947
1673609364.700517,10.376017,6.332405391034812
1673609364.701525,10.359741,6.350641035288508
1673609364.702532,10.347192,6.365657588547704
1673609364.703539,10.346063,6.372566178377934
1673609364.704546,10.345389,6.379476404151766
1673609364.705553,10.350318,6.386386629925597
1673609364.70656,10.342048,6.393295219755827
1673609364.707567,10.351953,6.400205445529658
1673609364.708574,10.371377,6.407115671303489
1673609364.709581,10.379287,6.4140242611337195
1673609364.710588,10.39049,6.4209344869075515
1673609364.711595,10.406549,6.427844712681383
1673609364.712602,10.411741,6.434753302511613
1673609364.713609,10.407823,6.441663528285444
1673609364.714617,10.388855,6.448580297833683
1673609364.7156239,10.376786,6.455488887663912
1673609364.716631,10.374382,6.462399113437744
1673609364.717638,10.364862,6.469309339211575
1673609364.7186449,10.358973,6.476217929041805
1673609364.719652,10.354477,6.4831281548156365
1673609364.720659,10.345918,6.490038380589469
1673609364.7216659,10.345774,6.496946970419698
1673609364.722673,10.353083,6.50385719619353
1673609364.72368,10.361352,6.510767421967361
1673609364.7246869,10.365968,6.517676011797591
1673609364.725694,10.367988,6.524586237571422
1673609364.726702,10.369815,6.531503007119661
1673609364.727709,10.360078,6.538413232893492
1673609364.728716,10.349548,6.545321822723722
1673609364.729723,10.342528,6.552232048497554
1673609364.73073,10.337168,6.559142274271386
1673609364.731737,10.342456,6.580415395709177
1673609364.732744,10.352241,6.5808941645207435
1673609364.733751,10.371593,6.580928676680973
1673609364.734758,10.382964,6.589628011206485
1673609364.735765,10.393518,6.599522261740167
1673609364.736772,10.406596,6.635958743919885
1673609364.737779,10.407222,6.653142
1673609364.738787,10.395081,6.672675532777116
1673609364.739794,10.384816,6.679425825941822
1673609364.7408009,10.386331,6.6834763342870005
1673609364.741808,10.391571,6.705742495297889
1673609364.742815,10.388373,6.728008656308776
1673609364.7438219,10.390946,6.750269545974727
1673609364.744829,10.38972,6.772535706985615
1673609364.745836,10.384167,6.794801867996503
1673609364.7468429,10.375031,6.8170627576624545
1673609364.74785,10.377844,6.839328918673342
1673609364.748857,10.378493,6.861595079684229
1673609364.7498639,10.374478,6.859061097520267
1673609364.750871,10.378133,6.874710204816404
1673609364.751879,10.382099,6.899747581168057
1673609364.752886,10.382532,6.871722835002385
1673609364.753893,10.381042,6.875504006437768
1673609364.7549,10.378974,6.911937692014303
1673609364.755907,10.378133,6.9006175250357655
1673609364.756914,10.378036,6.912443625894134
1673609364.757921,10.374983,6.936687712446352
1673609364.758928,10.373324,6.973607667994543
1673609364.759935,10.371209,7.0194644933151435
1673609364.760942,10.372026,7.065332177462483
1673609364.761949,10.37782,7.111199861609823
1673609364.762956,10.37544,7.166170584982122
1673609364.763964,10.372026,7.220228763710062
1673609364.764971,10.369646,7.251291467095851
1673609364.7659779,10.367266,7.292840568772348
1673609364.766985,10.368155,7.304389
1673609364.767992,10.368685,7.311190705531712
1673609364.7689989,10.369983,7.35018552074392
1673609364.770006,10.378108,7.380725621215733
1673609364.771013,10.383109,7.373018907725322
1673609364.7720199,10.384455,7.4041961996453525
1673609364.773027,10.388542,7.427538411748051
1673609364.774034,10.386234,7.4508806238507495
1673609364.7750409,10.382267,7.474217309861568
1673609364.776048,10.378445,7.497559521964266
1673609364.777056,10.37282,7.520923838434487
1673609364.778063,10.369021,7.5442660505371855
1673609364.77907,10.374189,7.567602736548004
1673609364.780077,10.375152,7.590944948650702
1673609364.781084,10.362025,7.614287160753401
1673609364.782091,10.347553,7.637623846764219
1673609364.783098,10.314281,7.660966058866918
1673609364.784105,10.28661,7.684308270969616
1673609364.785112,10.278388,7.707644956980435
1673609364.786119,10.281633,7.730987169083133
1673609364.787126,10.296323,7.754329381185832
1673609364.788133,10.31416,7.77766606719665
1673609364.789141,10.343706,7.80103038366687
1673609364.790148,10.390249,7.824372595769568
1673609364.7911549,10.44761,7.847709281780387
1673609364.792162,10.456361,7.871051493883085
1673609364.793169,10.424868,7.894393705985784
1673609364.7941759,10.398038,7.917730391996602
1673609364.795183,10.396114,7.9410726040993005
1673609364.79619,10.395682,7.964414816201999
1673609364.7971969,10.39109,7.987751502212817
1673609364.798204,10.393542,8.011093714315516
1673609364.799211,10.390417,8.034435926418215
1673609364.8002179,10.392894,8.057772612429034
1673609364.801225,10.392557,8.081114824531731
1673609364.802233,10.387099,8.104479141001951
1673609364.80324,10.376883,8.12782135310465
1673609364.804247,10.370536,8.136536
1673609364.805254,10.369815,8.17116129613734
1673609364.806261,10.369238,8.190803
1673609364.807268,10.370271,8.214386846447306
1673609364.808275,10.376762,8.238902315212208
1673609364.809282,10.37794,8.220974330870083
1673609364.810289,10.383541,8.245406419170243
1673609364.811296,10.390826,8.250858134954697
1673609364.812303,10.376065,8.24507
1673609364.81331,10.363083,8.248573243944637
1673609364.814318,10.356809,8.253663180507496
1673609364.815325,10.354237,8.258748301614764
1673609364.8163319,10.351712,8.263832218858132
1673609364.817339,10.358347,8.268917339965398
1673609364.818346,10.365871,8.274002461072664
1673609364.8193529,10.368108,8.279086378316032
1673609364.82036,10.368035,8.2841714994233
1673609364.821367,10.378228,8.289256620530566
1673609364.8223739,10.376185,8.294340537773934
1673609364.823381,10.377627,8.299345
1673609364.824388,10.391163,8.299345
1673609364.8253949,10.391547,8.300423296375776
1673609364.826402,10.38282,8.33485543776824
1673609364.82741,10.377194,8.315804094636473
1673609364.828417,10.366281,8.282197196471149
1673609364.829424,10.368829,8.301475713638531
1673609364.830431,10.374118,8.335524
1673609364.831438,10.373035,8.334204128755365
1673609364.832445,10.362289,8.318058804174266
1673609364.833452,10.361978,8.325936932031265
1673609364.834459,10.375825,8.333815059888266
1673609364.835466,10.380561,8.341691322658178
1673609364.836473,10.384287,8.349569450515178
1673609364.83748,10.38169,8.357447578372179
1673609364.838487,10.373661,8.365323841142091
1673609364.839495,10.367362,8.373209429347442
1673609364.840502,10.366905,8.381087557204442
1673609364.8415089,10.367098,8.388963819974354
1673609364.842516,10.364429,8.396841947831355
1673609364.843523,10.367963,8.404720075688354
1673609364.8445299,10.357313,8.412596338458268
1673609364.845537,10.35414,8.420474466315268
1673609364.846544,10.361401,8.428352594172267
1673609364.8475509,10.374526,8.436228856942181
1673609364.848558,10.381474,8.44410698479918
1673609364.849565,10.385104,8.451985112656182
1673609364.8505719,10.379599,8.459861375426094
1673609364.851579,10.376666,8.467739503283093
1673609364.852587,10.37746,8.475625091488444
1673609364.853594,10.373878,8.483503219345444
1673609364.854601,10.358876,8.491379482115356
1673609364.855608,10.336879,8.499257609972357
1673609364.856615,10.338009,8.507135737829357
1673609364.857622,10.33385,8.51501200059927
1673609364.858629,10.332527,8.52289012845627
1673609364.859636,10.322911,8.53076825631327
1673609364.860643,10.320771,8.538644519083183
1673609364.86165,10.331999,8.546522646940183
1673609364.862657,10.347384,8.554400774797184
1673609364.863664,10.356208,8.562277037567096
1673609364.864672,10.376834,8.570162625772445
1673609364.865679,10.399769,8.578040753629447
1673609364.8666859,10.407102,8.585917016399359
1673609364.867693,10.399144,8.593795144256358
1673609364.8687,10.394383,8.60167327211336
1673609364.8697069,10.391884,8.606875
1673609364.870714,10.373228,8.600562525148987
1673609364.871721,10.375223,8.614544631855031
1673609364.8727279,10.390826,8.667707486886027
1673609364.873735,10.390369,8.685927612872467
1673609364.874742,10.387556,8.68368869170243
1673609364.8757489,10.378348,8.695866254649498
1673609364.876756,10.378878,8.73038116328963
1673609364.877764,10.379502,8.704545759895089
1673609364.878771,10.377531,8.726697981757633
1673609364.879778,10.371425,8.754666942393264
1673609364.880785,10.367891,8.782642526036387
1673609364.881792,10.367988,8.81061810967951
1673609364.882799,10.366881,8.83858707031514
1673609364.883806,10.370151,8.866562653958264
1673609364.884813,10.365727,8.894538237601386
1673609364.88582,10.356279,8.922507198237017
1673609364.886827,10.354237,8.95048278188014
1673609364.887834,10.364213,8.978458365523263
1673609364.888841,10.367771,9.006427326158894
1673609364.889849,10.360198,9.034429401831982
1673609364.890856,10.355919,9.062404985475105
1673609364.8918629,10.355775,9.090373946110736
1673609364.89287,10.347528,9.118349529753859
1673609364.893877,10.342505,9.146325113396982
1673609364.8948839,10.340774,9.174294074032613
1673609364.895891,10.345774,9.202269657675735
1673609364.896898,10.344139,9.230245241318858
1673609364.8979049,10.349716,9.25821420195449
1673609364.898912,10.362218,9.286189785597612
1673609364.899919,10.36842,9.314165369240735
1673609364.9009259,10.37883,9.342134329876366
1673609364.901933,10.38472,9.370109913519489
1673609364.902941,10.381522,9.398111989192577
1673609364.903948,10.372267,9.4260875728357
1673609364.904955,10.361401,9.45405653347133
1673609364.905962,10.356472,9.482032117114453
1673609364.906969,10.358275,9.510007700757576
1673609364.907976,10.358731,9.537976661393207
1673609364.908983,10.355246,9.56595224503633
1673609364.90999,10.354332,9.593927828679453
1673609364.910997,10.354188,9.621896789315084
1673609364.912004,10.35801,9.649872372958207
1673609364.913011,10.363876,9.64193467334287
1673609364.914018,10.370175,9.65229839866476
1673609364.915026,10.375512,9.656098
1673609364.916033,10.363997,9.714352256257449
1673609364.9170399,10.360799,9.728463
1673609364.918047,10.363443,9.787724530758226
1673609364.919054,10.36455,9.78587778784267
1673609364.9200609,10.369069,9.797795540534096
1673609364.921068,10.382532,9.84641135765379
1673609364.922075,10.38835,9.870417497794731
1673609364.9230819,10.382964,9.888629405531052
1673609364.924089,10.363372,9.906847482355746
1673609364.925096,10.352986,9.893661869129916
1673609364.9261029,10.360535,9.891273
1673609364.92711,10.366304,9.923181064377681
1673609364.928118,10.362602,9.943551676442537
1673609364.929125,10.350606,9.96177337568534
1673609364.930132,10.345942,9.963637
1673609364.931139,10.355726,9.980118137339055
1673609364.932146,10.362073,10.031543976638856
1673609364.933153,10.374238,10.039761975029535
1673609364.93416,10.376065,10.043865075448394
1673609364.935167,10.374189,10.047968175867254
1673609364.936174,10.344187,10.052070304908174
1673609364.937181,10.283725,10.063362506078665
1673609364.938188,10.263556,10.090989755364808
1673609364.939195,10.262353,10.07975815498331
1673609364.940203,10.272859,10.061745110625447
1673609364.94121,10.286922,10.076167907096877
1673609364.9422169,10.315218,10.090587289080506
1673609364.943224,10.347433,10.105010085551935
1673609364.944231,10.396547,10.119432882023364
1673609364.9452379,10.436864,10.133852264006993
1673609364.946245,10.437176,10.148275060478424
1673609364.947252,10.406092,10.162697856949853
1673609364.9482589,10.379311,10.177117238933482
1673609364.949266,10.372555,10.19154003540491
1673609364.950273,10.372579,10.205962831876342
1673609364.9512799,10.377243,10.220382213859969
1673609364.952287,10.376642,10.2348050103314
1673609364.953295,10.377147,10.249241464754032
1673609364.954302,10.382412,10.263664261225463
1673609364.955309,10.38496,10.278083643209092
1673609364.956316,10.383157,10.29250643968052
1673609364.957323,10.380849,10.30692923615195
1673609364.95833,10.373517,10.321348618135579
1673609364.959337,10.370392,10.33577141460701
1673609364.960344,10.367218,10.350194211078438
1673609364.961351,10.360102,10.364613593062067
1673609364.962358,10.355968,10.379036389533496
1673609364.9633648,10.352626,10.393455771517125
1673609364.964372,10.351543,10.41053187553648
1673609364.96538,10.347721,10.44164591988555
1673609364.966387,10.348274,10.452066
1673609364.9673939,10.346303,10.438936569725865
1673609364.968401,10.341182,10.447235632808775
1673609364.969408,10.342505,10.478842255603242
1673609364.9704149,10.355054,10.528780568057211
1673609364.971422,10.362049,10.501600467811159
1673609364.972429,10.368925,10.50201230758226
1673609364.9734359,10.36943,10.513743554303426
1673609364.974443,10.369742,10.523460399189384
1673609364.97545,10.366665,10.53317724407534
1673609364.9764569,10.367338,10.542891788571884
1673609364.977464,10.36991,10.55260863345784
1673609364.978472,10.366665,10.562334679901456
1673609364.979479,10.359501,10.572051524787412
1673609364.980486,10.350005,10.581766069283955
1673609364.981493,10.350438,10.591482914169912
1673609364.9825,10.35676,10.60119975905587
1673609364.983507,10.356665,10.610914303552413
1673609364.984514,10.362001,10.62063114843837
1673609364.9855208,10.36979,10.630345692934913
1673609364.986528,10.37806,10.64006253782087
1673609364.987535,10.374526,10.649779382706827
1673609364.9885418,10.365896,10.714292551740582
1673609364.989549,10.359765,10.723419
1673609364.990557,10.33909,10.739498590226459
1673609364.991564,10.321637,10.806349180734383
1673609364.9925709,10.319859,10.830206484978541
1673609364.993578,10.324185,10.831962
1673609364.994585,10.332912,10.798785894134477
1673609364.9955919,10.348226,10.829210263710063
1673609364.996599,10.360438,10.831962
1673609364.997606,10.362987,10.849210655188681
1673609364.9986129,10.369742,10.867726433242012
1673609364.99962,10.385777,10.886246595803525
1673609365.000627,10.396667,10.904766758365037
1673609365.001634,10.383734,10.923282536418368
1673609365.002641,10.366641,10.94180269897988
1673609365.003649,10.36265,10.96034039957412
1673609365.004656,10.35967,10.978860562135633
1673609365.005663,10.357121,10.997376340188964
1673609365.00667,10.357602,11.015896502750476
1673609365.0076768,10.353924,11.034412280803807
1673609365.008684,10.354692,11.052932443365318
1673609365.009691,10.361929,11.071452605926831
1673609365.0106978,10.37003,11.08996838398016
1673609365.011705,10.366257,11.108488546541674
1673609365.012712,10.357386,11.127008709103185
1673609365.0137188,10.354597,11.145524487156516
1673609365.014726,10.368011,11.16404464971803
1673609365.015734,10.370993,11.18258235031227
1673609365.016741,10.364717,11.201102512873781
1673609365.0177479,10.362987,11.219618290927112
1673609365.018755,10.359934,11.238138453488624
1673609365.019762,10.351087,11.256658616050137
1673609365.0207689,10.350822,11.275174394103468
1673609365.021776,10.359044,11.29369455666498
1673609365.022783,10.373661,11.312214719226493
1673609365.02379,10.371064,11.330730497279822
1673609365.024797,10.363035,11.349250659841335
1673609365.025804,10.35664,11.367770822402846
1673609365.026811,10.344956,11.386286600456177
1673609365.027818,10.340053,11.404806763017689
1673609365.028826,10.341374,11.423344463611931
1673609365.0298328,10.344789,11.44186024166526
1673609365.03084,10.3282,11.460380404226774
1673609365.031847,10.330869,11.478900566788285
1673609365.0328538,10.345341,11.497416344841616
1673609365.033861,10.348827,11.515936507403127
1673609365.034868,10.361496,11.53445666996464
1673609365.0358748,10.381354,11.552972448017972
1673609365.036882,10.371473,11.571492610579483
1673609365.037889,10.350678,11.590012773140996
1673609365.0388958,10.342817,11.608528551194325
1673609365.039903,10.353924,11.627048713755839
1673609365.040911,10.370536,11.64558641435008
1673609365.041918,10.321324,11.664106576911593
1673609365.042925,10.279181,11.682622354964922
1673609365.043932,10.274806,11.701142517526435
1673609365.044939,10.273339,11.719662680087946
1673609365.045946,10.259853,11.738178458141277
1673609365.046953,10.260406,11.756698620702789
1673609365.04796,10.276537,11.775218783264302
1673609365.048967,10.305434,11.793734561317631
1673609365.049974,10.353203,11.812254723879144
1673609365.050981,10.40513,11.830774886440656
1673609365.051988,10.409433,11.853432722526819
1673609365.052995,10.368876,11.889864808297569
1673609365.054003,10.326036,11.930828014783023
1673609365.0550098,10.303006,11.97624941297091
1673609365.056017,10.272787,11.99920512181168
1673609365.057024,10.253386,12.016175453505008
1673609365.0580308,10.261632,11.989727
1673609365.059038,10.304832,12.005082450774733
1673609365.060045,10.345774,12.064976073915117
1673609365.0610518,10.340845,12.121941748783126
1673609365.062059,10.325292,12.140882737425635
1673609365.063066,10.316397,12.159823726068144
1673609365.06508,10.344476,12.197701219217594
1673609365.066088,10.345822,12.216660144402379
1673609365.067095,10.354188,12.235601133044888
1673609365.068102,10.361616,12.25453763755183
1673609365.069109,10.372531,12.273478626194338
1673609365.070116,10.397244,12.292419614836849
1673609365.071123,10.432176,12.311356119343788
1673609365.07213,10.438931,12.344112885550787
1673609365.073137,10.439219,12.322508273247495
1673609365.074144,10.411212,12.344614961382598
1673609365.076158,10.395634,12.3994002327134
1673609365.077165,10.393831,12.465862774916548
1673609365.078172,10.388373,12.432738769725866
1673609365.07918,10.378805,12.439174506914641
1673609365.0801868,10.378517,12.488217424892705
1673609365.081194,10.371473,12.53321329493524
1673609365.082201,10.368756,12.576542759771893
1673609365.0832078,10.371209,12.619861966685999
1673609365.084215,10.380681,12.66319143152265
1673609365.085222,10.383349,12.706520896359303
1673609365.0862288,10.382893,12.749840103273407
1673609365.087236,10.386883,12.79316956811006
1673609365.088243,10.382339,12.83649903294671
1673609365.0892498,10.378998,12.879818239860816
1673609365.090257,10.378036,12.923147704697469
1673609365.091265,10.382412,12.966518201224305
1673609365.092272,10.378541,13.009847666060958
1673609365.093279,10.378181,13.053166872975064
1673609365.094286,10.38472,13.096496337811715
1673609365.095293,10.385441,13.139825802648367
1673609365.0963,10.386162,13.183145009562473
1673609365.097307,10.378685,13.226474474399124
1673609365.098314,10.375463,13.269803939235777
1673609365.099321,10.373348,13.31312314614988
1673609365.100328,10.376113,13.356452610986533
1673609365.101335,10.382172,13.399782075823184
1673609365.102342,10.382147,13.44310128273729
1673609365.103349,10.380681,13.486430747573943
1673609365.104357,10.378277,13.52980124410078
1673609365.1053638,10.373421,13.573120451014885
1673609365.106371,10.372435,13.616449915851538
1673609365.107378,10.370993,13.659779380688189
1673609365.1083848,10.362866,13.703098587602295
1673609365.109392,10.361737,13.746428052438947
1673609365.110399,10.360126,13.789757517275598
1673609365.1114058,10.343058,13.833076724189704
1673609365.112413,10.340076,13.876406189026355
1673609365.11342,10.339163,13.919735653863007
1673609365.1144269,10.339259,13.963054860777113
1673609365.115434,10.343779,14.006384325613764
1673609365.116442,10.346231,14.049754822140603
1673609365.117449,10.349548,14.08405782260372
1673609365.118456,10.363011,14.060750898426324
1673609365.119463,10.379719,14.128992153039333
1673609365.12047,10.39751,14.162987330472102
1673609365.121477,10.40864,14.186334823319026
1673609365.122484,10.39198,14.243686708869815
1673609365.123491,10.37919,14.438084507042253
1673609365.124498,10.376473,14.47347171051308
1673609365.125505,10.380128,14.497497922283701
1673609365.126512,10.374959,14.453827476424332
1673609365.127519,10.374382,14.475655648618082
1673609365.128526,10.377604,14.497488989689923
1673609365.129534,10.379888,14.519343006274147
1673609365.1305408,10.365463,14.541171178467895
1673609365.131548,10.36402,14.563004519539737
1673609365.132555,10.375103,14.58483786061158
1673609365.1335618,10.372988,14.606666032805329
1673609365.134569,10.353034,14.628499373877172
1673609365.135576,10.337456,14.650332714949016
1673609365.1365829,10.286562,14.672160887142764
1673609365.13759,10.258338,14.693994228214606
1673609365.138597,10.26293,14.71582756928645
1673609365.1396039,10.255261,14.737655741480198
1673609365.140611,10.25603,14.759489082552042
1673609365.141619,10.284927,14.781343099136263
1673609365.142626,10.333153,14.803176440208107
1673609365.143633,10.393206,14.825004612401855
1673609365.14464,10.456096,14.846837953473699
1673609365.145647,10.473021,14.86867129454554
1673609365.146654,10.450952,14.89049946673929
1673609365.147661,10.413256,14.912332807811133
1673609365.148668,10.400875,14.934166148882976
1673609365.149675,10.398422,14.955994321076725
1673609365.150682,10.396691,14.977827662148568
1673609365.151689,10.390874,14.99966100322041
1673609365.152696,10.384503,15.02148917541416
1673609365.153703,10.383085,15.043322516486002
1673609365.154711,10.391067,15.065176533070224
1673609365.1557178,10.383854,15.087004705263972
1673609365.156725,10.380488,15.108838046335816
1673609365.157732,10.377074,15.13067138740766
1673609365.1587389,10.378661,15.152499559601408
1673609365.159746,10.37318,15.174332900673251
1673609365.160753,10.367266,15.196166241745093
1673609365.1617599,10.363035,15.217994413938843
1673609365.162767,10.355318,15.239827755010685
1673609365.163774,10.347794,15.261661096082529
1673609365.1647809,10.347673,15.283489268276277
1673609365.165788,10.357698,15.30532260934812
1673609365.166796,10.3846,15.355299814735337
1673609365.167803,10.396427,15.408765
1673609365.16881,10.393495,15.416414555661502
1673609365.169817,10.374238,15.419077541487841
1673609365.170824,10.376426,15.448294252503576
1673609365.171831,10.383157,15.507241373390558
1673609365.172838,10.384214,15.5173
1673609365.173845,10.385801,15.52558540033381
1673609365.174852,10.374983,15.535389
1673609365.175859,10.364526,15.552468446960667
1673609365.176866,10.362314,15.580239950166906
1673609365.177873,10.368348,15.589664
1673609365.17888,10.373228,15.607498589749703
1673609365.179888,10.375463,15.625842
1673609365.1808949,10.369309,15.662593895565093
1673609365.181902,10.358323,15.698207
1673609365.182909,10.345317,15.688761000476871
1673609365.1839159,10.345702,15.691667940948742
1673609365.184923,10.355246,15.713681000717672
1673609365.18593,10.373492,15.735694060486601
1673609365.1869369,10.374502,15.757701908830397
1673609365.187944,10.356376,15.779714968599327
1673609365.188951,10.351567,15.801728028368256
1673609365.1899579,10.368276,15.823735876712052
1673609365.190965,10.382893,15.845748936480982
1673609365.191973,10.377724,15.86778284195045
1673609365.19298,10.375272,15.889795901719381
1673609365.193987,10.378661,15.911803750063175
1673609365.194994,10.37871,15.933816809832106
1673609365.196001,10.376859,15.955829869601036
1673609365.197008,10.368059,15.97783771794483
1673609365.198015,10.363155,15.99985077771376
1673609365.199022,10.359861,16.02186383748269
1673609365.200029,10.352409,16.043871685826485
1673609365.201036,10.35866,16.065884745595415
1673609365.202043,10.370752,16.087897805364346
1673609365.20305,10.36955,16.10990565370814
1673609365.204057,10.365078,16.13191871347707
1673609365.205065,10.359838,16.15395261894654
1673609365.2060719,10.361328,16.175960467290334
1673609365.207079,10.363973,16.197973527059265
1673609365.208086,10.358611,16.219986586828195
1673609365.2090929,10.352313,16.24199443517199
1673609365.2101,10.36253,16.26400749494092
1673609365.211107,10.36967,16.28602055470985
1673609365.2121139,10.369382,16.308028403053644
1673609365.213121,10.363323,16.330041462822575
1673609365.214128,10.357242,16.352054522591505
1673609365.2151349,10.358996,16.3740623709353
1673609365.216142,10.351953,16.39607543070423
1673609365.21715,10.342889,16.4181093361737
1673609365.218157,10.341038,16.440122395942627
1673609365.219164,10.348971,16.462130244286424
1673609365.220171,10.355846,16.484143304055355
1673609365.221178,10.353971,16.50615636382428
1673609365.222185,10.35765,16.52816421216808
1673609365.223192,10.365294,16.55017727193701
1673609365.224199,10.366064,16.572190331705936
1673609365.225206,10.368444,16.594198180049734
1673609365.226213,10.371666,16.616211239818664
1673609365.22722,10.364093,16.63822429958759
1673609365.228227,10.343682,16.66023214793139
1673609365.229234,10.334066,16.68224520770032
1673609365.230242,10.33308,16.704279113169786
1673609365.2312489,10.333009,16.673916908202195
1673609365.232256,10.329114,16.68212174135876
1673609365.233263,10.331061,16.71855903624225
1673609365.2342699,10.33522,16.742163328326182
1673609365.235277,10.338177,16.734478293991415
1673609365.236284,10.346591,16.768575789034564
1673609365.2372909,10.358227,16.770404704101097
1673609365.238298,10.369262,16.792187271816882
1673609365.239305,10.375632,16.81516261501788
1673609365.2403119,10.369262,16.826101682669744
1673609365.241319,10.347794,16.834562670792007
1673609365.242327,10.327671,16.843031671213627
1673609365.243334,10.313536,16.851492659335886
1673609365.244341,10.313776,16.859951644383308
1673609365.245348,10.315964,16.86841263250557
1673609365.246355,10.310795,16.87687362062783
1673609365.247362,10.309473,16.885332605675252
1673609365.248369,10.280624,16.893793593797515
1673609365.249376,10.25281,16.902254581919774
1673609365.250383,10.239563,16.910713566967196
1673609365.25139,10.187707,16.919174555089455
1673609365.252397,10.156527,16.927635543211718
1673609365.253404,10.173739,16.93609452825914
1673609365.254412,10.212109,16.94456352868076
1673609365.255419,10.227975,16.95302451680302
1673609365.2564259,10.273796,16.96148350185044
1673609365.257433,10.335797,16.9699444899727
1673609365.25844,10.406332,16.978405478094963
1673609365.2594469,10.485185,16.986864463142386
1673609365.260454,10.515356,16.995325451264645
1673609365.261461,10.483983,17.003786439386907
1673609365.2624679,10.436888,17.01224542443433
1673609365.263475,10.416621,17.02070641255659
1673609365.264482,10.410058,17.02916740067885
1673609365.2654889,10.405851,17.03762638572627
1673609365.266496,10.396427,17.046087373848533
1673609365.267504,10.396908,17.054556374270152
1673609365.268511,10.393542,17.06301736239241
1673609365.269518,10.384047,17.071476347439834
1673609365.270525,10.376353,17.079937335562096
1673609365.271532,10.343058,17.088398323684356
1673609365.272539,10.31469,17.096857308731778
1673609365.273546,10.299208,17.105318296854037
1673609365.274553,10.28899,17.1137792849763
1673609365.27556,10.297957,17.122238270023722
1673609365.276567,10.30416,17.13069925814598
1673609365.277574,10.306996,17.139160246268244
1673609365.278581,10.321541,17.147619231315666
1673609365.279589,10.376714,17.156088231737282
1673609365.280596,10.422391,17.164549219859545
1673609365.2816029,10.41376,17.173008204906967
1673609365.28261,10.400995,17.181469193029226
1673609365.283617,10.38484,17.18993018115149
1673609365.2846239,10.36729,17.19838916619891
1673609365.285631,10.366425,17.20685015432117
1673609365.286638,10.370392,17.215311142443433
1673609365.2876449,10.377316,17.22377012749085
1673609365.288652,10.379575,17.232231115613114
1673609365.289659,10.380441,17.240692103735377
1673609365.2906659,10.377027,17.249151088782796
1673609365.291673,10.37544,17.25761207690506
1673609365.292681,10.373468,17.266081077326678
1673609365.293688,10.371305,17.274542065448937
1673609365.294695,10.376282,17.28300105049636
1673609365.295702,10.374358,17.284421684210525
1673609365.296709,10.374358,17.26286683150358
1673609365.297716,10.376017,17.375391009905773
1673609365.298723,10.366593,17.365382072463767
1673609365.29973,10.362218,17.412670128861002
1673609365.300737,10.365487,17.40026952657005
1673609365.301744,10.373854,17.476386022222222
1673609365.302751,10.37592,17.446159053571428
1673609365.303758,10.371906,17.481434195652174
1673609365.304766,10.365655,17.47481124606581
1673609365.305773,10.360271,17.49303136623748
1673609365.3067799,10.355438,17.499153705601906
1673609365.307787,10.361088,17.4751907958989
1673609365.308794,10.361905,17.506272884597042
1673609365.3098009,10.361521,17.543835737482116
1673609365.310808,10.364285,17.494902202696256
1673609365.311815,10.357121,17.518088884737093
1673609365.3128219,10.348682,17.54127007750661
1673609365.313829,10.34099,17.564456759547443
1673609365.314836,10.335292,17.587643441588277
1673609365.3158429,10.338417,17.610824634357794
1673609365.31685,10.352385,17.63401131639863
1673609365.317858,10.360487,17.65721995552473
1673609365.318865,10.371593,17.680406637565564
1673609365.319872,10.379744,17.70358783033508
1673609365.320879,10.366497,17.726774512375915
1673609365.321886,10.352553,17.736433968526466
1673609365.322893,10.337552,17.736451220791608
1673609365.3239,10.326541,17.766680022884387
1673609365.324907,10.319449,17.778564
1673609365.325914,10.327551,17.785023515736768
1673609365.326921,10.335364,17.822998928963052
1673609365.327928,10.33195,17.889153361468765
1673609365.328935,10.338249,17.930128210061994
1673609365.329943,10.354548,17.94836257568534
1673609365.33095,10.370416,17.96815844432229
1673609365.3319569,10.385898,17.99042002039816
1673609365.332964,10.373854,18.01268686798151
1673609365.333971,10.350125,18.034953715564857
1673609365.3349779,10.331349,18.057215291640727
1673609365.335985,10.316541,18.079482139224076
1673609365.336992,10.304111,18.101748986807422
1673609365.3379989,10.31481,18.124010562883296
1673609365.339006,10.349741,18.14627741046664
1673609365.340013,10.347985,18.16854425804999
1673609365.3410199,10.333441,18.19080583412586
1673609365.342027,10.308199,18.213072681709207
1673609365.343035,10.319185,18.235360615322463
1673609365.344042,10.35753,18.257627462905813
1673609365.345049,10.380272,18.279889038981683
1673609365.346056,10.397268,18.30215588656503
1673609365.347063,10.408423,18.324422734148378
1673609365.34807,10.417992,18.346684310224248
1673609365.349077,10.414939,18.357454
1673609365.350084,10.389047,18.386056276042908
1673609365.351091,10.362169,18.44069233237959
1673609365.352098,10.329955,18.514924606103957
1673609365.353105,10.320219,18.526702420977355
1673609365.354112,10.316132,18.51221195040534
1673609365.35512,10.282043,18.540630298998572
1673609365.356127,10.264685,18.556442
1673609365.3571339,10.274109,18.58774797377831
1673609365.358141,10.303342,18.623713444124554
1673609365.359148,10.331205,18.646141597649304
1673609365.3601549,10.370752,18.66856444147862
1673609365.361162,10.40739,18.69099259500337
1673609365.362169,10.430132,18.71342074852812
1673609365.3631759,10.419939,18.73584359235743
1673609365.364183,10.407246,18.75827174588218
1673609365.36519,10.408664,18.78069989940693
1673609365.3661969,10.414794,18.803122743236244
1673609365.367204,10.404192,18.825550896760994
1673609365.368212,10.397124,18.848000289067492
1673609365.369219,10.393566,18.870428442592242
1673609365.370226,10.390177,18.892851286421553
1673609365.371233,10.392941,18.915279439946303
1673609365.37224,10.39008,18.937707593471053
1673609365.373247,10.386811,18.960130437300368
1673609365.374254,10.389552,18.982558590825118
1673609365.375261,10.390657,19.004986744349868
1673609365.376268,10.391788,19.027409588179182
1673609365.377275,10.387268,19.049837741703932
1673609365.378282,10.379647,19.072265895228682
1673609365.379289,10.370367,19.094688739057997
1673609365.380297,10.366593,19.11713813136449
1673609365.381304,10.366401,19.13956628488924
1673609365.3823109,10.367627,19.161989128718556
1673609365.383318,10.377387,19.184417282243306
1673609365.384325,10.377771,19.206845435768056
1673609365.3853319,10.376185,19.22926827959737
1673609365.386339,10.368565,19.25169643312212
1673609365.387346,10.374214,19.27412458664687
1673609365.3883529,10.38496,19.29654743047618
1673609365.38936,10.384816,19.31897558400093
1673609365.390367,10.384047,19.34140373752568
1673609365.3913739,10.388373,19.363826581354996
1673609365.392381,10.388422,19.386254734879746
1673609365.393389,10.391427,19.408704127186244
1673609365.394396,10.385994,19.431132280710994
1673609365.395403,10.382772,19.453555124540305
1673609365.39641,10.391258,19.475983278065055
1673609365.397417,10.385056,19.498411431589805
1673609365.398424,10.372458,19.52083427541912
1673609365.399431,10.374839,19.54326242894387
1673609365.400438,10.364477,19.56569058246862
1673609365.401445,10.342456,19.588113426297934
1673609365.402452,10.331566,19.610541579822684
1673609365.403459,10.326013,19.632969733347434
1673609365.404466,10.326902,19.655392577176745
1673609365.405474,10.341062,19.677841969483243
1673609365.406481,10.348971,19.700270123007993
1673609365.4074879,10.342024,19.722692966837307
1673609365.408495,10.331782,19.745121120362057
1673609365.4105089,10.379046,19.78997211771612
1673609365.411516,10.370896,19.812400271240868
1673609365.412523,10.327479,19.834828424765618
1673609365.4135299,10.309713,19.85416824672229
1673609365.414537,10.300746,19.845471489270384
1673609365.415544,10.294976,19.840839
1673609365.4165509,10.279879,19.840839
1673609365.417558,10.287452,19.896191150691465
1673609365.418566,10.308871,19.89922103910348
1673609365.419573,10.358876,19.895115
1673609365.42058,10.425445,19.92358307580453
1673609365.421587,10.454317,19.916930489270385
1673609365.422594,10.44684,19.928890248048347
1673609365.423601,10.417895,19.94860543421149
1673609365.424608,10.394263,19.968325288900836
1673609365.425615,10.3758,19.988045143590185
1673609365.426622,10.363588,20.007760329753328
1673609365.427629,10.378157,20.027480184442677
1673609365.428636,10.392148,20.047200039132026
1673609365.429643,10.397365,20.06691522529517
1673609365.430651,10.411982,20.086653754089337
1673609365.431658,10.419482,20.106373608778682
1673609365.4326649,10.409217,20.126088794941825
1673609365.433672,10.39085,20.145808649631174
1673609365.434679,10.363107,20.165528504320523
1673609365.4356859,10.368709,20.185243690483667
1673609365.436693,10.394913,20.204963545173015
1673609365.4377,10.407366,20.224683399862364
1673609365.4387069,10.384431,20.244398586025508
1673609365.439714,10.368228,20.264118440714853
1673609365.440721,10.351953,20.283838295404202
1673609365.4417279,10.327311,20.303553481567345
1673609365.442735,10.320411,20.323273336256694
1673609365.443743,10.342696,20.343011865050862
1673609365.44475,10.362819,20.36273171974021
1673609365.445757,10.360006,20.382446905903354
1673609365.446764,10.358587,20.4021667605927
1673609365.447771,10.366137,20.421886615282048
1673609365.448778,10.368756,20.44160180144519
1673609365.449785,10.370392,20.46132165613454
1673609365.450792,10.347337,20.48104151082389
1673609365.451799,10.333994,20.500756696987033
1673609365.452806,10.354044,20.52047655167638
1673609365.453813,10.366281,20.540196406365727
1673609365.45482,10.373204,20.55991159252887
1673609365.455828,10.382172,20.579650121323038
1673609365.456835,10.389191,20.599369976012387
1673609365.4578419,10.400178,20.61908516217553
1673609365.458849,10.420059,20.63880501686488
1673609365.459856,10.431719,20.658524871554228
1673609365.4608629,10.431262,20.67824005771737
1673609365.46187,10.421357,20.697959912406716
1673609365.462877,10.400995,20.717679767096065
1673609365.4638839,10.383614,20.73739495325921
1673609365.464891,10.38484,20.757114807948557
1673609365.465898,10.38246,20.776834662637906
1673609365.4669049,10.389816,20.79654984880105
1673609365.467912,10.410972,20.8162697034904
1673609365.46892,10.410851,20.836008232284563
1673609365.469927,10.393206,20.85572808697391
1673609365.470934,10.378204,20.875443273137055
1673609365.471941,10.382893,20.895163127826404
1673609365.472948,10.383205,20.914882982515753
1673609365.473955,10.368276,20.934598168678896
1673609365.474962,10.364309,20.954318023368245
1673609365.475969,10.366665,20.97403787805759
1673609365.476976,10.374671,20.993753064220734
1673609365.477983,10.389527,20.98487843848355
1673609365.4789898,10.394383,21.00823003051979
1673609365.479997,10.392653,21.072635616595136
1673609365.481005,10.398471,21.117311692967817
1673609365.482012,10.408688,21.139498776347164
1673609365.4830189,10.407654,21.157713968049595
1673609365.484026,10.396908,21.13240519213349
1673609365.485033,10.377411,21.16914617381974
1673609365.4860399,10.349548,21.209031441583214
1673609365.487047,10.340341,21.242287810388575
1673609365.488054,10.348154,21.27483269077135
1673609365.4890609,10.381763,21.307369866400247
1673609365.490068,10.408688,21.33991474678302
1673609365.491075,10.42405,21.372459627165796
1673609365.4920819,10.418401,21.40499680279469
1673609365.493089,10.411261,21.437541683177468
1673609365.494097,10.393422,21.470117382575758
1673609365.495104,10.37318,21.502662262958534
1673609365.496111,10.360535,21.53519943858743
1673609365.497118,10.358973,21.567744318970206
1673609365.498125,10.363372,21.60028919935298
1673609365.499132,10.370223,21.632826374981878
1673609365.500139,10.388566,21.66537125536465
1673609365.5011458,10.411693,21.69790843099355
1673609365.502153,10.401548,21.730453311376323
1673609365.50316,10.391619,21.7629981917591
1673609365.5041668,10.390057,21.795535367387995
1673609365.505174,10.389527,21.82808024777077
1673609365.506182,10.371353,21.86065594716906
1673609365.507189,10.347072,21.893200827551833
1673609365.5081959,10.341327,21.925738003180733
1673609365.509203,10.349981,21.958282883563506
1673609365.51021,10.358973,21.99082776394628
1673609365.5112169,10.349765,22.023364939575178
1673609365.512224,10.303558,22.055909819957954
1673609365.513231,10.258867,22.065926
1673609365.5142379,10.231317,22.104128145922747
1673609365.515245,10.222951,22.15878640200286
1673609365.516252,10.240597,22.148492564243146
1673609365.517259,10.258795,22.13829
1673609365.518266,10.291562,22.16477295898903
1673609365.519274,10.355486,22.174469
1673609365.520281,10.41227,22.174469
1673609365.521288,10.439099,22.188106915593703
1673609365.522295,10.435565,22.212520461912593
1673609365.5233018,10.421718,22.23893069896049
1673609365.524309,10.439893,22.2653471899125
1673609365.525316,10.427656,22.291763680864506
1673609365.5263228,10.429147,22.318173917912404
1673609365.52733,10.430469,22.34459040886441
1673609365.528337,10.424963,22.371006899816415
1673609365.5293438,10.429555,22.397417136864313
1673609365.530351,10.434604,22.42383362781632
1673609365.531359,10.421814,22.45027513438476
1673609365.532366,10.417775,22.476691625336766
1673609365.5333729,10.419313,22.503101862384664
1673609365.53438,10.403087,22.52951835333667
1673609365.535387,10.38133,22.555934844288675
1673609365.5363939,10.362169,22.582345081336573
1673609365.537401,10.3157,22.608761572288582
1673609365.538408,10.294976,22.635178063240588
1673609365.539415,10.266488,22.661588300288486
1673609365.540422,10.237712,22.68800479124049
1673609365.541429,10.231485,22.714421282192497
1673609365.542436,10.24526,22.717173
1673609365.543443,10.277955,22.750055817358128
1673609365.544451,10.32707,22.803116075822604
1673609365.5454578,10.383397,22.824339523366714
1673609365.546465,10.451769,22.876230595947554
1673609365.547472,10.483502,22.879982
1673609365.5484788,10.493455,22.879982
1673609365.549486,10.474799,22.931636856734205
1673609365.550493,10.461361,22.93425
1673609365.5514998,10.448162,22.963473824472256
1673609365.552507,10.433979,22.99394566712119
1673609365.553514,10.424098,23.02441750977012
1673609365.5545208,10.422463,23.054882138441155
1673609365.555528,10.424531,23.085353981090083
1673609365.556536,10.423617,23.115854679650617
1673609365.557543,10.421093,23.146326522299546
1673609365.55855,10.417992,23.17679115097058
1673609365.559557,10.41566,23.207262993619512
1673609365.560564,10.410203,23.23773483626844
1673609365.561571,10.413472,23.268199464939475
1673609365.562578,10.417102,23.298671307588407
1673609365.563585,10.421165,23.32914315023734
1673609365.564592,10.418978,23.35960777890837
1673609365.565599,10.408928,23.3900796215573
1673609365.566606,10.40953,23.420551464206234
1673609365.567613,10.406957,23.451016092877264
1673609365.56862,10.403327,23.481487935526197
1673609365.569628,10.403279,23.52540546130031
1673609365.5706348,10.400586,23.559553472103005
1673609365.571642,10.399985,23.588156385202865
1673609365.572649,10.40162,23.624583433436534
1673609365.5736558,10.40376,23.65038415045303
1673609365.574663,10.402726,23.690124908830548
1673609365.57567,10.400538,23.755691367429662
1673609365.5766768,10.398928,23.795492320314363
1673609365.577684,10.399432,23.813716016945108
1673609365.578691,10.397028,23.839871656076152
1673609365.5796978,10.397077,23.870902796761033
1673609365.580705,10.39751,23.901941285573002
1673609365.581713,10.401307,23.933009166893314
1673609365.58272,10.392341,23.96404765570528
1673609365.583727,10.383686,23.99507879639016
1673609365.584734,10.377483,24.026117285202126
1673609365.585741,10.379599,24.057155774014092
1673609365.586748,10.386522,24.088186914698973
1673609365.587755,10.390417,24.119225403510942
1673609365.588762,10.401596,24.150263892322908
1673609365.589769,10.407005,24.18129503300779
1673609365.590776,10.397798,24.212333521819755
1673609365.591783,10.395634,24.24337201063172
1673609365.59279,10.390153,24.2744031513166
1673609365.593797,10.385585,24.30544164012857
1673609365.594805,10.385898,24.336509521448882
1673609365.5958118,10.393831,24.367540662133763
1673609365.596819,10.401403,24.39857915094573
1673609365.597826,10.400682,24.429617639757694
1673609365.5988328,10.40376,24.460648780442575
1673609365.59984,10.391932,24.49168726925454
1673609365.600847,10.381786,24.52272575806651
1673609365.6018538,10.366714,24.55375689875139
1673609365.602861,10.362073,24.584795387563357
1673609365.603868,10.380416,24.615833876375323
1673609365.6048748,10.395105,24.646865017060204
1673609365.605882,10.401163,24.652817
1673609365.60689,10.398928,24.69736748259418
1673609365.607897,10.403447,24.722078579236275
1673609365.608904,10.402246,24.7402956103958
1673609365.609911,10.390369,24.743263
1673609365.610918,10.388879,24.727889508591886
1673609365.611925,10.286129,24.75617717739628
1673609365.612932,10.22086,24.745740196951655
1673609365.613939,10.203959,24.79048596709585
1673609365.614946,10.217758,24.791554035096166
1673609365.615953,10.228865,24.78468060068785
1673609365.61696,10.272114,24.77780716627953
1673609365.617967,10.338369,24.770935359104737
1673609365.618974,10.433834,24.76406192469642
1673609365.619982,10.511293,24.757181981354005
1673609365.6209888,10.494802,24.750310174179212
1673609365.621996,10.434772,24.743436739770893
1673609365.623003,10.402437,24.736563305362576
1673609365.6240098,10.403784,24.729691498187783
1673609365.625017,10.413208,24.722818063779464
1673609365.626024,10.40412,24.715944629371148
1673609365.6270308,10.385465,24.709072822196354
1673609365.628038,10.384047,24.702199387788035
1673609365.629045,10.398062,24.69532595337972
1673609365.6300519,10.404072,24.688454146204926
1673609365.631059,10.410804,24.68158071179661
1673609365.632067,10.427848,24.67470076845419
1673609365.633074,10.421069,24.667827334045874
1673609365.634081,10.405972,24.66095552687108
1673609365.635088,10.397317,24.65408209246276
1673609365.636095,10.402317,24.647208658054446
1673609365.637102,10.393831,24.640336850879653
1673609365.638109,10.380969,24.633463416471333
1673609365.639116,10.372675,24.626589982063017
1673609365.640123,10.37003,24.619718174888224
1673609365.64113,10.374022,24.612844740479908
1673609365.642137,10.386883,24.605971306071588
1673609365.643144,10.402437,24.599099498896795
1673609365.644151,10.398784,24.59222606448848
1673609365.645159,10.397077,24.58534612114606
1673609365.6461658,10.407149,24.578474313971267
1673609365.647173,10.387965,24.57160087956295
1673609365.64818,10.368468,24.56472744515463
1673609365.6491868,10.369358,24.55785563797984
1673609365.650194,10.382436,24.55098220357152
1673609365.651201,10.373612,24.544108769163206
1673609365.6522079,10.348562,24.537236961988413
1673609365.653215,10.296058,24.530363527580093
1673609365.654222,10.238553,24.523490093171777
1673609365.6552289,10.217975,24.516618285996984
1673609365.656236,10.230186,24.509744851588664
1673609365.657244,10.263315,24.50286490824625
1673609365.658251,10.272931,24.49599147383793
1673609365.659258,10.293653,24.5016652238379
1673609365.660265,10.328272,24.580454
1673609365.661272,10.390465,24.57527817739628
1673609365.662279,10.491315,24.53885045601907
1673609365.663286,10.546704,24.51661114973772
1673609365.664293,10.523314,24.55346266714354
1673609365.6653,10.478333,24.501911999046484
1673609365.666307,10.450927,24.47191
1673609365.667314,10.442152,24.46856306056271
1673609365.668321,10.437272,24.454065598506894
1673609365.669328,10.430276,24.455349057007655
1673609365.670336,10.425468,24.456633730904727
1673609365.6713428,10.424002,24.45791688555641
1673609365.67235,10.419987,24.459200344057173
1673609365.673357,10.421189,24.460483802557935
1673609365.6743639,10.423281,24.46176695720962
1673609365.675371,10.418953,24.46305041571038
1673609365.676378,10.418088,24.464333874211142
1673609365.6773849,10.411477,24.46561702886283
1673609365.678392,10.399769,24.466900487363592
1673609365.679399,10.39186,24.468183945864354
1673609365.6804059,10.389984,24.469467100516038
1673609365.681413,10.391211,24.4707505590168
1673609365.682421,10.386162,24.47203523291387
1673609365.683428,10.3758,24.473318691414633
1673609365.684435,10.372675,24.474601846066317
1673609365.685442,10.372435,24.47588530456708
1673609365.686449,10.38133,24.47716876306784
1673609365.687456,10.395634,24.478451917719525
1673609365.688463,10.409962,24.47973537622029
1673609365.68947,10.412799,24.481018834721052
1673609365.690477,10.404889,24.482301989372736
1673609365.691484,10.397654,24.483585447873498
1673609365.692491,10.400635,24.48486890637426
1673609365.693498,10.402726,24.486152061025944
1673609365.694505,10.405803,24.487435519526706
1673609365.695513,10.404264,24.488720193423777
1673609365.6965199,10.398278,24.49000334807546
1673609365.697527,10.388326,24.491286806576223
1673609365.698534,10.387652,24.492570265076985
1673609365.6995409,10.385657,24.493853419728673
1673609365.700548,10.375993,24.495136878229435
1673609365.701555,10.358516,24.496420336730196
1673609365.7025619,10.34373,24.49770349138188
1673609365.703569,10.350149,24.498986949882642
1673609365.704576,10.36842,24.500270408383404
1673609365.7055829,10.386835,24.50155356303509
1673609365.70659,10.422295,24.50283702153585
1673609365.707598,10.431069,24.50412169543292
1673609365.708605,10.403303,24.505405153933683
1673609365.709612,10.378854,24.506688308585368
1673609365.710619,10.381522,24.50797176708613
1673609365.711626,10.402029,24.50925522558689
1673609365.712633,10.418472,24.51053838023858
1673609365.71364,10.416525,24.51182183873934
1673609365.714647,10.402173,24.513105297240102
1673609365.715654,10.384359,24.514388451891787
1673609365.716661,10.371305,24.51567191039255
1673609365.717668,10.360775,24.51695536889331
1673609365.718675,10.371666,24.518238523544998
1673609365.719682,10.37544,24.51952198204576
1673609365.72069,10.369935,24.520806655942827
1673609365.7216969,10.367266,24.52208981059451
1673609365.722704,10.365006,24.523373269095273
1673609365.723711,10.393158,24.52465672759604
1673609365.7247179,10.409289,24.525939882247723
1673609365.725725,10.404962,24.51146119170243
1673609365.726732,10.402774,24.508097
1673609365.7277389,10.393471,24.448189684787792
1673609365.728746,10.38597,24.465940716261326
1673609365.729753,10.357217,24.456679881287247
1673609365.7307599,10.283484,24.484530880782067
1673609365.731767,10.218816,24.49
1673609365.732775,10.22235,24.47437230989273
1673609365.733782,10.263892,24.47191
1673609365.734789,10.299352,24.469463999832126
1673609365.735796,10.337215,24.466657942062135
1673609365.736803,10.386739,24.463851884292147
1673609365.73781,10.427512,24.461046490835074
1673609365.738817,10.462539,24.458240433065082
1673609365.739824,10.471457,24.455434375295095
1673609365.740831,10.441624,24.45262898183802
1673609365.741838,10.411813,24.449822924068034
1673609365.742845,10.404794,24.447016866298043
1673609365.743852,10.40977,24.44421147284097
1673609365.744859,10.434099,24.44140541507098
1673609365.745867,10.435925,24.438596700049313
1673609365.7468739,10.423064,24.435791306592243
1673609365.747881,10.411284,24.432985248822252
1673609365.748888,10.414073,24.43017919105226
1673609365.7498949,10.414313,24.42737379759519
1673609365.750902,10.411813,24.4245677398252
1673609365.751909,10.39662,24.42176168205521
1673609365.7529159,10.383782,24.41895628859814
1673609365.753923,10.367819,24.416150230828148
1673609365.75493,10.337936,24.413344173058157
1673609365.7559369,10.336158,24.410538779601087
1673609365.756944,10.346014,24.407732721831096
1673609365.757952,10.349476,24.40492400680943
1673609365.758959,10.346158,24.40211794903944
1673609365.759966,10.351183,24.39931255558237
1673609365.760973,10.356568,24.39650649781238
1673609365.76198,10.372194,24.393700440042387
1673609365.762987,10.394937,24.390895046585317
1673609365.763994,10.420756,24.388088988815326
1673609365.765001,10.424482,24.385282931045335
1673609365.766008,10.429844,24.382477537588265
1673609365.767015,10.411428,24.379671479818274
1673609365.768022,10.40799,24.376865422048283
1673609365.769029,10.408977,24.374060028591213
1673609365.770037,10.401427,24.371251313569548
1673609365.771044,10.391403,24.368445255799557
1673609365.7720509,10.388062,24.365639862342487
1673609365.773058,10.386018,24.362833804572496
1673609365.774065,10.380079,24.360027746802505
1673609365.7750719,10.381354,24.357222353345435
1673609365.776079,10.381522,24.354416295575444
1673609365.777086,10.381162,24.351610237805453
1673609365.7780929,10.37883,24.348804844348383
1673609365.7791,10.375585,24.34599878657839
1673609365.780107,10.380825,24.34528
1673609365.7811139,10.380632,24.35895424868735
1673609365.782121,10.377003,24.308162884597042
1673609365.783129,10.376162,24.30495713134684
1673609365.784136,10.364117,24.32316112553597
1673609365.785143,10.353227,24.298800199522674
1673609365.78615,10.359621,24.291012
1673609365.787157,10.36717,24.305451313720816
1673609365.788164,10.374791,24.323675812410503
1673609365.789171,10.382003,24.326930379517744
1673609365.790178,10.381595,24.326608785113915
1673609365.791185,10.386331,24.326287266845124
1673609365.792192,10.394432,24.3259656724413
1673609365.793199,10.409794,24.32564407803747
1673609365.794206,10.412582,24.32532255976868
1673609365.795214,10.398231,24.325000660824696
1673609365.796221,10.391403,24.324679066420867
1673609365.7972279,10.388855,24.32435754815208
1673609365.798235,10.385585,24.32403595374825
1673609365.799242,10.377243,24.32371435934442
1673609365.8002489,10.352721,24.32339284107563
1673609365.801256,10.3257,24.3230712466718
1673609365.802263,10.313848,24.322749652267973
1673609365.8032699,10.302934,24.322428133999185
1673609365.804277,10.287643,24.322106539595357
1673609365.805284,10.292596,24.321784945191528
1673609365.8062909,10.320507,24.321463426922737
1673609365.807298,10.316228,24.321141832518908
1673609365.808306,10.310531,24.320819933574924
1673609365.809313,10.313295,24.320498339171095
1673609365.81032,10.307717,24.320176820902308
1673609365.811327,10.313439,24.31985522649848
1673609365.812334,10.316348,24.31953363209465
1673609365.813341,10.32017,24.31921211382586
1673609365.814348,10.319257,24.31889051942203
1673609365.815355,10.331758,24.318568925018205
1673609365.816362,10.36253,24.318247406749414
1673609365.817369,10.371954,24.317925812345585
1673609365.818376,10.37556,24.317604217941756
1673609365.819383,10.354645,24.31728269967297
1673609365.820391,10.34123,24.316960800728985
1673609365.821398,10.332792,24.316639206325156
1673609365.8224049,10.368132,24.316317688056365
1673609365.823412,10.392461,24.315996093652537
1673609365.824419,10.389576,24.315674499248708
1673609365.8254259,10.364646,24.31535298097992
1673609365.826433,10.320411,24.31503138657609
1673609365.82744,10.317045,24.314709792172263
1673609365.8284469,10.320627,24.31438827390347
1673609365.829454,10.334884,24.314066679499643
1673609365.830461,10.335292,24.313745085095814
1673609365.8314679,10.311372,24.313423566827026
1673609365.832475,10.305073,24.313101972423198
1673609365.833483,10.303558,24.312780073479214
1673609365.83449,10.31904,24.312458479075385
1673609365.835497,10.371546,24.312136960806594
1673609365.836504,10.412631,24.311815366402765
1673609365.837511,10.430733,24.311493771998936
1673609365.838518,10.471121,24.31117225373015
1673609365.839525,10.511077,24.31085065932632
1673609365.840532,10.496917,24.31052906492249
1673609365.841539,10.44648,24.3102075466537
1673609365.842546,10.406596,24.309885952249875
1673609365.843553,10.429724,24.309564357846046
1673609365.84456,10.445951,24.309242839577255
1673609365.845568,10.437128,24.309101
1673609365.846575,10.426839,24.3504253144969
1673609365.8475819,10.423208,24.36055661644815
1673609365.848589,10.419939,24.37702453385789
1673609365.849596,10.417342,24.42097309513591
1673609365.8506029,10.418858,24.435732
1673609365.85161,10.410178,24.457654401907032
1673609365.852617,10.406885,24.494093304005723
1673609365.8536239,10.410611,24.541739536957557
1673609365.854631,10.400803,24.576095612559296
1673609365.855638,10.407558,24.59814812489787
1673609365.8566449,10.413256,24.62019541647122
1673609365.857652,10.409361,24.642247928809798
1673609365.85866,10.401212,24.664321324209304
1673609365.859667,10.402918,24.68637383654788
1673609365.860674,10.398278,24.708421128121227
1673609365.861681,10.390778,24.730473640459806
1673609365.862688,10.393254,24.752526152798385
1673609365.863695,10.39674,24.77457344437173
1673609365.864702,10.39799,24.796625956710308
1673609365.865709,10.399312,24.818678469048887
1673609365.866716,10.396091,24.840725760622234
1673609365.867723,10.39061,24.86277827296081
1673609365.86873,10.390201,24.88483078529939
1673609365.869737,10.394336,24.906878076872736
1673609365.870745,10.390922,24.928951472272242
1673609365.871752,10.38496,24.951003984610818
1673609365.8727589,10.382483,24.973051276184165
1673609365.873766,10.380561,24.995103788522744
1673609365.874773,10.379287,25.017156300861323
1673609365.8757799,10.38472,25.039203592434667
1673609365.876787,10.394023,25.061256104773246
1673609365.877794,10.397485,25.083308617111825
1673609365.8788009,10.395226,25.105355908685173
1673609365.879808,10.393903,25.12740842102375
1673609365.880815,10.396811,25.149460933362327
1673609365.8818219,10.397004,25.171508224935675
1673609365.882829,10.39335,25.193560737274254
1673609365.883837,10.383998,25.215634132673756
1673609365.884844,10.381739,25.237686645012335
1673609365.885851,10.384647,25.259733936585683
1673609365.886858,10.39186,25.28178644892426
1673609365.887865,10.386979,25.303838961262837
1673609365.888872,10.3802,25.325886252836185
1673609365.889879,10.382916,25.347938765174764
1673609365.890886,10.386042,25.369991277513343
1673609365.891893,10.378445,25.392038569086687
1673609365.8929,10.374983,25.414091081425266
1673609365.893907,10.364069,25.436143593763845
1673609365.894914,10.357049,25.458190885337192
1673609365.895922,10.356472,25.480264280736694
1673609365.896929,10.369262,25.502316793075273
1673609365.8979359,10.394263,25.52436408464862
1673609365.898943,10.393374,25.5464165969872
1673609365.89995,10.380488,25.568469109325775
1673609365.9009569,10.379431,25.590516400899123
1673609365.901964,10.388062,25.612568913237702
1673609365.902971,10.386763,25.63462142557628
1673609365.9039779,10.381402,25.656668717149625
1673609365.904985,10.368372,25.678721229488204
1673609365.905992,10.366208,25.700773741826783
1673609365.9069989,10.360655,25.72282103340013
1673609365.908006,10.342384,25.744873545738706
1673609365.909014,10.33909,25.76694694113821
1673609365.910021,10.342696,25.78899945347679
1673609365.911028,10.346904,25.811046745050138
1673609365.912035,10.35854,25.833099257388714
1673609365.913042,10.370848,25.846762
1673609365.914049,10.367435,25.832657883404863
1673609365.915056,10.361328,25.810583
1673609365.916063,10.350846,25.847131159713946
1673609365.91707,10.340725,25.94562547925608
1673609365.918077,10.3451,25.994448971626134
1673609365.919084,10.323104,25.973392
1673609365.920091,10.28875,25.91638764362336
1673609365.921099,10.251102,25.929830234620887
1673609365.922106,10.23901,25.922689198855508
1673609365.9231129,10.266512,25.933776866237483
1673609365.92412,10.303222,25.89287621740167
1673609365.925127,10.329354,25.897852549356223
1673609365.9261339,10.327287,25.885999316404387
1673609365.927141,10.328921,25.852626371871274
1673609365.928148,10.376739,25.87733301382928
1673609365.9291549,10.399192,25.902989750212416
1673609365.930162,10.401957,25.92669256154666
1673609365.931169,10.407102,25.9503953728809
1673609365.9321759,10.423617,25.974092572754124
1673609365.933183,10.44773,25.997795384088366
1673609365.934191,10.445277,26.021520641266672
1673609365.935198,10.434748,26.045223452600915
1673609365.936205,10.430733,26.06892065247414
1673609365.937212,10.43845,26.09262346380838
1673609365.938219,10.448307,26.116326275142622
1673609365.939226,10.44035,26.140023475015848
1673609365.940233,10.433666,26.16372628635009
1673609365.94124,10.427127,26.18742909768433
1673609365.942247,10.425468,26.211126297557556
1673609365.943254,10.414987,26.234829108891798
1673609365.944261,10.404361,26.258531920226037
1673609365.945268,10.405202,26.282229120099263
1673609365.946276,10.395754,26.30595437727757
1673609365.947283,10.389576,26.32965718861181
1673609365.9482899,10.386908,26.353354388485037
1673609365.949297,10.397894,26.377057199819276
1673609365.950304,10.413112,26.40076001115352
1673609365.9513109,10.42143,26.424457211026745
1673609365.952318,10.415251,26.448160022360987
1673609365.953325,10.408567,26.471862833695226
1673609365.9543319,10.407173,26.495560033568452
1673609365.955339,10.411164,26.519262844902695
1673609365.956346,10.410804,26.542965656236934
1673609365.9573529,10.406909,26.56666285611016
1673609365.95836,10.400995,26.590365667444402
1673609365.959368,10.397365,26.614090924622708
1673609365.960375,10.38758,26.63779373595695
1673609365.961382,10.38597,26.661490935830173
1673609365.962389,10.38496,26.685193747164416
1673609365.963396,10.385801,26.708896558498658
1673609365.964403,10.393254,26.768919762517882
1673609365.96541,10.389167,26.814621815450643
1673609365.966417,10.385104,26.823627
1673609365.967424,10.382844,26.86514283404864
1673609365.968431,10.378253,26.863931114926086
1673609365.969438,10.37758,26.887995713468413
1673609365.970445,10.373589,26.93864038531235
1673609365.971453,10.366137,26.978985815450645
1673609365.97246,10.362289,27.044398399284862
1673609365.9734669,10.360799,27.071313063530585
1673609365.974474,10.359597,27.08691127260768
1673609365.975481,10.373709,27.102509481684773
1673609365.9764879,10.367795,27.118103998004038
1673609365.977495,10.353924,27.133702207081132
1673609365.978502,10.356208,27.149300416158226
1673609365.9795089,10.365968,27.164894932477488
1673609365.980516,10.374189,27.18049314155458
1673609365.981523,10.376209,27.196091350631676
1673609365.9825299,10.38306,27.21168586695094
1673609365.983537,10.381618,27.227284076028035
1673609365.984545,10.364285,27.242897056136453
1673609365.985552,10.349885,27.258495265213547
1673609365.986559,10.343346,27.27408978153281
1673609365.987566,10.35164,27.289687990609902
1673609365.988573,10.364261,27.305286199686996
1673609365.98958,10.376594,27.32088071600626
1673609365.990587,10.394263,27.336478925083355
1673609365.991594,10.397725,27.35207713416045
1673609365.992601,10.380632,27.36767165047971
1673609365.993608,10.372627,27.383269859556805
1673609365.9946148,10.373949,27.39886437587607
1673609365.995622,10.379382,27.414462584953164
1673609365.99663,10.383085,27.430075565061582
1673609365.997637,10.37169,27.445673774138676
1673609365.9986439,10.363443,27.461268290457937
1673609365.999651,10.349572,27.47686649953503
1673609366.000658,10.354741,27.492464708612125
1673609366.0016649,10.368035,27.50805922493139
1673609366.002672,10.361088,27.523657434008484
1673609366.003679,10.340317,27.53925564308558
1673609366.0046859,10.328537,27.547232
1673609366.005693,10.326301,27.556257095828368
1673609366.0067,10.311299,27.601934860276586
1673609366.0077069,10.316998,27.609853270386267
1673609366.008714,10.32171,27.57400704220315
1673609366.009722,10.329691,27.574876388557808
1673609366.010729,10.350005,27.59309652074392
1673609366.011736,10.366714,27.601507
1673609366.012743,10.395658,27.601507
1673609366.01375,10.426093,27.60485947703214
1673609366.014757,10.429699,27.61093045066281
1673609366.015764,10.43244,27.617002861890835
1673609366.0167708,10.4278,27.623073835521506
1673609366.017778,10.393975,27.62914624674953
1673609366.018785,10.285384,27.635218657977557
1673609366.0197918,10.219609,27.641289631608227
1673609366.020799,10.218527,27.647362042836253
1673609366.021807,10.23199,27.653440204453698
1673609366.022814,10.264421,27.659512615681724
1673609366.0238209,10.28084,27.665583589312394
1673609366.024828,10.316324,27.67165600054042
1673609366.025835,10.377147,27.677728411768445
1673609366.0268419,10.439652,27.683799385399116
1673609366.027849,10.470592,27.68987179662714
1673609366.028856,10.442392,27.715906355661502
1673609366.0298629,10.400562,27.740236150929903
1673609366.03087,10.385489,27.75845521888412
1673609366.031877,10.395249,27.739602447067238
1673609366.032884,10.411549,27.753096766626935
1673609366.033891,10.430878,27.764317
1673609366.034899,10.439532,27.777070737005246
1673609366.035906,10.448235,27.73088648033373
1673609366.036913,10.451913,27.736057351931333
1673609366.03792,10.44672,27.764023189167478
1673609366.0389268,10.445783,27.788704078117973
1673609366.039934,10.439773,27.81339081146557
1673609366.040941,10.41929,27.838077544813164
1673609366.0419478,10.400202,27.86275843376366
1673609366.042955,10.385849,27.887445167111256
1673609366.043962,10.371353,27.91213190045885
1673609366.0449688,10.358516,27.936812789409345
1673609366.045976,10.365824,27.96149952275694
1673609366.046984,10.372194,27.986209633692933
1673609366.047991,10.366137,28.01089636704053
1673609366.0489979,10.379791,28.035577255991026
1673609366.050005,10.401524,28.06026398933862
1673609366.051012,10.404529,28.084950722686216
1673609366.0520189,10.417487,28.10963161163671
1673609366.053026,10.429435,28.134318344984305
1673609366.054033,10.422631,28.1590050783319
1673609366.05504,10.405803,28.183685967282397
1673609366.056047,10.393254,28.20837270062999
1673609366.057054,10.368228,28.233059433977587
1673609366.058061,10.359357,28.257740322928083
1673609366.059068,10.36854,28.282427056275676
1673609366.060076,10.378734,28.30713716721167
1673609366.0610828,10.381402,28.331818056162167
1673609366.06209,10.381595,28.35650478950976
1673609366.063097,10.371858,28.381191522857357
1673609366.0641038,10.389167,28.405872411807852
1673609366.065111,10.401644,28.430559145155446
1673609366.066118,10.392725,28.455245878503042
1673609366.0671248,10.395779,28.479926767453538
1673609366.068132,10.397485,28.50461350080113
1673609366.069139,10.388614,28.529300234148728
1673609366.0701458,10.379815,28.553981123099224
1673609366.071153,10.377171,28.578667856446817
1673609366.072161,10.38395,28.603377967382812
1673609366.073168,10.390754,28.628064700730405
1673609366.074175,10.361328,28.6527455896809
1673609366.075182,10.325676,28.677432323028498
1673609366.076189,10.331879,28.70211905637609
1673609366.077196,10.357097,28.726799945326587
1673609366.078203,10.365367000000001,28.751486678674183
1673609366.07921,10.356712,28.776173412021777
1673609366.080217,10.33897,28.800854300972272
1673609366.081224,10.359284,28.82554103431987
1673609366.082231,10.363179,28.850227767667462
1673609366.083238,10.353635,28.874908656617958
1673609366.084245,10.348995,28.899595389965555
1673609366.085253,10.336014,28.924305500901546
1673609366.0862598,10.354284,28.948986389852042
1673609366.087267,10.383637,28.973673123199635
1673609366.088274,10.356472,28.998359856547232
1673609366.0892808,10.348899,29.023040745497727
1673609366.090288,10.407895,29.047727478845324
1673609366.091295,10.428858,29.072414212192918
1673609366.0923018,10.407895,29.111913527896995
1673609366.093309,10.36265,29.14830307439199
1673609366.094316,10.328897,29.147994742073898
1673609366.0953228,10.312646,29.167324215546017
1673609366.09633,10.316612,29.18392084978541
1673609366.097338,10.336182,29.204322362336114
1673609366.098345,10.35777,29.229612
1673609366.099352,10.377988,29.269262636623747
1673609366.100359,10.384214,29.332092829320622
1673609366.101366,10.34664,29.38197191265234
1673609366.102373,10.303847,29.428066419284
1673609366.10338,10.288437,29.474171841024972
1673609366.104387,10.304352,29.520277262765948
1673609366.105394,10.328729,29.566371769397605
1673609366.106401,10.308054,29.61247719113858
1673609366.107408,10.323368,29.658582612879556
1673609366.108415,10.371906,29.704677119511214
1673609366.109422,10.417487,29.75078254125219
1673609366.11043,10.440854,29.796931623430417
1673609366.1114368,10.442369,29.84302613006208
1673609366.112444,10.417415,29.88913155180305
1673609366.113451,10.394865,29.935236973544026
1673609366.1144578,10.399817,29.981331480175687
1673609366.115465,10.395826,30.02743690191666
1673609366.116472,10.37306,30.073542323657634
1673609366.1174788,10.348538,30.11963683028929
1673609366.118486,10.338033,30.165742252030267
1673609366.119493,10.335605,30.211847673771242
1673609366.1204998,10.338057,30.2579421804029
1673609366.121507,10.355318,30.304047602143875
1673609366.122515,10.360126,30.350196684322103
1673609366.123522,10.316949,30.396302106063075
1673609366.124529,10.302164,30.442396612694736
1673609366.125536,10.322094,30.48850203443571
1673609366.126543,10.331879,30.534607456176683
1673609366.12755,10.333754,30.580701962808345
1673609366.128557,10.353418,30.62680738454932
1673609366.129564,10.400105,30.67291280629029
1673609366.130571,10.451865,30.719007312921953
1673609366.131578,10.503913,30.765112734662928
1673609366.132585,10.511389,30.8112181564039
1673609366.133592,10.474992,30.85731266303556
1673609366.134599,10.443186,30.903418084776533
1673609366.135607,10.439052,30.949567166954765
1673609366.1366138,10.427776,30.995661673586422
1673609366.137621,10.412919,31.041767095327398
1673609366.138628,10.404288,31.08787251706837
1673609366.1396348,10.400105,31.13396702370003
1673609366.140642,10.404264,31.180072445441006
1673609366.141649,10.413303,31.226177867181978
1673609366.1426558,10.408279,31.27227237381364
1673609366.143663,10.408928,31.318377795554614
1673609366.14467,10.406308,31.364254
1673609366.1456769,10.403351,31.364685215733015
1673609366.146684,10.399264,31.40077369456366
1673609366.147692,10.391331,31.41852
1673609366.148699,10.388855,31.419753276996424
1673609366.149706,10.387124,31.453961424892704
1673609366.150713,10.377123,31.43921021030043
1673609366.15172,10.362626,31.491881318311872
1673609366.152727,10.358396,31.508974
1673609366.153734,10.369382,31.50976263561623
1673609366.154741,10.377003,31.521289268290843
1673609366.155748,10.371353,31.53281317212249
1673609366.156755,10.375055,31.544339804797104
1673609366.157762,10.38306,31.57905152696897
1673609366.158769,10.401716,31.586584883285038
1673609366.159776,10.414289,31.59219044100062
1673609366.160784,10.396283,31.597801307009497
1673609366.1617908,10.386883,31.60340553765176
1673609366.162798,10.389936,31.609011095367347
1673609366.163805,10.390778,31.61461665308293
1673609366.1648118,10.398422,31.620220883725192
1673609366.165819,10.389888,31.62582644144078
1673609366.166826,10.380801,31.631431999156366
1673609366.1678329,10.380224,31.63703622979863
1673609366.16884,10.376353,31.64264178751421
1673609366.169847,10.364886,31.648247345229798
1673609366.1708539,10.370872,31.65385157587206
1673609366.171861,10.375752,31.659457133587644
1673609366.172869,10.355726,31.66506799959652
1673609366.173876,10.352193,31.670673557312107
1673609366.174883,10.358973,31.67627778795437
1673609366.17589,10.374286,31.681883345669952
1673609366.176897,10.375079,31.68748890338554
1673609366.177904,10.360438,31.6930931340278
1673609366.178911,10.353875,31.698698691743388
1673609366.179918,10.336759,31.70430424945897
1673609366.180925,10.32719,31.709908480101234
1673609366.181932,10.332912,31.71551403781682
1673609366.182939,10.345293,31.721119595532404
1673609366.183946,10.349596,31.717303980686694
1673609366.184953,10.348707,31.65832084520124
1673609366.185961,10.354621,31.68499047401049
1673609366.1869678,10.350582,31.661400315035802
1673609366.187975,10.359453,31.69711047520267
1673609366.188982,10.347481,31.638445612288642
1673609366.1899889,10.32897,31.65074568949881
1673609366.190996,10.31041,31.638699126609442
1673609366.192003,10.312622,31.644038504643966
1673609366.1930099,10.312093,31.59853223357177
1673609366.194017,10.306107,31.593673995708155
1673609366.195024,10.303751,31.58881575784454
1673609366.1960309,10.329642,31.583958670131935
1673609366.197038,10.361568,31.57910043226832
1673609366.198046,10.413376,31.574237593800667
1673609366.199053,10.423569,31.569379355937052
1673609366.20006,10.422463,31.564522268224447
1673609366.201067,10.440541,31.559664030360832
1673609366.202074,10.430445,31.554805792497216
1673609366.203081,10.405635,31.54994870478461
1673609366.204088,10.370584,31.545090466920996
1673609366.205095,10.35366,31.54023222905738
1673609366.206102,10.350799,31.535375141344776
1673609366.207109,10.350678,31.53051690348116
1673609366.208116,10.362362,31.542843240057156
1673609366.209123,10.385441,31.570591464949928
1673609366.21013,10.409554,31.550657409307874
1673609366.211138,10.395417,31.563242
1673609366.2121449,10.385729,31.563242
1673609366.213152,10.383493,31.569143590214797
1673609366.214159,10.391764,31.575288394134475
1673609366.2151659,10.402534,31.569402340557275
1673609366.216173,10.407919,31.587612155131264
1673609366.21718,10.412486,31.607882656716622
1673609366.2181869,10.429338,31.63188670125275
1673609366.219194,10.437176,31.655896429910246
1673609366.220201,10.436238,31.67990615856774
1673609366.2212079,10.423521,31.703910203103867
1673609366.222215,10.408688,31.727919931761363
1673609366.223223,10.403687,31.75195239690433
1673609366.22423,10.396114,31.775962125561826
1673609366.225237,10.388182,31.799966170097953
1673609366.226244,10.388542,31.823975898755446
1673609366.227251,10.389552,31.847985627412942
1673609366.228258,10.382219,31.87198967194907
1673609366.229265,10.382844,31.895999400606563
1673609366.230272,10.38133,31.92000912926406
1673609366.231279,10.371546,31.944013173800187
1673609366.232286,10.377243,31.968022902457683
1673609366.233293,10.395779,31.992032631115176
1673609366.2343,10.408135,32.017147423462085
1673609366.235307,10.398447,32.087856
1673609366.236315,10.391163,32.08854181545065
1673609366.2373219,10.395947,32.10756771292323
1673609366.238329,10.402053,32.142124
1673609366.239336,10.396547,32.138915784505365
1673609366.2403429,10.395634,32.09142728469242
1673609366.24135,10.399432,32.143443798283265
1673609366.242357,10.401427,32.15876415518474
1673609366.2433639,10.395466,32.14299622686995
1673609366.244371,10.377627,32.153117892525536
1673609366.245378,10.360487,32.163239558181125
1673609366.2463849,10.361184,32.17335882760904
1673609366.247392,10.370079,32.18348049326463
1673609366.2484,10.373301,32.19361174383088
1673609366.249407,10.380368,32.20373340948647
1673609366.250414,10.387965,32.21385267891439
1673609366.251421,10.386642,32.22397434456998
1673609366.252428,10.378541,32.23409601022557
1673609366.253435,10.37669,32.244215279653496
1673609366.254442,10.371137,32.254336945309085
1673609366.255449,10.363732,32.264458610964674
1673609366.256456,10.374743,32.2745778803926
1673609366.257463,10.381666,32.28469954604819
1673609366.25847,10.389167,32.29482121170378
1673609366.259477,10.398062,32.3049404811317
1673609366.260484,10.397268,32.31506214678729
1673609366.261492,10.37907,32.323032
1673609366.2624989,10.361208,32.33106123694875
1673609366.263506,10.356544,32.35507045636624
1673609366.264513,10.35099,32.341122
1673609366.2655199,10.342649,32.34990993373063
1673609366.266527,10.346856,32.3773
1673609366.267534,10.358299,32.3773
1673609366.2685409,10.360487,32.39639317711561
1673609366.269548,10.342552,32.449654
1673609366.270555,10.333489,32.450177991081965
1673609366.2715619,10.36265,32.452075773534055
1673609366.272569,10.384575,32.45397400537815
1673609366.273577,10.3971,32.45587403479028
1673609366.274584,10.407895,32.45777226663437
1673609366.275591,10.394576,32.45967004908646
1673609366.276598,10.380561,32.46156828093056
1673609366.277605,10.393495,32.46346651277465
1673609366.278612,10.415611,32.46536429522674
1673609366.279619,10.419626,32.46726252707084
1673609366.280626,10.39698,32.46916075891493
1673609366.281633,10.365103,32.47105854136702
1673609366.28264,10.340004,32.472956773211116
1673609366.283647,10.33159,32.47485500505521
1673609366.284654,10.314761,32.4767527875073
1673609366.285662,10.302308,32.47865281691943
1673609366.286669,10.301731,32.48055104876352
1673609366.2876759,10.31154,32.48244883121561
1673609366.288683,10.3376,32.48434706305971
1673609366.28969,10.37556,32.4862452949038
1673609366.2906969,10.416308,32.48814307735589
1673609366.291704,10.419169,32.49004130919999
1673609366.292711,10.418953,32.49193954104408
1673609366.2937179,10.423882,32.49383732349617
1673609366.294725,10.405587,32.49573555534027
1673609366.295732,10.376017,32.49763378718436
1673609366.2967389,10.359645,32.499531569636446
1673609366.297746,10.354692,32.50142980148055
1673609366.298754,10.357145,32.503329830892675
1673609366.299761,10.358707,32.50522806273677
1673609366.300768,10.364141,32.50712584518886
1673609366.301775,10.367338,32.509024077032954
1673609366.302782,10.374599,32.51092230887705
1673609366.303789,10.382532,32.51282009132914
1673609366.304796,10.388686,32.514718323173234
1673609366.305803,10.382172,32.51661655501733
1673609366.30681,10.347457,32.51851433746941
1673609366.307817,10.33183,32.520412569313514
1673609366.308824,10.333874,32.52231080115761
1673609366.309831,10.344283,32.52420858360969
1673609366.310839,10.34599,32.526108613021826
1673609366.311846,10.351616,32.52800684486592
1673609366.3128529,10.377147,32.529904627318004
1673609366.31386,10.394023,32.531802859162106
1673609366.314867,10.394432,32.5337010910062
1673609366.3158739,10.372627,32.535598873458284
1673609366.316881,10.35866,32.53749710530238
1673609366.317888,10.36402,32.53939533714648
1673609366.3188949,10.386451,32.54129311959856
1673609366.319902,10.414145,32.54319135144266
1673609366.320909,10.415275,32.54508958328675
1673609366.3219159,10.406116,32.54698736573884
1673609366.322923,10.388253,32.54888559758294
1673609366.323931,10.374622,32.55078562699507
1673609366.324938,10.382172,32.55268385883917
1673609366.325945,10.407919,32.55458164129125
1673609366.326952,10.404889,32.556479873135345
1673609366.327959,10.384383,32.551244241058654
1673609366.328966,10.381618,32.49888063313469
1673609366.329973,10.38508,32.612473
1673609366.33098,10.397197,32.61035434787792
1673609366.331987,10.401092,32.58989135637663
1673609366.332994,10.400538,32.558197
1673609366.334001,10.390898,32.565690038626606
1673609366.335008,10.398471,32.60722825721097
1673609366.336016,10.406549,32.57905082832618
1673609366.337023,10.401427,32.596789171621204
1673609366.3380299,10.396547,32.61197668839672
1673609366.339037,10.386571,32.62716780155319
1673609366.340044,10.377003,32.64235891470966
1673609366.3410509,10.374839,32.65754643148517
1673609366.342058,10.376906,32.67273754464165
1673609366.343065,10.373781,32.68792865779812
1673609366.3440719,10.36515,32.70311617457363
1673609366.345079,10.354501,32.7183072877301
1673609366.346086,10.345894,32.73349840088657
1673609366.3470929,10.336903,32.74868591766209
1673609366.3481,10.32772,32.763877030818556
1673609366.349108,10.331999,32.779082529498844
1673609366.350115,10.342168,32.79427364265532
1673609366.351122,10.350149,32.80946115943083
1673609366.352129,10.361496,32.8246522725873
1673609366.353136,10.381282,32.83984338574377
1673609366.354143,10.387965,32.85503090251929
1673609366.35515,10.391499,32.87022201567576
1673609366.356157,10.417535,32.885413128832226
1673609366.357164,10.425083,32.90060064560774
1673609366.358171,10.40061,32.91579175876421
1673609366.359178,10.360511,32.930982871920676
1673609366.360185,10.335773,32.946170388696196
1673609366.361193,10.343755,32.961375887376484
1673609366.3622,10.369093,32.97656700053296
1673609366.3632069,10.360318,32.99175451730847
1673609366.364214,10.353347,33.00694563046494
1673609366.365221,10.348851,33.02213674362141
1673609366.3662279,10.329811,33.03732426039692
1673609366.367235,10.309954,33.0525153735534
1673609366.368242,10.292909,33.06770648670987
1673609366.3692489,10.293245,33.08289400348538
1673609366.370256,10.315844,33.09808511664185
1673609366.371263,10.346831,33.113276229798316
1673609366.3722699,10.36556,33.128463746573836
1673609366.373277,10.357242,33.143654859730304
1673609366.374285,10.353467,33.15886035841059
1673609366.375292,10.354669,33.17405147156707
1673609366.376299,10.364165,33.18923898834258
1673609366.377306,10.398398,33.20443010149905
1673609366.378313,10.429724,33.21962121465552
1673609366.37932,10.451408,33.23480873143104
1673609366.380327,10.447081,33.24999984458751
1673609366.381334,10.425781,33.265190957743975
1673609366.382341,10.406116,33.28037847451949
1673609366.383348,10.397173,33.295569587675956
1673609366.384355,10.381402,33.31076070083243
1673609366.385362,10.352385,33.325948217607944
1673609366.38637,10.338899,33.34115371628823
1673609366.387377,10.337336,33.35634482944471
1673609366.3883839,10.346254,33.37153234622022
1673609366.389391,10.348467,33.38672345937669
1673609366.390398,10.346856,33.40191457253316
1673609366.3914049,10.338657,33.41710208930868
1673609366.392412,10.310915,33.43229320246515
1673609366.393419,10.282836,33.448052428299185
1673609366.3944259,10.268459,33.45916330870083
1673609366.395433,10.281874,33.451959041726276
1673609366.39644,10.298655,33.492207526968976
1673609366.3974469,10.330701,33.535065
1673609366.398454,10.368492,33.54316493848355
1673609366.399462,10.411789,33.579646329594276
1673609366.400469,10.444365,33.60743
1673609366.401476,10.457923,33.625216347877924
1673609366.402483,10.449365,33.675227005381025
1673609366.40349,10.424002,33.6570889080478
1673609366.404497,10.397388,33.6389551047717
1673609366.405504,10.389287,33.634962363528004
1673609366.406511,10.373685,33.661697
1673609366.407518,10.355005,33.666847534647474
1673609366.408525,10.346471,33.68571644908889
1673609366.409532,10.341928,33.70458536353031
1673609366.410539,10.348058,33.72344981089918
1673609366.411547,10.349909,33.74233659363079
1673609366.412554,10.370392,33.7612055080722
1673609366.4135609,10.404217,33.78006995544107
1673609366.414568,10.408664,33.79893886988249
1673609366.415575,10.412318,33.81780778432391
1673609366.4165819,10.413063,33.83667223169277
1673609366.417589,10.40989,33.85554114613419
1673609366.418596,10.399288,33.87441006057561
1673609366.4196029,10.377796,33.89327450794448
1673609366.42061,10.365174,33.912143422385896
1673609366.421617,10.355149,33.931012336827315
1673609366.4226239,10.341447,33.949876784196185
1673609366.423631,10.348538,33.9687456986376
1673609366.424639,10.359405,33.98763248136921
1673609366.425646,10.369142,34.00650139581062
1673609366.426653,10.383566,34.02536584317949
1673609366.42766,10.396139,34.04423475762091
1673609366.428667,10.400826,34.063103672062326
1673609366.429674,10.3802,34.081968119431195
1673609366.430681,10.354115,34.100837033872615
1673609366.431688,10.36967,34.11970594831403
1673609366.432695,10.389816,34.1385703956829
1673609366.433702,10.380801,34.15743931012432
1673609366.434709,10.379815,34.17630822456574
1673609366.435716,10.372194,34.203420167342074
1673609366.436724,10.341663,34.19638963590844
1673609366.437731,10.327359,34.15939361754888
1673609366.4387379,10.33361,34.176988888915375
1673609366.439745,10.350702,34.19531999546972
1673609366.440752,10.374262,34.22314409513591
1673609366.4417589,10.401067,34.22134148200239
1673609366.442766,10.403399,34.20522710872675
1673609366.443773,10.384936,34.203312107296135
1673609366.4447799,10.375272,34.185500645553525
1673609366.445787,10.380248,34.18398256687594
1673609366.446794,10.38758,34.18246448819836
1673609366.4478009,10.38169,34.18094676891441
1673609366.448808,10.379358,34.179428690236826
1673609366.449816,10.373949,34.177909173984744
1673609366.450823,10.345654,34.17639109530716
1673609366.45183,10.30279,34.17487337602321
1673609366.452837,10.296491,34.17335529734563
1673609366.453844,10.315964,34.171837218668045
1673609366.454851,10.334403,34.17031949938409
1673609366.455858,10.349669,34.16880142070651
1673609366.456865,10.353227,34.15697007629947
1673609366.457872,10.355366,34.11599636146877
1673609366.458879,10.364406,34.09586
1673609366.459886,10.367579,34.07259467739628
1673609366.460893,10.367843,34.059681
1673609366.461901,10.365054,34.05343666153476
1673609366.462908,10.368492,34.07802137045947
1673609366.4639149,10.384864,34.04752677920839
1673609366.464922,10.388927,34.07843473277712
1673609366.465929,10.374646,34.0964236379344
1673609366.4669359,10.342408,34.09725097300459
1673609366.467943,10.311155,34.098078503986486
1673609366.46895,10.309521,34.09890603496837
1673609366.4699569,10.319185,34.099733370038564
1673609366.470964,10.356256,34.10056090102045
1673609366.471971,10.382172,34.101388432002345
1673609366.4729779,10.372074,34.102215767072536
1673609366.473985,10.380681,34.10304329805442
1673609366.474993,10.387773,34.10387161268308
1673609366.476,10.385537,34.104699143664966
1673609366.477007,10.359741,34.10552647873516
1673609366.478014,10.343635,34.106354009717045
1673609366.479021,10.322671,34.10718154069894
1673609366.480028,10.328272,34.10800887576913
1673609366.481035,10.350462,34.10883640675102
1673609366.482042,10.358371,34.109663937732904
1673609366.483049,10.373035,34.1104912728031
1673609366.484056,10.393806,34.11131880378499
1673609366.485063,10.409217,34.11214633476688
1673609366.48607,10.414987,34.112973669837075
1673609366.487078,10.413857,34.113801984465724
1673609366.488085,10.407799,34.113945
1673609366.4890919,10.400442,34.14430874613003
1673609366.490099,10.395033,34.196084563723154
1673609366.491106,10.368011,34.204399
1673609366.4921129,10.345677,34.251112169964244
1673609366.49312,10.347649,34.24298239780848
1673609366.494127,10.357626,34.27223859093079
1673609366.4951339,10.344572,34.292718032188844
1673609366.496141,10.330628,34.343046706120504
1673609366.497148,10.340053,34.36639262231759
1673609366.4981549,10.347481,34.3858220472103
1673609366.499162,10.344259,34.40525607296137
1673609366.50017,10.360559,34.42470850214592
1673609366.501177,10.397798,34.44414252789699
1673609366.502184,10.41114,34.4635719527897
1673609366.503191,10.40287,34.483005978540774
1673609366.504198,10.39335,34.50244000429185
