measure_time,emg_ch_1,grip_force_inter
1673609455.209867,8.104955,1.099472
1673609455.2108738,8.106157,1.117561
1673609455.211881,8.105484,1.118061426323319
1673609455.212889,8.107912,1.1541441809069213
1673609455.213896,8.111902,1.172378799237914
1673609455.2149029,8.11022,1.1900112643650755
1673609455.21591,8.111638,1.1924404688856038
1673609455.2169168,8.113297,1.194869098310365
1673609455.2179239,8.114427,1.1972983028308934
1673609455.218931,8.117023,1.1997275073514218
1673609455.2199378,8.110989,1.2021561367761828
1673609455.220945,8.109186,1.2045853412967111
1673609455.221952,8.10921,1.2070145458172397
1673609455.2229588,8.108657,1.2094431752420007
1673609455.223966,8.109138,1.211872379762529
1673609455.224974,8.10909,1.214303884666126
1673609455.225981,8.105219,1.2167330891866546
1673609455.2269878,8.105748,1.2191617186114156
1673609455.227995,8.110773,1.221590923131944
1673609455.229002,8.108897,1.2240201276524725
1673609455.2300088,8.106709,1.2264487570772336
1673609455.231016,8.108465,1.2288779615977619
1673609455.232023,8.112528,1.2313071661182902
1673609455.2330298,8.109739,1.2337357955430515
1673609455.234037,8.108176,1.2361650000635798
1673609455.235044,8.109571,1.238594204584108
1673609455.2360508,8.113056,1.2410228340088694
1673609455.237058,8.11284,1.2434520385293977
1673609455.238066,8.117841,1.2458835434329947
1673609455.2390728,8.11498,1.248312172857756
1673609455.2400799,8.108922,1.2507413773782843
1673609455.241087,8.113994,1.2531705818988126
1673609455.2420938,8.114306,1.2555992113235737
1673609455.243101,8.11486,1.2580284158441022
1673609455.244108,8.110965,1.2604576203646305
1673609455.2451148,8.104931,1.2628862497893916
1673609455.246122,8.102599,1.26531545430992
1673609455.247129,8.108561,1.2677446588304484
1673609455.2481358,8.114547,1.2701732882552095
1673609455.249143,8.117335,1.2726024927757378
1673609455.250151,8.118105,1.2750339976793348
1673609455.251158,8.117697,1.2774632021998633
1673609455.2521648,8.113081,1.2798918316246244
1673609455.253172,8.10885,1.2823210361451527
1673609455.254179,8.111325,1.2847502406656812
1673609455.2551858,8.114499,1.2871788700904423
1673609455.256193,8.112985,1.2896080746109706
1673609455.2572,8.113946,1.292037279131499
1673609455.2582068,8.112215,1.2944659085562602
1673609455.259214,8.113585,1.2968951130767885
1673609455.260221,8.117,1.2920506546796855
1673609455.2612278,8.114716,1.2934252246065807
1673609455.262235,8.112648,1.316557
1673609455.263243,8.109571,1.3233759577968527
1673609455.2642498,8.111494,1.320774463919981
1673609455.265257,8.112576,1.3266754535050072
1673609455.266264,8.112167,1.3636358890214797
1673609455.2672708,8.108609,1.316157435341748
1673609455.268278,8.108897,1.2920109394372914
1673609455.269285,8.116951,1.334646
1673609455.2702918,8.114547,1.334646
1673609455.271299,8.117455,1.334646
1673609455.272306,8.119235,1.334646
1673609455.2733128,8.116278,1.334646
1673609455.27432,8.106806,1.334646
1673609455.275328,8.105315,1.2906604755661502
1673609455.276335,8.115364,1.229297467334287
1673609455.2773418,8.119091,1.333804952074392
1673609455.278349,8.118634,1.3649452906533144
1673609455.279356,8.107383,1.352735
1673609455.2803628,8.107599,1.352735
1673609455.28137,8.10909,1.352735
1673609455.282377,8.109234,1.352735
1673609455.2833838,8.110244,1.352735
1673609455.284391,8.108129,1.352735
1673609455.285398,8.107647,1.3662661756853398
1673609455.2864048,8.108176,1.368249099427754
1673609455.287412,8.112408,1.3486807176919409
1673609455.28842,8.109258,1.363661704648391
1673609455.2894268,8.109186,1.396447238197425
1673609455.290434,8.112288,1.453863839055794
1673609455.291441,8.112912,1.443189
1673609455.2924478,8.110196,1.4585226076281288
1673609455.293455,8.112504,1.4715732892226991
1673609455.294462,8.113465,1.46655993889326
1673609455.2954688,8.112047,1.4787023602031328
1673609455.296476,8.112384,1.49084765681997
1673609455.297483,8.10909,1.5029929534368072
1673609455.2984898,8.098992,1.51513537474668
1673609455.299497,8.09695,1.5272806713635172
1673609455.300505,8.100075,1.5394374692082111
1673609455.301512,8.09541,1.5515827658250483
1673609455.3025188,8.101253,1.5637251871349214
1673609455.303526,8.10296,1.5758704837517583
1673609455.304533,8.101926,1.5880157803685955
1673609455.3055398,8.108296,1.6001582016784686
1673609455.306547,8.108777,1.6123034982953055
1673609455.307554,8.105124,1.6244487949121427
1673609455.3085608,8.105244,1.6365912162220155
1673609455.309568,8.112022,1.6487365128388527
1673609455.310575,8.113538,1.6608818094556899
1673609455.3115819,8.109378,1.6730242307655627
1673609455.312589,8.10421,1.6851695273824
1673609455.313597,8.109883,1.697326325227094
1673609455.3146038,8.117624,1.709468746536967
1673609455.315611,8.122071,1.721614043153804
1673609455.316618,8.11998,1.733759339770641
1673609455.3176248,8.118298,1.745901761080514
1673609455.318632,8.116326,1.7580470576973513
1673609455.319639,8.112624,1.7701923543141884
1673609455.3206458,8.113538,1.7823347756240613
1673609455.321653,8.112744,1.7944800722408984
1673609455.32266,8.10885,1.8066253688577354
1673609455.3236668,8.108897,1.8187677901676085
1673609455.324674,8.108273,1.8113175813066285
1673609455.325682,8.112888,1.8168872252681765
1673609455.326689,8.114932,1.8351041418693372
1673609455.3276958,8.111061,1.8047013376251788
1673609455.328703,8.108657,1.8728679025029797
1673609455.32971,8.104234,1.913529
1673609455.3307168,8.102983,1.8759276881258942
1673609455.331724,8.103393,1.897242431942789
1673609455.332731,8.099474,1.9518937246065808
1673609455.3337379,8.101276,1.9803986221710592
1673609455.334745,8.112985,1.9981786742921526
1673609455.335752,8.123778,2.015958726413246
1673609455.3367589,8.125629,2.033734569241697
1673609455.337766,8.121423,2.05151462136279
1673609455.338774,8.117672,2.069311510654453
1673609455.3397808,8.116927,2.0870873534829038
1673609455.340788,8.117167,2.104867405603997
1673609455.341795,8.114787,2.122647457725091
1673609455.3428018,8.110124,2.140423300553542
1673609455.343809,8.106589,2.158203352674635
1673609455.344816,8.102479,2.1759834047957285
1673609455.3458228,8.099834,2.1937592476241794
1673609455.34683,8.100388,2.2115392997452727
1673609455.347837,8.108729,2.229319351866366
1673609455.3488438,8.109811,2.2470951946948174
1673609455.349851,8.106398,2.264875246815911
1673609455.350859,8.101109,2.2826721361075735
1673609455.351866,8.105652,2.300452188228667
1673609455.3528728,8.108224,2.3182280310571177
1673609455.35388,8.108561,2.336008083178211
1673609455.354887,8.106878,2.3537881352993044
1673609455.3558939,8.108681,2.3715639781277553
1673609455.356901,8.108345,2.3893440302488487
1673609455.357908,8.106878,2.4071240823699425
1673609455.3589149,8.111782,2.4248999251983934
1673609455.359922,8.104161,2.4426799773194867
1673609455.360929,8.100195,2.46046002944058
1673609455.3619359,8.105291,2.478235872269031
1673609455.362943,8.103993,2.4960159243901243
1673609455.363951,8.108296,2.513812813681787
1673609455.3649578,8.119452,2.531588656510238
1673609455.365965,8.123827,2.5493687086313317
1673609455.366972,8.118538,2.567148760752425
1673609455.3679788,8.105724,2.584924603580876
1673609455.368986,8.103368,2.6027046557019693
1673609455.369993,8.096156,2.6204847078230626
1673609455.3709998,8.080434,2.6382605506515135
1673609455.372007,8.078751,2.656040602772607
1673609455.373014,8.079952,2.6738206548937002
1673609455.3740208,8.078077,2.6915964977221516
1673609455.375028,8.078318,2.7093765498432445
1673609455.376036,8.086131,2.727173439134907
1673609455.377043,8.106373,2.744953491256001
1673609455.3780499,8.118802,2.762729334084452
1673609455.379057,8.122793,2.780509386205545
1673609455.380064,8.126616,2.7982894383266386
1673609455.3810709,8.115052,2.8160652811550895
1673609455.382078,8.096036,2.833845333276183
1673609455.383085,8.083607,2.851625385397276
1673609455.3840919,8.068534,2.8694012282257275
1673609455.385099,8.06012,2.8871812803468204
1673609455.386106,8.054758,2.904961332467914
1673609455.3871129,8.052594,2.922737175296365
1673609455.38812,8.058292,2.9405172274174585
1673609455.389128,8.065937,2.958314116709121
1673609455.3901348,8.057355,2.976089959537572
1673609455.391142,8.015668,2.9938700116586654
1673609455.392149,8.006845,3.0249827103694873
1673609455.3931558,8.006028,3.021969773962804
1673609455.394163,8.00134,3.030302618025751
1673609455.39517,8.005788,3.0485210100143063
1673609455.3961768,8.028843,3.0937923210965437
1673609455.397184,8.053267,3.1757568392942295
1673609455.398191,8.106493,3.225495119694802
1673609455.3991978,8.167412,3.248017241954708
1673609455.400205,8.204915,3.2662367176919407
1673609455.401213,8.189794,3.2865162995533126
1673609455.40222,8.128923,3.3073604800013636
1673609455.4032269,8.082837,3.3281997257476044
1673609455.404234,8.084424,3.349043906195656
1673609455.405241,8.087381,3.369888086643707
1673609455.4062479,8.087742,3.3907273323899476
1673609455.407255,8.094689,3.411571512837999
1673609455.408262,8.106565,3.415011
1673609455.4092689,8.131087,3.445686375298045
1673609455.410276,8.146089,3.497589112064855
1673609455.411283,8.131495,3.536648417640048
1673609455.4122899,8.136857,3.541643
1673609455.413297,8.133203,3.573335411063424
1673609455.414305,8.12147,3.6257881122765196
1673609455.4153118,8.121159,3.632088
1673609455.416319,8.134524,3.6970681120648545
1673609455.417326,8.143228,3.74979143467948
1673609455.4183328,8.134933,3.800229846073433
1673609455.41934,8.125798,3.850680201206764
1673609455.420347,8.120966,3.9011305563400946
1673609455.4213538,8.122745,3.9515689677340475
1673609455.422361,8.133803,4.002019322867378
1673609455.423368,8.134453,4.052469678000709
1673609455.4243748,8.125293,4.102908089394662
1673609455.425382,8.116061,4.153358444527993
1673609455.42639,8.121687,4.203856574618836
1673609455.427397,8.127625,4.254306929752167
1673609455.4284039,8.122937,4.30474534114612
1673609455.429411,8.121423,4.35519569627945
1673609455.430418,8.116903,4.4056460514127815
1673609455.4314249,8.121567,4.456084462806734
1673609455.432432,8.123851,4.506534817940065
1673609455.433439,8.128923,4.556985173073396
1673609455.4344459,8.122985,4.607423584467349
1673609455.435453,8.112744,4.657873939600679
1673609455.43646,8.112455,4.708324294734011
1673609455.4374669,8.120797,4.758762706127963
1673609455.438474,8.121447,4.809213061261294
1673609455.439482,8.116879,4.859711191352138
1673609455.4404888,8.114475,4.91014960274609
1673609455.441496,8.104522,4.960599957879421
1673609455.442503,8.098945,5.011050313012752
1673609455.4435098,8.11022,5.061488724406705
1673609455.444517,8.115316,5.1119390795400355
1673609455.445524,8.109282,5.162389434673367
1673609455.4465308,8.107888,5.212827846067319
1673609455.447538,8.122047,5.2632782012006505
1673609455.448545,8.127048,5.313728556333981
1673609455.4495518,8.127913,5.364166967727934
1673609455.450559,8.132337,5.414617322861265
1673609455.451567,8.134741,5.465115452952109
1673609455.452574,8.127793,5.515565808085439
1673609455.4535809,8.12123,5.5660042194793915
1673609455.454588,8.117865,5.616454574612723
1673609455.455595,8.11748,5.661334538388173
1673609455.4566019,8.115653,5.686093691775924
1673609455.457609,8.118345,5.874037278145695
1673609455.458616,8.117672,5.954272794172185
1673609455.4596229,8.117865,5.911615298688916
1673609455.46063,8.130774,6.014033848354793
1673609455.461637,8.130582,6.132434638054363
1673609455.4626439,8.11433,6.1829035840286055
1673609455.463652,8.118778,6.330302318073438
1673609455.464659,8.121591,6.424674545785624
1673609455.4656658,8.127793,6.5295959785037505
1673609455.466673,8.130054,6.6345422564581344
1673609455.46768,8.112624,6.739488534412518
1673609455.4686868,8.111927,6.844409967130645
1673609455.469694,8.129765,6.949356245085029
1673609455.470701,8.12849,7.0543025230394125
1673609455.4717078,8.111662,7.159223955757539
1673609455.472715,8.106758,7.264170233711923
1673609455.473722,8.108729,7.369116511666307
1673609455.4747288,8.10421,7.474037944384433
1673609455.475736,8.096276,7.578984222338817
1673609455.476744,8.101757,7.684029881238233
1673609455.477751,8.098945,7.788976159192618
1673609455.4787579,8.099234,7.8938975919107435
1673609455.479765,8.100315,7.998843869865127
1673609455.480772,8.099281,8.103790147819511
1673609455.4817789,8.09796,8.208711580537638
1673609455.482786,8.099906,8.313657858492022
1673609455.483793,8.092502,8.418604136446406
1673609455.4847999,8.083054,8.523525569164532
1673609455.485807,8.091564,8.628471847118917
1673609455.486814,8.093535,8.7334181250733
1673609455.4878209,8.084857,8.838339557791425
1673609455.488829,8.073871,8.943385216690842
1673609455.489836,8.065192,9.048331494645227
1673609455.4908428,8.059975,9.153252927363352
1673609455.49185,8.052835,9.258199205317737
1673609455.492857,8.038002,9.36314548327212
1673609455.4938638,8.016365,9.468066915990248
1673609455.494871,8.001148,9.57301319394463
1673609455.495878,7.937489,9.680377392942297
1673609455.4968848,7.863083,9.779470083929423
1673609455.497892,7.855582,9.891208319427891
1673609455.498899,7.884936,10.02918418311874
1673609455.4999058,7.906621,10.100845630662851
1673609455.500913,7.949869,10.161892545411204
1673609455.501921,8.031872,10.24221549833095
1673609455.502928,8.144573,10.315092267048165
1673609455.5039349,8.264608,10.41014989988081
1673609455.504942,8.315117,10.503730522245005
1673609455.505949,8.27747,10.587536567545659
1673609455.5069559,8.208858,10.67132277239998
1673609455.507963,8.131135,10.755128817700635
1673609455.50897,8.120677,10.838934863001288
1673609455.5099769,8.114907,10.927471474248927
1673609455.510984,8.089953,10.970585441001191
1673609455.511991,8.024395,11.049406657606104
1673609455.5129979,7.950134,11.170944658559847
1673609455.514006,7.9203,11.236633286293207
1673609455.515013,7.927848,11.323139337625179
1673609455.5160198,7.938738,11.407143389127326
1673609455.517027,7.992613,11.467237540643623
1673609455.518034,8.084304,11.54768704434907
1673609455.5190408,8.138179,11.642769243185004
1673609455.520048,8.170417,11.739471060744947
1673609455.521055,8.200252,11.836172878304888
1673609455.5220618,8.220638,11.93285180244211
1673609455.523069,8.204723,12.029553620002051
1673609455.524076,8.176548,12.126255437561992
1673609455.5250828,8.184577,12.222934361699217
1673609455.52609,8.188952,12.319636179259158
1673609455.527098,8.166667,12.41642957050997
1673609455.528105,8.152723,12.513131388069912
1673609455.5291119,8.160151,12.609810312207134
1673609455.530119,8.170033,12.706512129767075
1673609455.531126,8.175033,12.803213947327016
1673609455.5321329,8.170513,12.89989287146424
1673609455.53314,8.163686,12.996594689024182
1673609455.534147,8.161114,13.093296506584123
1673609455.5351539,8.160273,13.189975430721347
1673609455.536161,8.160945,13.286677248281288
1673609455.537168,8.159286,13.383379065841229
1673609455.5381749,8.159454,13.480057989978452
1673609455.539183,8.159142,13.576851381229265
1673609455.54019,8.150415,13.673553198789206
1673609455.5411968,8.144021,13.77023212292643
1673609455.542204,8.147122,13.86693394048637
1673609455.543211,8.160537,13.963635758046312
1673609455.5442178,8.162724,14.060314682183535
1673609455.545225,8.158277,14.157016499743476
1673609455.546232,8.147747,14.253718317303417
1673609455.5472388,8.134092,14.35039724144064
1673609455.548246,8.131664,14.447099059000582
1673609455.549253,8.127433,14.543800876560523
1673609455.5502598,8.132337,14.640479800697747
1673609455.551267,8.135366,14.737181618257686
1673609455.552275,8.131592,14.8339750095085
1673609455.553282,8.125005,14.93067682706844
1673609455.5542889,8.139405,15.027355751205665
1673609455.555296,8.147434,15.124057568765606
1673609455.556303,8.138419,15.220759386325547
1673609455.5573099,8.137169,15.317438310462771
1673609455.558317,8.139405,15.414140128022712
1673609455.559324,8.14039,15.510841945582653
1673609455.5603309,8.136135,15.609846011918952
1673609455.561338,8.136785,15.726122708154506
1673609455.562345,8.134573,15.871878101335241
1673609455.5633519,8.127866,16.013849599046484
1673609455.56436,8.120509,16.15702773342871
1673609455.565367,8.118995,16.341377250834526
1673609455.5663738,8.124548,16.464738170441002
1673609455.567381,8.131183,16.586833961134957
1673609455.568388,8.130726,16.737624030996663
1673609455.5693948,8.122673,16.859344646718725
1673609455.570402,8.12034,17.018754886928534
1673609455.571409,8.120605,17.178165127138342
1673609455.5724158,8.12789,17.337537628181437
1673609455.573423,8.128731,17.493168915375445
1673609455.57443,8.130895,17.638899762994754
1673609455.5754368,8.143925,17.77934268669528
1673609455.576444,8.153228,17.896056169487483
1673609455.577452,8.143636,18.003880785407727
1673609455.578459,8.121423,18.15531628683834
1673609455.5794659,8.126928,18.30764091988555
1673609455.580473,8.139862,18.441102539928487
1673609455.58148,8.131688,18.580775356938485
1673609455.5824869,8.12789,18.680765124488133
1673609455.583494,8.122985,18.727244219214683
1673609455.584501,8.124379,18.773723313941236
1673609455.5855079,8.123034,18.820191405094224
1673609455.586515,8.10558,18.866670499820778
1673609455.587522,8.110051,18.91314959454733
1673609455.5885289,8.107888,18.95961768570032
1673609455.589537,8.113249,19.00614079472112
1673609455.590544,8.106085,19.052619889447673
1673609455.5915508,8.094642,19.09908798060066
1673609455.592558,8.089593,19.145567075327214
1673609455.593565,8.096012,19.192046170053764
1673609455.5945718,8.098992,19.238514261206756
1673609455.595579,8.12123,19.284993355933306
1673609455.596586,8.1389,19.33147245065986
1673609455.5975928,8.122433,19.377940541812848
1673609455.5986,8.101877,19.4244196365394
1673609455.599607,8.101926,19.470898731265954
1673609455.6006138,8.124644,19.517366822418943
1673609455.601621,8.137458,19.563845917145496
1673609455.602629,8.137145,19.610369026166296
1673609455.603636,8.132216,19.656848120892846
1673609455.6046429,8.12188,19.727592062947068
1673609455.60565,8.096589,19.868873242431466
1673609455.606657,8.084016,20.030714673819745
1673609455.6076639,8.105868,20.15585397711016
1673609455.608671,8.131351,20.26515791227652
1673609455.609678,8.13176,20.363915818311874
1673609455.6106849,8.125077,20.444320233190272
1673609455.611692,8.123899,20.5603817170441
1673609455.612699,8.12837,20.727974404625655
1673609455.6137059,8.136952,20.841923705640326
1673609455.614714,8.138275,20.91173967888283
1673609455.615721,8.151305,20.98148960106267
1673609455.6167278,8.150512,21.05122301047684
1673609455.617735,8.118875,21.120972932656674
1673609455.618742,8.106421,21.190722854836512
1673609455.6197488,8.112648,21.26045626425068
1673609455.620756,8.127673,21.330206186430516
1673609455.621763,8.138876,21.399956108610354
1673609455.6227698,8.132049,21.469689518024524
1673609455.623777,8.123442,21.539439440204358
1673609455.624784,8.120605,21.609189362384196
1673609455.6257908,8.130847,21.678922771798366
1673609455.626798,8.151762,21.7486726939782
1673609455.627806,8.148204,21.81848866722071
1673609455.628813,8.118538,21.888238589400544
1673609455.6298199,8.073822,21.957971998814713
1673609455.630827,8.052643,22.02772192099455
1673609455.631834,8.048171,22.097471843174386
1673609455.6328409,8.060047,22.167205252588555
1673609455.633848,8.062018,22.23695517476839
1673609455.634855,8.056296,22.306705096948228
1673609455.6358619,8.074304,22.376438506362398
1673609455.636869,8.107816,22.446188428542232
1673609455.637876,8.142241,22.51593835072207
1673609455.6388829,8.145583,22.58567176013624
1673609455.639891,8.137194,22.655487733378745
1673609455.640898,8.131063,22.725237655558583
1673609455.6419048,8.140896,22.794971064972753
1673609455.642912,8.151593,22.864720987152587
1673609455.643919,8.157459,22.934470909332425
1673609455.6449258,8.148925,23.004204318746595
1673609455.645933,8.142074,23.07395424092643
1673609455.64694,8.144502,23.143704163106268
1673609455.648954,8.139982,23.177082320858165
1673609455.649961,8.11498,23.263422134477825
1673609455.6509678,8.111181,23.246386728659992
1673609455.651975,8.114812,23.27362046555423
1673609455.652983,8.116374,23.310089829756794
1673609455.65399,8.12111,23.330335250834523
1673609455.6549969,8.123851,23.348546342073895
1673609455.656004,8.112816,23.350323
1673609455.657011,8.055719,23.38347192989986
1673609455.6580179,8.030838,23.44386561468091
1673609455.659025,8.052306,23.50645263106225
1673609455.660032,8.071057,23.56903964744359
1673609455.6610389,8.065408,23.631611846822942
1673609455.662046,8.072476,23.69419886320428
1673609455.663053,8.100723,23.75678587958562
1673609455.6640599,8.155055,23.819358078964974
1673609455.665068,8.197247,23.882004363354252
1673609455.666075,8.192246,23.94459137973559
1673609455.6670818,8.168542,24.007163579114945
1673609455.668089,8.123995,24.069750595496284
1673609455.669096,8.120293,24.132337611877624
1673609455.6701028,8.137338,24.194909811256977
1673609455.67111,8.126639,24.257496827638317
1673609455.672117,8.114186,24.320083844019656
1673609455.6731238,8.123802,24.382656043399013
1673609455.674131,8.137409,24.44524305978035
1673609455.675138,8.133395,24.50783007616169
1673609455.6761448,8.119452,24.570402275541046
1673609455.677152,8.119308,24.632989291922385
1673609455.67816,8.123899,24.692501920839295
1673609455.679167,8.126567,24.7325018996185
1673609455.6801739,8.116374,24.78052271680572
1673609455.681181,8.113369,24.833717
1673609455.682188,8.130486,24.84913147281831
1673609455.6831949,8.137362,24.893389879856972
1673609455.684202,8.141304,24.940085214592276
1673609455.685209,8.14693,24.984609444921315
1673609455.6862159,8.152122,25.03925044672229
1673609455.687223,8.149094,25.08675710728883
1673609455.6882298,8.135246,25.12578677520436
1673609455.6892369,8.125895,25.164825685286104
1673609455.690245,8.111807,25.203901564032698
1673609455.691252,8.096997,25.24294047411444
1673609455.6922588,8.091107,25.281970142029973
1673609455.693266,8.093488,25.321009052111716
1673609455.694273,8.128202,25.358728313066287
1673609455.6952798,8.149646,25.395157477825467
1673609455.696287,8.153276,25.431590215971397
1673609455.697294,8.153685,25.429533098235577
1673609455.6983008,8.131736,25.471088950882212
1673609455.699308,8.125413,25.521141
1673609455.700315,8.141136,25.551147555078686
1673609455.7013218,8.136424,25.575409
1673609455.702329,8.129091,25.575409
1673609455.703337,8.137121,25.587303658893962
1673609455.704344,8.140703,25.608134106310256
1673609455.7053509,8.137891,25.62895962227593
1673609455.706358,8.13027,25.64979006969222
1673609455.707365,8.121567,25.670620517108514
1673609455.7083719,8.121399,25.691446033074186
1673609455.709379,8.121182,25.712276480490477
1673609455.7103858,8.124284,25.73310199645615
1673609455.7113929,8.127,25.753932443872444
1673609455.7124,8.12914,25.774762891288734
1673609455.7134068,8.118154,25.795588407254407
1673609455.714414,8.110773,25.8164188546707
1673609455.715422,8.098512,25.83726902788947
1673609455.716429,8.087525,25.858099475305764
1673609455.7174358,8.100652,25.878924991271436
1673609455.718443,8.094112,25.899755438687727
1673609455.71945,8.096661,25.92058588610402
1673609455.7204568,8.110893,25.941411402069694
1673609455.721464,8.111927,25.962241849485984
1673609455.722471,8.106421,25.983072296902275
1673609455.7234778,8.118875,26.00389781286795
1673609455.724485,8.136472,26.024728260284242
1673609455.725492,8.146641,26.045558707700533
1673609455.7264988,8.135798,26.06638422366621
1673609455.727506,8.114523,26.0872146710825
1673609455.728514,8.093319,26.108064844301268
1673609455.729521,8.100555,26.128895291717562
1673609455.7305279,8.115701,26.149720807683234
1673609455.731535,8.123201,26.170551255099525
1673609455.7325418,8.125173,26.1913767710652
1673609455.7335489,8.123442,26.212207218481492
1673609455.734556,8.147146,26.233037665897783
1673609455.7355628,8.146641,26.25386318186346
1673609455.73657,8.136929,26.27469362927975
1673609455.737577,8.117215,26.29552407669604
1673609455.7385838,8.105051,26.316349592661716
1673609455.739591,8.115244,26.337180040078007
1673609455.740599,8.117215,26.358030213296775
1673609455.741606,8.118057,26.37886066071307
1673609455.7426128,8.118345,26.399686176678742
1673609455.74362,8.114379,26.420516624095033
1673609455.744627,8.086901,26.441347071511327
1673609455.7456338,8.046032,26.462172587477
1673609455.746641,8.032833,26.48300303489329
1673609455.747648,8.029515,26.503833482309584
1673609455.7486548,8.036439,26.501140452012383
1673609455.749662,8.049325,26.487514729613732
1673609455.750669,8.074087,26.513473152267302
1673609455.7516758,8.119788,26.494847921316165
1673609455.752683,8.146473,26.45971033841391
1673609455.753691,8.164432,26.463656890692125
1673609455.7546978,8.160608,26.443733
1673609455.7557049,8.142194,26.443733
1673609455.756712,8.094305,26.42671466157518
1673609455.7577188,8.049445,26.404673194170336
1673609455.758726,8.046849,26.39859896870901
1673609455.759733,8.045647,26.392524743247684
1673609455.7607398,8.041848,26.38645195581322
1673609455.761747,8.055672,26.380377730351896
1673609455.762754,8.084809,26.37430350489057
1673609455.7637608,8.127649,26.368230717456107
1673609455.764768,8.18299,26.36215649199478
1673609455.765776,8.222009,26.35607651442601
1673609455.766783,8.198112,26.350002288964685
1673609455.7677898,8.15508,26.343929501530223
1673609455.768797,8.143996,26.337855276068897
1673609455.769804,8.13402,26.33178105060757
1673609455.7708108,8.126495,26.32570826317311
1673609455.771818,8.124355,26.319634037711783
1673609455.772825,8.134404,26.313559812250457
1673609455.7738318,8.151713,26.307487024815995
1673609455.774839,8.147146,26.30141279935467
1673609455.775846,8.132361,26.295338573893343
1673609455.7768528,8.107046,26.289265786458877
1673609455.77786,8.092935,26.283191560997555
1673609455.778868,8.087669,26.277111583428784
1673609455.7798748,8.100483,26.27103879599432
1673609455.780882,8.115269,26.264964570532992
1673609455.781889,8.119211,26.25889034507167
1673609455.7828958,8.122553,26.252817557637204
1673609455.783903,8.136617,26.24674333217588
1673609455.78491,8.160825,26.240669106714556
1673609455.7859168,8.162916,26.23459631928009
1673609455.786924,8.137938,26.228522093818764
1673609455.787931,8.117721,26.22244786835744
1673609455.7889378,8.111398,26.216375080922976
1673609455.789945,8.099378,26.21030085546165
1673609455.790953,8.075842,26.20422087789288
1673609455.79196,8.079255,26.198146652431554
1673609455.7929668,8.078847,26.19207386499709
1673609455.793974,8.066154,26.185999639535765
1673609455.794981,8.058027,26.17992541407444
1673609455.7959878,8.079712,26.173852626639977
1673609455.796995,8.121711,26.16777840117865
1673609455.798002,8.110364,26.161704175717325
1673609455.7990088,8.102983,26.155631388282863
1673609455.800016,8.106109,26.149557162821537
1673609455.801023,8.111711,26.14348293736021
1673609455.8020298,8.096396,26.13741014992575
1673609455.803037,8.089088,26.131335924464423
1673609455.804045,8.119235,26.125255946895653
1673609455.8050518,8.157026,26.119183159461187
1673609455.806059,8.183616,26.113108933999865
1673609455.807066,8.192871,26.10703470853854
1673609455.8080728,8.181284,26.100961921104073
1673609455.80908,8.161571,26.094887695642747
1673609455.810087,8.144478,26.088813470181424
1673609455.8110938,8.126159,26.08274068274696
1673609455.812101,8.119475,26.076666457285633
1673609455.813108,8.126472,26.07059223182431
1673609455.8141148,8.130678,26.064519444389845
1673609455.815122,8.134404,26.05844521892852
1673609455.81613,8.142074,26.052365241359748
1673609455.817137,8.140319,26.046291015898426
1673609455.8181438,8.145559,26.04021822846396
1673609455.819151,8.144718,26.034144003002634
1673609455.820158,8.149911,26.028069777541308
1673609455.8211648,8.149646,26.021996990106846
1673609455.822172,8.128346,26.01592276464552
1673609455.823179,8.123442,26.009848539184194
1673609455.8241858,8.126736,26.061724619456367
1673609455.825193,8.121663,26.011317665077474
1673609455.8262,8.114162,26.027207128040057
1673609455.8272069,8.117672,26.009898793037674
1673609455.828214,8.131351,25.955898214115404
1673609455.829222,8.133179,25.991369883909417
1673609455.8302288,8.129236,26.027383959942775
1673609455.831236,8.127409,25.955699718474374
1673609455.832243,8.124355,25.991482
1673609455.8332498,8.12236,25.991482
1673609455.834257,8.120317,25.991482
1673609455.835264,8.114667,25.991482
1673609455.8362708,8.110677,25.991482
1673609455.837278,8.112672,25.991482
1673609455.838285,8.111301,25.991482
1673609455.8392918,8.113658,25.991482
1673609455.840299,8.132866,25.991482
1673609455.841307,8.136544,25.991482
1673609455.842314,8.13414,25.991482
1673609455.8433208,8.132866,25.991482
1673609455.844328,8.124284,25.991482
1673609455.845335,8.120461,25.991482
1673609455.8463418,8.117095,25.991482
1673609455.847349,8.110821,25.991482
1673609455.848356,8.107095,25.991482
1673609455.8493629,8.108345,25.991482
1673609455.85037,8.117023,25.991482
1673609455.851377,8.113946,25.991482
1673609455.8523839,8.113778,25.991482
1673609455.853391,8.120437,25.991482
1673609455.854399,8.114139,25.991482
1673609455.8554058,8.127144,25.991482
1673609455.856413,8.14003,25.991482
1673609455.85742,8.12801,25.991482
1673609455.8584268,8.107311,25.991482
1673609455.859434,8.123322,25.991482
1673609455.860441,8.132842,25.991482
1673609455.8614478,8.13628,25.991482
1673609455.862455,8.115581,25.991482
1673609455.863462,8.097671,25.991482
1673609455.8644688,8.09618,25.991482
1673609455.865476,8.100315,25.991482
1673609455.866484,8.089449,25.991482
1673609455.867491,8.069519,25.991482
1673609455.8684978,8.077813,25.991482
1673609455.869505,8.100892,25.991482
1673609455.870512,8.116134,25.991482
1673609455.8715189,8.122144,25.991482
1673609455.872526,8.132121,25.991482
1673609455.873533,8.137121,25.991482
1673609455.8745399,8.117095,25.991482
1673609455.875547,8.092334,25.991482
1673609455.876554,8.073245,25.991482
1673609455.8775609,8.069015,25.991482
1673609455.878568,8.057763,25.991482
1673609455.879576,8.010283,25.991482
1673609455.8805828,7.920612,25.991482
1673609455.88159,7.865679,25.991482
1673609455.882597,7.863275,25.991482
1673609455.8836038,7.880753,25.991482
1673609455.884611,7.90626,25.991482
1673609455.885618,7.95148,25.991482
1673609455.8866248,8.005475,25.991482
1673609455.887632,8.111662,25.991482
1673609455.888639,8.227201,25.991482
1673609455.8896458,8.277879,25.997116773041203
1673609455.890653,8.256963,26.015320317358132
1673609455.891661,8.189096,26.00405331288783
1673609455.892668,8.159407,25.967388545779688
1673609455.8936749,8.158517,25.943497376902418
1673609455.894682,8.168181,25.953752079474157
1673609455.895689,8.171259,25.96925185765443
1673609455.8966959,8.163542,25.948064361086242
1673609455.897703,8.144622,25.98482657081545
1673609455.89871,8.115604,25.975447890389468
1673609455.8997169,8.096589,25.980967296056807
1673609455.900724,8.100026,25.986488008711046
1673609455.901731,8.078318,25.99200872136528
1673609455.9027379,8.069231,25.99752812703262
1673609455.903745,8.074664,26.00304883968686
1673609455.904753,8.085217,26.008574780288683
1673609455.9057598,8.118442,26.014094185956022
1673609455.906767,8.120629,26.019614898610257
1673609455.907774,8.139573,26.025135611264496
1673609455.9087808,8.158085,26.030655016931835
1673609455.909788,8.162724,26.03617572958607
1673609455.910795,8.151834,26.04169644224031
1673609455.9118018,8.120461,26.047215847907648
1673609455.912809,8.134549,26.052736560561883
1673609455.913816,8.144405,26.05825727321612
1673609455.9148228,8.148949,26.063776678883457
1673609455.91583,8.162772,26.069297391537695
1673609455.916838,8.167989,26.07482333213952
1673609455.917845,8.157796,26.08034404479376
1673609455.9188519,8.152555,26.085863450461098
1673609455.919859,8.153733,26.091384163115332
1673609455.920866,8.151016,26.09690487576957
1673609455.9218729,8.148588,26.10242428143691
1673609455.92288,8.144478,26.107944994091145
1673609455.923887,8.13325,26.11346570674538
1673609455.9248939,8.129837,26.11898511241272
1673609455.925901,8.126808,26.124505825066958
1673609455.926908,8.132289,26.130026537721193
1673609455.9279149,8.145632,26.135545943388532
1673609455.928922,8.166739,26.14106665604277
1673609455.92993,8.186692,26.146592596644595
1673609455.9309368,8.181284,26.152112002311934
1673609455.931944,8.159816,26.157632714966173
1673609455.932951,8.144814,26.163153427620408
1673609455.9339578,8.144021,26.168672833287747
1673609455.934965,8.147915,26.174193545941982
1673609455.935972,8.143876,26.17971425859622
1673609455.9369788,8.141905,26.18523366426356
1673609455.937986,8.141064,26.190754376917795
1673609455.938993,8.14027,26.196275089572033
1673609455.9399998,8.140174,26.201794495239373
1673609455.941007,8.135006,26.207315207893608
1673609455.942015,8.142458,26.212841148495436
1673609455.943022,8.141111,26.21836186114967
1673609455.9440289,8.131592,26.22388126681701
1673609455.945036,8.123995,26.217602882086705
1673609455.946043,8.121062,26.236082622407626
1673609455.9470499,8.126808,26.28142431568908
1673609455.948057,8.129164,26.317883264916468
1673609455.949064,8.132818,26.335199
1673609455.9500709,8.144886,26.364221088221267
1673609455.951078,8.153613,26.36002666634845
1673609455.952085,8.15169,26.365013637294595
1673609455.9530919,8.131928,26.43973878969957
1673609455.954099,8.119692,26.476193738554112
1673609455.955107,8.12599,26.46952266468998
1673609455.9561138,8.132842,26.462859479986047
1673609455.957121,8.131399,26.456194717450074
1673609455.958128,8.131303,26.4495299549141
1673609455.9591348,8.143419,26.44136569106079
1673609455.960142,8.154503,26.435617049594658
1673609455.961149,8.156354,26.495386510729613
1673609455.9621558,8.138756,26.488159456734206
1673609455.963163,8.125942,26.539931845493562
1673609455.96417,8.121086,26.57336755364807
1673609455.9651768,8.116206,26.597843746304246
1673609455.966184,8.119403,26.64509723310756
1673609455.967192,8.123298,26.65835933850989
1673609455.968199,8.111494,26.671608896981848
1673609455.9692059,8.124284,26.684855318721212
1673609455.970213,8.139717,26.69810487719317
1673609455.97122,8.137265,26.711354435665132
1673609455.9722269,8.131832,26.724600857404496
1673609455.973234,8.111422,26.737850415876455
1673609455.974241,8.102647,26.751099974348413
1673609455.9752479,8.115293,26.76434639608778
1673609455.976255,8.12034,26.77759595455974
1673609455.977262,8.107743,26.790845513031698
1673609455.9782689,8.10796,26.804091934771066
1673609455.979277,8.123034,26.817354040173395
1673609455.980284,8.128394,26.830603598645354
1673609455.9812908,8.130125,26.84385002038472
1673609455.982298,8.133996,26.85709957885668
1673609455.983305,8.130318,26.87034913732864
1673609455.9843118,8.120677,26.883595559068002
1673609455.985319,8.10546,26.89684511753996
1673609455.986326,8.09808,26.910094676011923
1673609455.9873328,8.10231,26.923341097751287
1673609455.98834,8.111374,26.936590656223245
1673609455.989347,8.114066,26.949840214695204
1673609455.9903538,8.118634,26.96308663643457
1673609455.991361,8.115269,26.97633619490653
1673609455.992369,8.12587,26.98959830030886
1673609455.993376,8.131135,27.002847858780818
1673609455.9943829,8.140534,27.016094280520186
1673609455.99539,8.168566,27.029343838992144
1673609455.996397,8.168422,27.042593397464103
1673609455.9974039,8.151016,27.05583981920347
1673609455.998411,8.138732,27.06908937767543
1673609455.999418,8.133924,27.082338936147387
1673609456.0004249,8.12123,27.09558535788675
1673609456.001432,8.116711,27.10883491635871
1673609456.002439,8.113658,27.12208447483067
1673609456.0034459,8.119643,27.135330896570036
1673609456.004454,8.134524,27.148593001972365
1673609456.005461,8.130798,27.161842560444324
1673609456.0064678,8.110868,27.17508898218369
1673609456.007475,8.092334,27.18833854065565
1673609456.008482,8.08993,27.20158809912761
1673609456.0094888,8.098897,27.214834520866976
1673609456.010496,8.102719,27.212715144253696
1673609456.011503,8.101517,27.221577497377204
1673609456.0125098,8.114499,27.23055086674613
1673609456.013517,8.116302,27.221613
1673609456.014524,8.1230810000000009,27.221613
1673609456.0155308,8.123105,27.202553264600716
1673609456.016538,8.107022,27.175777044587505
1673609456.017546,8.102695,27.157541400333812
1673609456.018553,8.112047,27.179048420500596
1673609456.0195599,8.129885,27.202417186432115
1673609456.020567,8.143372,27.20041153198735
1673609456.021574,8.147314,27.198405877542587
1673609456.0225809,8.163301,27.196400697921316
1673609456.023588,8.169168,27.19439504347655
1673609456.024595,8.157989,27.192389389031785
1673609456.0256019,8.152723,27.190384209410517
1673609456.026609,8.147603,27.18837855496575
1673609456.027616,8.141184,27.186372900520986
1673609456.0286229,8.137771,27.184367720899715
1673609456.029631,8.136448,27.18236016716097
1673609456.030638,8.118442,27.180354512716203
1673609456.0316448,8.093031,27.178349333094932
1673609456.032652,8.0537,27.176343678650166
1673609456.033659,8.024876,27.1743380242054
1673609456.0346658,8.037593,27.172332844584133
1673609456.035673,8.053748,27.170327190139368
1673609456.03668,8.070866,27.168321535694602
1673609456.0376868,8.097694,27.16631635607333
1673609456.038694,8.114259,27.164310701628565
1673609456.039701,8.126952,27.162305047183803
1673609456.0407078,8.150776,27.160299867562532
1673609456.041715,8.173422,27.158294213117767
1673609456.042723,8.19066,27.15628665937902
1673609456.04373,8.195035,27.154281004934255
1673609456.0447369,8.177197,27.152275825312984
1673609456.045744,8.155344,27.150270170868218
1673609456.046751,8.148661,27.148264516423453
1673609456.0477579,8.147554,27.146259336802185
1673609456.048765,8.146521,27.14425368235742
1673609456.049772,8.143084,27.142248027912654
1673609456.0507789,8.139189,27.140242848291383
1673609456.051786,8.136064,27.138237193846617
1673609456.052793,8.13313,27.13623153940185
1673609456.0537999,8.150271,27.134226359780584
1673609456.054808,8.150584,27.132218806041838
1673609456.055815,8.140534,27.131159
1673609456.0568218,8.139886,27.16603016475918
1673609456.057829,8.138179,27.185835530631707
1673609456.058836,8.127289,27.167345
1673609456.0598428,8.122865,27.167345
1673609456.06085,8.124885,27.185792409058404
1673609456.061857,8.119259,27.231575666189794
1673609456.0628638,8.121519,27.248313669527896
1673609456.063871,8.119331,27.22049524386174
1673609456.064878,8.112912,27.210230638727968
1673609456.0658848,8.101998,27.222784776736926
1673609456.066892,8.036488,27.235341887546735
1673609456.0679,8.001268,27.247910889559964
1673609456.068907,8.007807,27.260468000369777
1673609456.0699139,8.018192,27.273022138378735
1673609456.070921,8.036944,27.304059171360382
1673609456.071928,8.106686,27.240958599427756
1673609456.0729349,8.152122,27.29325942819719
1673609456.073942,8.217176,27.312667198612175
1673609456.074949,8.19203,27.31342628155393
1673609456.0759559,8.081347,27.31418518478855
1673609456.076963,8.026559,27.314944267730304
1673609456.07797,8.004634,27.31570335067206
1673609456.0789769,7.983695,27.31646225390668
1673609456.079985,7.965255,27.317222055676975
1673609456.080992,7.952802,27.31798113861873
1673609456.0819988,7.965568,27.31874004185335
1673609456.083006,8.03805,27.319499124795104
1673609456.084013,8.137938,27.32025820773686
1673609456.0850198,8.199434,27.32101711097148
1673609456.086027,8.225951,27.321776193913234
1673609456.087034,8.218618,27.32253527685499
1673609456.0880408,8.193592,27.323294180089608
1673609456.089048,8.166955,27.324053263031363
1673609456.090055,8.140463,27.32481234597312
1673609456.0910618,8.114042,27.325571249207737
1673609456.092069,8.108729,27.326330332149492
1673609456.093077,8.122745,27.327090133919793
1673609456.094084,8.137818,27.327849216861544
1673609456.0950909,8.164359,27.328608120096167
1673609456.096098,8.187318,27.32936720303792
1673609456.097105,8.188736,27.330126285979674
1673609456.0981119,8.180202,27.330885189214293
1673609456.099119,8.183399,27.331644272156048
1673609456.100126,8.184746,27.332403355097803
1673609456.1011329,8.180731,27.333162258332422
1673609456.10214,8.178951,27.333921341274177
1673609456.103147,8.179168,27.334680424215932
1673609456.1041539,8.171066,27.33543932745055
1673609456.105162,8.168518,27.33619912922085
1673609456.106169,8.168325,27.336958212162607
1673609456.1071758,8.157243,27.337717115397226
1673609456.108183,8.155175,27.33847619833898
1673609456.10919,8.160176,27.339235281280736
1673609456.1101968,8.15669,27.339994184515355
1673609456.111204,8.155969,27.34075326745711
1673609456.112211,8.149671,27.341512350398865
1673609456.1132178,8.132289,27.342271253633484
1673609456.114225,8.125509,27.34303033657524
1673609456.115232,8.140511,27.343789419516995
1673609456.1162388,8.144285,27.344548322751614
1673609456.117246,8.132025,27.34530740569337
1673609456.118254,8.137289,27.346067207463665
1673609456.119261,8.151882,27.34682629040542
1673609456.1202679,8.150127,27.34758519364004
1673609456.121275,8.155248,27.350647825196475
1673609456.122282,8.168494,27.37136697541766
1673609456.1232889,8.169865,27.399855004291847
1673609456.124296,8.159383,27.384422
1673609456.125303,8.143035,27.378604908527873
1673609456.1263099,8.140679,27.345221804295942
1673609456.127317,8.151713,27.32698896400477
1673609456.128324,8.157965,27.312065
1673609456.1293309,8.145487,27.312065
1673609456.130339,8.112864,27.31257865703714
1673609456.131346,8.085097,27.315205397139895
1673609456.1323528,8.089809,27.317831515381826
1673609456.13336,8.100796,27.32045825548458
1673609456.134367,8.117744,27.323084995587337
1673609456.1353738,8.138756,27.325711113829268
1673609456.136381,8.148637,27.328337853932023
1673609456.137388,8.140991,27.33096459403478
1673609456.1383948,8.158757,27.33359071227671
1673609456.139402,8.182942,27.336217452379465
1673609456.140409,8.185467,27.33884419248222
1673609456.1414158,8.173086,27.34147031072415
1673609456.142423,8.157556,27.344097050826907
1673609456.143431,8.145343,27.34672627837294
1673609456.144438,8.135198,27.349353018475693
1673609456.1454449,8.121303,27.351979136717627
1673609456.146452,8.108489,27.354605876820383
1673609456.147459,8.122433,27.357232616923135
1673609456.1484659,8.140199,27.35985873516507
1673609456.149473,8.140054,27.362485475267825
1673609456.15048,8.15532,27.365112215370576
1673609456.1514869,8.170753,27.36773833361251
1673609456.152494,8.168855,27.370365073715266
1673609456.153501,8.156209,27.372991813818018
1673609456.1545079,8.144742,27.375617932059953
1673609456.155516,8.147915,27.378247159605987
1673609456.156523,8.15508,27.38087389970874
1673609456.1575298,8.154743,27.383500017950674
1673609456.158537,8.141785,27.38612675805343
1673609456.159544,8.112504,27.38875349815618
1673609456.1605508,8.084473,27.391379616398115
1673609456.161558,8.075866,27.39400635650087
1673609456.162565,8.07827,27.396633096603622
1673609456.1635718,8.078342,27.399259214845557
1673609456.164579,8.07803,27.401885954948312
1673609456.165586,8.097598,27.404512695051064
1673609456.1665928,8.109691,27.407138813293
1673609456.1676,8.120389,27.409765553395754
1673609456.168608,8.132216,27.412394780941785
1673609456.169615,8.149261,27.41502152104454
1673609456.1706219,8.153901,27.417647639286475
1673609456.171629,8.156522,27.420274379389227
1673609456.172636,8.148372,27.422901119491982
1673609456.1736429,8.151449,27.425527237733917
1673609456.17465,8.160994,27.42815397783667
1673609456.175657,8.156811,27.430780717939424
1673609456.1766639,8.134886,27.43340683618136
1673609456.177671,8.131495,27.43603357628411
1673609456.178678,8.145367,27.438660316386866
1673609456.1796849,8.15169,27.4412864346288
1673609456.180693,8.144622,27.44391566217483
1673609456.1817,8.13289,27.446542402277586
1673609456.1827068,8.116494,27.44916852051952
1673609456.183714,8.094136,27.451795260622273
1673609456.184721,8.085818,27.454422000725028
1673609456.1857278,8.096757,27.457048118966963
1673609456.186735,8.097358,27.459674859069715
1673609456.187742,8.098777,27.46230159917247
1673609456.1887488,8.111085,27.464927717414405
1673609456.189756,8.114571,27.467554457517156
1673609456.190763,8.122624,27.47018119761991
1673609456.1917698,8.135895,27.472807315861846
1673609456.192777,8.144646,27.475434055964598
1673609456.193785,8.139405,27.478063283510632
1673609456.194792,8.135414,27.480690023613384
1673609456.1957989,8.144958,27.48331614185532
1673609456.196806,8.140847,27.485942881958074
1673609456.197813,8.117144,27.488569622060826
1673609456.1988199,8.100579,27.49119574030276
1673609456.199827,8.100796,27.493822480405516
1673609456.200834,8.081251,27.496449220508268
1673609456.2018409,8.04834,27.499075338750202
1673609456.202848,8.030068,27.501702078852958
1673609456.2038548,8.050623,27.504328197094893
1673609456.2048619,8.106518,27.506954937197644
1673609456.20587,8.142602,27.50958416474368
1673609456.206877,8.143468,27.503022070577014
1673609456.2078838,8.086348,27.51743247591798
1673609456.208891,8.056633,27.530664691537545
1673609456.209898,8.089256,27.52787442346209
1673609456.2109048,8.153253,27.53016041177873
1673609456.211912,8.183086,27.537042132777117
1673609456.212919,8.190996,27.5916949747258
1673609456.2139258,8.181284,27.60176578397711
1673609456.214933,8.18025,27.601507
1673609456.21594,8.190948,27.620342017205274
1673609456.2169468,8.198689,27.621823178774562
1673609456.217954,8.194602,27.623304691080662
1673609456.218962,8.192246,27.624787606334024
1673609456.219969,8.169408,27.626269118640124
1673609456.2209759,8.1339,27.627750280209412
1673609456.221983,8.123346,27.62923179251551
1673609456.22299,8.149622,27.630713304821615
1673609456.2239969,8.161931,27.6321944663909
1673609456.225004,8.156762,27.633675978697003
1673609456.2260108,8.156835,27.635157140266287
1673609456.2270179,8.14515,27.63663865257239
1673609456.228025,8.156089,27.63812016487849
1673609456.2290318,8.159984,27.639601326447778
1673609456.230039,8.144646,27.641082838753878
1673609456.231047,8.085747,27.64256575400724
1673609456.232054,8.047546,27.64404726631334
1673609456.2330608,8.001989,27.645528427882628
1673609456.234068,7.945037,27.647009940188727
1673609456.235075,7.892677,27.64849145249483
1673609456.2360818,7.915659,27.649972614064115
1673609456.237089,7.939363,27.65145412637022
1673609456.238096,7.972972,27.65293563867632
1673609456.2391028,8.037882,27.654416800245606
1673609456.24011,8.127264,27.655898312551706
1673609456.241117,8.225014,27.65737982485781
1673609456.2421238,8.305982,27.658860986427094
1673609456.243131,8.329661,27.660342498733197
1673609456.244139,8.29752,27.661825413986556
1673609456.245146,8.238885,27.66330692629266
1673609456.2461529,8.198088,27.664788087861943
1673609456.24716,8.188063,27.666269600168047
1673609456.2481668,8.183519,27.66775076173733
1673609456.2491739,8.184049,27.669232274043434
1673609456.250181,8.186813,27.670713786349534
1673609456.2511878,8.183616,27.672194947918822
1673609456.252195,8.191549,27.67367646022492
1673609456.253202,8.1859,27.737617048879354
1673609456.2542088,8.179553,27.730168969964243
1673609456.255216,8.18751,27.728138
1673609456.256224,8.183976,27.728138
1673609456.257231,8.172437,27.744600974010492
1673609456.2582378,8.16371,27.812564311561385
1673609456.259245,8.160608,27.83529805579399
1673609456.260252,8.168109,27.836674
1673609456.2612588,8.172317,27.819709504171634
1673609456.262266,8.166258,27.886963231044348
1673609456.263273,8.153156,27.890949
1673609456.2642798,8.147434,27.890949
1673609456.265287,8.129644,27.94336472865999
1673609456.266294,8.124812,27.927613376490225
1673609456.2673008,8.136352,27.980294410011922
1673609456.268308,8.138636,28.05281000739151
1673609456.269316,8.162821,28.053759
1673609456.2703228,8.173879,28.08997275946838
1673609456.2713299,8.173615,28.10885375877442
1673609456.272337,8.161738,28.127734758080457
1673609456.2733438,8.154574,28.146611287452945
1673609456.274351,8.156449,28.165492286758983
1673609456.275358,8.139669,28.18437328606502
1673609456.2763648,8.137771,28.203249815437513
1673609456.277372,8.137746,28.222130814743547
1673609456.278379,8.134188,28.241011814049585
1673609456.2793858,8.121182,28.259888343422077
1673609456.280393,8.126543,28.278769342728115
1673609456.281401,8.13604,28.29766822176834
1673609456.282408,8.130005,28.31654922107438
1673609456.2834148,8.127409,28.33542575044687
1673609456.284422,8.118851,28.354306749752908
1673609456.285429,8.102551,28.373187749058943
1673609456.2864358,8.091949,28.392064278431434
1673609456.287443,8.095555,28.410945277737472
1673609456.28845,8.10445,28.42982627704351
1673609456.2894568,8.111494,28.448702806415998
1673609456.290464,8.128875,28.467583805722036
1673609456.291471,8.132001,28.486464805028074
1673609456.2924778,8.134164,28.505341334400562
1673609456.293485,8.144117,28.5242223337066
1673609456.294493,8.156234,28.54312121274683
1673609456.2954998,8.166283,28.56199774211932
1673609456.296507,8.165874,28.580878741425355
1673609456.297514,8.158133,28.599759740731393
1673609456.2985208,8.13878,28.618636270103885
1673609456.299528,8.13027,28.637517269409923
1673609456.300535,8.128755,28.65639826871596
1673609456.3015418,8.1295,28.67527479808845
1673609456.302549,8.136424,28.694155797394487
1673609456.303556,8.123105,28.713036796700525
1673609456.3045628,8.102239,28.731913326073013
1673609456.30557,8.104762,28.75079432537905
1673609456.306578,8.10344,28.76969320441928
1673609456.307585,8.090459,28.788574203725318
1673609456.3085918,8.084737,28.807450733097806
1673609456.309599,8.09606,28.826331732403844
1673609456.310606,8.11611,28.845212731709882
1673609456.3116128,8.148829,28.86408926108237
1673609456.31262,8.173278,28.882970260388408
1673609456.313627,8.174745,28.901851259694446
1673609456.3146338,8.168927,28.920727789066937
1673609456.315641,8.16746,28.939608788372972
1673609456.316648,8.176764,28.975529708154507
1673609456.3176548,8.180178,29.02974436042908
1673609456.318662,8.173638,29.030624
1673609456.31967,8.172725,29.01255225226514
1673609456.3206768,8.177846,28.904304535050073
1673609456.321684,8.183423,28.958027107296136
1673609456.322691,8.17787,28.94089658259833
1673609456.3236978,8.168782,28.975874696232715
1673609456.324705,8.152651,28.9613225817835
1673609456.325712,8.139477,29.049439681021212
1673609456.3267188,8.137746,29.067256837722276
1673609456.327726,8.144502,29.085078213499045
1673609456.328733,8.14782,29.10289958927581
1673609456.3297398,8.15217,29.120716745976875
1673609456.330747,8.155801,29.138538121753644
1673609456.331755,8.159286,29.15637637383323
1673609456.332762,8.169071,29.17419774961
1673609456.3337688,8.174961,29.19201490631106
1673609456.334776,8.17561,29.209836282087828
1673609456.335783,8.161787,29.227657657864594
1673609456.3367898,8.145319,29.245474814565657
1673609456.337797,8.149838,29.263296190342427
1673609456.338804,8.165706,29.281117566119192
1673609456.3398108,8.177413,29.298934722820256
1673609456.340818,8.186621,29.316756098597025
1673609456.341825,8.169071,29.33457747437379
1673609456.3428319,8.141304,29.352394631074855
1673609456.343839,8.142386,29.370216006851624
1673609456.344847,8.142434,29.38805425893121
1673609456.3458538,8.135221,29.405871415632273
1673609456.346861,8.125077,29.42369279140904
1673609456.347868,8.109667,29.441514167185808
1673609456.3488748,8.106614,29.45933132388687
1673609456.349882,8.108826,29.477152699663637
1673609456.350889,8.12123,29.494974075440407
1673609456.3518958,8.144838,29.51279123214147
1673609456.352903,8.13616,29.530612607918236
1673609456.35391,8.144358,29.548433983695006
1673609456.3549168,8.165153,29.566251140396066
1673609456.355924,8.169985,29.584072516172835
1673609456.356932,8.15907,29.60191076825242
1673609456.357939,8.15193,29.61973214402919
1673609456.3589458,8.147843,29.637549300730253
1673609456.359953,8.126808,29.65537067650702
1673609456.36096,8.097743,29.673192052283788
1673609456.3619668,8.080674,29.691009208984852
1673609456.362974,8.063341,29.708830584761618
1673609456.363981,8.047738,29.726651960538387
1673609456.3649879,8.025669,29.744469117239447
1673609456.365995,8.032833,29.762290493016216
1673609456.367002,8.033339,29.780111868792986
1673609456.3680089,8.055961,29.797929025494046
1673609456.369016,8.075265,29.815750401270815
1673609456.370024,8.092214,29.8335886533504
1673609456.3710308,8.109258,29.851405810051464
1673609456.372038,8.129909,29.862772
1673609456.373045,8.183496,29.876228394849786
1673609456.3740518,8.208546,29.905802462327134
1673609456.375059,8.178856,29.931003466984507
1673609456.376066,8.149718,29.953224
1673609456.3770728,8.150079,29.967690424177395
1673609456.37808,8.145463,30.011485354231226
1673609456.379087,8.142554,30.043671
1673609456.3800938,8.156666,30.03605801716738
1673609456.381101,8.162292,30.025581
1673609456.382109,8.13902,30.025581
1673609456.383116,8.116518,30.025581
1673609456.3841228,8.11421,30.025581
1673609456.38513,8.098825,30.025581
1673609456.386137,8.094401,30.025581
1673609456.3871439,8.103753,30.025581
1673609456.388151,8.12135,30.025581
1673609456.389158,8.131976,30.025581
1673609456.3901649,8.103897,30.025581
1673609456.391172,8.080938,30.07003568651739
1673609456.392179,8.080001,30.064905787842672
1673609456.3931859,8.161305,30.016562211254172
1673609456.394193,8.148517,30.053119474463006
1673609456.395201,8.131303,30.04641915575137
1673609456.3962078,8.133732,30.043671
1673609456.397215,8.126616,30.043671
1673609456.398222,8.116975,30.027950492736366
1673609456.3992288,8.132553,30.00973910753457
1673609456.400236,8.13914,30.00144867822921
1673609456.401243,8.158493,29.994555080832555
1673609456.4022498,8.189986,29.987663115442857
1673609456.403257,8.19078,29.980769518046202
1673609456.404264,8.191213,29.973875920649547
1673609456.4052708,8.198232,29.96698395525985
1673609456.406278,8.193785,29.960090357863194
1673609456.407286,8.177894,29.9531902324387
1673609456.408293,8.164119,29.946296635042046
1673609456.4092999,8.161522,29.93940466965235
1673609456.410307,8.171186,29.932511072255693
1673609456.411314,8.173086,29.925617474859038
1673609456.4123209,8.176788,29.918725509469343
1673609456.413328,8.173951,29.911831912072685
1673609456.414335,8.165513,29.90493831467603
1673609456.4153419,8.164792,29.898046349286336
1673609456.416349,8.160248,29.891152751889678
1673609456.417356,8.164119,29.884259154493023
1673609456.4183629,8.172317,29.877367189103328
1673609456.41937,8.161955,29.87047359170667
1673609456.420378,8.154574,29.86357346628218
1673609456.4213848,8.162748,29.85668150089248
1673609456.422392,8.154815,29.849787903495827
1673609456.423399,8.145319,29.842894306099172
1673609456.4244058,8.144838,29.836002340709474
1673609456.425413,8.150199,29.82910874331282
1673609456.42642,8.149887,29.822215145916164
1673609456.4274268,8.147554,29.815323180526466
1673609456.428434,8.151329,29.80842958312981
1673609456.429441,8.165224,29.801535985733157
1673609456.4304478,8.167557,29.79464402034346
1673609456.431455,8.167316,29.787750422946804
1673609456.432463,8.154935,29.78085029752231
1673609456.43347,8.14955,29.773956700125655
1673609456.4344769,8.153108,29.76706473473596
1673609456.435484,8.159166,29.760171137339302
1673609456.436491,8.166547,29.751716739399715
1673609456.4374979,8.164046,29.7256522681764
1673609456.438505,8.150151,29.672026117787315
1673609456.439512,8.15532,29.72539817082826
1673609456.4405189,8.157435,29.71536547080292
1673609456.441526,8.148973,29.697845284409258
1673609456.442533,8.149189,29.699961
1673609456.4435399,8.136808,29.699961
1673609456.444547,8.120245,29.70346752288984
1673609456.445555,8.115389,29.724802898545615
1673609456.4465618,8.127409,29.758471718567023
1673609456.447569,8.125341,29.792148511313986
1673609456.448576,8.125895,29.82582530406095
1673609456.4495828,8.123298,29.859494124082353
1673609456.45059,8.120917,29.893170916829316
1673609456.451597,8.121903,29.92684770957628
1673609456.4526038,8.124668,29.960516529597683
1673609456.453611,8.134621,29.994193322344646
1673609456.454618,8.140319,30.02787011509161
1673609456.4556248,8.137506,30.061538935113017
1673609456.456632,8.146473,30.095215727859976
1673609456.45764,8.161931,30.12892441150916
1673609456.458647,8.183952,30.162601204256124
1673609456.4596539,8.188592,30.19627002427753
1673609456.460661,8.180707,30.229946817024494
1673609456.461668,8.177076,30.263623609771454
1673609456.4626749,8.169479,30.29729242979286
1673609456.463682,8.146881,30.330969222539824
1673609456.464689,8.130486,30.364646015286787
1673609456.4656959,8.15205,30.39831483530819
1673609456.466703,8.162821,30.431991628055155
1673609456.46771,8.14705,30.465668420802118
1673609456.4687169,8.116446,30.49933724082352
1673609456.469724,8.102286,30.533014033570485
1673609456.470732,8.09005,30.56672271721967
1673609456.4717388,8.081011,30.600391537241077
1673609456.472746,8.050479,30.63406832998804
1673609456.473753,8.012206,30.667745122735
1673609456.4747598,8.006725,30.701413942756407
1673609456.475767,8.019707,30.73509073550337
1673609456.476774,8.030886,30.76876752825033
1673609456.4777808,8.054398,30.802436348271737
1673609456.478788,8.094689,30.8361131410187
1673609456.479795,8.146713,30.869789933765663
1673609456.4808018,8.196886,30.903458753787067
1673609456.481809,8.19679,30.93713554653403
1673609456.482817,8.120557,30.970844230183214
1673609456.483824,8.036655,30.95163536909871
1673609456.4848309,8.008312,30.919054297091083
1673609456.485838,8.034973,30.92315949010727
1673609456.486845,8.069592,30.91879971363853
1673609456.4878519,8.087213,30.911995
1673609456.488859,8.130414,30.911995
1673609456.489866,8.163902,30.92366700405341
1673609456.4908729,8.164576,30.904314896300157
1673609456.49188,8.150415,30.866991722460657
1673609456.492887,8.118225,30.88490006866953
1673609456.4938939,8.097743,30.921328000953515
1673609456.494902,8.089689,30.888524400572248
1673609456.495909,8.104017,30.9037826948021
1673609456.4969158,8.127601,30.897890323241956
1673609456.497923,8.141881,30.893906
1673609456.49893,8.161138,30.893906
1673609456.4999368,8.182221,30.951862765855985
1673609456.500944,8.212031,30.94979790240549
1673609456.501951,8.219916,30.929267321042484
1673609456.5029578,8.20369,30.908741600139084
1673609456.503965,8.207896,30.88821101877608
1673609456.504972,8.208209,30.867680437413075
1673609456.5059788,8.19316,30.847154716509674
1673609456.506986,8.194265,30.82662413514667
1673609456.507994,8.19703,30.806074111945254
1673609456.509001,8.194963,30.78554353058225
1673609456.5100079,8.179817,30.76501780967885
1673609456.511015,8.175851,30.744487228315844
1673609456.512022,8.186524,30.72395664695284
1673609456.5130289,8.183015,30.70343092604944
1673609456.514036,8.178134,30.682900344686434
1673609456.515043,8.171307,30.66236976332343
1673609456.5160499,8.173158,30.628747932761087
1673609456.517057,8.171427,30.622553
1673609456.518064,8.174215,30.592050152122077
1673609456.5190709,8.178423,30.571001584028604
1673609456.520079,8.172389,30.55276658750596
1673609456.521086,8.163181,30.550196
1673609456.5220928,8.160584,30.550196
1673609456.5231,8.15205,30.53429891654745
1673609456.524107,8.143372,30.484018848831663
1673609456.5251138,8.138852,30.477833
1673609456.526121,8.137771,30.477833
1673609456.527128,8.15395,30.477833
1673609456.5281348,8.169263,30.477833
1673609456.529142,8.166595,30.477833
1673609456.530149,8.166066,30.477833
1673609456.5311558,8.162868,30.477833
1673609456.532163,8.158373,30.477833
1673609456.533171,8.178374,30.477833
1673609456.534178,8.203978,30.477833
1673609456.5351849,8.202487,30.477833
1673609456.536192,8.178159,30.460269223175967
1673609456.537199,8.164143,30.442050802098237
1673609456.5382059,8.169119,30.40601944635193
1673609456.539213,8.156858,30.405476
1673609456.54022,8.143468,30.477763989985693
1673609456.5412269,8.147363,30.405691601907034
1673609456.542234,8.15907,30.4414210944206
1673609456.543241,8.163349,30.423590100370028
1673609456.5442479,8.162484,30.42485199159178
1673609456.545256,8.159046,30.42611537688318
1673609456.546263,8.162941,30.427377566918857
1673609456.5472698,8.15342,30.428639458140612
1673609456.548277,8.145872,30.42990164817629
1673609456.549284,8.141809,30.431163838211972
1673609456.5502908,8.144742,30.432425729433724
1673609456.551298,8.148973,30.433687919469406
1673609456.552305,8.147122,30.43495010950509
1673609456.5533118,8.163782,30.43621200072684
1673609456.554319,8.160584,30.437474190762522
1673609456.555326,8.157844,30.438736380798204
1673609456.5563328,8.15544,30.439998272019956
1673609456.55734,8.148396,30.441260462055634
1673609456.558348,8.15419,30.416549313945172
1673609456.559355,8.160056,30.39279488412017
1673609456.5603619,8.157388,30.387386
1673609456.561369,8.150488,30.387386
1673609456.562376,8.139813,30.41350665140677
1673609456.5633829,8.132962,30.384009140200284
1673609456.56439,8.131183,30.369297
1673609456.565397,8.130991,30.369297
1673609456.5664039,8.138395,30.382861593466856
1673609456.567411,8.136664,30.38157646018409
1673609456.568418,8.121038,30.373847485008525
1673609456.5694249,8.11498,30.36612033960928
1673609456.570433,8.124331,30.35838404532844
1673609456.57144,8.138203,30.350655070152875
1673609456.5724468,8.150632,30.342927924753635
1673609456.573454,8.16371,30.33519894957807
1673609456.574461,8.171475,30.327469974402508
1673609456.5754678,8.159239,30.319742829003264
1673609456.576475,8.161571,30.3120138538277
1673609456.577482,8.160777,30.30428487865214
1673609456.5784888,8.156041,30.296557733252897
1673609456.579496,8.151041,30.288828758077333
1673609456.580503,8.143828,30.28109978290177
1673609456.5815098,8.13652,30.27337263750253
1673609456.582517,8.136832,30.265643662326966
1673609456.583525,8.127169,30.257907368046123
1673609456.584532,8.118032,30.25017839287056
1673609456.5855389,8.101469,30.242451247471315
1673609456.586546,8.082092,30.234722272295755
1673609456.587553,8.078174,30.226993297120192
1673609456.5885599,8.097261,30.219266151720948
1673609456.589567,8.10445,30.211537176545384
1673609456.590574,8.077789,30.20380820136982
1673609456.5915809,8.069159,30.19608105597058
1673609456.592588,8.095507,30.188352080795017
1673609456.593595,8.112576,30.180623105619453
1673609456.5946019,8.145727,30.17289596022021
1673609456.59561,8.164696,30.165159665939367
1673609456.596617,8.172317,30.157430690763807
1673609456.5976238,8.185106,30.149703545364563
1673609456.598631,8.194169,30.141974570189
1673609456.599638,8.198785,30.134245595013436
1673609456.6006448,8.194795,30.080338771101573
1673609456.601652,8.181355,30.079847
1673609456.602659,8.171907,30.07930355364807
1673609456.6036658,8.174721,29.97217543146603
1673609456.604673,8.174912,30.04264878445398
1673609456.60568,8.16085,29.988462725560325
1673609456.6066868,8.156449,29.954414155423123
1673609456.607694,8.144309,29.98724179542203
1673609456.608702,8.081347,29.934220806754755
1673609456.609709,8.045863,29.91517722333226
1673609456.6107159,8.056561,29.896138148333872
1673609456.611723,8.075385,29.877094564911378
1673609456.61273,8.094136,29.858050981488883
1673609456.6137369,8.127289,29.839011906490494
1673609456.614744,8.172509,29.819968323068
1673609456.615751,8.215686,29.800924739645506
1673609456.6167579,8.260113,29.781885664647117
1673609456.617765,8.255785,29.762842081224623
1673609456.618772,8.218138,29.74379849780213
1673609456.6197789,8.178327,29.72475942280374
1673609456.620787,8.164432,29.70569780568482
1673609456.621794,8.165032,29.686654222262327
1673609456.6228008,8.159214,29.667615147263938
1673609456.623808,8.152459,29.648571563841443
1673609456.624815,8.159719,29.62952798041895
1673609456.6258218,8.157532,29.61048890542056
1673609456.626829,8.165056,29.591445321998066
1673609456.627836,8.178615,29.57240173857557
1673609456.6288428,8.165297,29.553362663577186
1673609456.62985,8.167316,29.534319080154688
1673609456.630857,8.150632,29.515275496732194
1673609456.6318638,8.129091,29.49623642173381
1673609456.632871,8.13337,29.47719283831131
1673609456.633879,8.135583,29.458131221192396
1673609456.634886,8.127746,29.4390876377699
1673609456.6358929,8.121038,29.420048562771512
1673609456.6369,8.139189,29.40100497934902
1673609456.637907,8.151329,29.381961395926524
1673609456.6389139,8.157676,29.362922320928135
1673609456.639921,8.163686,29.34387873750564
1673609456.640928,8.172244,29.324835154083146
1673609456.6419349,8.179288,29.305796079084757
1673609456.642942,8.179168,29.286752495662263
1673609456.643949,8.184986,29.26770891223977
1673609456.6449559,8.188832,29.24866983724138
1673609456.645964,8.177773,29.22960822012246
1673609456.646971,8.160945,29.210564636699967
1673609456.6479778,8.16395,29.191525561701578
1673609456.648985,8.17234,29.172481978279084
1673609456.649992,8.160728,29.15343839485659
1673609456.6509988,8.153877,29.1343993198582
1673609456.652006,8.156089,29.115355736435706
1673609456.653013,8.157051,29.096312153013212
1673609456.6540198,8.162244,29.077273078014823
1673609456.655027,8.160657,29.05822949459233
1673609456.656034,8.158253,29.039185911169834
1673609456.6570408,8.16032,29.02014683617145
1673609456.658048,8.159743,29.00110325274895
1673609456.659056,8.15217,28.982041635630036
1673609456.660063,8.157796,28.962998052207542
1673609456.6610699,8.161931,28.943958977209153
1673609456.662077,8.150248,28.92491539378666
1673609456.663084,8.140776,28.905871810364165
1673609456.6640909,8.117624,28.886832735365775
1673609456.665098,8.069351,28.85124419933238
1673609456.666105,8.022928,28.79735192419547
1673609456.6671119,8.00771,28.760291827372438
1673609456.668119,8.015307,28.759274
1673609456.669126,8.044493,28.72360383456496
1673609456.6701329,8.069903,28.723095
1673609456.671141,8.102791,28.686916
1673609456.672148,8.119042,28.686329497973777
1673609456.6731548,8.142722,28.614341596416647
1673609456.674162,8.181932,28.60000700389909
1673609456.675169,8.206045,28.585672411381537
1673609456.6761758,8.201886,28.571341212470166
1673609456.677183,8.193352,28.55700661995261
1673609456.67819,8.199098,28.542672027435056
1673609456.6791968,8.198833,28.528340828523685
1673609456.680204,8.182149,28.51400623600613
1673609456.681211,8.180418,28.499671643488576
1673609456.6822178,8.189433,28.485340444577204
1673609456.683225,8.189193,28.471005852059648
1673609456.684233,8.185683,28.456657685117364
1673609456.68524,8.169239,28.442323092599807
1673609456.6862469,8.157002,28.427991893688436
1673609456.687254,8.15169,28.413657301170883
1673609456.688261,8.149862,28.399322708653326
1673609456.6892679,8.140991,28.384991509741955
1673609456.690275,8.13527,28.3706569172244
1673609456.691282,8.123201,28.356322324706845
1673609456.6922889,8.099498,28.341991125795474
1673609456.693296,8.055431,28.32765653327792
1673609456.694303,8.031366,28.313321940760364
1673609456.6953099,8.025429,28.298990741848993
1673609456.696318,8.027569,28.284642574906705
1673609456.697325,8.050383,28.270307982389152
1673609456.6983318,8.091276,28.25597678347778
1673609456.699339,8.139453,28.241642190960228
1673609456.700346,8.194169,28.22730759844267
1673609456.7013528,8.247876,28.2129763995313
1673609456.70236,8.283192,28.198641807013747
1673609456.703367,8.258453,28.18430721449619
1673609456.7043738,8.191813,28.16997601558482
1673609456.705381,8.162339,28.155641423067266
1673609456.706388,8.153685,28.14130683054971
1673609456.7073948,8.157603,28.126975631638338
1673609456.708402,8.161522,28.112641039120785
1673609456.70941,8.172317,28.098292872178497
1673609456.710417,8.175249,28.083958279660944
1673609456.7114239,8.175971,28.069627080749573
1673609456.712431,8.175995,28.055292488232016
1673609456.713438,8.168902,28.040957895714463
1673609456.7144449,8.165537,28.026626696803092
1673609456.715452,8.171235,28.012292104285535
1673609456.716459,8.171836,27.997957511767982
1673609456.7174659,8.171523,27.98362631285661
1673609456.718473,8.164335,27.969291720339054
1673609456.7194798,8.165633,27.954960521427683
1673609456.7204869,8.182798,27.94062592891013
1673609456.721495,8.180202,27.926277761967842
1673609456.722502,8.175418,27.91194316945029
1673609456.7235088,8.172317,27.897611970538918
1673609456.724516,8.164022,27.88327737802136
1673609456.725523,8.163373,27.86894278550381
1673609456.7265298,8.16133,27.854611586592437
1673609456.727537,8.152987,27.84027699407488
1673609456.728544,8.139309,27.825942401557327
1673609456.7295508,8.133539,27.811611202645956
1673609456.730558,8.126952,27.7972766101284
1673609456.731565,8.127216,27.782942017610846
1673609456.7325718,8.141521,27.768610818699475
1673609456.733579,8.147434,27.75427622618192
1673609456.734587,8.167388,27.739928059239634
1673609456.735594,8.181308,27.725593466722078
1673609456.7366009,8.188375,27.711262267810707
1673609456.737608,8.185875,27.696927675293153
1673609456.738615,8.174071,27.682593082775597
1673609456.7396219,8.166787,27.668261883864226
1673609456.740629,8.166787,27.653927291346672
1673609456.7416358,8.168374,27.6395960924353
1673609456.7426429,8.184409,27.625261499917745
1673609456.74365,8.187822,27.61092690740019
1673609456.7446568,8.157916,27.59659570848882
1673609456.745664,8.144549,27.582261115971264
1673609456.746672,8.14503,27.56791294902898
1673609456.747679,8.142386,27.553578356511423
1673609456.7486858,8.125029,27.53924715760005
1673609456.749693,8.115629,27.5249125650825
1673609456.7507,8.105916,27.510577972564942
1673609456.7517068,8.105821,27.49624677365357
1673609456.752714,8.106277,27.481912181136018
1673609456.753721,8.12248,27.46757758861846
1673609456.7547278,8.113129,27.45324638970709
1673609456.755735,8.111902,27.438911797189537
1673609456.756742,8.111181,27.438698
1673609456.7577488,8.108513,27.456765434668572
1673609456.758756,8.123802,27.384637659275157
1673609456.759764,8.113176,27.420092165435044
1673609456.760771,8.093271,27.398629717807054
1673609456.7617779,8.099161,27.755871549356222
1673609456.762785,8.136785,27.72050008059132
1673609456.7637918,8.154094,27.683254138259834
1673609456.7647989,8.153926,27.665038442060084
1673609456.765806,8.153276,27.628912728183117
1673609456.7668128,8.161642,27.601507
1673609456.76782,8.173422,27.564686086790655
1673609456.768827,8.189553,27.519808524558893
1673609456.7698338,8.206406,27.52050929964243
1673609456.770841,8.208257,27.518621912533696
1673609456.771849,8.18477,27.49860439236829
1673609456.772856,8.175755,27.47860581025413
1673609456.7738628,8.180851,27.45861196265278
1673609456.77487,8.184626,27.438613380538616
1673609456.775877,8.189433,27.418614798424453
1673609456.7768838,8.176788,27.398620950823105
1673609456.777891,8.154527,27.378622368708943
1673609456.778898,8.151329,27.35862378659478
1673609456.7799048,8.162412,27.33862993899343
1673609456.780912,8.170826,27.31863135687927
1673609456.781919,8.190516,27.298632774765107
1673609456.7829258,8.198521,27.278638927163758
1673609456.783933,8.181091,27.258640345049596
1673609456.784941,8.156329,27.23862282488419
1673609456.7859478,8.145944,27.21862897728284
1673609456.7869549,8.145776,27.198630395168678
1673609456.787962,8.149405,27.178631813054515
1673609456.7889688,8.147987,27.158637965453163
1673609456.789976,8.156594,27.138639383339004
1673609456.790983,8.161017,27.118640801224842
1673609456.7919898,8.154046,27.09864695362349
1673609456.792997,8.13765,27.07864837150933
1673609456.794004,8.115533,27.05864978939517
1673609456.7950108,8.093776,27.038655941793817
1673609456.796018,8.088343,27.018657359679654
1673609456.797026,8.113465,26.99863983951425
1673609456.798033,8.137866,26.97864125740009
1673609456.7990398,8.148396,26.958647409798736
1673609456.800047,8.181115,26.938648827684577
1673609456.801054,8.222489,26.918650245570415
1673609456.8020608,8.208617,26.898656397969063
1673609456.803068,8.16532,26.8786578158549
1673609456.804075,8.145079,26.85865923374074
1673609456.8050818,8.15443,26.83866538613939
1673609456.806089,8.168686,26.818666804025227
1673609456.807096,8.172605,26.805538
1673609456.8081028,8.186934,26.824688367191225
1673609456.80911,8.199121,26.89887630512515
1673609456.810118,8.19614,26.941728386981403
1673609456.8111248,8.169383,26.909552655221745
1673609456.812132,8.14741,26.966713862455304
1673609456.813139,8.152411,27.022625
1673609456.8141458,8.158325,27.036943984263235
1673609456.815153,8.172941,27.095251036719123
1673609456.81616,8.183423,27.16585768915734
1673609456.8171668,8.182726,27.206618696896548
1673609456.818174,8.172437,27.247389356780616
1673609456.819181,8.161427,27.288160016664683
1673609456.8201878,8.169528,27.32892102440389
1673609456.821195,8.18489,27.369691684287957
1673609456.822203,8.181596,27.41050095275146
1673609456.82321,8.161931,27.451271612635527
1673609456.8242168,8.14467,27.492032620374736
1673609456.825224,8.146689,27.532803280258804
1673609456.826231,8.132578,27.57357394014287
1673609456.8272378,8.112672,27.614334947882078
1673609456.828245,8.114066,27.655105607766146
1673609456.829252,8.120582,27.695876267650213
1673609456.8302588,8.136857,27.736637275389423
1673609456.831266,8.132337,27.777407935273487
1673609456.832273,8.111831,27.818178595157555
1673609456.8332798,8.10945,27.858939602896765
1673609456.834287,8.112022,27.899710262780832
1673609456.835295,8.059879,27.940519531244334
1673609456.8363018,8.02014,27.981280538983544
1673609456.837309,8.029564,28.02205119886761
1673609456.838316,8.051873,28.06282185875168
1673609456.8393228,8.061177,28.103582866490886
1673609456.84033,8.073125,28.144353526374953
1673609456.841337,8.088078,28.18512418625902
1673609456.8423438,8.112648,28.225885193998227
1673609456.843351,8.167989,28.266655853882295
1673609456.844358,8.193641,28.307426513766362
1673609456.8453648,8.154551,28.348187521505572
1673609456.846372,8.09219,28.38895818138964
1673609456.84738,8.070265,28.42976744985314
1673609456.848387,8.092141,28.47053810973721
1673609456.8493938,8.137001,28.51129911747642
1673609456.850401,8.190395,28.552069777360483
1673609456.851408,8.216311,28.59284043724455
1673609456.8524148,8.23499,28.63360144498376
1673609456.853422,8.23261,28.674372104867828
1673609456.854429,8.22333,28.715142764751896
1673609456.8554358,8.214267,28.755903772491102
1673609456.856443,8.202247,28.79667443237517
1673609456.85745,8.188976,28.837445092259237
1673609456.8584569,8.158205,28.878206099998447
1673609456.859464,8.106926,28.91897675988251
1673609456.860472,8.04555,28.959786028346016
1673609456.8614788,8.033483,29.000547036085223
1673609456.862486,8.036728,28.98681871537545
1673609456.863493,8.017688,29.02830457033858
1673609456.8644998,8.032882,29.07493744301383
1673609456.865507,8.10356,29.098130688915376
1673609456.866514,8.127746,29.12972029613734
1673609456.8675208,8.143876,29.112179490701003
1673609456.868528,8.193064,29.14385001382928
1673609456.869535,8.227273,29.17100377759237
1673609456.8705418,8.221816,29.20308687553648
1673609456.871549,8.193448,29.227257580282124
1673609456.872557,8.170706,29.247752283126495
1673609456.873564,8.180995,29.26822759646959
1673609456.8745708,8.187991,29.28869806243737
1673609456.875578,8.197006,29.309173375780468
1673609456.876585,8.187054,29.329648689123562
1673609456.8775918,8.174071,29.350119155091342
1673609456.878599,8.180538,29.37059446843444
1673609456.879606,8.187269,29.39106978177754
1673609456.8806129,8.184746,29.411540247745318
1673609456.88162,8.200925,29.432015561088413
1673609456.882627,8.217248,29.45249087443151
1673609456.8836339,8.206622,29.47296134039929
1673609456.884641,8.194482,29.49343665374239
1673609456.885649,8.192631,29.513931356586756
1673609456.8866558,8.199675,29.534401822554535
1673609456.887663,8.193304,29.554877135897634
1673609456.88867,8.142842,29.575352449240732
1673609456.8896768,8.125365,29.59582291520851
1673609456.890684,8.138348,29.616298228551607
1673609456.891691,8.143059,29.636773541894705
1673609456.8926978,8.125365,29.657244007862484
1673609456.893705,8.135919,29.67771932120558
1673609456.894712,8.175634,29.698194634548678
1673609456.8957188,8.2028,29.718665100516457
1673609456.896726,8.227946,29.739140413859555
1673609456.897734,8.221527,29.759635116703922
1673609456.898741,8.211454,29.78011043004702
1673609456.8997478,8.198689,29.8005808960148
1673609456.900755,8.169359,29.8210562093579
1673609456.901762,8.155128,29.841531522700993
1673609456.9027689,8.157339,29.862001988668773
1673609456.903776,8.171716,29.88247730201187
1673609456.904783,8.180875,29.90295261535497
1673609456.9057899,8.193905,29.92342308132275
1673609456.906797,8.208834,29.943898394665844
1673609456.907804,8.206862,29.964373708008942
1673609456.9088109,8.190756,29.98484417397672
1673609456.909818,8.1552,30.00531948731982
1673609456.910826,8.144453,30.025814190164187
1673609456.9118328,8.156955,30.046284656131967
1673609456.91284,8.161114,30.066759969475065
1673609456.913847,8.157532,30.08723528281816
1673609456.9148538,8.153444,30.10770574878594
1673609456.915861,8.153324,30.128181062129038
1673609456.916868,8.163782,30.148656375472136
1673609456.9178748,8.179721,30.169126841439915
1673609456.918882,8.177942,30.18960215478301
1673609456.919889,8.156498,30.21007746812611
1673609456.9208958,8.144358,30.230547934093888
1673609456.921903,8.14955,30.251023247436986
1673609456.922911,8.150392,30.271517950281353
1673609456.923918,8.157748,30.291993263624452
1673609456.9249249,8.137049,30.31246372959223
1673609456.925932,8.065817,30.33293904293533
1673609456.926939,8.020068,30.353414356278424
1673609456.9279459,8.00937,30.373884822246204
1673609456.928953,8.005812,30.394360135589302
1673609456.92996,7.99771,30.4148354489324
1673609456.9309669,8.031271,30.435305914900177
1673609456.931974,8.076467,30.455781228243275
1673609456.932981,8.13051,30.476256541586373
1673609456.9339879,8.206502,30.496727007554153
1673609456.934995,8.240015,30.517202320897248
1673609456.936003,8.213618,30.551999861707202
1673609456.9370098,8.166138,30.629956758226037
1673609456.938017,8.171667,30.721050973539928
1673609456.939024,8.193592,30.806780356938486
1673609456.9400308,8.197006,30.868682491177875
1673609456.941038,8.191501,30.899511649582838
1673609456.942045,8.182125,30.911995
1673609456.9430518,8.183543,30.929569022412974
1673609456.944059,8.193905,30.99021614401526
1673609456.945066,8.213113,31.058091226958503
1673609456.9460728,8.206935,31.116061363380048
1673609456.94708,8.177917,31.174045227042043
1673609456.948088,8.174624,31.23208399966584
1673609456.949095,8.167508,31.290067863327835
1673609456.9501019,8.170465,31.34803799974938
1673609456.951109,8.171499,31.406021863411375
1673609456.952116,8.165056,31.46400572707337
1673609456.9531229,8.155584,31.521975863494916
1673609456.95413,8.161114,31.57995972715691
1673609456.955137,8.168037,31.637943590818903
1673609456.9561439,8.178254,31.69591372724045
1673609456.957151,8.190467,31.753897590902444
1673609456.958158,8.184746,31.81188145456444
1673609456.9591649,8.177822,31.869851590985984
1673609456.960172,8.179528,31.92783545464798
1673609456.96118,8.1701530000000009,31.985874227271776
1673609456.9621868,8.155849,32.043844363693324
1673609456.963194,8.150512,32.10182822735532
1673609456.964201,8.151906,32.159812091017315
1673609456.9652078,8.13313,32.21778222743886
1673609456.966215,8.101662,32.275766091100856
1673609456.967222,8.071322,32.33374995476285
1673609456.9682288,8.061418,32.39172009118439
1673609456.969236,8.100652,32.449703954846385
1673609456.970243,8.157123,32.50768781850838
1673609456.9712498,8.171427,32.565657954929925
1673609456.972257,8.175274,32.62364181859192
1673609456.973265,8.207199,32.681680591215716
1673609456.974272,8.229004,32.73966445487771
1673609456.9752789,8.2241,32.79763459129926
1673609456.976286,8.184866,32.85561845496125
1673609456.977293,8.149238,32.91360231862325
1673609456.9782999,8.14039,32.97157245504479
1673609456.979307,8.121783,33.010448
1673609456.980314,8.111951,33.034983772532186
1673609456.9813209,8.111181,33.07655623265793
1673609456.982328,8.10909,33.064724
1673609456.983335,8.119019,33.07774982021936
1673609456.9843419,8.137626,33.12081168009535
1673609456.985349,8.156329,33.14840711206485
1673609456.986357,8.17448,33.143990532188845
1673609456.9873638,8.191188,33.19738
1673609456.988371,8.199963,33.26975706287382
1673609456.989378,8.200876,33.28513502408936
1673609456.9903848,8.195443,33.300509344689075
1673609456.991392,8.20268,33.31588730590461
1673609456.992399,8.187654,33.331265267120145
1673609456.9934058,8.170489,33.346639587719864
1673609456.994413,8.172268,33.362017548935405
1673609456.99542,8.181644,33.37739551015094
1673609456.9964268,8.168831,33.39276983075066
1673609456.997434,8.136375,33.408147791966194
1673609456.998442,8.13027,33.423540315645
1673609456.999449,8.128467,33.43891827686054
1673609457.0004559,8.143612,33.45429259746026
1673609457.001463,8.173951,33.469670558675794
1673609457.00247,8.188183,33.48504851989133
1673609457.0034769,8.185298,33.50042284049105
1673609457.004484,8.179961,33.51580080170658
1673609457.005491,8.156329,33.53117876292212
1673609457.0064979,8.118105,33.546553083521836
1673609457.007505,8.091156,33.56193104473738
1673609457.008512,8.083126,33.57730900595291
1673609457.0095189,8.075722,33.59268332655263
1673609457.010527,8.079881,33.60807585023144
1673609457.011534,8.102623,33.62345381144697
1673609457.0125408,8.152772,33.63882813204669
1673609457.013548,8.208906,33.65420609326223
1673609457.014555,8.229485,33.66958405447777
1673609457.0155618,8.22208,33.684958375077485
1673609457.016569,8.215566,33.70033633629302
1673609457.017576,8.213546,33.715714297508555
1673609457.0185828,8.210469,33.731088618108274
1673609457.01959,8.194218,33.74646657932381
1673609457.020597,8.177389,33.76184454053935
1673609457.0216038,8.170778,33.77721886113906
1673609457.022611,8.174624,33.792596822354604
1673609457.023619,8.17347,33.80798934603341
1673609457.024626,8.164311,33.823367307248944
1673609457.0256329,8.172389,33.83874162784866
1673609457.02664,8.165417,33.854119589064204
1673609457.027647,8.162148,33.86949755027974
1673609457.0286539,8.167075,33.88487187087946
1673609457.029661,8.162628,33.90024983209499
1673609457.030668,8.165273,33.91562779331053
1673609457.0316749,8.156931,33.931002113910246
1673609457.032682,8.145583,33.94638007512578
1673609457.033689,8.145679,33.961758036341315
1673609457.0346959,8.167196,33.977132356941034
1673609457.035704,8.193304,33.99252488061985
1673609457.036711,8.195756,34.00790284183538
1673609457.0377178,8.181235,34.0232771624351
1673609457.038725,8.169335,34.038655123650635
1673609457.039732,8.158637,34.05403308486617
1673609457.0407388,8.137962,34.06940740546589
1673609457.041746,8.13378,34.08478536668143
1673609457.042753,8.1458,34.100163327896965
1673609457.0437598,8.14741,34.115537648496684
1673609457.044767,8.154166,34.13091560971222
1673609457.045774,8.175514,34.14629357092775
1673609457.0467808,8.170442,34.16166789152747
1673609457.047788,8.13378,34.157767861230326
1673609457.048796,8.118922,34.150135
1673609457.049803,8.121903,34.171586412732474
1673609457.0508099,8.117264,34.18631
1673609457.051817,8.117744,34.18631
1673609457.052824,8.128202,34.03094904252362
1673609457.0538309,8.140559,34.096604800777996
1673609457.054838,8.153589,34.099796327591
1673609457.055845,8.179384,34.107406073096165
1673609457.0568519,8.203857,34.118947741872745
1673609457.057859,8.204338,34.07398744086791
1673609457.058866,8.183736,34.09220663090129
1673609457.0598729,8.153204,34.06673737148307
1673609457.060881,8.15282,34.10379071156138
1673609457.061888,8.149069,34.128777634954695
1673609457.0628948,8.137145,34.137000374758394
1673609457.063902,8.134789,34.143049384844744
1673609457.064909,8.148324,34.149098394931094
1673609457.0659158,8.161618,34.155145972960135
1673609457.066923,8.176428,34.161194983046485
1673609457.06793,8.180034,34.167243993132836
1673609457.0689368,8.172148,34.173291571161876
1673609457.069944,8.170321,34.179340581248226
1673609457.070951,8.16258,34.18538959133458
1673609457.0719578,8.141424,34.19143716936362
1673609457.072965,8.117432,34.19748617944997
1673609457.073973,8.125221,34.203540917765565
1673609457.07498,8.153974,34.209589927851916
1673609457.0759869,8.193857,34.215637505880956
1673609457.076994,8.216936,34.221686515967306
1673609457.078001,8.217825,34.22773552605366
1673609457.0790079,8.202752,34.23378310408269
1673609457.080015,8.167748,34.23983211416905
1673609457.081022,8.121903,34.2458811242554
1673609457.0820289,8.082958,34.25192870228443
1673609457.083036,8.076659,34.25797771237078
1673609457.084043,8.069663,34.26402672245713
1673609457.0850499,8.064759,34.27007430048617
1673609457.086058,8.075553,34.27612903880177
1673609457.087065,8.092141,34.28217804888812
1673609457.0880718,8.121423,34.28822562691716
1673609457.089079,8.154863,34.29427463700351
1673609457.090086,8.183375,34.30032364708986
1673609457.0910928,8.200685,34.3063712251189
1673609457.0921,8.200131,34.31242023520525
1673609457.093107,8.17424,34.3184692452916
1673609457.0941138,8.147795,34.32451682332064
1673609457.095121,8.135101,34.33056583340699
1673609457.096128,8.138563,34.336614843493344
1673609457.0971348,8.145656,34.342662421522384
1673609457.098142,8.154551,34.348711431608734
1673609457.09915,8.154959,34.383126154506435
1673609457.100157,8.168782,34.40243149928469
1673609457.1011639,8.183207,34.403389
1673609457.102171,8.194554,34.33386141058655
1673609457.103178,8.203113,34.40151863503086
1673609457.1041849,8.204363,34.34692264351852
1673609457.105192,8.204483,34.349121
1673609457.106199,8.181956,34.38490318693371
1673609457.1072059,8.146786,34.313236292560795
1673609457.108213,8.149526,34.305271249615686
1673609457.10922,8.158613,34.29756849857614
1673609457.1102269,8.167148,34.28986757110456
1673609457.111235,8.172437,34.282157525793195
1673609457.112242,8.143588,34.27445477475366
1673609457.1132488,8.135558,34.266753847282075
1673609457.114256,8.145006,34.25905109624253
1673609457.115263,8.149791,34.25134834520299
1673609457.1162698,8.162219,34.24364741773141
1673609457.117277,8.173638,34.235944666691864
1673609457.118284,8.174937,34.228241915652326
1673609457.1192908,8.178279,34.22054098818074
1673609457.120298,8.200011,34.2128382371412
1673609457.121305,8.211623,34.20513548610166
1673609457.1223118,8.207512,34.19743455863007
1673609457.123319,8.197174,34.18973180759053
1673609457.124327,8.181692,34.18202176227918
1673609457.125334,8.17186,34.17431901123964
1673609457.1263409,8.163301,34.16661808376805
1673609457.127348,8.172581,34.15891533272851
1673609457.128355,8.179961,34.151212581688974
1673609457.1293619,8.172124,34.143511654217384
1673609457.130369,8.16621,34.135808903177846
1673609457.131376,8.162772,34.1281061521383
1673609457.1323829,8.157315,34.12040522466672
1673609457.13339,8.158662,34.11270247362718
1673609457.134397,8.17299,34.104999722587635
1673609457.1354039,8.175514,34.09729879511605
1673609457.136412,8.163181,34.06619391010968
1673609457.137419,8.165249,34.044722539690106
1673609457.1384258,8.167869,34.041592
1673609457.139433,8.167725,34.041592
1673609457.14044,8.158662,34.08760660691299
1673609457.1414468,8.162027,34.049472117310444
1673609457.142454,8.175418,33.994809038626606
1673609457.143461,8.19126,34.034487201716736
1673609457.1444678,8.182822,33.994056833373065
1673609457.145475,8.162772,33.987316
1673609457.146482,8.144549,33.987316
1673609457.1474888,8.134693,33.987316
1673609457.148496,8.119259,33.987316
1673609457.149504,8.050863,33.987316
1673609457.150511,8.009827,33.987316
1673609457.1515179,7.987204,33.987316
1673609457.152525,7.978189,33.987316
1673609457.153532,8.005355,33.987316
1673609457.1545389,8.049157,34.03870608011445
1673609457.155546,8.081588,34.0070778896042
1673609457.156553,8.140054,33.97063337052933
1673609457.1575599,8.220879,33.89919853277711
1673609457.158567,8.245953,33.94977935908441
1673609457.159574,8.238188,33.96890352002861
1673609457.1605809,8.198568,33.969227
1673609457.161589,8.186885,34.005621970379146
1673609457.162596,8.194362,34.005413
1673609457.1636028,8.206886,33.961128534096325
1673609457.16461,8.199771,33.98087995189331
1673609457.165617,8.182606,33.97230515202864
1673609457.1666238,8.147723,33.984365862660944
1673609457.167631,8.128779,33.956786769964246
1673609457.168638,8.13277,33.997324808536
1673609457.1696448,8.151113,34.005791471453655
1673609457.170652,8.171547,34.0062357914704
1673609457.171659,8.182413,34.00668011148715
1673609457.1726658,8.185947,34.007124326314504
1673609457.173673,8.195732,34.00756864633125
1673609457.174681,8.214123,34.008013387105585
1673609457.175688,8.233212,34.00845770712234
1673609457.1766949,8.229485,34.008901921949686
1673609457.177702,8.215782,34.00934624196643
1673609457.178709,8.223114,34.00979056198318
1673609457.1797159,8.213474,34.01023477681053
1673609457.180723,8.205084,34.010679096827275
1673609457.18173,8.20155,34.01112341684403
1673609457.1827369,8.198713,34.011567631671376
1673609457.183744,8.195035,34.01201195168812
1673609457.184751,8.194939,34.01245627170487
1673609457.1857579,8.193737,34.01290048653222
1673609457.186766,8.194265,34.01334522730656
1673609457.187773,8.194386,34.013789547323306
1673609457.1887798,8.190827,34.01423376215066
1673609457.189787,8.186236,34.01467808216741
1673609457.190794,8.176379,34.015122402184154
1673609457.1918008,8.172605,34.0155666170115
1673609457.192808,8.174168,34.01601093702825
1673609457.193815,8.178519,34.016455257044996
1673609457.1948218,8.177726,34.01689947187235
1673609457.195829,8.158854,34.0173437918891
1673609457.196836,8.173038,34.017788111905844
1673609457.1978428,8.181692,34.01823232673319
1673609457.19885,8.191188,34.01867664674994
1673609457.199858,8.190948,34.01912138752428
1673609457.200865,8.172196,34.01956570754103
1673609457.2018719,8.166523,34.020009922368374
1673609457.202879,8.177197,34.02045424238512
1673609457.203886,8.178327,34.02089856240187
1673609457.2048929,8.170249,34.02134277722922
1673609457.2059,8.162916,34.02178709724597
1673609457.206907,8.150319,34.02223141726272
1673609457.2079139,8.12801,34.02267563209006
1673609457.208921,8.130318,34.02311995210681
1673609457.209928,8.143588,34.013299692783995
1673609457.2109349,8.162027,33.95645677040573
1673609457.211943,8.153228,33.990137992846925
1673609457.21295,8.124885,33.99951282741358
1673609457.2139568,8.127793,33.96615609680496
1673609457.214964,8.132986,33.951138
1673609457.215971,8.128851,33.951138
1673609457.2169778,8.148685,33.951138
1673609457.217985,8.173014,33.951138
1673609457.218992,8.183207,33.94697986906055
1673609457.2199988,8.183832,33.92656151213345
1673609457.221006,8.178038,33.90613832017038
1673609457.222013,8.183976,33.8857151282073
1673609457.2230198,8.175369,33.86529677128021
1673609457.224027,8.152483,33.84487357931713
1673609457.225035,8.136255,33.824431047210155
1673609457.226042,8.107166,33.80400785524708
1673609457.2270489,8.090026,33.783589498319984
1673609457.228056,8.07952,33.76316630635691
1673609457.229063,8.063509,33.74274311439384
1673609457.2300699,8.074712,33.72232475746674
1673609457.231077,8.073606,33.70190156550367
1673609457.232084,8.104835,33.68147837354059
1673609457.2330909,8.140823,33.6610600166135
1673609457.234098,8.147218,33.64063682465042
1673609457.2351048,8.126327,33.620218467723326
1673609457.2361119,8.149069,33.59979527576025
1673609457.23712,8.195275,33.579352743653274
1673609457.238127,8.191549,33.5589295516902
1673609457.2391338,8.172845,33.5385111947631
1673609457.240141,8.155007,33.51808800280003
1673609457.241148,8.18537,33.49766481083695
1673609457.2421548,8.215757,33.477246453909856
1673609457.243162,8.226889,33.45682326194678
1673609457.244169,8.227899,33.436400069983705
1673609457.2451758,8.214964,33.41598171305661
1673609457.246183,8.188616,33.395558521093534
1673609457.24719,8.165224,33.375135329130465
1673609457.2481968,8.15092,33.35471697220336
1673609457.249204,8.15556,33.334293780240294
1673609457.250212,8.152603,33.31385124813332
1673609457.251219,8.14515,33.29342805617024
1673609457.2522259,8.132121,33.27300969924315
1673609457.253233,8.132216,33.25258650728007
1673609457.25424,8.16109,33.232163315316996
1673609457.2552469,8.188015,33.2117449583899
1673609457.256254,8.206959,33.191321766426825
1673609457.2572608,8.19715,33.17090340949973
1673609457.2582679,8.180105,33.15048021753665
1673609457.259275,8.191741,33.13005702557358
1673609457.2602818,8.206695,33.10963866864648
1673609457.261289,8.200324,33.08921547668341
1673609457.262297,8.190876,33.06877294457643
1673609457.263304,8.189265,33.048349752613355
1673609457.2643108,8.175971,33.02793139568626
1673609457.265318,8.168662,33.007508203723184
1673609457.266325,8.19566,32.987085011760115
1673609457.2673318,8.212752,32.96666665483301
1673609457.268339,8.213354,32.946243462869944
1673609457.269346,8.207248,32.92582027090687
1673609457.2703528,8.187318,32.90540191397977
1673609457.27136,8.18287,32.8849787220167
1673609457.272367,8.186212,32.86455553005362
1673609457.2733738,8.190347,32.844137173126526
1673609457.274381,8.187702,32.82371398116345
1673609457.275389,8.17412,32.78954299713877
1673609457.276396,8.168181,32.779502178826895
1673609457.2774029,8.171884,32.81901974922527
1673609457.27841,8.177076,32.821863390557944
1673609457.2794168,8.185803,32.811462
1673609457.2804239,8.177797,32.79558507556615
1673609457.281431,8.158613,32.75915268621841
1673609457.2824378,8.162051,32.755486478540774
1673609457.283445,8.173254,32.75032014592274
1673609457.284452,8.189577,32.72224395691846
1673609457.2854588,8.207463,32.72490829896372
1673609457.286466,8.186741,32.727573271921145
1673609457.287474,8.165609,32.730240768527196
1673609457.288481,8.15544,32.732905741484615
1673609457.2894878,8.159046,32.73557008352988
1673609457.290495,8.172629,32.7382350564873
1673609457.291502,8.17424,32.74090002944472
1673609457.2925088,8.173254,32.74356437148998
1673609457.293516,8.162821,32.7462293444474
1673609457.294523,8.173711,32.74889431740482
1673609457.2955298,8.185971,32.751558659450076
1673609457.296537,8.178254,32.7542236324075
1673609457.297544,8.172028,32.75688860536492
1673609457.2985508,8.168422,32.75955294741018
1673609457.299558,8.165176,32.7622179203676
1673609457.300566,8.155608,32.764885416973655
1673609457.3015728,8.147026,32.76754975901891
1673609457.3025799,8.142674,32.77021473197634
1673609457.303587,8.140776,32.77287970493376
1673609457.3045938,8.131399,32.775544046979014
1673609457.305601,8.135366,32.77820901993643
1673609457.306608,8.154358,32.78087399289386
1673609457.3076148,8.161738,32.78353833493912
1673609457.308622,8.141785,32.786203307896535
1673609457.309629,8.124259,32.788868280853954
1673609457.3106358,8.122913,32.79153262289922
1673609457.311643,8.121254,32.79419759585664
1673609457.312651,8.148084,32.796865092462696
1673609457.313658,8.178206,32.799530065420115
1673609457.3146648,8.198521,32.80219440746537
1673609457.315672,8.196189,32.80485938042279
1673609457.316679,8.188905,32.80752435338022
1673609457.3176858,8.186621,32.810188695425474
1673609457.318693,8.197294,32.81285366838289
1673609457.3197,8.199602,32.81551864134032
1673609457.3207068,8.184193,32.818182983385576
1673609457.321714,8.162508,32.820847956342995
1673609457.322721,8.159022,32.82351292930041
1673609457.3237278,8.151473,32.82617727134568
1673609457.324735,8.142891,32.8288422443031
1673609457.325743,8.149862,32.831509740909155
1673609457.3267498,8.161282,32.83417408295441
1673609457.327757,8.160728,32.83683905591183
1673609457.328764,8.158493,32.83950402886925
1673609457.3297708,8.117744,32.842168370914514
1673609457.330778,8.070697,32.84483334387193
1673609457.331785,8.003672,32.84749831682935
1673609457.3327918,7.946527,32.850162658874616
1673609457.333799,7.939412,32.852827631832035
1673609457.334806,7.954605,32.855492604789454
1673609457.3358128,8.000426,32.85815694683472
1673609457.33682,8.045022,32.86082191979214
1673609457.337828,8.07327,32.86348941639819
1673609457.338835,8.104835,32.86865307551215
1673609457.3398418,8.193424,32.871664970405725
1673609457.340849,8.230855,32.814644515021456
1673609457.341856,8.235423,32.829548
1673609457.3428628,8.237154,32.829548
1673609457.34387,8.230014,32.82598599809251
1673609457.344877,8.206695,32.822534701787845
1673609457.3458838,8.169552,32.854288380543636
1673609457.346891,8.122553,32.80357771483071
1673609457.347898,8.11058,32.775284
1673609457.3489048,8.113393,32.775284
1673609457.349912,8.130174,32.775284
1673609457.35092,8.15193,32.775284
1673609457.3519268,8.171547,32.775284
1673609457.352934,8.165874,32.775284
1673609457.353941,8.18638,32.775284
1673609457.3549478,8.237611,32.775284
1673609457.355955,8.277734,32.775284
1673609457.356962,8.25605,32.775284
1673609457.3579688,8.227201,32.775284
1673609457.358976,8.208161,32.775284
1673609457.359983,8.195516,32.775284
1673609457.3609898,8.185947,32.775284
1673609457.361997,8.166306,32.72894104434907
1673609457.363005,8.154791,32.705416265379114
1673609457.364012,8.172845,32.702919
1673609457.3650188,8.183327,32.6553908398093
1673609457.366026,8.196453,32.69656573628994
1673609457.367033,8.200996,32.702919
1673609457.3680398,8.194818,32.702919
1673609457.369047,8.190034,32.719269834287076
1673609457.370054,8.196405,32.78693710467334
1673609457.3710608,8.211382,32.79679163758441
1673609457.372068,8.208786,32.80054237139131
1673609457.373075,8.204723,32.804293105198205
1673609457.3740819,8.201573,32.808042951047284
1673609457.375089,8.192991,32.81179368485418
1673609457.376097,8.188472,32.81554797049233
1673609457.3771038,8.190827,32.81929781634142
1673609457.378111,8.194242,32.82304855014831
1673609457.379118,8.195828,32.826799283955204
1673609457.3801248,8.19893,32.83054912980429
1673609457.381132,8.192967,32.834299863611186
1673609457.382139,8.181404,32.83805059741808
1673609457.3831458,8.180827,32.84180044326716
1673609457.384153,8.188039,32.84555117707406
1673609457.38516,8.188568,32.84930191088095
1673609457.3861668,8.180105,32.85305175673003
1673609457.387174,8.178303,32.85680249053693
1673609457.388182,8.18989,32.86055677617508
1673609457.389189,8.195683,32.86430750998198
1673609457.3901958,8.188135,32.86805735583106
1673609457.391203,8.189433,32.87180808963795
1673609457.39221,8.193641,32.87555882344485
1673609457.3932168,8.194386,32.879308669293934
1673609457.394224,8.185827,32.88305940310083
1673609457.395231,8.16972,32.88681013690773
1673609457.3962379,8.159984,32.890559982756805
1673609457.397245,8.172917,32.8943107165637
1673609457.398252,8.178639,32.8980614503706
1673609457.3992589,8.180562,32.90181129621968
1673609457.400266,8.182173,32.90556203002657
1673609457.401274,8.186044,32.909316315664725
1673609457.4022808,8.192487,32.91306616151381
1673609457.403288,8.188472,32.9168168953207
1673609457.404295,8.172797,32.9364879062947
1673609457.4053018,8.166619,33.02279872532189
1673609457.406309,8.162459,32.99836268438617
1673609457.407316,8.166306,33.022289670958514
1673609457.4083228,8.187991,33.002116773962804
1673609457.40933,8.193832,33.046635
1673609457.410337,8.189,33.057165191179976
1673609457.4113438,8.185418,33.11543101335241
1673609457.412351,8.174961,33.16198235526944
1673609457.413359,8.159142,33.12226180611201
1673609457.414366,8.153877,33.13750646507131
1673609457.4153728,8.159696,33.15274751497309
1673609457.41638,8.15532,33.16799217393239
1673609457.417387,8.135414,33.183236832891694
1673609457.4183939,8.131063,33.198477882793476
1673609457.419401,8.141521,33.21372254175278
1673609457.420408,8.168061,33.22896720071208
1673609457.4214149,8.181524,33.24420825061386
1673609457.422422,8.184697,33.25945290957316
1673609457.423429,8.196429,33.27469756853246
1673609457.4244359,8.173638,33.28993861843424
1673609457.425443,8.154238,33.305183277393546
1673609457.426451,8.147434,33.320442372582924
1673609457.4274578,8.124259,33.335683422484706
1673609457.428465,8.067668,33.350928081444
1673609457.429472,8.032689,33.36617274040331
1673609457.4304788,8.00848,33.38141379030509
1673609457.431486,7.970929,33.39665844926439
1673609457.432493,7.974415,33.41190310822369
1673609457.4334998,7.973862,33.42714415812547
1673609457.434507,7.98355,33.442388817084776
1673609457.435514,8.022592,33.45763347604407
1673609457.4365208,8.104114,33.472874525945855
1673609457.437528,8.167701,33.48811918490516
1673609457.438536,8.232946,33.50337828009454
1673609457.439543,8.271123,33.518622939053834
1673609457.4405499,8.241626,33.533863988955616
1673609457.441557,8.224917,33.54910864791492
1673609457.442564,8.22273,33.56435330687422
1673609457.4435709,8.169239,33.579594356776006
1673609457.444578,8.127553,33.5948390157353
1673609457.445585,8.103224,33.61008367469461
1673609457.4465919,8.10219,33.62532472459639
1673609457.447599,8.076756,33.640569383555686
1673609457.448606,8.069471,33.65581404251499
1673609457.4496129,8.12248,33.67105509241677
1673609457.45062,8.170393,33.686299751376076
1673609457.451628,8.176643,33.70155884656545
1673609457.4526348,8.182149,33.71679989646723
1673609457.453642,8.195949,33.73204455542653
1673609457.454649,8.201886,33.74728921438583
1673609457.4556558,8.232298,33.76253026428762
1673609457.456663,8.246433,33.777774923246916
1673609457.45767,8.255473,33.79301958220622
1673609457.4586768,8.247611,33.808260632108
1673609457.459684,8.241961,33.8235052910673
1673609457.460691,8.237995,33.73940504553039
1673609457.4616978,8.237899,33.80263764949928
1673609457.462705,8.238596,33.806416
1673609457.463713,8.23386,33.75415361278016
1673609457.46472,8.217104,33.73460134684147
1673609457.4657269,8.214892,33.734058
1673609457.466734,8.216864,33.698450078683834
1673609457.467741,8.211334,33.733730212634086
1673609457.4687479,8.207368,33.734058
1673609457.469755,8.207199,33.73957918486792
1673609457.470762,8.201959,33.745112158742685
1673609457.4717689,8.191068,33.750643822727795
1673609457.472776,8.188015,33.75617679660256
1673609457.473783,8.193641,33.76170977047732
1673609457.4747899,8.194121,33.767241434462434
1673609457.475797,8.198568,33.77277440833719
1673609457.476805,8.196189,33.778312621770546
1673609457.4778118,8.192294,33.78384428575566
1673609457.478819,8.197751,33.78937725963042
1673609457.479826,8.206983,33.794910233505185
1673609457.4808328,8.206815,33.800441897490295
1673609457.48184,8.194939,33.80597487136506
1673609457.482847,8.183712,33.81150784523982
1673609457.4838538,8.178134,33.817039509224934
1673609457.484861,8.170393,33.82257248309969
1673609457.485868,8.164503,33.828105456974455
1673609457.4868748,8.167292,33.833637120959565
1673609457.487882,8.176523,33.83917009483433
1673609457.48889,8.182125,33.844708308267684
1673609457.489897,8.184144,33.85024128214244
1673609457.4909039,8.179697,33.85577294612756
1673609457.491911,8.179,33.861305920002316
1673609457.492918,8.174095,33.86683889387708
1673609457.4939249,8.169312,33.87237055786219
1673609457.494932,8.163999,33.87790353173695
1673609457.495939,8.172124,33.88343650561171
1673609457.4969459,8.192678,33.88896816959682
1673609457.497953,8.192438,33.89450114347159
1673609457.49896,8.162701,33.900034117346344
1673609457.4999669,8.153805,33.90556578133146
1673609457.500974,8.170874,33.91109875520622
1673609457.501982,8.189506,33.91663696863957
1673609457.5029888,8.188279,33.92216863262469
1673609457.503996,8.178134,33.92770160649945
1673609457.505003,8.176523,33.93323458037421
1673609457.5060098,8.164143,33.93876624435932
1673609457.507017,8.157123,33.944299218234086
1673609457.508024,8.153781,33.94983219210884
1673609457.5090308,8.166354,33.95536385609396
1673609457.510038,8.176836,33.96089682996872
1673609457.511045,8.166739,33.96642980384348
1673609457.5120518,8.156642,33.97196146782859
1673609457.513059,8.167893,33.97749444170336
1673609457.514067,8.184505,33.98303265513671
1673609457.515074,8.167821,33.98856562901147
1673609457.5160809,8.147675,33.994097292996585
1673609457.517088,8.146977,33.99963026687134
1673609457.518095,8.16407,34.00516324074611
1673609457.5191019,8.189073,34.01069490473122
1673609457.520109,8.181861,34.01622787860598
1673609457.521116,8.144598,34.02176085248074
1673609457.5221229,8.108537,34.027292516465856
1673609457.52313,8.089112,34.03282549034061
1673609457.524137,8.107599,34.03835846421538
1673609457.5251439,8.130871,34.04389012820049
1673609457.526152,8.179985,34.04942834163384
1673609457.527159,8.234365,34.054961315508606
1673609457.5281658,8.232923,34.060492979493716
1673609457.529173,8.202727,34.06602595336848
1673609457.53018,8.180442,34.07155892724324
1673609457.5311868,8.169576,34.07709059122835
1673609457.532194,8.148588,34.08262356510311
1673609457.533201,8.139453,34.08815653897787
1673609457.5342078,8.133323,34.09368820296299
1673609457.535215,8.118946,34.09586
1673609457.536222,8.111782,34.09586
1673609457.5372288,8.100195,34.0845375751073
1673609457.538236,8.086468,34.100665023837905
1673609457.539244,8.088463,34.113945
1673609457.540251,8.102383,34.09050111587983
1673609457.5412579,8.138106,34.12515656853397
1673609457.542265,8.185538,34.11421048879352
1673609457.543272,8.24225,34.15637566523605
1673609457.5442789,8.288024,34.18301468466876
1673609457.545286,8.295692,34.178104839180534
1673609457.546293,8.260016,34.173194993692306
1673609457.5472999,8.197847,34.168286310572796
1673609457.548307,8.155801,34.16337646508457
1673609457.549314,8.159263,34.15846661959633
1673609457.5503209,8.174432,34.15355793647683
1673609457.551329,8.172605,34.148643441513705
1673609457.552336,8.176091,34.14373359602547
1673609457.5533428,8.175755,34.13882491290597
1673609457.55435,8.162532,34.13391506741773
1673609457.555357,8.157026,34.1290052219295
1673609457.5563638,8.159263,34.12409653881
1673609457.557371,8.157603,34.119186693321765
1673609457.558378,8.172196,34.11427684783354
1673609457.5593848,8.17936,34.10936816471403
1673609457.560392,8.188929,34.1044583192258
1673609457.561399,8.206742,34.09954847373757
1673609457.5624058,8.179384,34.09463979061806
1673609457.563413,8.148637,34.08972994512983
1673609457.564421,8.143588,34.08481545016671
1673609457.565428,8.155921,34.07990560467847
1673609457.5664349,8.185491,34.07499692155897
1673609457.567442,8.210156,34.070087076070735
1673609457.568449,8.245448,34.065177230582506
1673609457.5694559,8.238524,34.060268547463004
1673609457.570463,8.185611,34.05535870197477
1673609457.57147,8.13628,34.05044885648654
1673609457.5724769,8.12688,34.04554017336703
1673609457.573484,8.135534,34.0406303278788
1673609457.574491,8.132938,34.03572048239057
1673609457.5754979,8.129837,34.03081179927106
1673609457.576506,8.143781,34.02589730430794
1673609457.577513,8.177726,34.02098745881971
1673609457.5785198,8.195203,34.0160787757002
1673609457.579527,8.197367,34.01116893021197
1673609457.580534,8.192751,34.00625908472374
1673609457.5815408,8.198641,34.001350401604235
1673609457.582548,8.218041,33.996440556116
1673609457.583555,8.19703,33.99153071062777
1673609457.5845618,8.189073,33.98662202750827
1673609457.585569,8.191116,33.98171218202003
1673609457.586576,8.174168,33.976802336531804
1673609457.5875828,8.162892,33.971893653412295
1673609457.58859,8.166739,33.966983807924066
1673609457.589598,8.173831,33.96206931296094
1673609457.590605,8.163589,33.957159467472714
1673609457.5916119,8.157723,33.952250784353204
1673609457.592619,8.159767,33.947340938864976
1673609457.593626,8.166498,33.94243109337674
1673609457.5946329,8.144238,33.93752241025724
1673609457.59564,8.099161,33.932612564769
1673609457.596647,8.093175,33.927702719280774
1673609457.5976539,8.080361,33.92279403616127
1673609457.598661,8.074279,33.917884190673036
1673609457.599668,8.054565,33.91297434518481
1673609457.6006749,8.056273,33.9080656620653
1673609457.601683,8.09481,33.90315116710217
1673609457.60269,8.141136,33.898241321613945
1673609457.6036968,8.179528,33.893332638494435
1673609457.604704,8.221239,33.88842279300621
1673609457.605711,8.220205,33.88351294751798
1673609457.6067178,8.206045,33.87860426439847
1673609457.607725,8.201093,33.87369441891024
1673609457.608732,8.19816,33.868784573422005
1673609457.6097388,8.207295,33.8638758903025
1673609457.610746,8.202079,33.85428757892227
1673609457.611753,8.196693,33.8295340352885
1673609457.6127598,8.197391,33.833032841954704
1673609457.613767,8.195275,33.871999859799715
1673609457.614775,8.196405,33.83298041583214
1673609457.615782,8.17876,33.79538256652361
1673609457.6167889,8.151882,33.82077508700834
1673609457.617796,8.152195,33.835287665712926
1673609457.618803,8.148228,33.809633136385315
1673609457.6198099,8.147843,33.79839968252991
1673609457.620817,8.126447,33.822673062453674
1673609457.621824,8.126687,33.84694644237743
1673609457.6228309,8.149454,33.87121407576239
1673609457.623838,8.182342,33.89548745568615
1673609457.624845,8.200396,33.91976083560991
1673609457.6258519,8.223955,33.944028468994865
1673609457.62686,8.221912,33.96832483507385
1673609457.627867,8.198184,33.992598214997614
1673609457.6288738,8.191188,34.016865848382565
1673609457.629881,8.196429,34.04113922830633
1673609457.630888,8.191213,34.06541260823009
1673609457.6318948,8.188111,34.08968024161504
1673609457.632902,8.189818,34.113953621538805
1673609457.633909,8.183207,34.13822700146257
1673609457.6349158,8.167677,34.16249463484752
1673609457.635923,8.156498,34.18676801477128
1673609457.63693,8.163734,34.211041394695044
1673609457.6379368,8.147627,34.235309028079996
1673609457.638944,8.10546,34.25958240800376
1673609457.639952,8.078871,34.28387877408275
1673609457.640959,8.067091,34.30815215400651
1673609457.6419659,8.066947,34.332419787391466
1673609457.642973,8.074712,34.35669316731522
1673609457.64398,8.11385,34.380966547238984
1673609457.6449869,8.136544,34.405234180623935
1673609457.645994,8.174047,34.4295075605477
1673609457.647001,8.217031,34.45378094047146
1673609457.6480079,8.24302,34.47804857385641
1673609457.649015,8.23487,34.502321953780175
1673609457.650022,8.206574,34.52659533370394
1673609457.6510289,8.179648,34.55086296708889
1673609457.652037,8.178038,34.57515933316788
1673609457.653044,8.192054,34.599432713091645
1673609457.6540508,8.20542,34.623700346476596
1673609457.655058,8.214075,34.64797372640036
1673609457.656065,8.204411,34.69176479022646
1673609457.6570718,8.184986,34.734579509298996
1673609457.658079,8.177726,34.81884586695279
1673609457.659086,8.165513,34.89837879436326
1673609457.6600928,8.148372,34.913938821441
1673609457.6611,8.127625,34.97582117473025
1673609457.662107,8.105965,34.99035320953707
1673609457.6631138,8.036511,35.06059816916115
1673609457.664121,7.98468,34.97690454268002
1673609457.665129,8.00723,35.00158082280799
1673609457.666136,8.059879,35.02891900239918
1673609457.6671429,8.113105,35.056250709883464
1673609457.66815,8.144429,35.083588889474655
1673609457.669157,8.167628,35.110927069065845
1673609457.6701639,8.209387,35.138258776550124
1673609457.671171,8.281364,35.16559695614132
1673609457.672178,8.308025,35.19293513573251
1673609457.6731849,8.262589,35.22026684321679
1673609457.674192,8.205661,35.24760502280799
1673609457.675199,8.183375,35.27494320239918
1673609457.6762059,8.188664,35.30227490988346
1673609457.677214,8.207272,35.3296389779023
1673609457.678221,8.18638,35.35697715749349
1673609457.6792278,8.189866,35.38430886497777
1673609457.680235,8.177917,35.411647044568966
1673609457.681242,8.167124,35.438985224160156
1673609457.6822488,8.169456,35.466316931644435
1673609457.683256,8.177606,35.493655111235626
1673609457.684263,8.187751,35.52099329082682
1673609457.6852698,8.180802,35.5483249983111
1673609457.686277,8.182486,35.57566317790229
1673609457.687284,8.181861,35.60300135749349
1673609457.6882908,8.183472,35.63033306497777
1673609457.689298,8.161017,35.65767124456896
1673609457.690306,8.127144,35.6850353125878
1673609457.691313,8.115701,35.71237349217899
1673609457.6923199,8.135126,35.73970519966327
1673609457.693327,8.142434,35.76704337925447
1673609457.694334,8.154454,35.79438155884566
1673609457.6953409,8.185203,35.82171326632994
1673609457.696348,8.213426,35.849051445921134
1673609457.697355,8.225566,35.876389625512324
1673609457.6983619,8.212175,35.903721332996604
1673609457.699369,8.181621,35.931059512587794
1673609457.700376,8.162532,35.95839769217899
1673609457.7013829,8.159696,35.98572939966327
1673609457.702391,8.119163,36.013093467682104
1673609457.703398,8.082813,36.0404316472733
1673609457.7044048,8.07827,36.06776335475758
1673609457.705412,8.095867,36.09510153434877
1673609457.706419,8.136664,36.12243971393997
1673609457.7074258,8.140583,36.14977142142425
1673609457.708433,8.145583,36.17710960101544
1673609457.70944,8.170056,36.20444778060663
1673609457.7104468,8.229605,36.199488679542206
1673609457.711454,8.231745,36.18127339666269
1673609457.712461,8.220398,36.22890171697664
1673609457.7134678,8.210444,36.248589
1673609457.714475,8.201382,36.309151878097786
1673609457.715483,8.218234,36.284767
1673609457.71649,8.225711,36.32266408908239
1673609457.7174969,8.216671,36.308560587407904
1673609457.718504,8.205709,36.32738764501005
1673609457.719511,8.199386,36.323102448382386
1673609457.7205179,8.186934,36.33933656496388
1673609457.721525,8.169504,36.35557452575957
1673609457.722532,8.180081,36.37181248655527
1673609457.7235389,8.184409,36.388046603136765
1673609457.724546,8.179937,36.40428456393246
1673609457.725553,8.175802,36.420522524728156
1673609457.7265599,8.147026,36.43675664130964
1673609457.727568,8.142578,36.45300997896216
1673609457.728575,8.136208,36.46924793975785
1673609457.7295818,8.131159,36.48548205633934
1673609457.730589,8.129236,36.50172001713504
1673609457.731596,8.134236,36.517957977930735
1673609457.7326028,8.147074,36.53419209451223
1673609457.73361,8.170201,36.55043005530793
1673609457.734617,8.183279,36.56666801610362
1673609457.7356238,8.194025,36.58290213268511
1673609457.736631,8.175634,36.59914009348081
1673609457.737638,8.154598,36.615378054276505
1673609457.7386448,8.159696,36.631612170858
1673609457.739652,8.181404,36.64785013165369
1673609457.74066,8.212296,36.664103469306205
1673609457.741667,8.209892,36.6803414301019
1673609457.7426739,8.193929,36.69657554668339
1673609457.743681,8.183303,36.71281350747909
1673609457.744688,8.171836,36.72905146827478
1673609457.7456949,8.148997,36.745285584856276
1673609457.746702,8.117047,36.761523545651976
1673609457.747709,8.052763,36.77776150644767
1673609457.7487159,8.03531,36.79399562302916
1673609457.749723,8.072933,36.81023358382486
1673609457.7507298,8.095603,36.82646770040635
1673609457.7517369,8.117432,36.84270566120205
1673609457.752745,8.098752,36.858958998854554
1673609457.753752,8.123057,36.87519695965025
1673609457.7547588,8.196285,36.89143107623175
1673609457.755766,8.246049,36.90766903702744
1673609457.756773,8.250929,36.92390699782314
1673609457.7577798,8.236024,36.94014111440463
1673609457.758787,8.232755,36.956379075200324
1673609457.759794,8.219796,36.972617035996024
1673609457.7608008,8.201213,36.98885115257752
1673609457.761808,8.184577,37.00508911337321
1673609457.762815,8.169432,37.02132707416891
1673609457.7638218,8.161691,37.037561190750395
1673609457.764829,8.143492,37.053799151546094
1673609457.765837,8.139646,37.10424066380544
1673609457.766844,8.10784,37.153091
1673609457.7678509,8.062956,37.17880657377831
1673609457.768858,8.056994,37.23345769241774
1673609457.769865,8.066586,37.24397477086314
1673609457.7708719,8.070793,37.2433580977354
1673609457.771879,8.104114,37.2434744966619
1673609457.7728858,8.183687,37.289883566523606
1673609457.7738929,8.214869,37.36141237735399
1673609457.7749,8.211984,37.377602068061954
1673609457.7759068,8.207103,37.39190609515983
1673609457.776914,8.203497,37.40621350942964
1673609457.777922,8.193304,37.42053447238721
1673609457.778929,8.193568,37.434841886657026
1673609457.7799358,8.218739,37.449145913754904
1673609457.780943,8.230927,37.46345332802471
1673609457.78195,8.219195,37.47776074229453
1673609457.7829568,8.199121,37.49206476939241
1673609457.783964,8.201646,37.506372183662215
1673609457.784971,8.216864,37.52067959793203
1673609457.7859778,8.21619,37.53498362502991
1673609457.786985,8.216359,37.54929103929972
1673609457.787992,8.2097,37.56359845356953
1673609457.7889988,8.193832,37.57790248066741
1673609457.790006,8.181716,37.59220989493722
1673609457.791014,8.185707,37.60653085789479
1673609457.792021,8.187486,37.620838272164605
1673609457.7930279,8.178014,37.63514229926248
1673609457.794035,8.173711,37.6494497135323
1673609457.7950418,8.179985,37.66375374063017
1673609457.7960489,8.197367,37.678061154899986
1673609457.797056,8.186332,37.6923685691698
1673609457.7980628,8.170105,37.72350090367191
1673609457.79907,8.177029,37.731972
1673609457.800077,8.189626,37.76018807963758
1673609457.8010838,8.186668,37.76815
1673609457.802091,8.181284,37.83995257926102
1673609457.803099,8.190516,37.82959431616595
1673609457.804106,8.179577,37.866329510729614
1673609457.8051128,8.16585,37.876694
1673609457.80612,8.168302,37.876694
1673609457.807127,8.173398,37.89290893268928
1673609457.8081338,8.158325,37.912580194035684
1673609457.809141,8.139622,37.932256113506966
1673609457.810148,8.13313,37.95193203297825
1673609457.8111548,8.13414,37.97160329432465
1673609457.812162,8.157965,37.991279213795934
1673609457.813169,8.192294,38.01095513326721
1673609457.8141758,8.227633,38.03062639461362
1673609457.815183,8.225975,38.050302314084895
1673609457.816191,8.189217,38.069996866055675
1673609457.8171978,8.162508,38.08966812740208
1673609457.8182049,8.166955,38.10934404687336
1673609457.819212,8.177726,38.12901996634464
1673609457.8202188,8.171163,38.148691227691046
1673609457.821226,8.158686,38.16836714716233
1673609457.822233,8.155488,38.188043066633604
1673609457.8232398,8.168134,38.20771432798001
1673609457.824247,8.176187,38.22739024745129
1673609457.825254,8.168782,38.24706616692257
1673609457.8262608,8.164936,38.266737428268975
1673609457.827268,8.171907,38.28641334774026
1673609457.828276,8.168302,38.30610789971103
1673609457.829283,8.158205,38.32578381918231
1673609457.8302898,8.156378,38.345455080528716
1673609457.831297,8.167004,38.365131
1673609457.832304,8.179481,38.41952408583691
1673609457.8333108,8.197751,38.43798942632332
1673609457.834318,8.187149,38.47291591346841
1673609457.835325,8.160728,38.437993628755365
1673609457.8363318,8.145823,38.45746740152599
1673609457.837339,8.111734,38.51137107343825
1673609457.838346,8.062451,38.548692888676996
1673609457.8393528,8.038795,38.601305703862664
1673609457.84036,8.032569,38.61790744489274
1673609457.841368,8.027617,38.610131206281
1673609457.8423748,8.005739,38.60236416378872
1673609457.843382,8.005668,38.59459528207255
1673609457.844389,8.059013,38.58682640035637
1673609457.8453958,8.136688,38.57905935786409
1673609457.846403,8.175489,38.57129047614792
1673609457.84741,8.150969,38.56352159443175
1673609457.8484168,8.122721,38.555754551939465
1673609457.849424,8.169095,38.5479856702233
1673609457.850431,8.218354,38.540216788507124
1673609457.8514378,8.250424,38.53244974601484
1673609457.852445,8.284369,38.524680864298666
1673609457.853453,8.262781,38.516904625686934
1673609457.85446,8.223378,38.50913574397076
1673609457.8554668,8.193184,38.501368701478476
1673609457.856474,8.184,38.49359981976231
1673609457.857481,8.193785,38.485830938046135
1673609457.8584878,8.192222,38.47806389555385
1673609457.859495,8.193472,38.47029501383768
1673609457.860502,8.19768,38.46252613212151
1673609457.8615088,8.189914,38.45475908962923
1673609457.862516,8.164407,38.44699020791305
1673609457.863523,8.149959,38.43922132619688
1673609457.8645298,8.162701,38.4314542837046
1673609457.865537,8.184384,38.42368540198843
1673609457.866545,8.19203,38.41590916337669
1673609457.8675518,8.214844,38.40814212088441
1673609457.868559,8.210253,38.40037323916824
1673609457.869566,8.199242,38.392604357452065
1673609457.8705728,8.168999,38.38483731495978
1673609457.87158,8.163686,38.377068433243615
1673609457.872587,8.166547,38.36929955152744
1673609457.8735938,8.163589,38.36153250903516
1673609457.874601,8.165056,38.35376362731898
1673609457.875608,8.149911,38.345994745602816
1673609457.8766148,8.12123,38.33822770311053
1673609457.877622,8.122192,38.33045882139436
1673609457.87863,8.149189,38.322682582782626
1673609457.879637,8.166643,38.31491370106645
1673609457.8806438,8.172701,38.30714665857417
1673609457.881651,8.13628,38.299377776857995
1673609457.882658,8.09118,38.29160889514183
1673609457.8836648,8.087237,38.283841852649545
1673609457.884672,8.108922,38.27607297093337
1673609457.885679,8.136496,38.24479457568534
1673609457.8866858,8.152627,38.238499
1673609457.887693,8.157123,38.238499
1673609457.8887,8.178927,38.223177481525624
1673609457.8897069,8.224772,38.17406689818789
1673609457.890714,8.25278,38.18170848235575
1673609457.891722,8.231384,38.10563523599524
1673609457.8927288,8.201117,38.077937734859326
1673609457.893736,8.204723,38.01179791583214
1673609457.894743,8.22172,37.989574783134195
1673609457.8957498,8.214796,37.97401855789329
1673609457.896757,8.206935,37.958458648961816
1673609457.897764,8.194025,37.94289874003035
