measure_time,emg_ch_1,grip_force_inter
1670929750.565162,1.038091,2.823103
1670929750.566169,1.038788,2.786817173342871
1670929750.567176,1.034413,2.768836
1670929750.568183,1.032658,2.785029531380753
1670929750.56919,1.038163,2.7602393
1670929750.570197,1.041625,2.7904822510460248
1670929750.571204,1.04088,2.8173484769874477
1670929750.572211,1.034413,2.8075116443514645
1670929750.573218,1.029004,2.750738
1670929750.574225,1.031528,2.840868520028612
1670929750.575232,1.034605,2.7869668577108357
1670929750.57624,1.03999,2.7901845741001745
1670929750.577247,1.042827,2.793398485243074
1670929750.578254,1.040976,2.796613157435261
1670929750.579261,1.03874,2.799827829627448
1670929750.580268,1.040134,2.803041740770347
1670929750.581275,1.042106,2.8062564129625347
1670929750.582282,1.041072,2.8094710851547218
1670929750.583289,1.035951,2.812684996297621
1670929750.584296,1.035134,2.815899668489808
1670929750.585303,1.042538,2.819114340681995
1670929750.58631,1.049078,2.8223282518248944
1670929750.587317,1.052083,2.8255429240170815
1670929750.588325,1.047226,2.8287606404064203
1670929750.589332,1.048116,2.8319753125986074
1670929750.590339,1.0496780000000001,2.8351892237415064
1670929750.591346,1.050039,2.838403895933694
1670929750.592353,1.048524,2.841618568125881
1670929750.59336,1.045784,2.84483247926878
1670929750.594367,1.042082,2.848047151460967
1670929750.595374,1.038259,2.851261823653154
1670929750.596381,1.03737,2.8544757347960537
1670929750.597388,1.042827,2.8576904069882407
1670929750.598395,1.049005,2.860905079180428
1670929750.599402,1.044606,2.864118990323327
1670929750.600409,1.034293,2.867333662515514
1670929750.601417,1.033451,2.870551378904853
1670929750.602424,1.03523,2.873765290047752
1670929750.603431,1.0341,2.8769799622399392
1670929750.604438,1.033692,2.8801946344321263
1670929750.605445,1.037466,2.883408545575026
1670929750.606452,1.038091,2.886623217767213
1670929750.607459,1.033499,2.8898378899594
1670929750.608466,1.030446,2.893051801102299
1670929750.609473,1.034533,2.900041557756563
1670929750.61048,1.03999,2.913556
1670929750.611487,1.040639,2.9280964605482716
1670929750.612494,1.043043,2.9727969654268
1670929750.613502,1.042106,2.980793390319504
1670929750.614509,1.043091,2.973071750417163
1670929750.615516,1.047948,2.9912776510242973
1670929750.616523,1.053068,2.9985148594272077
1670929750.61753,1.051674,3.002798654506438
1670929750.618537,1.048356,3.022939662300548
1670929750.619544,1.047924,2.99764710548926
1670929750.620551,1.045664,3.022091
1670929750.621558,1.045952,3.022091
1670929750.622565,1.045279,3.0283492591797807
1670929750.623572,1.045568,3.046570476156414
1670929750.624579,1.047563,3.0778105327771157
1670929750.625587,1.044942,3.079297459028109
1670929750.626594,1.041264,3.049188641050119
1670929750.627601,1.036865,3.0928858762183236
1670929750.628608,1.037057,3.0887485610786225
1670929750.629615,1.040759,3.0846112459389214
1670929750.630622,1.037586,3.0804749102772364
1670929750.631629,1.034942,3.076115786838341
1670929750.632636,1.041384,3.041452467095851
1670929750.633643,1.042635,3.12949462193087
1670929750.63465,1.044991,3.0768811368327986
1670929750.635657,1.043885,3.0954788973605
1670929750.636664,1.046986,3.1140722550092885
1670929750.637671,1.047515,3.13267001553699
1670929750.638679,1.051674,3.1512853875803426
1670929750.639686,1.054318,3.1698831481080436
1670929750.640693,1.054487,3.1884765057568325
1670929750.6417,1.056506,3.2070742662845335
1670929750.642707,1.055929,3.225672026812235
1670929750.643714,1.044918,3.2442653844610234
1670929750.644721,1.038452,3.262863144988725
1670929750.645728,1.048116,3.2814609055164263
1670929750.646735,1.053212,3.3000542631652148
1670929750.647742,1.051481,3.3186520236929162
1670929750.648749,1.053717,3.3372497842206172
1670929750.649756,1.056891,3.355843141869406
1670929750.650764,1.054847,3.3744585139127583
1670929750.651771,1.053188,3.3930562744404598
1670929750.652778,1.051818,3.411649632089248
1670929750.653785,1.041649,3.4302473926169497
1670929750.654792,1.030927,3.448845153144651
1670929750.655799,1.034701,3.4674385107934396
1670929750.656806,1.048837,3.486036271321141
1670929750.657813,1.05052,3.504634031848842
1670929750.65882,1.048404,3.523227389497631
1670929750.659827,1.045664,3.541825150025332
1670929750.660834,1.041937,3.5604229105530334
1670929750.661841,1.039557,3.579016268201822
1670929750.662848,1.038788,3.5976140287295233
1670929750.663856,1.039654,3.616229400772876
1670929750.664863,1.04011,3.634827161300577
1670929750.66587,1.044101,3.653420518949366
1670929750.666877,1.044726,3.672018279477067
1670929750.667884,1.038259,3.6906160400047683
1670929750.668891,1.033523,3.7092093976535567
1670929750.669898,1.032297,3.727807158181258
1670929750.670905,1.032033,3.7464049187089596
1670929750.671912,1.037466,3.764998276357748
1670929750.672919,1.044101,3.7835960368854495
1670929750.673926,1.051145,3.802193797413151
1670929750.674933,1.054006,3.8207871550619394
1670929750.675941,1.055737,3.839402527105292
1670929750.676948,1.054751,3.8580002876329935
1670929750.677955,1.052371,3.876593645281782
1670929750.678962,1.055232,3.895191405809483
1670929750.679969,1.059535,3.9137891663371844
1670929750.680976,1.056097,3.932382523985973
1670929750.681983,1.050087,3.9509802845136743
1670929750.68299,1.054727,3.976098380543634
1670929750.683997,1.05629,4.019308882717521
1670929750.685004,1.053188,4.060142532188841
1670929750.686011,1.04939,4.099477696709585
1670929750.687018,1.04576,4.122191113945173
1670929750.688025,1.042635,4.103989164043872
1670929750.689033,1.04564,4.162771330948974
1670929750.69004,1.045111,4.238732944696067
1670929750.691047,1.048765,4.254938231759657
1670929750.692054,1.05153,4.237187016124522
1670929750.693061,1.049799,4.244308643116786
1670929750.694068,1.045495,4.251428584117812
1670929750.695075,1.049727,4.258550211110076
1670929750.696082,1.050832,4.26567183810234
1670929750.697089,1.054174,4.285870731937413
1670929750.698096,1.056602,4.330523267062162
1670929750.699103,1.058333,4.375175802186911
1670929750.70011,1.057347,4.419817766162247
1670929750.701118,1.05677,4.464512585884652
1670929750.702125,1.055881,4.509165121009401
1670929750.703132,1.055641,4.5538070849847365
1670929750.704139,1.060016,4.598459620109486
1670929750.705146,1.058501,4.643112155234236
1670929750.706153,1.050087,4.68775411920957
1670929750.70716,1.044654,4.73240665433432
1670929750.708167,1.045303,4.777059189459069
1670929750.709174,1.041577,4.821701153434405
1670929750.710181,1.045568,4.866353688559154
1670929750.711188,1.049246,4.911006223683903
1670929750.712195,1.040952,4.955648187659238
1670929750.713202,1.032538,5.0003007227839875
1670929750.71421,1.030614,5.044995542506393
1670929750.715217,1.033571,5.089648077631143
1670929750.716224,1.034773,5.134290041606477
1670929750.717231,1.044726,5.178942576731227
1670929750.718238,1.057756,5.2235951118559765
1670929750.719245,1.059775,5.268237075831312
1670929750.720252,1.054511,5.312889610956061
1670929750.721259,1.055761,5.35754214608081
1670929750.722266,1.053453,5.402184110056146
1670929750.723273,1.05201,5.446836645180895
1670929750.7242801,1.050953,5.491489180305644
1670929750.725287,1.048356,5.536131144280979
1670929750.726295,1.046024,5.580825964003385
1670929750.727302,1.051481,5.625478499128134
1670929750.728309,1.059559,5.670120463103469
1670929750.729316,1.063502,5.714772998228218
1670929750.730323,1.059727,5.759425533352967
1670929750.73133,1.061579,5.804067497328303
1670929750.732337,1.061338,5.848720032453052
1670929750.733344,1.061627,5.893372567577802
1670929750.734351,1.062083,5.9380145315531365
1670929750.735358,1.059848,5.9826670666778865
1670929750.736365,1.054895,6.027319601802636
1670929750.737372,1.044029,6.071961565777971
1670929750.738379,1.042875,6.11661410090272
1670929750.739387,1.054679,6.1613089206251255
1670929750.740394,1.052732,6.2059614557498755
1670929750.741401,1.044942,6.25060341972521
1670929750.742408,1.046144,6.29525595484996
1670929750.743415,1.046601,6.339908489974709
1670929750.744422,1.048885,6.384550453950045
1670929750.745429,1.04927,6.429202989074794
1670929750.7464361,1.045039,6.473855524199543
1670929750.747443,1.04463,6.518497488174878
1670929750.74845,1.045183,6.583100640047675
1670929750.7494571,1.046313,6.642963623748211
1670929750.750464,1.05189,6.67133928683834
1670929750.751472,1.053261,6.742684698927294
1670929750.752479,1.040976,6.766748
1670929750.753486,1.036072,6.834405176442537
1670929750.754493,1.050592,6.884514449582836
1670929750.7555,1.052083,6.976094217453505
1670929750.756507,1.047323,7.071471193848354
1670929750.757514,1.053693,7.092368
1670929750.762549,1.043187,7.2111118569384836
1670929750.763556,1.045495,7.26054282832618
1670929750.764564,1.047924,7.332608644815256
1670929750.765571,1.052972,7.375719942060086
1670929750.766578,1.055761,7.442415581306628
1670929750.767585,1.056362,7.52125284624553
1670929750.7685921,1.052635,7.557001187172151
1670929750.769599,1.054318,7.6272464925286245
1670929750.770606,1.065377,7.721303359485459
1670929750.7716131,1.077566,7.815360226442294
1670929750.77262,1.089297,7.9093948261484295
1670929750.773627,1.086052,8.003451693105264
1670929750.7746341,1.068069,8.0975085600621
1670929750.775641,1.050279,8.191543159768235
1670929750.776649,1.042779,8.28568909572787
1670929750.777656,1.047755,8.379745962684705
1670929750.778663,1.048669,8.47378056239084
1670929750.77967,1.055905,8.567837429347675
1670929750.780677,1.05653,8.66189429630451
1670929750.781684,1.050929,8.755928896010646
1670929750.782691,1.04802,8.849985762967481
1670929750.783698,1.046121,8.944042629924315
1670929750.784705,1.046794,9.038077229630451
1670929750.785712,1.050039,9.132134096587286
1670929750.786719,1.054847,9.226190963544122
1670929750.787726,1.050183,9.320225563250256
1670929750.788733,1.046866,9.414282430207091
1670929750.789741,1.040543,9.508428366166726
1670929750.7907481,1.039029,9.602485233123561
1670929750.791755,1.043476,9.696519832829697
1670929750.792762,1.04838,9.790576699786532
1670929750.7937691,1.058357,9.884633566743368
1670929750.794776,1.066315,9.978668166449502
1670929750.795783,1.072974,10.072725033406337
1670929750.7967901,1.080931,10.166781900363173
1670929750.797797,1.077998,10.260816500069307
1670929750.798804,1.074008,10.354873367026142
1670929750.7998111,1.06742,10.448930233982978
1670929750.800818,1.057924,10.542964833689112
1670929750.801826,1.053717,10.637110769648748
1670929750.802833,1.047515,10.731167636605583
1670929750.80384,1.040567,10.825202236311718
1670929750.804847,1.033692,10.919259103268553
1670929750.805854,1.038452,11.013315970225388
1670929750.806861,1.044678,11.107350569931523
1670929750.807868,1.046986,11.20140743688836
1670929750.808875,1.047419,11.295464303845193
1670929750.809882,1.051554,11.38949890355133
1670929750.810889,1.050135,11.483555770508165
1670929750.811896,1.051097,11.577612637464998
1670929750.812903,1.054126,11.524721768240344
1670929750.81391,1.053285,11.705418026227944
1670929750.814918,1.052058,11.742985270386265
1670929750.8159251,1.060978,11.887187622317596
1670929750.816932,1.071147,11.96761374025261
1670929750.817939,1.075763,12.131760428571427
1670929750.8189461,1.085571,12.194186846153848
1670929750.819953,1.100043,12.307449411861613
1670929750.82096,1.104924,12.410767604395605
1670929750.8219671,1.095043,12.808847
1670929750.822974,1.084682,12.877440598092967
1670929750.823981,1.089393,12.928949378636148
1670929750.8249881,1.083648,12.97755655813399
1670929750.825995,1.057684,13.043126125661608
1670929750.827003,1.049654,13.10877332706032
1670929750.82801,1.032369,13.174358421362156
1670929750.829017,1.018378,13.239927988889772
1670929750.830024,1.03273,13.305513083191608
1670929750.831031,1.050424,13.371098177493444
1670929750.832038,1.050808,13.43666774502106
1670929750.833045,1.043091,13.502252839322896
1670929750.834052,1.027609,13.567837933624732
1670929750.835059,1.024075,13.633407501152348
1670929750.836066,1.038404,13.698992595454184
1670929750.837073,1.040495,13.76457768975602
1670929750.83808,1.037466,13.830147257283636
1670929750.839087,1.036649,13.895732351585472
1670929750.840095,1.036384,13.95321401382928
1670929750.8411021,1.048597,14.049122092036242
1670929750.842109,1.055448,14.116788306151644
1670929750.843116,1.059415,14.143432413825984
1670929750.8441231,1.060232,14.17577999141631
1670929750.84513,1.061026,14.28348809275155
1670929750.846137,1.057636,14.31033
1670929750.8471441,1.052972,14.368373036719124
1670929750.848151,1.055544,14.426597510729614
1670929750.849158,1.055977,14.486419792039195
1670929750.850165,1.048549,14.547436518823165
1670929750.851172,1.044029,14.608467694275564
1670929750.85218,1.045976,14.669556664401687
1670929750.853187,1.049414,14.730587839854087
1670929750.854194,1.051289,14.791604566638057
1670929750.855201,1.046265,14.852635742090456
1670929750.856208,1.045423,14.913666917542855
1670929750.857215,1.047924,14.974683644326824
1670929750.858222,1.050616,15.035714819779225
1670929750.859229,1.052034,15.096745995231624
1670929750.860236,1.053164,15.157762722015592
1670929750.861243,1.049991,15.218793897467993
1670929750.86225,1.049799,15.279825072920392
1670929750.863257,1.052708,15.34084179970436
1670929750.864264,1.053044,15.40187297515676
1670929750.865272,1.04689,15.462961945282885
1670929750.8662791,1.046241,15.523993120735284
1670929750.867286,1.044269,15.585009847519252
1670929750.868293,1.040255,15.646041022971652
1670929750.8693001,1.0316,15.666333081287247
1670929750.870307,1.026479,15.789285539341916
1670929750.871314,1.027513,15.846477113733906
1670929750.872321,1.038379,15.901106685816448
1670929750.873328,1.051938,15.991438532904148
1670929750.874335,1.06605,16.04661269408679
1670929750.875342,1.064584,16.065077
1670929750.876349,1.059896,16.155521
1670929750.877357,1.055881,16.155798883046163
1670929750.878364,1.054919,16.17443027966515
1670929750.879371,1.064103,16.193057265442132
1670929750.880378,1.066507,16.211688662061118
1670929750.881385,1.055905,16.230320058680103
1670929750.882392,1.045063,16.248947044457086
1670929750.883399,1.038019,16.281268689260145
1670929750.884406,1.035975,16.36526967238913
1670929750.885413,1.03285,16.431015354846394
1670929750.88642,1.029244,16.52878833412888
1670929750.887427,1.034413,16.575557927038627
1670929750.888434,1.049246,16.593769498452012
1670929750.889441,1.064872,16.64138704844869
1670929750.890449,1.063261,16.752501
1670929750.8914561,1.063694,16.77943423837902
1670929750.892463,1.060617,16.876185245873067
1670929750.89347,1.064872,16.936045315627837
1670929750.894477,1.071724,16.995891213964576
1670929750.895484,1.075738,17.055751283719346
1670929750.896491,1.089898,17.11561135347411
1670929750.897498,1.099322,17.17545725181085
1670929750.898505,1.099947,17.23531732156562
1670929750.899512,1.085523,17.29517739132039
1670929750.900519,1.078239,17.35502328965713
1670929750.901526,1.063165,17.414883359411895
1670929750.902534,1.046986,17.474800114838782
1670929750.903541,1.041937,17.53466018459355
1670929750.904548,1.04011,17.594506082930288
1670929750.905555,1.03285,17.654366152685057
1670929750.906562,1.03035,17.714226222439827
1670929750.907569,1.030278,17.774072120776566
1670929750.908576,1.034894,17.833932190531335
1670929750.909583,1.036192,17.8937922602861
1670929750.91059,1.032393,17.95363815862284
1670929750.911597,1.028739,18.01349822837761
1670929750.912604,1.035759,18.07335829813238
1670929750.913611,1.044918,18.13320419646912
1670929750.914618,1.054318,18.193064266223885
1670929750.915626,1.056891,18.252981021650772
1670929750.916633,1.056867,18.31282691998751
1670929750.91764,1.065834,18.372686989742277
1670929750.918647,1.076844,18.432547059497047
1670929750.919654,1.086893,18.492392957833786
1670929750.920661,1.096317,18.552253027588556
1670929750.921668,1.098865,18.61211309734332
1670929750.922675,1.087278,18.67195899568006
1670929750.923682,1.065641,18.73181906543483
1670929750.924689,1.057804,18.7916791351896
1670929750.925696,1.043909,18.85152503352634
1670929750.926703,1.037706,18.911385103281106
1670929750.927711,1.036576,18.971301858707992
1670929750.928718,1.042394,19.031161928462758
1670929750.929725,1.048044,19.091007826799498
1670929750.930732,1.040134,19.150867896554267
1670929750.931739,1.040423,19.210727966309037
1670929750.932746,1.042923,19.270573864645776
1670929750.933753,1.039293,19.330433934400546
1670929750.93476,1.041889,19.407363798761608
1670929750.935767,1.050183,19.478234188544153
1670929750.936774,1.050135,19.52267287267525
1670929750.937781,1.050352,19.59020785601907
1670929750.938788,1.05076,19.639305382563126
1670929750.939795,1.05415,19.6999790548926
1670929750.940803,1.06117,19.76966564520744
1670929750.94181,1.062853,19.84602903405573
1670929750.942817,1.066411,19.937139570405726
1670929750.943824,1.071483,20.042773944661228
1670929750.944831,1.083888,20.15754989524341
1670929750.945838,1.089946,20.272353024596747
1670929750.946845,1.082999,20.387156153950087
1670929750.947852,1.073358,20.50193210453227
1670929750.948859,1.062636,20.616735233885606
1670929750.949866,1.046193,20.731538363238947
1670929750.950873,1.041216,20.84631431382113
1670929750.95188,1.05189,20.961117443174466
1670929750.952888,1.055256,21.07602928761242
1670929750.953895,1.046048,21.19083241696576
1670929750.954902,1.047274,21.30560836754794
1670929750.955909,1.051506,21.42041149690128
1670929750.956916,1.040351,21.535214626254618
1670929750.957923,1.034317,21.6499905768368
1670929750.95893,1.035615,21.764793706190137
1670929750.959937,1.027609,21.879596835543477
1670929750.960944,1.016911,21.99437278612566
1670929750.961951,1.016743,22.109175915479
1670929750.962958,1.031528,22.223979044832337
1670929750.963965,1.043764,22.33875499541452
1670929750.964972,1.042611,22.453558124767856
1670929750.96598,1.052587,22.56846996920581
1670929750.966987,1.072709,22.683245919787993
1670929750.967994,1.089249,22.79804904914133
1670929750.969001,1.091701,22.912852178494667
1670929750.970008,1.082133,23.027628129076852
1670929750.971015,1.069656,23.14243125843019
1670929750.972022,1.066026,23.257234387783527
1670929750.973029,1.060184,23.372010338365712
1670929750.974036,1.045111,23.48681346771905
1670929750.975043,1.051818,23.601616597072386
1670929750.97605,1.065641,23.71639254765457
1670929750.977057,1.069344,23.83119567700791
1670929750.978065,1.066964,23.94610752144586
1670929750.979072,1.056578,24.0609106507992
1670929750.980079,1.045928,24.175686601381383
1670929750.981086,1.043741,24.29048973073472
1670929750.982093,1.044558,24.40529286008806
1670929750.9831,1.051121,24.520068810670242
1670929750.984107,1.052515,24.63487194002358
1670929750.985114,1.054799,24.74967506937692
1670929750.986121,1.064704,24.864451019959102
1670929750.987128,1.094226,24.97925414931244
1670929750.988135,1.15399,25.09405727866578
1670929750.989142,1.180411,25.220104132538737
1670929750.990149,1.174425,25.3625259022413
1670929750.991157,1.178247,25.444377506437768
1670929750.992164,1.173103,25.549082638617403
1670929750.993171,1.144687,25.64486853266571
1670929750.994178,1.076532,25.778340380066762
1670929750.995185,1.015853,25.953925744635193
1670929750.996192,1.0078,26.07848928510131
1670929750.997199,1.01869,26.226804984740102
1670929750.998206,1.029917,26.337822388312976
1670929750.999213,1.029148,26.453025887289535
1670929751.00022,1.034773,26.568229386266093
1670929751.001227,1.040014,26.683405611687025
1670929751.002234,1.034773,26.798609110663588
1670929751.003242,1.03023,26.913921703862663
1670929751.004249,1.034653,27.02912520283922
1670929751.005256,1.037177,27.144301428260153
1670929751.006263,1.03785,27.259504927236712
1670929751.00727,1.03975,27.37470842621327
1670929751.008277,1.039125,27.489884651634203
1670929751.009284,1.02196,27.605088150610765
1670929751.010291,1.019243,27.720291649587324
1670929751.011298,1.021671,27.835467875008256
1670929751.012305,1.029412,27.950671373984814
1670929751.013312,1.038331,28.065874872961373
1670929751.014319,1.055568,28.181051098382305
1670929751.015326,1.090451,28.296254597358864
1670929751.016334,1.109251,28.41156719055794
1670929751.017341,1.113001,28.52674341597887
1670929751.018348,1.107808,28.641946914955433
1670929751.019355,1.096197,28.757150413931992
1670929751.020362,1.082566,28.92459952360515
1670929751.021369,1.06153,29.07810141201717
1670929751.022376,1.033499,29.238301
1670929751.023383,1.021864,29.300053832618026
1670929751.02439,1.038452,29.424845978540773
1670929751.025397,1.047827,29.570572842669847
1670929751.026404,1.052948,29.68633907534573
1670929751.027411,1.065617,29.84097090319504
1670929751.028419,1.058814,29.944096599904626
1670929751.029426,1.042226,30.05761798344989
1670929751.030433,1.034918,30.17524852750735
1670929751.03144,1.037562,30.29290692629937
1670929751.032447,1.054823,30.410565325091394
1670929751.033454,1.070762,30.528195869148853
1670929751.034461,1.063285,30.645854267940873
1670929751.035468,1.052996,30.763512666732893
1670929751.036475,1.044245,30.881143210790352
1670929751.037482,1.036023,30.998801609582372
1670929751.038489,1.049246,31.116460008374393
1670929751.039496,1.069824,31.23409055243185
1670929751.040503,1.074777,31.351748951223872
1670929751.041511,1.080114,31.469518768954142
1670929751.042518,1.090331,31.5871493130116
1670929751.043525,1.102327,31.704807711803625
1670929751.044532,1.105765,31.822466110595645
1670929751.045539,1.088215,31.940096654653104
1670929751.046546,1.071724,32.05775505344512
1670929751.047553,1.058285,32.175413452237144
1670929751.04856,1.058213,32.2930439962946
1670929751.049567,1.058477,32.410702395086624
1670929751.050574,1.051938,32.52836079387865
1670929751.051581,1.052419,32.6459913379361
1670929751.052588,1.053525,32.763551027181684
1670929751.053596,1.041505,32.87297396566524
1670929751.054603,1.031023,32.98180080738975
1670929751.05561,1.027874,33.072848581783504
1670929751.056617,1.034581,33.206751661172866
1670929751.057624,1.042587,33.33737199193858
1670929751.058631,1.047443,33.45133921044547
1670929751.059638,1.04951,33.51277758528172
1670929751.060645,1.046241,33.694926097738595
1670929751.061652,1.03749,33.78047928675623
1670929751.062659,1.041913,34.35279523076923
1670929751.063666,1.054679,34.40614666452075
1670929751.064673,1.05201,34.50484056467781
1670929751.06568,1.026191,34.61110453744802
1670929751.066688,1.021022,34.69423406574528
1670929751.067695,1.056987,34.77726528570727
1670929751.068702,1.089033,34.86031616733632
1670929751.069709,1.104539,34.943367048965364
1670929751.070716,1.100717,35.02639826892736
1670929751.071723,1.077854,35.10944915055641
1670929751.07273,1.065738,35.19250003218546
1670929751.073737,1.063935,35.275531252147445
1670929751.074744,1.047226,35.358582133776494
1670929751.075751,1.014363,35.44163301540554
1670929751.076758,0.993736,35.52466423536754
1670929751.077765,0.997583,35.60771511699658
1670929751.078773,1.010324,35.690844645293836
1670929751.07978,1.016214,35.773895526922885
1670929751.080787,1.01518,35.85692674688488
1670929751.081794,1.039173,35.93997762851393
1670929751.082801,1.070498,36.02302851014297
1670929751.083808,1.101438,36.10605973010497
1670929751.084815,1.144687,36.189110611734016
1670929751.085822,1.143893,36.272161493363065
1670929751.086829,1.116463,36.35519271332506
1670929751.087836,1.082854,36.4382435949541
1670929751.088843,1.070257,36.52129447658315
1670929751.08985,1.073406,36.604325696545146
1670929751.090857,1.092831,36.687376578174195
1670929751.091865,1.116391,36.77050610647145
1670929751.092872,1.120213,36.85353732643344
1670929751.093879,1.111943,36.93658820806249
1670929751.094886,1.10776,37.01963908969154
1670929751.095893,1.098096,37.10267030965353
1670929751.0969,1.088576,37.185721191282575
1670929751.097907,1.077397,37.268772072911624
1670929751.098914,1.046072,37.35180329287362
1670929751.099921,1.03136,37.46678485646161
1670929751.100928,1.030638,37.501869
1670929751.101935,1.032273,37.5686203423939
1670929751.102942,1.019892,37.60578602691117
1670929751.10395,1.017224,37.70564364568431
1670929751.104957,1.026503,37.75079167303103
1670929751.105964,1.0341,37.82442576303882
1670929751.106971,1.038668,37.87354910586552
1670929751.107978,1.045423,37.910015431503574
1670929751.108985,1.046265,37.98913763467492
1670929751.109992,1.067685,38.008396
1670929751.110999,1.108746,38.12444991885442
1670929751.112006,1.137523,38.211655744635195
1670929751.113013,1.166035,38.25496464634437
1670929751.11402,1.183632,38.23188116945108
1670929751.115027,1.19296,38.285534284930854
1670929751.116034,1.174569,38.34321226768278
1670929751.117042,1.10752,38.352104
1670929751.118049,1.041913,38.36613440585274
1670929751.119056,1.033451,38.382739739089494
1670929751.120063,1.026431,38.39934507232624
1670929751.12107,1.022224,38.415946474376156
1670929751.122077,1.026119,38.4325518076129
1670929751.123084,1.027369,38.44915714084966
1670929751.124091,1.027898,38.460648
1670929751.125098,1.036023,38.48358835995232
1670929751.126105,1.051001,38.50369706652361
1670929751.127112,1.045135,38.46650447496423
1670929751.128119,1.027201,38.52102980810489
1670929751.129127,1.045135,38.52048813567001
1670929751.130134,1.037177,38.52237978278493
1670929751.131141,1.028162,38.58872489272944
1670929751.132148,1.030326,38.616821190987125
1670929751.133155,1.039702,38.598602424892704
1670929751.134162,1.039966,38.607957220791604
1670929751.135169,1.040856,38.66261148700834
1670929751.136176,1.04326,38.68867250810682
1670929751.137183,1.045544,38.69954170529328
1670929751.13819,1.051241,38.73179802667698
1670929751.139197,1.047924,38.73130578465107
1670929751.140204,1.046577,38.730813659159736
1670929751.141212,1.05665,38.73032095099555
1670929751.142219,1.057035,38.72982870896965
1670929751.143226,1.055256,38.729336583478315
1670929751.144233,1.056939,38.72884434145241
1670929751.14524,1.061939,38.72835209942651
1670929751.146247,1.058934,38.727859973935175
1670929751.147254,1.05052,38.72736773190927
1670929751.148261,1.058309,38.72687548988337
1670929751.149268,1.073238,38.726383364392035
1670929751.150275,1.080811,38.72589112236613
1670929751.151282,1.080378,38.72539888034022
1670929751.152289,1.06956,38.724906754848895
1670929751.153296,1.070161,38.72441451282299
1670929751.154304,1.077445,38.7239218046588
1670929751.155311,1.066411,38.7234295626329
1670929751.156318,1.049799,38.72293743714157
1670929751.157325,1.054294,38.72244519511566
1670929751.158332,1.059607,38.72195295308976
1670929751.159339,1.063237,38.72146082759843
1670929751.160346,1.062901,38.72096858557252
1670929751.161353,1.064271,38.720476343546615
1670929751.16236,1.059054,38.71998421805529
1670929751.163367,1.058718,38.71949197602938
1670929751.164374,1.066747,38.718999734003475
1670929751.165381,1.063959,38.71850760851214
1670929751.166389,1.06016,38.71801490034796
1670929751.167396,1.059463,38.71752265832205
1670929751.168403,1.051217,38.71703053283072
1670929751.16941,1.044558,38.71653829080482
1670929751.170417,1.057131,38.716046048778914
1670929751.171424,1.070113,38.71555392328758
1670929751.172431,1.074969,38.71506168126168
1670929751.173438,1.071267,38.714569439235774
1670929751.174445,1.073238,38.71407731374444
1670929751.175452,1.067276,38.701776031473536
1670929751.176459,1.064776,38.695824
1670929751.177466,1.068815,38.695824
1670929751.178473,1.083143,38.695824
1670929751.179481,1.102856,38.695824
1670929751.180488,1.10038,38.70861655460181
1670929751.181495,1.097976,38.688075324195474
1670929751.182502,1.103674,38.677723
1670929751.183509,1.113073,38.677723
1670929751.184516,1.112112,38.6762556928765
1670929751.185523,1.073695,38.67424534409621
1670929751.18653,1.03886,38.67223499531591
1670929751.187537,1.044125,38.67022512247046
1670929751.188544,1.053453,38.66821477369017
1670929751.189551,1.04951,38.66620442490987
1670929751.190558,1.04362,38.664194552064416
1670929751.191566,1.036793,38.662182299544746
1670929751.192573,1.026383,38.66017195076445
1670929751.19358,1.018979,38.659637
1670929751.194587,1.008401,38.67313034620887
1670929751.195594,1.003016,38.62323834517282
1670929751.196601,1.00816,38.57787775560324
1670929751.197608,1.006454,38.555309729375296
1670929751.198615,1.009218,38.60710571752085
1670929751.199622,1.025686,38.581082342870765
1670929751.200629,1.051626,38.569190999999996
1670929751.201636,1.077806,38.597953089392135
1670929751.202643,1.092759,38.59195305881196
1670929751.20365,1.10978,38.57510109343037
1670929751.204658,1.122593,38.55823316974823
1670929751.205665,1.098841,38.541381204366644
1670929751.206672,1.062973,38.52453322856019
1670929751.207679,1.041336,38.5076812631786
1670929751.208686,1.035062,38.49082929779701
1670929751.209693,1.039077,38.47398132199056
1670929751.2107,1.029436,38.45712935660897
1670929751.211707,1.00542,38.44027739122738
1670929751.212714,1.007319,38.42342941542093
1670929751.213721,1.015589,38.406577450039336
1670929751.214728,1.010516,38.38972548465775
1670929751.215735,1.016046,38.372877508851296
1670929751.216743,1.023739,38.35600958516916
1670929751.21775,1.031095,38.33915761978757
1670929751.218757,1.034605,38.322309643981114
1670929751.219764,1.04463,38.30545767859953
1670929751.220771,1.052419,38.28860571321794
1670929751.221778,1.046289,38.271757737411484
1670929751.222785,1.036336,38.2549057720299
1670929751.223792,1.030206,38.23805380664831
1670929751.224799,1.034028,38.22120583084185
1670929751.225806,1.03612,38.20435386546027
1670929751.226813,1.038812,38.18750190007868
1670929751.22782,1.039533,38.17065392427223
1670929751.228827,1.034773,38.15380195889064
1670929751.229835,1.030638,38.1369340352085
1670929751.230842,1.034821,38.12008206982691
1670929751.231849,1.038019,38.10323409402046
1670929751.232856,1.033379,38.08638212863887
1670929751.233863,1.023354,38.06953016325728
1670929751.23487,1.027681,38.05268218745083
1670929751.235877,1.046144,38.03583022206924
1670929751.236884,1.046457,38.018978256687646
1670929751.237891,1.049318,38.0021302808812
1670929751.238898,1.061987,37.985278315499606
1670929751.2399051,1.070426,37.968426350118015
1670929751.240912,1.077686,37.951578374311566
1670929751.24192,1.083696,37.93745870386266
1670929751.242927,1.070546,37.952563896995706
1670929751.243934,1.053212,37.936031
1670929751.244941,1.036168,37.92880220100143
1670929751.245948,1.031384,37.83140976067528
1670929751.246955,1.043187,37.80448221946375
1670929751.247962,1.050496,37.76288740777667
1670929751.248969,1.046866,37.80695516998012
1670929751.249976,1.041384,37.756314202581926
1670929751.250983,1.044341,37.759924638530286
1670929751.25199,1.043789,37.700859
1670929751.252997,1.047563,37.66772438307509
1670929751.254004,1.050448,37.597895558655225
1670929751.255012,1.043308,37.59271468001996
1670929751.256019,1.04588,37.593138356435915
1670929751.257026,1.058261,37.5935619325497
1670929751.258033,1.059535,37.59398560896565
1670929751.25904,1.055977,37.59440928538161
1670929751.260047,1.073214,37.594832861495384
1670929751.261054,1.086749,37.59525653791134
1670929751.2620611,1.080811,37.5956802143273
1670929751.263068,1.076003,37.59610379044108
1670929751.264075,1.078936,37.59652746685703
1670929751.2650821,1.072926,37.59695114327299
1670929751.266089,1.05665,37.597374719386764
1670929751.267097,1.037225,37.59779879701145
1670929751.268104,1.027201,37.598222473427406
1670929751.269111,1.040495,37.59864604954118
1670929751.270118,1.048765,37.59906972595714
1670929751.271125,1.048308,37.5994934023731
1670929751.272132,1.052443,37.599916978486874
1670929751.273139,1.051458,37.60034065490283
1670929751.274146,1.031792,37.600764331318786
1670929751.275153,1.025109,37.60118790743257
1670929751.27616,1.034701,37.60161158384852
1670929751.277167,1.048837,37.60203526026448
1670929751.278174,1.069103,37.602458836378254
1670929751.279181,1.065137,37.60288251279421
1670929751.280189,1.051049,37.603306590418896
1670929751.281196,1.053501,37.60373026683485
1670929751.282203,1.071363,37.60415384294863
1670929751.28321,1.089033,37.60457751936459
1670929751.2842171,1.087086,37.605001195780545
1670929751.285224,1.073527,37.60542477189432
1670929751.286231,1.069584,37.605848448310276
1670929751.2872381,1.055088,37.60627212472624
1670929751.288245,1.038259,37.606695700840014
1670929751.289252,1.029004,37.60711937725597
1670929751.2902591,1.038908,37.607543053671925
1670929751.291266,1.055208,37.6079666297857
1670929751.292274,1.054054,37.608390707410386
1670929751.293281,1.059896,37.60881438382634
1670929751.294288,1.072108,37.60923795994012
1670929751.295295,1.07307,37.60966163635608
1670929751.296302,1.075907,37.610085312772036
1670929751.297309,1.085571,37.6062894806867
1670929751.298316,1.086941,37.600826574255066
1670929751.299323,1.063646,37.63725752455889
1670929751.30033,1.045207,37.65566572028639
1670929751.301337,1.041192,37.628502
1670929751.302344,1.03761,37.63325931211254
1670929751.303351,1.044414,37.646591
1670929751.304358,1.048308,37.6214672829919
1670929751.305366,1.042514,37.56129419761621
1670929751.3063731,1.041986,37.57563363381802
1670929751.30738,1.040231,37.58048623595149
1670929751.308387,1.040182,37.58533998717379
1670929751.3093941,1.032153,37.59019373839609
1670929751.310401,1.038668,37.56165988915376
1670929751.311408,1.049991,37.54839504601812
1670929751.314429,1.093601,37.54204561945637
1670929751.3154361,1.094803,37.53081458798284
1670929751.316443,1.101798,37.527068943980936
1670929751.317451,1.11014,37.529817323773095
1670929751.318458,1.104226,37.54596535929753
1670929751.319465,1.084008,37.5621095718969
1670929751.320472,1.059607,37.578257607421335
1670929751.321479,1.043933,37.59440564294578
1670929751.322486,1.04451,37.610549855545145
1670929751.323493,1.052371,37.62669789106958
1670929751.3245,1.05504,37.64284592659402
1670929751.325507,1.056169,37.658990139193385
1670929751.326514,1.047274,37.67513817471783
1670929751.327521,1.03975,37.69128621024227
1670929751.328528,1.033643,37.70743042284163
1670929751.329535,1.031552,37.72357845836607
1670929751.330543,1.038524,37.73974178559082
1670929751.3315501,1.042226,37.75588982111526
1670929751.332557,1.042875,37.772034033714625
1670929751.333564,1.045544,37.78818206923906
1670929751.3345711,1.041937,37.80433010476351
1670929751.335578,1.040687,37.82047431736287
1670929751.336585,1.046096,37.83662235288731
1670929751.3375921,1.052155,37.852770388411756
1670929751.338599,1.047467,37.86891460101111
1670929751.339606,1.043885,37.88506263653556
1670929751.3406131,1.040471,37.901210672059996
1670929751.34162,1.052395,37.91735488465936
1670929751.342628,1.056963,37.933518211884106
1670929751.343635,1.0579,37.94966624740855
1670929751.344642,1.074344,37.965810460007916
1670929751.345649,1.086004,37.98195849553235
1670929751.346656,1.086028,37.9981065310568
1670929751.347663,1.071459,38.014250743656156
1670929751.34867,1.05754,38.0303987791806
1670929751.349677,1.053501,38.04654681470504
1670929751.350684,1.049871,38.0626910273044
1670929751.351691,1.055376,38.07883906282885
1670929751.352698,1.076748,38.094987098353286
1670929751.353705,1.094947,38.11113131095265
1670929751.354712,1.112112,38.12727934647709
1670929751.35572,1.123675,38.14344267370184
1670929751.3567271,1.123435,38.15959070922628
1670929751.357734,1.10776,38.175734921825644
1670929751.358741,1.074753,38.19188295735008
1670929751.3597481,1.046914,38.20803099287453
1670929751.360755,1.045063,38.22417520547389
1670929751.361762,1.053982,38.27573918311874
1670929751.3627691,1.052804,38.381037182164995
1670929751.363776,1.054823,38.44012345705824
1670929751.364783,1.052275,38.46832632675222
1670929751.36579,1.047467,38.51234329530864
1670929751.366797,1.043212,38.56134432379072
1670929751.367805,1.032105,38.60120886475814
1670929751.368812,1.029797,38.59799451135242
1670929751.369819,1.037754,38.58076284995064
1670929751.370826,1.053333,38.97572790796376
1670929751.371833,1.05629,38.976575714421934
1670929751.37284,1.056602,38.98301997869331
1670929751.373847,1.104251,39.015812820025594
1670929751.374854,1.150841,39.048605661357875
1670929751.375861,1.171444,39.081390739233406
1670929751.376868,1.180507,39.114183580565694
1670929751.377875,1.173391,39.146976421897975
1670929751.378882,1.170458,39.179761499773505
1670929751.379889,1.140143,39.212554341105786
1670929751.380897,1.100717,39.24537823626509
1670929751.3819041,1.069824,39.27817107759738
1670929751.382911,1.037947,39.31095615547291
1670929751.383918,1.031047,39.34374899680519
1670929751.3849251,1.015829,39.37654183813748
1670929751.385932,0.992053,39.409326916013
1670929751.386939,0.984961,39.44211975734529
1670929751.387946,0.980273,39.47490483522082
1670929751.388953,0.963277,39.5076976765531
1670929751.38996,0.956041,39.54049051788539
1670929751.390967,0.95955,39.57327559576091
1670929751.391974,0.962051,39.6060684370932
1670929751.392982,0.964527,39.6388923322525
1670929751.393989,0.975297,39.671685173584784
1670929751.394996,0.986428,39.704470251460315
1670929751.396003,0.999121,39.7372630927926
1670929751.39701,0.995515,39.77005593412488
1670929751.398017,0.999025,39.802841012000414
1670929751.399024,1.007079,39.835633853332695
1670929751.400031,0.997823,39.86842669466498
1670929751.401038,0.991404,39.90121177254051
1670929751.402045,0.995155,39.934004613872794
1670929751.403052,1.009146,39.98197832379589
1670929751.404059,1.020541,39.98553901072961
1670929751.405066,1.023114,40.006013473182364
1670929751.406074,1.02708,40.055524137339056
1670929751.4070811,1.036168,40.070663
1670929751.408088,1.055376,40.04407497282479
1670929751.409095,1.062372,40.10160298950882
1670929751.410102,1.050159,40.0842902360515
1670929751.411109,1.024268,40.152711396662696
1670929751.412116,1.018282,40.174606395962485
1670929751.413123,1.018498,40.16853503632173
1670929751.41413,1.018546,40.16246223899221
1670929751.415137,1.023715,40.217853446007155
1670929751.416144,1.023162,40.24778923175966
1670929751.417151,1.02422,40.29488029661422
1670929751.418159,1.023426,40.247522384266986
1670929751.419166,1.02809,40.27760548116357
1670929751.420173,1.032249,40.33224872484502
1670929751.42118,1.024388,40.297141792133495
1670929751.422187,1.019219,40.333012151645214
1670929751.423194,1.020421,40.41808649260849
1670929751.424201,1.011742,40.43107737798217
1670929751.425208,1.008377,40.42942123983112
1670929751.426215,1.009146,40.42776549375823
1670929751.427222,1.007175,40.42610935560718
1670929751.428229,1.013618,40.42445321745613
1670929751.429236,1.043212,40.42279747138324
1670929751.430243,1.077469,40.42114133323219
1670929751.431251,1.08259,40.419483626768496
1670929751.432258,1.079537,40.41782788069561
1670929751.433265,1.064199,40.416171742544556
1670929751.434272,1.060929,40.41451560439351
1670929751.435279,1.057588,40.412859858320616
1670929751.436286,1.027032,40.41120372016957
1670929751.437293,1.035086,40.40954758201852
1670929751.4383,1.053044,40.40789183594563
1670929751.439307,1.050039,40.40623569779458
1670929751.440314,1.042298,40.40457955964352
1670929751.441321,1.037538,40.40292381357064
1670929751.442328,1.03309,40.40126767541958
1670929751.443336,1.036336,40.39960996895589
1670929751.444343,1.039702,40.39795383080484
1670929751.44535,1.034341,40.39629808473195
1670929751.446357,1.022921,40.3946419465809
1670929751.447364,1.008713,40.39298580842985
1670929751.448371,1.008449,40.39133006235696
1670929751.449378,1.019027,40.38967392420591
1670929751.450385,1.036624,40.38801778605486
1670929751.451392,1.042298,40.38636203998197
1670929751.452399,1.03761,40.38470590183092
1670929751.453406,1.029845,40.383049763679864
1670929751.454413,1.039149,40.38139401760698
1670929751.45542,1.058742,40.379737879455924
1670929751.456428,1.068238,40.378080172992235
1670929751.457435,1.058549,40.37642442691934
1670929751.458442,1.064584,40.374768288768294
1670929751.459449,1.09312,40.373112150617246
1670929751.460456,1.107736,40.371456404544354
1670929751.461463,1.075306,40.3698002663933
1670929751.46247,1.042707,40.36814412824225
1670929751.463477,1.011694,40.36648838216936
1670929751.464484,1.016935,40.36483224401831
1670929751.465491,1.018185,40.36317610586726
1670929751.466498,1.018041,40.36152035979437
1670929751.467505,1.019436,40.35986422164332
1670929751.468513,1.006934,40.358206515179624
1670929751.46952,0.999915,40.356550377028576
1670929751.470527,0.995707,40.354894630955684
1670929751.471534,0.993063,40.353238492804635
1670929751.472541,0.984721,40.35158235465359
1670929751.473548,0.98299,40.349926608580695
1670929751.474555,0.995227,40.34827047042965
1670929751.475562,1.028715,40.34661433227859
1670929751.476569,1.073695,40.344958586205706
1670929751.477576,1.072806,40.34330244805465
1670929751.478583,1.062132,40.35019738197425
1670929751.47959,1.058165,40.3739882706247
1670929751.480597,1.065233,40.360107
1670929751.481605,1.075113,40.360107
1670929751.482612,1.090283,40.369330629709104
1670929751.483619,1.097327,40.396294
1670929751.484626,1.0861,40.3865613018598
1670929751.485633,1.063959,40.36509942465427
1670929751.48664,1.047755,40.388443502384355
1670929751.487647,1.058742,40.414383
1670929751.488654,1.072613,40.414383
1670929751.489661,1.067829,40.414383
1670929751.490668,1.059223,40.414383
1670929751.491675,1.05867,40.414383
1670929751.492682,1.058862,40.400236142584646
1670929751.49369,1.054775,40.396294
1670929751.494697,1.054078,40.39805937909021
1670929751.495704,1.053838,40.400289470594245
1670929751.496711,1.052852,40.402520090180566
1670929751.497718,1.060256,40.40475070976688
1670929751.498725,1.057275,40.40698080127091
1670929751.499732,1.056963,40.40921142085723
1670929751.500739,1.048476,40.41144204044355
1670929751.501746,1.041601,40.413672131947585
1670929751.502753,1.074008,40.415902751533906
1670929751.50376,1.107063,40.41813337112023
1670929751.504767,1.110501,40.42036346262426
1670929751.505774,1.101606,40.42259408221057
1670929751.506782,1.083528,40.42482681412605
1670929751.507789,1.063454,40.42705690563008
1670929751.508796,1.036576,40.4292875252164
1670929751.509803,1.003497,40.431518144802716
1670929751.51081,1.001549,40.43374823630675
1670929751.511817,1.007127,40.43597885589307
1670929751.512824,0.998953,40.43820947547939
1670929751.513831,0.998833,40.44043956698342
1670929751.514838,0.997607,40.44267018656974
1670929751.515845,1.010565,40.44490080615606
1670929751.516852,1.017464,40.447130897660095
1670929751.517859,1.020541,40.44936151724641
1670929751.518867,1.024147,40.451594249161886
1670929751.519874,1.022681,40.45382486874821
1670929751.520881,1.020085,40.45605496025224
1670929751.521888,1.022585,40.45828557983856
1670929751.522895,1.015204,40.46051619942487
1670929751.523902,1.019099,40.462746290928905
1670929751.524909,1.019387,40.464976910515226
1670929751.525916,1.021479,40.46720753010155
1670929751.526923,1.019676,40.46943762160558
1670929751.52793,1.016551,40.4716682411919
1670929751.528937,1.007608,40.47389886077822
1670929751.529944,1.010685,40.47612895228225
1670929751.530951,1.025325,40.478359571868566
1670929751.531959,1.046072,40.48059230378404
1670929751.532966,1.059175,40.482822395288075
1670929751.533973,1.067276,40.485053014874396
1670929751.53498,1.07331,40.48728363446071
1670929751.535987,1.07218,40.48951372596474
1670929751.536994,1.085547,40.49174434555106
1670929751.538001,1.092495,40.49397496513738
1670929751.539008,1.074801,40.496205056641415
1670929751.540015,1.056097,40.498435676227736
1670929751.541022,1.048957,40.50066629581406
1670929751.542029,1.051554,40.50289638731809
1670929751.543036,1.054919,40.50728553505007
1670929751.544044,1.054054,40.517711519790176
1670929751.545051,1.046649,40.48946998331347
1670929751.546058,1.038548,40.5076825126371
1670929751.547065,1.032297,40.519937038149735
1670929751.548072,1.027465,40.49548372627563
1670929751.549079,1.016502,40.45703468128725
1670929751.550086,1.018065,40.49683024892704
1670929751.551093,1.027753,40.52354234334764
1670929751.5521,1.032465,40.450792376168515
1670929751.553107,1.039221,40.45197235821357
1670929751.554114,1.041913,40.45315234025862
1670929751.555121,1.046144,40.45433204295186
1670929751.556128,1.056939,40.455512024996914
1670929751.557136,1.066555,40.4566931244492
1670929751.558143,1.063526,40.457872827142445
1670929751.55915,1.056578,40.4590528091875
1670929751.560157,1.042995,40.46023279123255
1670929751.561164,1.043524,40.46141249392579
1670929751.562171,1.0538130000000001,40.462592475970844
1670929751.563178,1.056891,40.463772458015896
1670929751.564185,1.058862,40.46495216070914
1670929751.565192,1.061891,40.46613214275419
1670929751.566199,1.058117,40.46731212479924
1670929751.567206,1.039461,40.468491827492485
1670929751.568213,1.030254,40.46967180953754
1670929751.569221,1.031119,40.470852908989826
1670929751.570228,1.034389,40.47203289103488
1670929751.571235,1.0385,40.47321259372812
1670929751.572242,1.035447,40.47439257577317
1670929751.573249,1.033475,40.475572557818225
1670929751.574256,1.038452,40.47675226051147
1670929751.575263,1.04451,40.47793224255652
1670929751.57627,1.044269,40.47911222460157
1670929751.577277,1.036216,40.480291927294815
1670929751.578284,1.035879,40.48147190933987
1670929751.579291,1.038259,40.48265189138492
1670929751.580298,1.041937,40.48383159407816
1670929751.581305,1.060737,40.48501157612321
1670929751.582313,1.07997,40.48619267557551
1670929751.58332,1.08759,40.48737237826875
1670929751.584327,1.092951,40.488552360313804
1670929751.585334,1.091942,40.489732342358856
1670929751.586341,1.089754,40.4909120450521
1670929751.587348,1.077205,40.49209202709715
1670929751.588355,1.054799,40.4932720091422
1670929751.589362,1.058814,40.49445171183544
1670929751.590369,1.088889,40.49563169388049
1670929751.591376,1.097567,40.49681167592555
1670929751.592383,1.074729,40.497991378618785
1670929751.59339,1.05653,40.49917136066384
1670929751.594398,1.052876,40.50035246011613
1670929751.595405,1.052443,40.501532442161185
1670929751.596412,1.047683,40.50271214485443
1670929751.597419,1.039101,40.50389212689948
1670929751.598426,1.049078,40.52002692608488
1670929751.599433,1.037971,40.569340219360996
1670929751.60044,1.0197,40.545065315852206
1670929751.601447,1.021118,40.563280361230326
1670929751.602454,1.028907,40.58149467811159
1670929751.603461,1.028691,40.59528
1670929751.604468,1.032562,40.60895698521698
1670929751.605475,1.035447,40.649548
1670929751.606482,1.03987,40.63510758798284
1670929751.60749,1.04011,40.59328155391182
1670929751.608497,1.042418,40.5859429123202
1670929751.609504,1.046505,40.57860253294937
1670929751.610511,1.064175,40.57126215357853
1670929751.611518,1.078719,40.56392351198691
1670929751.612525,1.087903,40.55658313261607
1670929751.613532,1.103169,40.54924275324524
1670929751.614539,1.105765,40.54190411165361
1670929751.615546,1.10502,40.53456373228278
1670929751.616553,1.11252,40.52722335291194
1670929751.61756,1.104563,40.519884711320316
1670929751.618567,1.096557,40.51254433194948
1670929751.619575,1.07444,40.505197001461816
1670929751.620582,1.036817,40.497856622090985
1670929751.621589,0.999794,40.490517980499355
1670929751.622596,1.005588,40.483177601128524
1670929751.623603,1.023354,40.47583722175769
1670929751.62461,1.033307,40.46849858016606
1670929751.625617,1.032273,40.46115820079523
1670929751.626624,1.024989,40.453817821424394
1670929751.627631,1.017729,40.44647917983277
1670929751.628638,1.005612,40.43913880046193
1670929751.629645,1.002367,40.4317984210911
1670929751.630652,1.004987,40.42445977949947
1670929751.631659,1.007776,40.41711940012864
1670929751.632667,1.015373,40.40977206964098
1670929751.633674,1.023763,40.40243342804935
1670929751.634681,1.031432,40.39509304867852
1670929751.635688,1.034749,40.38775266930768
1670929751.636695,1.033499,40.38041402771606
1670929751.637702,1.055256,40.373073648345226
1670929751.638709,1.069512,40.36573326897439
1670929751.639716,1.067252,40.358394627382765
1670929751.640723,1.070065,40.35105424801193
1670929751.64173,1.0742,40.343713868641096
1670929751.642737,1.072757,40.336375227049466
1670929751.643744,1.050712,40.329034847678635
1670929751.644752,1.025109,40.32168751719097
1670929751.645759,1.025325,40.314347137820135
1670929751.646766,1.0266,40.30700849622851
1670929751.647773,1.027802,40.299668116857674
1670929751.64878,1.031528,40.29232773748684
1670929751.649787,1.040567,40.28498909589521
1670929751.650794,1.055857,40.27764871652438
1670929751.651801,1.056722,40.27030833715355
1670929751.652808,1.037057,40.26296969556192
1670929751.653815,1.029508,40.25562931619109
1670929751.654822,1.040423,40.24828893682025
1670929751.655829,1.045471,40.24095029522863
1670929751.656837,1.038812,40.23360296474097
1670929751.657844,1.035254,40.22626258537013
1670929751.658851,1.029629,40.218923943778506
1670929751.659858,1.029124,40.21158356440767
1670929751.660865,1.027273,40.20424318503684
1670929751.661872,1.027633,40.19690454344521
1670929751.662879,1.03398,40.189564164074376
1670929751.663886,1.046121,40.18222378470354
1670929751.664893,1.044918,40.179207
1670929751.6659,1.044269,40.1900604
1670929751.666907,1.05504,40.208277066762044
1670929751.667914,1.055376,40.215385
1670929751.668921,1.051121,40.215385
1670929751.669929,1.059583,40.192629262279446
1670929751.670936,1.080426,40.179207
1670929751.671943,1.100356,40.179207
1670929751.67295,1.082927,40.16744958130663
1670929751.673957,1.05641,40.159003358403815
1670929751.674964,1.042418,40.155763107510964
1670929751.675971,1.04939,40.15252208933162
1670929751.676978,1.054919,40.14928107115227
1670929751.677985,1.038307,40.146040820259415
1670929751.678992,1.019195,40.14279980208006
1670929751.679999,1.036096,40.13955878390072
1670929751.681006,1.060208,40.136318533007866
1670929751.682014,1.051481,40.13307444568251
1670929751.683021,1.0385,40.129833427503165
1670929751.684028,1.036528,40.126593176610314
1670929751.685035,1.039894,40.12335215843096
1670929751.686042,1.040158,40.12011114025161
1670929751.687049,1.038067,40.116870889358765
1670929751.688056,1.048044,40.11362987117941
1670929751.689063,1.046625,40.11038885300006
1670929751.69007,1.045039,40.10714860210721
1670929751.691077,1.050087,40.103907583927864
1670929751.692084,1.062059,40.10066656574851
1670929751.693091,1.076628,40.09742631485566
1670929751.694098,1.074969,40.09418529667631
1670929751.695106,1.072036,40.09094120935096
1670929751.696113,1.072397,40.087700191171606
1670929751.69712,1.075931,40.084459940278755
1670929751.698127,1.071916,40.08121892209941
1670929751.699134,1.06968,40.07797790392006
1670929751.700141,1.078287,40.074737653027206
1670929751.701148,1.095187,40.071496634847854
1670929751.702155,1.090451,40.06825561666851
1670929751.703162,1.0832870000000001,40.06501536577566
1670929751.704169,1.064031,40.061774347596305
1670929751.705176,1.051458,40.05853332941695
1670929751.706183,1.044462,40.05529307852411
1670929751.707191,1.039269,40.05204899119875
1670929751.708198,1.031456,40.0488079730194
1670929751.709205,1.02196,40.04556772212655
1670929751.710212,1.028763,40.042326703947204
1670929751.711219,1.029052,40.03908568576785
1670929751.712226,1.034365,40.035845434875
1670929751.713233,1.042418,40.03260441669565
1670929751.71424,1.055184,40.0293633985163
1670929751.715247,1.057732,40.02612314762345
1670929751.716254,1.064872,40.0228821294441
1670929751.717261,1.068021,40.019641111264754
1670929751.718268,1.073791,40.0164008603719
1670929751.719275,1.081845,40.01315984219255
1670929751.720283,1.090307,40.009915754867194
1670929751.72129,1.08711,40.00667473668785
1670929751.722297,1.060905,40.003434485795
1670929751.723304,1.03172,40.000193467615645
1670929751.724311,1.037682,39.99695244943629
1670929751.725318,1.052034,39.99371219854345
1670929751.726325,1.060304,39.990471180364096
1670929751.727332,1.068478,39.987230162184744
1670929751.728339,1.063189,39.98398991129189
1670929751.729346,1.056891,39.98074889311255
1670929751.730353,1.063622,39.99547200238435
1670929751.73136,1.06944,39.96755783738674
1670929751.732368,1.06706,39.97765102526817
1670929751.733375,1.053982,39.980221
1670929751.734382,1.044197,39.980221
1670929751.735389,1.045327,39.94841699952324
1670929751.736396,1.040976,39.928006759656654
1670929751.737403,1.036408,39.89364013352408
1670929751.73841,1.027393,39.90604882522651
1670929751.739417,1.039966,39.897760675250495
1670929751.740424,1.042274,39.8865563240239
1670929751.741431,1.040351,39.87534931962392
1670929751.742438,1.042683,39.86414231522394
1670929751.743445,1.046794,39.85293796399735
1670929751.744452,1.058982,39.84173095959736
1670929751.74546,1.067324,39.83051334250382
1670929751.746467,1.071627,39.81930633810384
1670929751.747474,1.070618,39.808101986877254
1670929751.748481,1.071531,39.79689498247727
1670929751.749488,1.068983,39.78568797807729
1670929751.750495,1.055304,39.774483626850696
1670929751.751502,1.040591,39.76327662245072
1670929751.752509,1.04362,39.75206961805073
1670929751.753516,1.053597,39.740865266824144
1670929751.754523,1.052924,39.72965826242416
1670929751.7555301,1.04939,39.71845125802418
1670929751.756537,1.047539,39.707246906797586
1670929751.757545,1.055761,39.69602928970404
1670929751.758552,1.066266,39.684822285304065
1670929751.759559,1.076099,39.67361793407748
1670929751.760566,1.070906,39.66241092967749
1670929751.761573,1.064271,39.651203925277514
1670929751.76258,1.066122,39.63999957405092
1670929751.763587,1.062901,39.62879256965094
1670929751.764594,1.054727,39.617585565250955
1670929751.765601,1.043957,39.60638121402437
1670929751.766608,1.041481,39.59517420962438
1670929751.767615,1.043236,39.583967205224404
1670929751.768622,1.063141,39.57276285399781
1670929751.769629,1.077325,39.555718404864095
1670929751.770637,1.074993,39.50179845779685
1670929751.771644,1.075979,39.432892743265796
1670929751.772651,1.093432,39.459861741535526
1670929751.773658,1.109179,39.4146859401526
1670929751.774665,1.097111,39.39646655589988
1670929751.775672,1.079585,39.37824950643777
1670929751.776679,1.080691,39.3702747804296
1670929751.7776861,1.085186,39.37797847308242
1670929751.778693,1.077373,39.35977637249666
1670929751.7797,1.059054,39.34155951649819
1670929751.7807071,1.068094,39.32334266049971
1670929751.781714,1.077566,39.30513011720389
1670929751.782722,1.068069,39.28689601039481
1670929751.783729,1.04213,39.28675504029566
1670929751.784736,1.022176,39.310883
1670929751.785743,1.023282,39.3046071416309
1670929751.78675,1.030374,39.26073472076373
1670929751.787757,1.027465,39.21542135397809
1670929751.788764,1.026047,39.231859845053634
1670929751.789771,1.03487,39.2136370699284
1670929751.790778,1.039894,39.181579594568845
1670929751.791785,1.042779,39.16214832538736
1670929751.792792,1.02095,39.17980453200905
1670929751.793799,1.022441,39.16850217720726
1670929751.794806,1.048909,39.15719714602498
1670929751.795814,1.059992,39.145881409320744
1670929751.796821,1.065112,39.13457637813846
1670929751.797828,1.064199,39.12327402333667
1670929751.798835,1.066242,39.11196899215439
1670929751.7998421,1.074969,39.100663960972106
1670929751.800849,1.085667,39.089361606170314
1670929751.801856,1.101702,39.07805657498803
1670929751.8028631,1.113698,39.06675154380575
1670929751.80387,1.093841,39.05544918900396
1670929751.804877,1.066339,39.04414415782168
1670929751.8058841,1.057876,39.032839126639395
1670929751.806891,1.05266,39.0215367718376
1670929751.807899,1.046553,39.01022103513337
1670929751.808906,1.040375,38.99891600395109
1670929751.809913,1.039389,38.987613649149296
1670929751.81092,1.041986,38.976308617967014
1670929751.811927,1.043957,38.96500358678473
1670929751.812934,1.046169,38.95370123198294
1670929751.813941,1.048044,38.94239620080066
1670929751.814948,1.050808,38.93109116961838
1670929751.815955,1.055136,38.919788814816584
1670929751.816962,1.058285,38.9084837836343
1670929751.817969,1.060737,38.89717875245202
1670929751.818976,1.062877,38.88587639765023
1670929751.819983,1.063141,38.87457136646795
1670929751.820991,1.063574,38.863255629763714
1670929751.8219981,1.058573,38.85195059858143
1670929751.823005,1.05665,38.84064824377964
1670929751.824012,1.060232,38.82934321259736
1670929751.8250191,1.062468,38.818038181415076
1670929751.826026,1.066771,38.806735826613284
1670929751.827033,1.068863,38.795430795431
1670929751.8280401,1.064656,38.78412576424873
1670929751.829047,1.06242,38.77282340944693
1670929751.830054,1.063983,38.761518378264654
1670929751.8310611,1.061098,38.75021334708237
1670929751.832068,1.04939,38.73891099228058
1670929751.833076,1.050832,38.72759525557634
1670929751.834083,1.059247,38.716290224394065
1670929751.83509,1.064704,38.704987869592266
1670929751.836097,1.068767,38.69368283840999
1670929751.837104,1.075546,38.68237780722771
1670929751.838111,1.078191,38.67107545242592
1670929751.839118,1.075859,38.659770421243635
1670929751.840125,1.084008,38.648465390061354
1670929751.841132,1.105453,38.63716303525956
1670929751.842139,1.115838,38.62585800407728
1670929751.843146,1.125526,38.614552972895
1670929751.844153,1.142763,38.603250618093206
1670929751.84516,1.14899,38.591945586910924
1670929751.846168,1.145528,38.58062985020669
1670929751.8471751,1.136224,38.56932481902441
1670929751.848182,1.126704,38.49718834263233
1670929751.849189,1.101919,38.53292738116806
1670929751.8501961,1.057083,38.49633430138292
1670929751.851203,1.007391,38.444002909155934
1670929751.85221,1.017777,38.53133190607867
1670929751.8532171,1.030278,38.46119144635193
1670929751.854224,1.031167,38.478737
1670929751.855231,1.031624,38.47953472705602
1670929751.8562381,1.03648,38.49747733774537
1670929751.857245,1.047803,38.51033060549635
1670929751.858253,1.051674,38.52319909141895
1670929751.85926,1.048356,38.53605540280426
1670929751.860267,1.048501,38.54890867055524
1670929751.861274,1.054294,38.551094
1670929751.862281,1.052876,38.52059115212208
1670929751.863288,1.050881,38.48416283738675
1670929751.864295,1.04826,38.50974055423123
1670929751.865302,1.059391,38.530546416309015
1670929751.866309,1.078287,38.52581239299153
1670929751.867316,1.085186,38.517495510428226
1670929751.868323,1.094418,38.50917862786491
1670929751.86933,1.096942,38.50086371426054
1670929751.870337,1.08759,38.49254683169723
1670929751.871345,1.095452,38.48422207329816
1670929751.8723521,1.093408,38.47590519073485
1670929751.873359,1.067661,38.467590277130476
1670929751.874366,1.04564,38.45927339456717
1670929751.8753731,1.045736,38.450956512003856
1670929751.87638,1.048332,38.44264159839949
1670929751.877387,1.043764,38.434324715836176
1670929751.8783941,1.042683,38.42600783327287
1670929751.879401,1.050472,38.4176929196685
1670929751.880408,1.060689,38.40937603710518
1670929751.881415,1.059463,38.40106112350082
1670929751.882422,1.057371,38.3927442409375
1670929751.88343,1.054919,38.38441948253843
1670929751.884437,1.050592,38.37610259997512
1670929751.885444,1.051193,38.367787686370754
1670929751.886451,1.049895,38.35947080380744
1670929751.887458,1.04802,38.35115392124413
1670929751.888465,1.050352,38.34283900763976
1670929751.889472,1.048957,38.334522125076454
1670929751.890479,1.05153,38.32620524251314
1670929751.891486,1.050279,38.31789032890877
1670929751.892493,1.059727,38.30957344634546
1670929751.8935,1.079513,38.30125656378215
1670929751.894507,1.100308,38.29294165017778
1670929751.895514,1.1099,38.28462476761447
1670929751.896522,1.113747,38.2763000092154
1670929751.8975291,1.108698,38.267983126652084
1670929751.898536,1.103962,38.25966821304772
1670929751.899543,1.107953,38.251351330484404
1670929751.9005501,1.085932,38.2430344479211
1670929751.901557,1.057227,38.234719534316724
1670929751.902564,1.050063,38.22640265175341
1670929751.903571,1.055088,38.218087738149045
1670929751.904578,1.058958,38.20977085558573
1670929751.905585,1.061891,38.201453973022424
1670929751.906592,1.059415,38.19313905941805
1670929751.907599,1.053693,38.18482217685474
1670929751.908607,1.04564,38.17649741845567
1670929751.909614,1.045832,38.16818053589236
1670929751.910621,1.052635,38.15986562228799
1670929751.911628,1.054847,38.14968048617072
1670929751.912635,1.054342,38.124329059118
1670929751.913642,1.051914,38.07706532832618
1670929751.914649,1.054222,38.06648106366237
1670929751.915656,1.051866,38.072861970202624
1670929751.916663,1.051169,38.03237131187411
1670929751.91767,1.057395,38.04749880765227
1670929751.918677,1.065185,38.04150977615825
1670929751.919684,1.068671,38.01478994612181
1670929751.920691,1.076892,38.0565479029566
1670929751.921699,1.08009,38.0232811556615
1670929751.9227061,1.088985,38.007316103383616
1670929751.923713,1.087134,38.001408845079226
1670929751.92472,1.07533,37.99550018794502
1670929751.925727,1.072926,37.98959292964063
1670929751.926734,1.079128,37.98368427250642
1670929751.927741,1.076051,37.977775615372224
1670929751.928748,1.071435,37.971868357067834
1670929751.929755,1.072902,37.96595969993363
1670929751.930762,1.074993,37.96005104279942
1670929751.931769,1.090187,37.95414378449503
1670929751.932776,1.098986,37.94823512736083
1670929751.933784,1.090259,37.94232087490737
1670929751.934791,1.07783,37.93641221777317
1670929751.935798,1.07432,37.93050495946878
1670929751.936805,1.067685,37.92459630233457
1670929751.937812,1.060785,37.91868764520037
1670929751.938819,1.065016,37.91278038689598
1670929751.939826,1.092639,37.906871729761775
1670929751.940833,1.116343,37.90096307262757
1670929751.94184,1.11555,37.89505581432318
1670929751.942847,1.117473,37.88914715718898
1670929751.943854,1.111703,37.88323850005477
1670929751.944861,1.10288,37.87733124175038
1670929751.945868,1.084369,37.87142258461618
1670929751.946876,1.057852,37.86550833216272
1670929751.947883,1.048404,37.85960107385833
1670929751.94889,1.051433,37.85369241672412
1670929751.949897,1.055544,37.84778375958992
1670929751.950904,1.055761,37.84187650128553
1670929751.951911,1.05992,37.83596784415133
1670929751.952918,1.059559,37.83005918701712
1670929751.953925,1.056458,37.82415192871273
1670929751.954932,1.041673,37.81824327157853
1670929751.955939,1.039798,37.812334614444325
1670929751.956946,1.043356,37.806427356139935
1670929751.957953,1.066242,37.80051869900573
1670929751.958961,1.078455,37.79460444655227
1670929751.959968,1.083359,37.7751735059609
1670929751.960975,1.090956,37.746941674612636
1670929751.961982,1.099755,37.72872509513591
1670929751.962989,1.101486,37.710502966380545
1670929751.963996,1.108097,37.68370977443968
1670929751.965003,1.116343,37.690789408343264
1670929751.96601,1.109443,37.67480737386743
1670929751.967017,1.101414,37.64640985121602
1670929751.968024,1.083215,37.655598847675805
1670929751.969031,1.065016,37.637382603481164
1670929751.970038,1.047707,37.619168524558894
1670929751.971045,1.046914,37.610413
1670929751.972053,1.054727,37.571987426561755
1670929751.97306,1.069536,37.557508555078684
1670929751.974067,1.082181,37.56436868081049
1670929751.975074,1.081268,37.56612174845017
1670929751.976081,1.070714,37.564116172627564
1670929751.977088,1.06706,37.504940337148305
1670929751.978095,1.060208,37.46284808700877
1670929751.979102,1.054655,37.45785406805622
1670929751.980109,1.064367,37.45285886652754
1670929751.981116,1.072036,37.44786366499887
1670929751.982123,1.067396,37.44286964604631
1670929751.98313,1.062516,37.43787444451764
1670929751.984138,1.05915,37.432874512684485
1670929751.985145,1.048428,37.427879311155806
1670929751.986152,1.037923,37.422885292203254
1670929751.987159,1.045231,37.417890090674575
1670929751.988166,1.059968,37.4128948891459
1670929751.989173,1.065305,37.407900870193345
1670929751.99018,1.06266,37.40290566866467
1670929751.991187,1.068262,37.39791046713599
1670929751.992194,1.074801,37.39291644818344
1670929751.993201,1.076171,37.38792124665476
1670929751.994208,1.077325,37.38292604512609
1670929751.995215,1.071868,37.37793202617353
1670929751.996222,1.066675,37.37293682464486
1670929751.99723,1.058934,37.367936892811706
1670929751.998237,1.060665,37.36294287385915
1670929751.999244,1.062132,37.357947672330475
1670929752.000251,1.071676,37.352952470801796
1670929752.001258,1.072204,37.347958451849244
1670929752.002265,1.06391,37.342963250320565
1670929752.003272,1.060184,37.33796804879189
1670929752.004279,1.061651,37.332974029839335
1670929752.005286,1.072036,37.32797882831066
1670929752.006293,1.08634,37.32298362678198
1670929752.0073,1.090812,37.31798960782943
1670929752.008307,1.086629,37.31299440630075
1670929752.009315,1.096846,37.3079944744676
1670929752.010322,1.101269,37.302999272938926
1670929752.011329,1.112304,37.29800525398637
1670929752.012336,1.125526,37.293010052457696
1670929752.013343,1.121752,37.28801485092902
1670929752.01435,1.120502,37.283020831976465
1670929752.015357,1.108794,37.278025630447786
1670929752.016364,1.089514,37.273030428919114
1670929752.017371,1.090908,37.268036409966555
1670929752.018378,1.079417,37.26304120843788
1670929752.019385,1.059295,37.258046006909204
1670929752.020392,1.039293,37.25305198795665
1670929752.021399,1.041721,37.24805678642797
1670929752.022407,1.034653,37.24305685459482
1670929752.023414,1.030566,37.23806283564227
1670929752.024421,1.039509,37.23306763411359
1670929752.025428,1.05052,37.203784740352546
1670929752.026435,1.057323,37.18527559475566
1670929752.027442,1.060905,37.20349232665713
1670929752.028449,1.066892,37.184556747971364
1670929752.029456,1.06218,37.14874400904977
1670929752.030463,1.060665,37.16866437195994
1670929752.03147,1.064752,37.174998482100236
1670929752.032477,1.056891,37.158161
1670929752.033484,1.048645,37.158161
1670929752.034492,1.054174,37.158161
1670929752.035499,1.068069,37.158161
1670929752.036506,1.086677,37.158161
1670929752.037513,1.111391,37.158161
1670929752.03852,1.124637,37.158161
1670929752.039527,1.128363,37.158161
1670929752.040534,1.129517,37.16004154887935
1670929752.041541,1.113771,37.193270300429184
1670929752.042548,1.08396,37.17266616805721
1670929752.043555,1.055376,37.12329479828326
1670929752.044562,1.057107,37.13716561945637
1670929752.045569,1.064992,37.10321133781406
1670929752.046576,1.065233,37.09540374035263
1670929752.047584,1.051097,37.087588749333
1670929752.048591,1.026984,37.07978300026112
1670929752.049598,1.026239,37.071975402799694
1670929752.050605,1.039654,37.06416780533827
1670929752.051612,1.042322,37.056362056266394
1670929752.052619,1.03749,37.048554458804965
1670929752.053626,1.03386,37.040746861343536
1670929752.054633,1.041937,37.03294111227166
1670929752.05564,1.050231,37.02513351481023
1670929752.056647,1.049438,37.017325917348806
1670929752.057654,1.056049,37.00952016827693
1670929752.058661,1.067757,37.0017125708155
1670929752.059669,1.07545,36.99389757979587
1670929752.060676,1.077998,36.98608998233444
1670929752.061683,1.086028,36.97828423326256
1670929752.06269,1.094105,36.970476635801134
1670929752.063697,1.092711,36.962669038339705
1670929752.064704,1.091629,36.954863289267834
1670929752.065711,1.08134,36.947055691806405
1670929752.066718,1.073599,36.93253812875536
1670929752.067725,1.07081,36.91808431473533
1670929752.068732,1.05742,36.963687328009534
1670929752.069739,1.046481,36.95865582927992
1670929752.070746,1.038812,36.914449128755365
1670929752.071753,1.031047,36.926369366865316
1670929752.072761,1.037514,36.8918565665236
1670929752.073768,1.044702,36.9049
1670929752.074775,1.046409,36.894295845731996
1670929752.075782,1.050592,36.86701618565319
1670929752.076789,1.061819,36.86132464714122
1670929752.077796,1.071796,36.85563176088155
1670929752.078803,1.064151,36.849938874621884
1670929752.07981,1.058405,36.84424733610991
1670929752.080817,1.058982,36.83855444985024
1670929752.081824,1.064704,36.832861563590576
1670929752.082831,1.068911,36.8271700250786
1670929752.083838,1.063285,36.821477138818935
1670929752.084846,1.057612,36.81577886156849
1670929752.085853,1.053309,36.81008597530882
1670929752.08686,1.047779,36.804394436796855
1670929752.087867,1.054366,36.79870155053719
1670929752.088874,1.068863,36.793008664277515
1670929752.089881,1.070281,36.78731712576555
1670929752.090888,1.096606,36.78162423950588
1670929752.091895,1.121151,36.763321062693684
1670929752.092902,1.131777,36.742088
1670929752.093909,1.138172,36.742088
1670929752.094916,1.127281,36.72638008438618
1670929752.095923,1.097471,36.705902
1670929752.09693,1.063862,36.72211408726753
1670929752.097938,1.029533,36.73383345517406
1670929752.098945,1.041745,36.69886906579261
1670929752.099952,1.077085,36.669724
1670929752.100959,1.091293,36.67085163914764
1670929752.101966,1.090932,36.673231459297796
1670929752.102973,1.068214,36.67561184298577
1670929752.10398,1.059391,36.67799222667373
1670929752.104987,1.073599,36.68037204682389
1670929752.105994,1.077806,36.682752430511854
1670929752.107001,1.068959,36.68513281419982
1670929752.108008,1.055641,36.68751263434998
1670929752.109015,1.045664,36.65597306461612
1670929752.110023,1.035903,36.60344608581645
1670929752.11103,1.038956,36.5811675884597
1670929752.112037,1.04951,36.69349232832618
1670929752.113044,1.085258,36.62369208390942
1670929752.114051,1.122569,36.62049914025231
1670929752.115058,1.135864,36.6260423941007
1670929752.116065,1.149639,36.63158696058319
1670929752.117072,1.134109,36.63713152706569
1670929752.118079,1.105068,36.64267478091408
1670929752.119086,1.074873,36.64821934739658
1670929752.120093,1.051481,36.65376391387907
1670929752.1211,1.042827,36.659307167727455
1670929752.122107,1.037658,36.664851734209954
1670929752.123115,1.034966,36.67040155122889
1670929752.124122,1.053285,36.67594480507728
1670929752.125129,1.055472,36.68148937155978
1670929752.126136,1.058646,36.687033938042276
1670929752.127143,1.049078,36.69257719189066
1670929752.12815,1.046986,36.698121758373155
1670929752.129157,1.051986,36.703666324855654
1670929752.130164,1.06367,36.70920957870404
1670929752.131171,1.055448,36.71475414518654
1670929752.132178,1.049126,36.72029871166903
1670929752.133185,1.067156,36.72584196551742
1670929752.134192,1.078623,36.73138653199992
1670929752.1352,1.081869,36.736936349018855
1670929752.136207,1.086244,36.74248091550135
1670929752.137214,1.094322,36.74802416934974
1670929752.138221,1.096437,36.75356873583224
1670929752.139228,1.101486,36.75911330231473
1670929752.140235,1.100668,36.76465655616312
1670929752.141242,1.086725,36.77020112264562
1670929752.142249,1.076556,36.775745689128115
1670929752.143256,1.082975,36.7812889429765
1670929752.144263,1.070522,36.786833509459
1670929752.14527,1.063069,36.79237807594149
1670929752.146277,1.057732,36.79792132978988
1670929752.147284,1.048669,36.80346589627238
1670929752.148292,1.047202,36.809015713291316
1670929752.149299,1.047106,36.8145589671397
1670929752.150306,1.049751,36.8201035336222
1670929752.151313,1.042995,36.825648100104694
1670929752.15232,1.041192,36.83119135395308
1670929752.153327,1.042058,36.83673592043558
1670929752.154334,1.052972,36.84228048691808
1670929752.155341,1.053982,36.847823740766465
1670929752.156348,1.06593,36.853368307248964
1670929752.157355,1.079489,36.858912873731455
1670929752.158362,1.087735,36.86445612757984
1670929752.159369,1.107352,36.872941955931395
1670929752.160377,1.109323,36.88244339689737
1670929752.161384,1.092471,36.868713
1670929752.162391,1.07456,36.87797756209773
1670929752.163398,1.069127,36.91441462422508
1670929752.164405,1.070161,36.9557373018598
1670929752.165412,1.07444,37.000352865315854
1670929752.166419,1.066266,37.008294854077256
1670929752.167426,1.057852,37.00060854506438
1670929752.168433,1.046866,37.014127214463954
1670929752.16944,1.042755,37.016476483180554
1670929752.170447,1.045015,37.018825751897154
1670929752.171454,1.064367,37.02117446444218
1670929752.172462,1.081244,37.02352595784506
1670929752.173469,1.085066,37.02587522656166
1670929752.174476,1.06706,37.02822393910669
1670929752.175483,1.058886,37.03057320782329
1670929752.17649,1.085138,37.03292247653988
1670929752.177497,1.113266,37.03527118908491
1670929752.178504,1.124613,37.03762045780151
1670929752.179511,1.121223,37.03996972651811
1670929752.180518,1.114516,37.04231843906313
1670929752.181525,1.117905,37.04466770777973
1670929752.182532,1.106631,37.04701697649633
1670929752.183539,1.071195,37.04936568904136
1670929752.184546,1.050977,37.05171495775795
1670929752.185554,1.071219,37.054066451160836
1670929752.186561,1.067685,37.056415719877435
1670929752.187568,1.053068,37.058764432422464
1670929752.188575,1.038548,37.06111370113906
1670929752.189582,1.046169,37.06346296985566
1670929752.190589,1.06831,37.065811682400685
1670929752.191596,1.077349,37.068160951117285
1670929752.192603,1.065617,37.07051021983388
1670929752.19361,1.056049,37.07285893237891
1670929752.194617,1.052371,37.075208201095506
1670929752.195624,1.058573,37.077557469812106
1670929752.196631,1.058766,37.07990618235713
1670929752.197639,1.053477,37.08225767576001
1670929752.198646,1.057636,37.08460694447661
1670929752.199653,1.068719,37.08695565702164
1670929752.20066,1.0726850000000001,37.08930492573823
1670929752.201667,1.075354,37.09165419445483
1670929752.202674,1.076171,37.09400290699986
1670929752.203681,1.071435,37.09635217571646
1670929752.204688,1.070305,37.098701444433054
1670929752.205695,1.066988,37.10105015697808
1670929752.206702,1.064199,37.10339942569468
1670929752.207709,1.061146,37.10574869441128
1670929752.208716,1.059824,37.108097406956304
1670929752.209723,1.065016,37.110446675672904
1670929752.210731,1.063574,37.11279816907579
1670929752.211738,1.05766,37.11514743779239
1670929752.212745,1.056025,37.117496150337416
1670929752.213752,1.057251,37.11984541905401
1670929752.214759,1.061867,37.118571640866875
1670929752.215766,1.068935,37.09302559823558
1670929752.216773,1.067997,37.15622172720764
1670929752.21778,1.070858,37.140064
1670929752.218787,1.079128,37.11923570156758
1670929752.219794,1.082037,37.09507046420048
1670929752.220801,1.078888,37.14830873128278
1670929752.221808,1.065834,37.09096565944272
1670929752.222816,1.063935,37.119259491408116
1670929752.223823,1.069392,37.10451026713997
1670929752.22483,1.077902,37.108486556931986
1670929752.225837,1.078719,37.11246378830339
1670929752.226844,1.07545,37.116441019674795
1670929752.227851,1.075113,37.1204173094668
1670929752.228858,1.071531,37.12439454083821
1670929752.229865,1.062732,37.12837177220962
1670929752.230872,1.054895,37.132348062001626
1670929752.231879,1.050664,37.136325293373034
1670929752.232886,1.04576,37.140302524744435
1670929752.233893,1.046144,37.14427881453645
1670929752.2349,1.056698,37.14825604590785
1670929752.235908,1.064175,37.15223704359685
1670929752.236915,1.059126,37.15621427496825
1670929752.237922,1.05052,37.16019056476026
1670929752.238929,1.057155,37.164167796131665
1670929752.239936,1.072998,37.16814502750307
1670929752.240943,1.099731,37.17212131729508
1670929752.24195,1.112376,37.17609854866649
1670929752.242957,1.120911,37.180075780037896
1670929752.243964,1.138388,37.1840520698299
1670929752.244971,1.165025,37.188029301201304
1670929752.245978,1.171035,37.19200653257271
1670929752.246985,1.168511,37.19598282236472
1670929752.247993,1.169689,37.19996382005372
1670929752.249,1.154712,37.20394105142512
1670929752.250007,1.123435,37.20791734121713
1670929752.251014,1.084802,37.211894572588534
1670929752.252021,1.03886,37.21587180395994
1670929752.253028,1.026359,37.21984809375195
1670929752.254035,1.026527,37.22382532512336
1670929752.255042,1.008737,37.227802556494765
1670929752.256049,1.021791,37.23177884628677
1670929752.257056,1.036552,37.23575607765818
1670929752.258063,1.041961,37.23973330902958
1670929752.25907,1.045183,37.243709598821596
1670929752.260077,1.040182,37.247686830193
1670929752.261085,1.024676,37.25166782788199
1670929752.262092,1.020469,37.255645059253396
1670929752.263099,1.020541,37.2596213490454
1670929752.264106,1.032129,37.26359858041681
1670929752.265113,1.046866,37.26757581178822
1670929752.26612,1.060328,37.27155210158023
1670929752.267127,1.075498,37.275529332951635
1670929752.268134,1.096293,37.279506564323036
1670929752.269141,1.1287,37.28348285411505
1670929752.270148,1.120117,37.30926045582281
1670929752.2711551,1.095668,37.33332961802575
1670929752.272162,1.074945,37.351555929832934
1670929752.27317,1.062612,37.34450810417163
1670929752.274177,1.047635,37.36457964125774
1670929752.275184,1.03862,37.34945777852028
1670929752.276191,1.034797,37.35208746018121
1670929752.277198,1.045544,37.29144852321981
1670929752.278205,1.058886,37.2932449150358
1670929752.279212,1.060809,37.300399646386154
1670929752.280219,1.065233,37.29702458664842
1670929752.281226,1.07456,37.29365032593051
1670929752.282233,1.076171,37.290275266192765
1670929752.28324,1.073671,37.28690020645503
1670929752.284247,1.070401,37.29838917568534
1670929752.285254,1.063261,37.300188583214116
1670929752.286262,1.063358,37.25962357129232
1670929752.287269,1.061699,37.248608
1670929752.288276,1.057059,37.248608
1670929752.289283,1.050159,37.26351395708154
1670929752.29029,1.045375,37.27720362947067
1670929752.291297,1.051361,37.25899138784267
1670929752.292304,1.06141,37.248608
1670929752.2933111,1.072084,37.24747056195185
1670929752.294318,1.068214,37.24486850297171
1670929752.295325,1.064055,37.24226582782795
1670929752.2963321,1.061458,37.23966315268419
1670929752.297339,1.071075,37.23706109370405
1670929752.298347,1.084105,37.2344559539058
1670929752.299354,1.085908,37.23185327876204
1670929752.300361,1.086172,37.2292512197819
1670929752.301368,1.08949,37.226648544638145
1670929752.302375,1.087855,37.22404586949438
1670929752.303382,1.084537,37.221443810514245
1670929752.304389,1.083792,37.21884113537048
1670929752.305396,1.08646,37.21623846022673
1670929752.306403,1.074969,37.21363640124659
1670929752.30741,1.047875,37.211033726102826
1670929752.308417,1.038812,37.208431050959064
1670929752.309424,1.040519,37.205828991978926
1670929752.310431,1.039004,37.20322631683517
1670929752.311439,1.042298,37.200621177036915
1670929752.312446,1.051794,37.19801850189315
1670929752.313453,1.057708,37.195416442913015
1670929752.31446,1.070522,37.19281376776926
1670929752.3154671,1.095067,37.190211092625496
1670929752.316474,1.102255,37.18760903364536
1670929752.317481,1.09235,37.185006358501596
1670929752.3184881,1.086845,37.18240368335784
1670929752.319495,1.084609,37.1798016243777
1670929752.320502,1.092975,37.17719894923394
1670929752.3215091,1.087037,37.17459627409018
1670929752.322516,1.078118,37.17199421511004
1670929752.323524,1.082494,37.16938907531179
1670929752.324531,1.079777,37.16678640016803
1670929752.325538,1.069608,37.16418434118789
1670929752.326545,1.054054,37.16158166604413
1670929752.327552,1.052539,37.15897899090037
1670929752.328559,1.072806,37.156376931920235
1670929752.329566,1.097159,37.15377425677647
1670929752.330573,1.112665,37.15117158163271
1670929752.33158,1.113674,37.14856952265257
1670929752.332587,1.091942,37.14596684750882
1670929752.333594,1.072806,37.143364172365054
1670929752.334601,1.080378,37.140762113384916
1670929752.335608,1.086701,37.15340158392942
1670929752.336616,1.084177,37.14467670696233
1670929752.3376231,1.079633,37.099249806912994
1670929752.33863,1.079537,37.11325373891273
1670929752.339637,1.082181,37.08040058798283
1670929752.3406441,1.083263,37.10965959213349
1670929752.341651,1.085234,37.10786696018121
1670929752.342658,1.086172,37.061172917501196
1670929752.3436651,1.100765,37.10707239022646
1670929752.344672,1.123579,37.11134110593863
1670929752.345679,1.131368,37.09796880212344
1670929752.3466861,1.123339,37.08459649830825
1670929752.347693,1.105909,37.07122736028468
1670929752.348701,1.079032,37.04082722794468
1670929752.349708,1.053982,37.07223546971865
1670929752.350715,1.043644,37.09948747794994
1670929752.351722,1.056097,37.09006617167382
1670929752.352729,1.073767,37.01604677825465
1670929752.353736,1.068791,36.98983509346007
1670929752.354743,1.056338,36.982706324466925
1670929752.35575,1.052587,36.97557755547378
1670929752.356757,1.043933,36.96845047416269
1670929752.357764,1.032177,36.96132170516954
1670929752.358771,1.042755,36.95419293617639
1670929752.359778,1.049895,36.94706585486529
1670929752.360785,1.046794,36.939937085872145
1670929752.361793,1.049775,36.932801566150786
1670929752.3628001,1.047563,36.92567279715764
1670929752.363807,1.049967,36.91854571584654
1670929752.364814,1.049654,36.91141694685339
1670929752.3658211,1.042827,36.904288177860245
1670929752.366828,1.03898,36.897161096549155
1670929752.367835,1.042154,36.89003232755601
1670929752.3688421,1.041048,36.88290355856286
1670929752.369849,1.047202,36.87577647725176
1670929752.370856,1.054342,36.868647708258614
1670929752.3718631,1.054054,36.861518939265466
1670929752.37287,1.057179,36.85439185795437
1670929752.373878,1.05766,36.84725633823301
1670929752.374885,1.059006,36.84012756923986
1670929752.375892,1.067252,36.833000487928764
1670929752.376899,1.066819,36.825871718935616
1670929752.377906,1.062997,36.81874294994247
1670929752.378913,1.063285,36.81161586863138
1670929752.37992,1.067108,36.80448709963823
1670929752.380927,1.071555,36.79735833064508
1670929752.381934,1.079008,36.790231249333985
1670929752.382941,1.084105,36.78310248034084
1670929752.383948,1.083744,36.77597371134769
1670929752.384955,1.076772,36.76884663003659
1670929752.385962,1.066699,36.761717861043444
1670929752.38697,1.063093,36.754582341322084
1670929752.3879771,1.057972,36.747453572328936
1670929752.388984,1.065016,36.74032649101784
1670929752.389991,1.067276,36.73319772202469
1670929752.3909981,1.06129,36.72606895303154
1670929752.392005,1.058237,36.71894187172045
1670929752.393012,1.065377,36.711813102727305
1670929752.3940191,1.072301,36.70468433373416
1670929752.395026,1.071676,36.69755725242306
1670929752.396033,1.066819,36.69042848342991
1670929752.39704,1.058982,36.683301402118815
1670929752.398047,1.057732,36.67617263312567
1670929752.399055,1.058501,36.65919052169767
1670929752.400062,1.06266,36.56683401954708
1670929752.401069,1.070329,36.6174615758226
1670929752.402076,1.075618,36.633545
1670929752.403083,1.077926,36.63038258741258
1670929752.40409,1.078215,36.60069725874126
1670929752.405097,1.079561,36.656205003663004
1670929752.406104,1.076796,36.59367187379287
1670929752.407111,1.075883,36.60773176856477
1670929752.408118,1.083191,36.6214173956044
1670929752.409125,1.089658,36.579269
1670929752.410132,1.093024,36.604123397139446
1670929752.411139,1.079248,36.6083093776824
1670929752.412147,1.063069,36.579269
1670929752.4131541,1.050472,36.579269
1670929752.414161,1.042154,36.57647655912215
1670929752.415168,1.058934,36.57070022696347
1670929752.4161751,1.077517,36.564923894804785
1670929752.417182,1.095404,36.55914893014898
1670929752.418189,1.103361,36.5533725979903
1670929752.419196,1.101173,36.54759763333449
1670929752.420203,1.093985,36.54182130117581
1670929752.42121,1.091389,36.53604496901713
1670929752.422217,1.082999,36.53027000436133
1670929752.423224,1.082903,36.524493672202645
1670929752.424232,1.090259,36.51871187003245
1670929752.425239,1.074753,36.512935537873766
1670929752.426246,1.059126,36.50716057321796
1670929752.427253,1.042394,36.50138424105928
1670929752.42826,1.022681,36.495607908900595
1670929752.429267,0.999314,36.48983294424479
1670929752.430274,1.008329,36.48405661208611
1670929752.431281,1.02571,36.478280279927425
1670929752.432288,1.03499,36.47250531527162
1670929752.433295,1.041817,36.46672898311294
1670929752.434302,1.040711,36.460952650954255
1670929752.435309,1.042106,36.455177686298455
1670929752.436316,1.053116,36.449401354139766
1670929752.437324,1.074705,36.443619551969576
1670929752.4383311,1.086821,36.437843219810894
1670929752.439338,1.094827,36.43206825515509
1670929752.440345,1.099827,36.426291922996406
1670929752.441352,1.093817,36.4205169583406
1670929752.442359,1.0817,36.41474062618192
1670929752.443366,1.072517,36.408964294023235
1670929752.444373,1.063021,36.40318932936743
1670929752.44538,1.050472,36.39741299720875
1670929752.446387,1.037177,36.391636665050065
1670929752.447394,1.039125,36.385861700394265
1670929752.448401,1.046385,36.380085368235584
1670929752.449409,1.040231,36.374303566065386
1670929752.450416,1.03398,36.368527233906704
1670929752.451423,1.044991,36.3627522692509
1670929752.45243,1.047395,36.356975937092216
1670929752.453437,1.049078,36.351199604933534
1670929752.454444,1.051049,36.34542464027773
1670929752.455451,1.060328,36.2878728743443
1670929752.456458,1.067877,36.300105370917755
1670929752.457465,1.068069,36.33653820886981
1670929752.458472,1.059247,36.315226949928466
1670929752.459479,1.048909,36.26422252026705
1670929752.460486,1.039702,36.32709231680572
1670929752.461493,1.038139,36.31446768240343
1670929752.462501,1.036504,36.307919
1670929752.463508,1.040182,36.29283465673421
1670929752.464515,1.063093,36.292414617431476
1670929752.465522,1.080595,36.295511200371806
1670929752.466529,1.089417,36.29860705021959
1670929752.467536,1.095091,36.301703633159924
1670929752.468543,1.088744,36.304800216100254
1670929752.46955,1.078695,36.307896065948036
1670929752.470557,1.067949,36.310992648888366
1670929752.471564,1.061506,36.3140892318287
1670929752.472571,1.056121,36.317185081676485
1670929752.473578,1.055256,36.320281664616815
1670929752.474586,1.064896,36.32338117992736
1670929752.475593,1.062829,36.32647776286769
1670929752.4766,1.059607,36.32957361271547
1670929752.477607,1.069584,36.33267019565581
1670929752.478614,1.07997,36.33576677859614
1670929752.479621,1.080739,36.33886262844392
1670929752.480628,1.083023,36.34195921138426
1670929752.481635,1.089009,36.34505579432459
1670929752.482642,1.092951,36.34815164417237
1670929752.483649,1.09937,36.3512482271127
1670929752.484656,1.094033,36.354344810053036
1670929752.485663,1.082518,36.35744065990082
1670929752.48667,1.085234,36.36053724284115
1670929752.487678,1.093168,36.36363675815169
1670929752.488685,1.088408,36.366732607999474
1670929752.489692,1.090692,36.369829190939804
1670929752.490699,1.07319,36.37292577388014
1670929752.491706,1.052708,36.37602162372792
1670929752.492713,1.053717,36.37911820666825
1670929752.49372,1.055544,36.38221478960858
1670929752.494727,1.056242,36.385310639456364
1670929752.495734,1.066435,36.3884072223967
1670929752.496741,1.085932,36.39150380533703
1670929752.497748,1.117857,36.39459965518481
1670929752.498755,1.144518,36.39769623812515
1670929752.499763,1.160145,36.40079575343569
1670929752.50077,1.182623,36.403892336376025
1670929752.501777,1.198441,36.406988186223806
1670929752.502784,1.189066,36.410084769164136
1670929752.503791,1.147427,36.41318135210447
1670929752.504798,1.095019,36.41627720195225
1670929752.505805,1.053164,36.419373784892585
1670929752.506812,1.026648,36.422470367832915
1670929752.507819,0.998063,36.4255662176807
1670929752.508826,0.993784,36.428662800621034
1670929752.509833,1.012055,36.431759383561364
1670929752.51084,1.015349,36.43634102145923
1670929752.511847,1.002607,36.45072203694875
1670929752.512855,1.000876,36.434551
1670929752.513862,1.026888,36.427990705293276
1670929752.514869,1.052539,36.38722982145411
1670929752.515876,1.05552,36.43210980448259
1670929752.516883,1.052275,36.419028274439675
1670929752.51789,1.056362,36.434551
1670929752.518897,1.064055,36.43737554112038
1670929752.519904,1.06932,36.45041153665358
1670929752.520911,1.073286,36.436623464654666
1670929752.521918,1.063622,36.42283539265575
1670929752.522925,1.05391,36.40905058487842
1670929752.523932,1.055184,36.395262512879505
1670929752.52494,1.056266,36.38146138399422
1670929752.525947,1.058886,36.39694529613734
1670929752.526954,1.054583,36.41515945398188
1670929752.527961,1.054991,36.51793849106079
1670929752.528968,1.0673,36.51754660355344
1670929752.529975,1.076604,36.50957795278305
1670929752.530982,1.080114,36.501607415048234
1670929752.531989,1.079128,36.49363687731341
1670929752.532996,1.079465,36.48566822654302
1670929752.534003,1.076267,36.477697688808206
1670929752.53501,1.079561,36.469727151073386
1670929752.536017,1.078407,36.46175850030299
1670929752.537024,1.062757,36.45378796256817
1670929752.538032,1.056049,36.44580987697565
1670929752.539039,1.059415,36.43784122620526
1670929752.540046,1.049318,36.429870688470444
1670929752.541053,1.052948,36.421900150735624
1670929752.54206,1.060833,36.41393149996523
1670929752.543067,1.054895,36.40596096223042
1670929752.544074,1.052323,36.397990424495596
1670929752.545081,1.050616,36.3900217737252
1670929752.546088,1.056818,36.38205123599039
1670929752.547095,1.063574,36.37408069825557
1670929752.548102,1.063694,36.366112047485174
1670929752.549109,1.054655,36.358141509750354
1670929752.550117,1.043861,36.350163424157834
1670929752.551124,1.040711,36.342192886423014
1670929752.552131,1.046962,36.33422423565263
1670929752.553138,1.058021,36.32625369791781
1670929752.554145,1.061146,36.318283160182986
1670929752.555152,1.061074,36.3103145094126
1670929752.556159,1.063622,36.30234397167778
1670929752.557166,1.070666,36.29437343394296
1670929752.558173,1.072445,36.28640478317257
1670929752.55918,1.06956,36.27843424543775
1670929752.560187,1.066146,36.27046370770293
1670929752.561194,1.071627,36.262495056932536
1670929752.562201,1.071387,36.25452451919772
1670929752.563209,1.062468,36.2465464336052
1670929752.564216,1.055713,36.23857778283481
1670929752.565223,1.059824,36.23060724509999
1670929752.56623,1.059367,36.22263670736517
1670929752.567237,1.062997,36.21466805659478
1670929752.568244,1.062708,36.20669751885996
1670929752.569251,1.05153,36.19872698112514
1670929752.570258,1.048501,36.190758330354754
1670929752.571265,1.052804,36.18278779261993
1670929752.572272,1.057251,36.17481725488511
1670929752.573279,1.054438,36.16684860411472
1670929752.574286,1.044173,36.158878066379906
1670929752.575294,1.030759,36.15089998078738
1670929752.576301,1.032081,36.145107
1670929752.577308,1.050207,36.1604129613826
1670929752.578315,1.060857,36.18892581545064
1670929752.579322,1.058573,36.16855590128755
1670929752.580329,1.059487,36.19225450393325
1670929752.581336,1.046241,36.22868628230806
1670929752.582343,1.039269,36.259387378159275
1670929752.58335,1.056338,36.27174
1670929752.584357,1.054415,36.27174
1670929752.585364,1.055905,36.270372208073375
1670929752.586371,1.077253,36.26629873465579
1670929752.587378,1.086004,36.26222429664587
1670929752.588386,1.095356,36.25814600026662
1670929752.589393,1.117521,36.254072526849036
1670929752.5904,1.120959,36.2601841212627
1670929752.591407,1.105356,36.26747113056125
1670929752.592414,1.081869,36.274756414715554
1670929752.593421,1.065064,36.28204342401411
1670929752.594428,1.04326,36.28933043331267
1670929752.595435,1.043476,36.30679754077253
1670929752.596442,1.067276,36.32501853373063
1670929752.597449,1.069464,36.308786261802574
1670929752.598456,1.073431,36.29057088841201
1670929752.599463,1.076267,36.32478148438617
1670929752.600471,1.071315,36.308389306151646
1670929752.601478,1.084778,36.343423384835475
1670929752.602485,1.096702,36.30835892514899
1670929752.603492,1.125526,36.32592439055794
1670929752.604499,1.165241,36.324545064469774
1670929752.605506,1.172405,36.32306813424276
1670929752.606513,1.185964,36.321590854280906
1670929752.60752,1.181661,36.32011357431905
1670929752.608527,1.152235,36.31863664409204
1670929752.609534,1.121295,36.31715936413019
1670929752.610541,1.080619,36.31568208416834
1670929752.611548,1.048164,36.31420515394132
1670929752.612555,1.047996,36.31272787397947
1670929752.613563,1.033788,36.31124919507826
1670929752.61457,1.013065,36.30977226485125
1670929752.615577,1.010781,36.30829498488939
1670929752.616584,1.015613,36.30681770492754
1670929752.617591,1.028162,36.305340774700525
1670929752.618598,1.045832,36.30386349473867
1670929752.619605,1.050688,36.30238621477682
1670929752.620612,1.03749,36.3009092845498
1670929752.621619,1.040711,36.299432004587956
1670929752.622626,1.051001,36.2979547246261
1670929752.623633,1.053525,36.29647779439909
1670929752.62464,1.048669,36.295000514437234
1670929752.625648,1.049005,36.293521835536026
1670929752.626655,1.049991,36.29204455557417
1670929752.627662,1.042154,36.29056762534716
1670929752.628669,1.035543,36.289090345385304
1670929752.629676,1.034293,36.28761306542345
1670929752.630683,1.0366,36.286136135196436
1670929752.63169,1.042562,36.28465885523458
1670929752.632697,1.050159,36.283181575272735
1670929752.633704,1.062107,36.28170464504572
1670929752.634711,1.07444,36.28022736508387
1670929752.635718,1.075258,36.27875008512201
1670929752.636725,1.078816,36.277273154895
1670929752.637732,1.080883,36.275795874933145
1670929752.63874,1.081316,36.27431719603194
1670929752.639747,1.081003,36.27284026580492
1670929752.640754,1.077085,36.27638948545541
1670929752.641761,1.077157,36.30894233015494
1670929752.642768,1.06694,36.36709364329995
1670929752.643775,1.055833,36.390341348593225
1670929752.644782,1.046673,36.40614731966627
1670929752.645789,1.040952,36.380283
1670929752.646796,1.039822,36.36946582975679
1670929752.647803,1.048188,36.344105
1670929752.64881,1.056121,36.33278501144492
1670929752.649817,1.053549,36.30761470829172
1670929752.650825,1.055232,36.3066560306892
1670929752.651832,1.054463,36.305698260066436
1670929752.652839,1.06016,36.304740716188604
1670929752.653846,1.066555,36.303782945565835
1670929752.654853,1.060929,36.30282517494307
1670929752.65586,1.067108,36.30186763106524
1670929752.656867,1.077758,36.300909860442474
1670929752.657874,1.069175,36.299952089819705
1670929752.658881,1.05403,36.29899454594188
1670929752.659888,1.067541,36.29803677531911
1670929752.660895,1.079417,36.29707900469634
1670929752.661902,1.080234,36.29612146081852
1670929752.662909,1.063574,36.29516369019575
1670929752.663917,1.064247,36.294205012593224
1670929752.664924,1.073647,36.2932474687154
1670929752.665931,1.076315,36.29228969809263
1670929752.666938,1.075738,36.29133192746986
1670929752.667945,1.070594,36.29037438359203
1670929752.668952,1.058237,36.28941661296927
1670929752.669959,1.055977,36.2884588423465
1670929752.670966,1.063622,36.28750129846867
1670929752.671973,1.068671,36.28654352784591
1670929752.67298,1.075402,36.28558575722314
1670929752.673987,1.079753,36.28462821334531
1670929752.674994,1.078239,36.28367044272254
1670929752.676002,1.083528,36.28271176512002
1670929752.677009,1.084008,36.28175399449725
1670929752.678016,1.090475,36.28079645061942
1670929752.679023,1.098072,36.27983867999666
1670929752.68003,1.105597,36.27888090937389
1670929752.681037,1.102976,36.27792336549606
1670929752.682044,1.093793,36.276965594873296
1670929752.683051,1.073839,36.27600782425053
1670929752.684058,1.067517,36.275050280372696
1670929752.685065,1.078503,36.27409250974993
1670929752.686072,1.083552,36.273134739127165
1670929752.687079,1.08473,36.272177195249334
1670929752.688087,1.079897,36.27121851764681
1670929752.689094,1.085739,36.27026074702405
1670929752.690101,1.09235,36.269303203146215
1670929752.691108,1.077253,36.268345432523446
1670929752.692115,1.06343,36.26738766190068
1670929752.693122,1.057756,36.26643011802285
1670929752.694129,1.041481,36.265472347400085
1670929752.695136,1.039461,36.264514576777316
1670929752.696143,1.050352,36.26355703289949
1670929752.69715,1.061242,36.26259926227672
1670929752.698157,1.068142,36.261641491653954
1670929752.699164,1.076652,36.26068394777613
1670929752.700171,1.083936,36.25972617715336
1670929752.701179,1.079296,36.258767499550835
1670929752.702186,1.101125,36.257809728928066
1670929752.703193,1.118218,36.25685218505024
1670929752.7042,1.113266,36.25589441442747
1670929752.705207,1.125214,36.254936643804704
1670929752.706214,1.134421,36.25397909992688
1670929752.707221,1.1357680000000001,36.253651
1670929752.708228,1.128099,36.27785592799237
1670929752.709235,1.097519,36.277601457081545
1670929752.710242,1.075306,36.24702544706724
1670929752.711249,1.05677,36.27301174135876
1670929752.712256,1.031071,36.25200702479733
1670929752.713264,1.027128,36.24831544206008
1670929752.714271,1.038211,36.24077023003576
1670929752.715278,1.041601,36.27457340343347
1670929752.716285,1.050039,36.29131061608391
1670929752.717292,1.046746,36.29336590223776
1670929752.718299,1.039798,36.29542070181818
1670929752.719306,1.039004,36.29747598797203
1670929752.720313,1.041264,36.29953127412587
1670929752.72132,1.038716,36.30158607370629
1670929752.722327,1.041168,36.30364135986014
1670929752.723334,1.043404,36.305696646013985
1670929752.724341,1.041937,36.307751445594405
1670929752.725348,1.042659,36.309806731748246
1670929752.726356,1.056939,36.3118639641958
1670929752.727363,1.059487,36.31391925034965
1670929752.72837,1.061747,36.31597404993007
1670929752.729377,1.073551,36.31802933608392
1670929752.730384,1.091797,36.32008462223776
1670929752.731391,1.09925,36.32213942181818
1670929752.732398,1.109515,36.324194707972026
1670929752.733405,1.105789,36.326249994125874
1670929752.734412,1.086052,36.328304793706295
1670929752.735419,1.080859,36.330360079860135
1670929752.736426,1.081821,36.33241536601398
1670929752.737433,1.080162,36.334470165594404
1670929752.738441,1.068262,36.33652739804196
1670929752.739448,1.055184,36.3385826841958
1670929752.740455,1.060377,36.34063748377622
1670929752.741462,1.073551,36.34269276993007
1670929752.742469,1.074993,36.344748056083915
1670929752.743476,1.076099,36.346802855664336
1670929752.744483,1.075955,36.34885814181818
1670929752.74549,1.068262,36.350913427972024
1670929752.746497,1.063502,36.352968227552445
1670929752.747504,1.064367,36.35502351370629
1670929752.748511,1.067877,36.35707879986014
1670929752.749518,1.071315,36.35913359944056
1670929752.750525,1.066194,36.3611888855944
1670929752.751533,1.070522,36.36324611804196
1670929752.75254,1.072108,36.365301404195804
1670929752.753547,1.075763,36.367356203776225
1670929752.754554,1.074488,36.369411489930066
1670929752.755561,1.07908,36.37146677608391
1670929752.756568,1.080018,36.373521575664334
1670929752.757575,1.071411,36.37557686181818
1670929752.758582,1.067589,36.37763214797203
1670929752.759589,1.073118,36.37968694755244
1670929752.760596,1.082999,36.380283
1670929752.761603,1.090547,36.40640604910608
1670929752.76261,1.077998,36.429647043633764
1670929752.763618,1.069512,36.4078621699284
1670929752.764625,1.06956,36.398373
1670929752.765632,1.069656,36.45271068772348
1670929752.766639,1.070209,36.402173989508825
1670929752.767646,1.076123,36.4079650245589
1670929752.768653,1.080186,36.45835531346842
1670929752.76966,1.075282,36.466182679685694
1670929752.770667,1.080619,36.46029426554195
1670929752.771674,1.098914,36.45440724543564
1670929752.772681,1.116631,36.49090785145446
1670929752.773688,1.130863,36.4940359420739
1670929752.774695,1.128964,36.46281345922747
1670929752.775702,1.134061,36.42637370028613
1670929752.77671,1.140504,36.4828524328963
1670929752.777717,1.136633,36.48013078513578
1670929752.778724,1.112545,36.484263484486874
1670929752.779731,1.069752,36.488827
1670929752.780738,1.058718,36.47504065196663
1670929752.781745,1.070233,36.48464740772532
1670929752.782752,1.061891,36.5309417639485
1670929752.783759,1.049222,36.5406116006628
1670929752.784766,1.046313,36.53742423280861
1670929752.785773,1.041937,36.534236110190555
1670929752.7867801,1.041913,36.53104798757249
1670929752.787787,1.049246,36.52786061971831
1670929752.788795,1.048524,36.524669478044736
1670929752.789802,1.050111,36.52148135542667
1670929752.790809,1.049751,36.51829398757249
1670929752.791816,1.058141,36.51510586495443
1670929752.792823,1.063309,36.51191774233637
1670929752.79383,1.065473,36.508730374482184
1670929752.794837,1.070161,36.50554225186413
1670929752.795844,1.070978,36.502354129246065
1670929752.796851,1.069296,36.499166761391876
1670929752.797858,1.071483,36.49597863877382
1670929752.798865,1.0717,36.49279051615576
1670929752.799872,1.059968,36.489603148301576
1670929752.800879,1.059655,36.48641502568351
1670929752.801887,1.076363,36.483223884009945
1670929752.802894,1.089586,36.48003576139188
1670929752.803901,1.091701,36.47684839353769
1670929752.804908,1.089057,36.47366027091964
1670929752.805915,1.093552,36.470472148301575
1670929752.806922,1.087614,36.46728478044739
1670929752.807929,1.072517,36.46409665782933
1670929752.8089361,1.072108,36.46090853521127
1670929752.809943,1.065137,36.457721167357086
1670929752.81095,1.051025,36.45453304473902
1670929752.8119571,1.055184,36.45134492212096
1670929752.812964,1.077734,36.44815755426678
1670929752.813972,1.082326,36.44496641259321
1670929752.814979,1.076147,36.44177828997515
1670929752.815986,1.075642,36.438590922120966
1670929752.816993,1.078094,36.4354027995029
1670929752.818,1.083455,36.43221467688484
1670929752.819007,1.088264,36.42902730903066
1670929752.820014,1.081965,36.425839186412595
1670929752.821021,1.078431,36.42265106379453
1670929752.822028,1.082951,36.41946369594035
1670929752.823035,1.088504,36.41752631229157
1670929752.824042,1.094923,36.432193817661094
1670929752.825049,1.096798,36.398373
1670929752.826056,1.092783,36.396924075089395
1670929752.827064,1.081364,36.380283
1670929752.828071,1.070353,36.380283
1670929752.829078,1.077325,36.38397420667461
1670929752.830085,1.084585,36.41251974845017
1670929752.8310921,1.084657,36.3739814940391
1670929752.832099,1.084898,36.32654165824784
1670929752.833106,1.077277,36.33085290716044
1670929752.8341131,1.072036,36.33516415607304
1670929752.83512,1.065858,36.33947438433012
1670929752.836127,1.061338,36.34378563324272
1670929752.8371341,1.06956,36.34809688215531
1670929752.838141,1.075618,36.35240711041239
1670929752.839149,1.077614,36.35672244194706
1670929752.840156,1.077061,36.361033690859664
1670929752.841163,1.077758,36.36534391911674
1670929752.84217,1.080042,36.36965516802934
1670929752.843177,1.081244,36.37396641694193
1670929752.844184,1.080306,36.378276645199016
1670929752.845191,1.081941,36.38258789411161
1670929752.846198,1.078215,36.38689914302421
1670929752.847205,1.064199,36.391209371281285
1670929752.848212,1.059319,36.395520620193885
1670929752.849219,1.054823,36.399831869106485
1670929752.850226,1.055809,36.40414209736356
1670929752.851233,1.060905,36.40845334627616
1670929752.852241,1.067709,36.41276867781083
1670929752.8532481,1.070594,36.41707992672343
1670929752.854255,1.067132,36.42139015498051
1670929752.855262,1.073358,36.42570140389311
1670929752.8562691,1.075041,36.4300126528057
1670929752.857276,1.069945,36.43432288106278
1670929752.858283,1.061434,36.43863412997538
1670929752.8592901,1.070882,36.44294537888798
1670929752.860297,1.085066,36.44725560714505
1670929752.861304,1.075041,36.45156685605765
1670929752.8623111,1.070233,36.45587810497025
1670929752.863318,1.086701,36.46018833322733
1670929752.864326,1.085619,36.464503664762
1670929752.865333,1.085619,36.4688149136746
1670929752.86634,1.095283,36.473125141931675
1670929752.867347,1.110645,36.477436390844275
1670929752.868354,1.118026,36.481747639756875
1670929752.869361,1.119204,36.48605786801395
1670929752.870368,1.135984,36.49036911692655
1670929752.871375,1.134782,36.494680365839145
1670929752.872382,1.109179,36.49899059409623
1670929752.873389,1.110429,36.50330184300882
1670929752.874396,1.123194,36.50761309192142
1670929752.875403,1.111078,36.5119233201785
1670929752.87641,1.085811,36.5162345690911
1670929752.877418,1.070113,36.52054990062577
1670929752.8784251,1.065377,36.52486114953837
1670929752.879432,1.066579,36.48976717048164
1670929752.880439,1.067661,36.488827
1670929752.8814461,1.048621,36.50670034668574
1670929752.882453,1.042875,36.48890039212411
1670929752.88346,1.036552,36.4889046102503
1670929752.8844671,1.039101,36.52532979303767
1670929752.885474,1.043356,36.56089102455889
1670929752.886481,1.040158,36.54350926769964
1670929752.8874881,1.035615,36.56122731348724
1670929752.888495,1.040399,36.5628130663174
1670929752.889503,1.042226,36.5644006966669
1670929752.89051,1.043716,36.565986825000934
1670929752.891517,1.048164,36.5675725778311
1670929752.892524,1.048092,36.56915870616513
1670929752.893531,1.058093,36.570744834499166
1670929752.894538,1.075089,36.572330587329326
1670929752.895545,1.07908,36.57391671566336
1670929752.896552,1.08348,36.57550284399739
1670929752.897559,1.087158,36.57708859682756
1670929752.898566,1.07896,36.57867472516159
1670929752.899573,1.082326,36.58026085349562
1670929752.90058,1.078768,36.58184660632579
1670929752.901587,1.071796,36.58343273465982
1670929752.902595,1.064896,36.58502036500932
1670929752.9036021,1.062492,36.58660649334335
1670929752.904609,1.066555,36.58819224617352
1670929752.905616,1.071748,36.58977837450755
1670929752.9066231,1.066699,36.59136450284158
1670929752.90763,1.061314,36.592950255671745
1670929752.908637,1.063021,36.59453638400578
1670929752.9096441,1.061458,36.59612251233981
1670929752.910651,1.060617,36.59770826516998
1670929752.911658,1.063382,36.59929439350401
1670929752.912665,1.0648,36.60088014633418
1670929752.913672,1.093889,36.60246627466821
1670929752.91468,1.128123,36.60405390501771
1670929752.915687,1.142066,36.60564003335174
1670929752.916694,1.143485,36.60722578618191
1670929752.917701,1.141826,36.60881191451593
1670929752.918708,1.130984,36.610398042849965
1670929752.919715,1.103914,36.61198379568013
1670929752.920722,1.073599,36.613569924014165
1670929752.921729,1.065714,36.6151560523482
1670929752.922736,1.080811,36.616741805178364
1670929752.923743,1.075258,36.6183279335124
1670929752.92475,1.056843,36.61991406184643
1670929752.925757,1.043741,36.62149981467659
1670929752.926764,1.04326,36.62308594301062
1670929752.927772,1.050111,36.62467357336013
1670929752.9287791,1.054006,36.62625970169416
1670929752.929786,1.051001,36.62784545452432
1670929752.930793,1.048549,36.62943158285835
1670929752.9318001,1.050087,36.631017711192385
1670929752.932807,1.054102,36.63260346402255
1670929752.933814,1.052371,36.634189592356584
1670929752.934821,1.05504,36.63577534518675
1670929752.935828,1.063838,36.637361473520784
1670929752.936835,1.053717,36.63894760185481
1670929752.937842,1.052924,36.640533354684976
1670929752.938849,1.064127,36.64211948301901
1670929752.939857,1.07408,36.64370711336851
1670929752.940864,1.078551,36.64529324170254
1670929752.941871,1.083455,36.646878994532706
1670929752.942878,1.097639,36.64846512286674
1670929752.943885,1.097567,36.65005125120077
1670929752.944892,1.09812,36.65170301096805
1670929752.945899,1.108169,36.687813
1670929752.946906,1.119132,36.68810197544111
1670929752.947913,1.113626,36.71321757203033
1670929752.94892,1.088817,36.71742383487784
1670929752.949927,1.065786,36.727299233361414
1670929752.950934,1.059463,36.65480846065808
1670929752.951941,1.071459,36.723991
1670929752.952949,1.080691,36.72613030297973
1670929752.9539561,1.086677,36.76073203791924
1670929752.954963,1.07997,36.76917861601643
1670929752.95597,1.06468,36.77762719425051
1670929752.956977,1.065954,36.78607377234771
1670929752.957984,1.061891,36.794522350581794
1670929752.958991,1.057203,36.80297092881588
1670929752.959998,1.058429,36.811417506913074
1670929752.961005,1.059078,36.81986608514716
1670929752.962012,1.068791,36.82831466338125
1670929752.963019,1.079272,36.83676124147844
1670929752.964026,1.081196,36.84520981971253
1670929752.965034,1.094274,36.853666398494184
1670929752.966041,1.116487,36.86211497672827
1670929752.967048,1.124853,36.870561554825464
1670929752.968055,1.124493,36.87901013305955
1670929752.969062,1.114275,36.88745871129364
1670929752.970069,1.093528,36.89590528939083
1670929752.971076,1.08146,36.90435386762492
1670929752.972083,1.07997,36.912802445859
1670929752.97309,1.061627,36.9212490239562
1670929752.974097,1.063261,36.92969760219028
1670929752.975104,1.059583,36.93814618042437
1670929752.976111,1.057083,36.94659275852156
1670929752.977118,1.070522,36.95504133675565
1670929752.978126,1.072829,36.9634979155373
1670929752.979133,1.07182,36.9719444936345
1670929752.98014,1.068839,36.98039307186858
1670929752.981147,1.066964,36.98884165010267
1670929752.982154,1.072301,36.997288228199864
1670929752.983161,1.070305,37.00573680643395
1670929752.984168,1.067901,37.01418538466804
1670929752.985175,1.071123,37.02263196276523
1670929752.986182,1.062732,37.03108054099932
1670929752.987189,1.058357,37.03952911923341
1670929752.988196,1.064343,37.0479756973306
1670929752.989203,1.058573,37.05642427556469
1670929752.990211,1.056818,37.06488085434634
1670929752.991218,1.049654,37.07332943258043
1670929752.992225,1.047539,37.08177601067762
1670929752.993232,1.056722,37.09022458891171
1670929752.994239,1.058213,37.09867316714579
1670929752.995246,1.062204,37.10711974524299
1670929752.996253,1.063021,37.11556832347707
1670929752.99726,1.063526,37.12401690171116
1670929752.998267,1.068719,37.13246347980835
1670929752.999274,1.083095,37.13640739165674
1670929753.000281,1.091774,37.0999782539342
1670929753.001288,1.091942,37.07394380877444
1670929753.002295,1.082927,37.1131438238379
1670929753.003303,1.074633,37.0566699933238
1670929753.00431,1.067685,37.103886
1670929753.005317,1.064103,37.106491092036244
1670929753.006324,1.066675,37.121975
1670929753.007331,1.064127,37.12768676251788
1670929753.008338,1.05754,37.15881430475303
1670929753.009345,1.056963,37.16280210717614
1670929753.010352,1.066531,37.16678896551724
1670929753.011359,1.07997,37.17077676794035
1670929753.012366,1.081893,37.174764570363465
1670929753.013373,1.084345,37.178751428704565
1670929753.01438,1.092182,37.18273923112768
1670929753.015388,1.090956,37.186730809878846
1670929753.016395,1.08396,37.19071861230196
1670929753.017402,1.080018,37.19470547064306
1670929753.018409,1.074825,37.19869327306617
1670929753.019416,1.074801,37.20268107548928
1670929753.020423,1.083047,37.20666793383038
1670929753.02143,1.080595,37.21065573625349
1670929753.022437,1.067901,37.214643538676604
1670929753.023444,1.068382,37.218630397017705
1670929753.024451,1.07783,37.22261819944082
1670929753.025458,1.091509,37.22660600186393
1670929753.026465,1.087542,37.23059286020503
1670929753.027472,1.08348,37.23458066262814
1670929753.02848,1.078792,37.23857224137931
1670929753.029487,1.071868,37.24255909972041
1670929753.030494,1.069392,37.24654690214352
1670929753.031501,1.07533,37.25053470456663
1670929753.032508,1.07545,37.25452156290773
1670929753.033515,1.074176,37.258509365330845
1670929753.034522,1.083768,37.262497167753956
1670929753.035529,1.089177,37.26648402609506
1670929753.036536,1.091797,37.27047182851817
1670929753.037543,1.107424,37.27445963094128
1670929753.03855,1.131176,37.27844648928238
1670929753.039557,1.146105,37.28243429170549
1670929753.040565,1.151658,37.322239777830745
1670929753.041572,1.153101,37.367623124940394
1670929753.042579,1.139446,37.39586290987125
1670929753.043586,1.138484,37.42398911084624
1670929753.044593,1.125791,37.4173188111588
1670929753.0456,1.115958,37.447601
1670929753.046607,1.109083,37.447601
1670929753.047614,1.118579,37.45597743776824
1670929753.048621,1.102183,37.482693107296136
1670929753.049628,1.055953,37.50428553124225
1670929753.050635,1.044438,37.509386694644185
1670929753.051642,1.043332,37.51448665038433
1670929753.052649,1.034797,37.51958781378626
1670929753.053657,1.035615,37.524693807835355
1670929753.054664,1.040062,37.5297937635755
1670929753.055671,1.039605,37.53489492697744
1670929753.056678,1.051193,37.53999609037937
1670929753.057685,1.05653,37.54509604611951
1670929753.058692,1.053188,37.55019720952145
1670929753.059699,1.055015,37.55529837292338
1670929753.060706,1.056338,37.560398328663524
1670929753.061713,1.062228,37.565499492065456
1670929753.06272,1.068983,37.570600655467395
1670929753.063727,1.082614,37.57570061120754
1670929753.064734,1.112256,37.58080177460947
1670929753.065742,1.136657,37.585907768658565
1670929753.066749,1.140047,37.5910089320605
1670929753.067756,1.146273,37.59610888780064
1670929753.068763,1.142571,37.60121005120258
1670929753.06977,1.119709,37.60631121460451
1670929753.070777,1.08247,37.61141117034465
1670929753.071784,1.040784,37.61651233374659
1670929753.072791,1.038019,37.62161349714852
1670929753.073798,1.053044,37.626713452888666
1670929753.074805,1.049029,37.652163481640436
1670929753.075812,1.039077,37.66468
1670929753.076819,1.041024,37.68884532967819
1670929753.077826,1.050808,37.67643774368145
1670929753.078834,1.052852,37.67703761802575
1670929753.079841,1.054679,37.68277
1670929753.080848,1.064656,37.65755511754888
1670929753.081855,1.064512,37.63385451525989
1670929753.082862,1.059944,37.628502
1670929753.083869,1.058117,37.632446614192084
1670929753.084876,1.06141,37.63798034064422
1670929753.085883,1.056338,37.64351275702854
1670929753.08689,1.044918,37.64904648348067
1670929753.087897,1.05552,37.6545802099328
1670929753.088904,1.063886,37.66011262631712
1670929753.089911,1.05879,37.66564635276926
1670929753.090919,1.059848,37.67118531949265
1670929753.091926,1.064872,37.676719045944786
1670929753.092933,1.070522,37.6822514623291
1670929753.09394,1.076195,37.687785188781234
1670929753.094947,1.0874220000000001,37.69331891523337
1670929753.095954,1.091076,37.69885133161769
1670929753.096961,1.087374,37.70438505806982
1670929753.097968,1.088288,37.70991878452195
1670929753.098975,1.083503,37.71545120090627
1670929753.099982,1.087326,37.72098492735841
1670929753.100989,1.093937,37.72651865381054
1670929753.101996,1.092374,37.732051070194856
1670929753.103003,1.088312,37.73758479664699
1670929753.104011,1.078671,37.743123763370384
1670929753.105018,1.072084,37.748656179754704
1670929753.106025,1.071892,37.75418990620684
1670929753.107032,1.070281,37.75972363265897
1670929753.108039,1.072565,37.76525604904329
1670929753.109046,1.074464,37.77078977549542
1670929753.110053,1.074777,37.77632350194756
1670929753.11106,1.073118,37.78185591833188
1670929753.112067,1.072325,37.78738964478401
1670929753.113074,1.067348,37.79292337123614
1670929753.114081,1.059078,37.79845578762046
1670929753.115088,1.055905,37.80398951407259
1670929753.116096,1.066795,37.80952848079599
1670929753.117103,1.055905,37.815062207248126
1670929753.11811,1.102448,37.82059462363244
1670929753.119117,1.123242,37.82612835008457
1670929753.120124,1.136056,37.83166207653671
1670929753.121131,1.135816,37.83719449292103
1670929753.122138,1.134662,37.84272821937316
1670929753.123145,1.118771,37.84826194582529
1670929753.124152,1.077445,37.85379436220961
1670929753.125159,1.057516,37.85932808866175
1670929753.126166,1.060929,37.864861815113876
1670929753.127173,1.053044,37.870394231498196
1670929753.12818,1.047467,37.87592795795033
1670929753.129188,1.055689,37.881466924673724
1670929753.130195,1.060978,37.93346960214541
1670929753.131202,1.059054,37.88393682546495
1670929753.132209,1.067444,37.93424535765379
1670929753.133216,1.073767,37.98888860133524
1670929753.134223,1.078743,37.97255496305125
1670929753.13523,1.087086,37.95433665331426
1670929753.136237,1.108337,37.97211942560801
1670929753.137244,1.129854,37.97221
1670929753.138251,1.137811,37.97217553439631
1670929753.139258,1.136825,37.968345317438825
1670929753.140265,1.128339,37.96451419349177
1670929753.141273,1.113626,37.96067944158644
1670929753.14228,1.096365,37.95684831763939
1670929753.143287,1.0915570000000001,37.96461037720553
1670929753.144294,1.082301,37.987934466723885
1670929753.145301,1.073839,37.97991858505591
1670929753.146308,1.073382,37.97190460108719
1670929753.147315,1.072709,37.96388871941921
1670929753.148322,1.06355,37.95587283775124
1670929753.149329,1.0554,37.94785885378251
1670929753.150336,1.047443,37.93984297211453
1670929753.151343,1.044366,37.93182709044656
1670929753.15235,1.043019,37.92381310647784
1670929753.153357,1.043957,37.915797224809864
1670929753.154365,1.049582,37.90777375234485
1670929753.155372,1.058501,37.89975976837613
1670929753.156379,1.060497,37.89174388670815
1670929753.157386,1.060136,37.883728005040176
1670929753.158393,1.069872,37.87571402107145
1670929753.1594,1.071676,37.86769813940348
1670929753.160407,1.073118,37.8596822577355
1670929753.161414,1.071748,37.851668273766776
1670929753.162421,1.072036,37.843652392098804
1670929753.163428,1.077854,37.835636510430824
1670929753.164435,1.073863,37.8276225264621
1670929753.165442,1.070305,37.81960664479413
1670929753.16645,1.074753,37.811583172329115
1670929753.167457,1.072902,37.803567290661135
1670929753.168464,1.070642,37.79555330669242
1670929753.169471,1.080282,37.78753742502444
1670929753.170478,1.088215,37.77952154335646
1670929753.171485,1.092447,37.77150755938774
1670929753.172492,1.084706,37.76349167771976
1670929753.173499,1.071147,37.75547579605178
1670929753.174506,1.069223,37.74746181208307
1670929753.175513,1.079176,37.73944593041509
1670929753.17652,1.081364,37.73143004874711
1670929753.177527,1.079104,37.72341606477839
1670929753.178534,1.0791519999999999,37.71540018311041
1670929753.179542,1.081845,37.7073767106454
1670929753.180549,1.081941,37.69936272667668
1670929753.181556,1.077493,37.6913468450087
1670929753.182563,1.072036,37.68333096334072
1670929753.18357,1.070353,37.675316979372006
1670929753.184577,1.070233,37.667301097704026
1670929753.185584,1.072998,37.65928521603605
1670929753.186591,1.078287,37.65127123206733
1670929753.187598,1.083095,37.64325535039935
1670929753.188605,1.084056,37.63523946873137
1670929753.189612,1.081725,37.627225484762654
1670929753.190619,1.073238,37.619209603094674
1670929753.191627,1.072445,37.61118613062966
1670929753.192634,1.070762,37.60317024896169
1670929753.193641,1.070065,37.595156264992966
1670929753.194648,1.073358,37.56876543957092
1670929753.195655,1.076916,37.556137
1670929753.196662,1.075258,37.56816614186934
1670929753.197669,1.073022,37.574226
1670929753.198676,1.088288,37.62336656270863
1670929753.199683,1.093673,37.621773616595135
1670929753.20069,1.100717,37.635483189749706
1670929753.201697,1.105477,37.65925416261326
1670929753.202704,1.093673,37.65189175846447
1670929753.203712,1.071243,37.646045839604064
1670929753.204719,1.066867,37.64527799781931
1670929753.205726,1.072445,37.6445103378153
1670929753.206733,1.106126,37.64374249603055
1670929753.20774,1.148149,37.642974654245805
1670929753.208747,1.190412,37.64220699424178
1670929753.209754,1.224694,37.64143915245704
1670929753.210761,1.234238,37.640671310672296
1670929753.211768,1.224694,37.63990365066827
1670929753.212775,1.186397,37.63913580888353
1670929753.213782,1.09925,37.63836796709878
1670929753.214789,1.036096,37.637600307094765
1670929753.215796,1.035495,37.636832465310015
1670929753.216804,1.06932,37.63606389640237
1670929753.217811,1.0792,37.635296054617626
1670929753.218818,1.071219,37.634528394613604
1670929753.219825,1.064367,37.63376055282886
1670929753.220832,1.053982,37.63299271104412
1670929753.221839,1.038067,37.632225051040095
1670929753.222846,1.033211,37.63145720925535
1670929753.223853,1.043741,37.6306893674706
1670929753.22486,1.042995,37.629921707466586
1670929753.225867,1.0341,37.629153865681836
1670929753.226874,1.035206,37.63400547257987
1670929753.227881,1.045592,37.65317532324195
1670929753.228889,1.046842,37.592323
1670929753.229896,1.051121,37.58602453075822
1670929753.230903,1.054847,37.552864163051254
1670929753.23191,1.067108,37.538048
1670929753.232917,1.078912,37.5415621875895
1670929753.233924,1.089129,37.54883046375775
1670929753.234931,1.089153,37.51240188997381
1670929753.235938,1.082181,37.48248301766448
1670929753.236945,1.07557,37.476410782184516
1670929753.237952,1.07319,37.470337108808394
1670929753.238959,1.071435,37.46426343543227
1670929753.239966,1.066387,37.45819119995231
1670929753.240973,1.057179,37.452117526576195
1670929753.241981,1.058309,37.446038101615436
1670929753.242988,1.072565,37.439964428239314
1670929753.243995,1.088071,37.43389219275935
1670929753.245002,1.093384,37.42781851938323
1670929753.246009,1.082854,37.421744846007115
1670929753.247016,1.067829,37.41567261052715
1670929753.248023,1.070546,37.411415
1670929753.24903,1.068646,37.411415
1670929753.250037,1.065617,37.411415
1670929753.251044,1.061915,37.40558943647199
1670929753.252051,1.063213,37.38738062601239
1670929753.253058,1.068622,37.369174356801906
1670929753.254066,1.077998,37.357151
1670929753.255073,1.078599,37.357151
1670929753.25608,1.090115,37.34422499451074
1670929753.257087,1.097519,37.322950428010145
1670929753.258094,1.094177,37.32840887341501
1670929753.259101,1.084249,37.33386602657428
1670929753.260108,1.071459,37.33932447197914
1670929753.261115,1.069103,37.34478291738401
1670929753.262122,1.082494,37.35024007054327
1670929753.263129,1.092591,37.35569851594814
1670929753.264136,1.087278,37.370534269689735
1670929753.265143,1.077926,37.29417558545888
1670929753.26615,1.069872,37.280321920914716
1670929753.267158,1.069488,37.284786
1670929753.268165,1.067709,37.267615779792216
1670929753.269172,1.065185,37.245139078013715
