measure_time,emg_ch_1,grip_force_inter
1670930494.078123,-12.922084,-0.903466
1670930494.0791302,-12.918839,-0.9041946835562549
1670930494.0801373,-12.915064,-0.9049233671125099
1670930494.081144,-12.923286,-0.9056518781584532
1670930494.0821512,-12.932446,-0.906380561714708
1670930494.0831583,-12.94021,-0.9071092452709629
1670930494.084165,-12.946677,-0.9078377563169062
1670930494.0851722,-12.953794,-0.9085664398731612
1670930494.0861802,-12.958217,-0.9092958134706626
1670930494.0871873,-12.956991,-0.9100244970269175
1670930494.0881941,-12.953841,-0.9107530080728607
1670930494.0892012,-12.950885,-0.9114816916291157
1670930494.0902083,-12.941917,-0.9122103751853706
1670930494.0912151,-12.934586,-0.9129388862313139
1670930494.0922222,-12.921964,-0.9136675697875688
1670930494.0932293,-12.905832,-0.9143962533438238
1670930494.0942361,-12.908092,-0.9151247643897671
1670930494.0952432,-12.921267,-0.915853447946022
1670930494.0962503,-12.918358,-0.9165821315022769
1670930494.0972571,-12.909776,-0.9173106425482203
1670930494.0982652,-12.913502,-0.9180400161457216
1670930494.0992723,-12.922685,-0.9187686997019765
1670930494.100279,-12.930354,-0.9194972107479198
1670930494.1012862,-12.930185,-0.9202258943041747
1670930494.1022933,-12.935018,-0.9209545778604297
1670930494.1033,-12.949658,-0.921683088906373
1670930494.1043072,-12.942134,-0.9224117724626278
1670930494.1053143,-12.936941,-0.9231404560188828
1670930494.106321,-12.940667,-0.9238689670648261
1670930494.1073282,-12.944682,-0.924597650621081
1670930494.1083353,-12.947038,-0.9253263341773359
1670930494.109342,-12.941317,-0.9260548452232792
1670930494.1103492,-12.924488,-0.9267835287795342
1670930494.1113572,-12.922276,-0.9275129023770355
1670930494.1123643,-12.924656,-0.9282415859332904
1670930494.1133711,-12.925258,-0.9289700969792337
1670930494.1143782,-12.923238,-0.9296987805354887
1670930494.1153853,-12.91968,-0.9304274640917436
1670930494.1163921,-12.917276,-0.9311559751376869
1670930494.1173992,-12.91617,-0.9318846586939418
1670930494.1184063,-12.921723,-0.9326133422501968
1670930494.1194131,-12.917901,-0.9333418532961401
1670930494.1204202,-12.918141,-0.9340705368523949
1670930494.1214273,-12.921916,-0.9347992204086498
1670930494.1224341,-12.926051,-0.9355277314545931
1670930494.1234422,-12.93021,-0.9362571050520946
1670930494.1244493,-12.937061,-0.9369857886083495
1670930494.125456,-12.941388,-0.9377142996542928
1670930494.1264632,-12.939874,-0.9384429832105476
1670930494.1274703,-12.941845,-0.9391716667668026
1670930494.128477,-12.939778,-0.9524538068669528
1670930494.1294842,-12.944249,-0.9823562954220314
1670930494.1304913,-12.945163,-0.9872489010727056
1670930494.131498,-12.947014,-0.9690375467334287
1670930494.1325052,-12.946797,-0.9784775934668574
1670930494.1335123,-12.938696,-1.012008
1670930494.134519,-12.931292,-1.0048408285646162
1670930494.1355262,-12.93295,-1.0157944108249881
1670930494.1365342,-12.936628,-1.0407477342073899
1670930494.1375413,-12.932542,-1.023593287353966
1670930494.1385481,-12.931869,-1.0079346907153106
1670930494.1395552,-12.930305,-0.9922723861447018
1670930494.1405623,-12.930979,-0.976610081574093
1670930494.1415691,-12.937951,-0.9609514849354376
1670930494.1425762,-12.939826,-0.9866823009060562
1670930494.1435833,-12.939874,-0.993911
1670930494.1445901,-12.945235,-0.964459779499404
1670930494.1455972,-12.952063,-1.0171563705293276
1670930494.1466043,-12.95365,-1.0001231888412017
1670930494.1476111,-12.95365,-0.978802328803052
1670930494.1486192,-12.956342,-0.9768390955103208
1670930494.1496263,-12.954418,-0.9780537439229856
1670930494.150633,-12.951293,-0.9792681047768406
1670930494.1516402,-12.945572,-0.9804827531895053
1670930494.1526473,-12.942999,-0.9816974016021701
1670930494.153654,-12.943048,-0.9829117624560251
1670930494.1546612,-12.941581,-0.9841264108686898
1670930494.1556683,-12.939417,-0.9853410592813546
1670930494.156675,-12.940619,-0.9865554201352096
1670930494.1576822,-12.939153,-0.9877700685478743
1670930494.1586893,-12.934753,-0.9889847169605391
1670930494.159696,-12.927156,-0.9901990778143941
1670930494.1607032,-12.923671,-0.9914137262270588
1670930494.1617112,-12.923935,-0.9926295248749629
1670930494.1627183,-12.929753,-0.9938441732876276
1670930494.1637251,-12.940884,-0.9950585341414826
1670930494.1647322,-12.952351,-0.9962731825541474
1670930494.1657393,-12.958939,-0.9974878309668122
1670930494.1667461,-12.964252,-0.9987021918206671
1670930494.1677532,-12.96228,-0.9999168402333319
1670930494.1687603,-12.956943,-1.0011314886459968
1670930494.1697671,-12.956775,-1.0023458494998516
1670930494.1707742,-12.958145,-1.0035604979125163
1670930494.1717813,-12.95425,-1.0047751463251813
1670930494.1727881,-12.952784,-1.0059895071790361
1670930494.1737962,-12.953866,-1.0072053058269401
1670930494.1748033,-12.960093,-1.008419954239605
1670930494.17581,-12.958169,-1.00963431509346
1670930494.1768172,-12.951365,-1.0108489635061246
1670930494.1778243,-12.956125,-1.0120636119187896
1670930494.178831,-12.960981,-1.0132779727726444
1670930494.1798382,-12.958602,-1.0144926211853091
1670930494.1808453,-12.950668,-1.015707269597974
1670930494.181852,-12.942855,-1.016921630451829
1670930494.1828592,-12.938023,-1.0181362788644936
1670930494.1838663,-12.94086,-1.0193509272771586
1670930494.184873,-12.938745,-1.0205652881310134
1670930494.1858802,-12.933239,-1.0217799365436782
1670930494.1868882,-12.941173,-1.0229957351915824
1670930494.1878953,-12.954226,-1.024210383604247
1670930494.1889021,-12.955428,-1.025424744458102
1670930494.1899092,-12.946197,-1.0266393928707669
1670930494.1909163,-12.939922,-1.0278540412834316
1670930494.1919231,-12.93021,-1.0290684021372865
1670930494.1929302,-12.931268,-1.0328875538865046
1670930494.1939373,-12.939177,-1.0394269594755663
1670930494.1949441,-12.945283,-0.996953056509299
1670930494.1959512,-12.946365,-1.0024962868383405
1670930494.1969583,-12.941509,-0.9610317091775923
1670930494.1979651,-12.933623,-0.9860842973295183
1670930494.1989732,-12.933936,-1.0229616108726753
1670930494.1999803,-12.93908,-0.993911
1670930494.200987,-12.948648,-0.997729751788269
1670930494.2019942,-12.955212,-1.011656964277762
1670930494.2030013,-12.95788,-1.0100364452714954
1670930494.204008,-12.964179,-1.008416309910827
1670930494.2050152,-12.967232,-1.0067957909045604
1670930494.2060223,-12.96728,-1.005175271898294
1670930494.207029,-12.973194,-1.0035551365376256
1670930494.2080362,-12.977954,-1.001934617531359
1670930494.2090433,-12.985311,-1.0003140985250925
1670930494.21005,-12.992955,-0.9986939631644242
1670930494.2110572,-12.987065,-0.9970734441581576
1670930494.2120652,-12.972906,-0.9954513905694988
1670930494.2130723,-12.96728,-0.9938308715632324
1670930494.2140791,-12.969636,-0.9922107362025638
1670930494.2150862,-12.968602,-0.9905902171962974
1670930494.2160933,-12.971416,-0.9889696981900309
1670930494.2171001,-12.975478,-0.9873495628293625
1670930494.2181072,-12.969612,-0.9857290438230959
1670930494.2191143,-12.970573,-0.9841085248168294
1670930494.2201211,-12.96502,-0.982488389456161
1670930494.2211282,-12.963169,-0.9808678704498945
1670930494.2221353,-12.960573,-0.9792473514436281
1670930494.2231421,-12.960621,-0.9776272160829595
1670930494.2241502,-12.969348,-0.9760051624943008
1670930494.2251573,-12.978891,-0.9743846434880343
1670930494.226164,-12.982522,-0.9727645081273659
1670930494.2271712,-12.984541,-0.9711439891210993
1670930494.2281783,-12.989085,-0.9695234701148329
1670930494.229185,-12.988893,-0.9679033347541645
1670930494.2301922,-12.990527,-0.966282815747898
1670930494.2311993,-13.003677,-0.9646622967416314
1670930494.232206,-13.011683,-0.963042161380963
1670930494.2332132,-13.010481,-0.9614216423746965
1670930494.2342203,-13.005457,-0.95980112336843
1670930494.235227,-12.999422,-0.9581809880077616
1670930494.2362342,-12.998076,-0.956560469001495
1670930494.2372422,-12.997427,-0.9549384154128363
1670930494.2382493,-12.986392,-0.9533178964065698
1670930494.2392561,-12.974204,-0.9516977610459013
1670930494.2402632,-12.967424,-0.9500772420396348
1670930494.2412703,-12.976103,-0.9484567230333684
1670930494.2422771,-12.998268,-0.9468365876727
1670930494.2432842,-12.99596,-0.9452160686664335
1670930494.2442913,-12.999542,-0.9435955496601669
1670930494.2452981,-13.011804,-0.9419754142994985
1670930494.2463052,-13.011659,-0.940354895293232
1670930494.2473123,-13.005192,-0.9600965603242728
1670930494.2483191,-13.001249,-0.9861708915375447
1670930494.2493272,-12.98971,-0.9624299291845494
1670930494.2503343,-12.986681,-0.9502670822603719
1670930494.251341,-12.988749,-0.9254885164520743
1670930494.2523482,-12.991153,-0.9252159203814064
1670930494.2533553,-12.979854,-0.9506466320934669
1670930494.254362,-12.97305,-0.9688607110157367
1670930494.2553692,-12.970453,-0.9645675804529201
1670930494.2563763,-12.971079,-0.956512984594613
1670930494.257383,-12.976055,-0.9545606825646966
1670930494.2583902,-12.973699,-0.9526079182326183
1670930494.2593973,-12.97079,-0.95065515390054
1670930494.260404,-12.975382,-0.9487028518706236
1670930494.2614112,-12.982618,-0.9467500875385454
1670930494.2624192,-12.992571,-0.9447954739978193
1670930494.2634263,-13.002187,-0.9428427096657409
1670930494.2644331,-13.005072,-0.9408904076358247
1670930494.2654402,-13.010289,-0.9389376433037463
1670930494.2664473,-13.009327,-0.936984878971668
1670930494.2674541,-13.006202,-0.9350325769417517
1670930494.2684612,-13.003173,-0.9330798126096733
1670930494.2694683,-13.005024,-0.9311270482775951
1670930494.2704751,-13.002091,-0.9291747462476787
1670930494.2714822,-12.996201,-0.9272219819156005
1670930494.2724893,-12.991994,-0.9252692175835221
1670930494.2734962,-12.9906,-0.9233169155536057
1670930494.2745042,-12.986561,-0.9213623020128797
1670930494.2755113,-12.988484,-0.9194095376808014
1670930494.276518,-12.992331,-0.917457235650885
1670930494.2775252,-13.006226,-0.9155044713188067
1670930494.2785323,-13.02053,-0.9135517069867284
1670930494.279539,-13.030267,-0.9115994049568121
1670930494.2805462,-13.031301,-0.9096466406247338
1670930494.2815533,-13.033463,-0.9076938762926555
1670930494.28256,-13.05135,-0.9057415742627392
1670930494.2835672,-13.104984,-0.9037888099306608
1670930494.2845743,-13.157489,-0.9018360455985825
1670930494.285581,-13.166649,-0.8998837435686662
1670930494.2865882,-13.161624,-0.8979309792365879
1670930494.2875962,-13.152104,-0.8959763656958618
1670930494.2886033,-13.10847,-0.8940236013637834
1670930494.2896101,-13.083612,-0.8920712993338671
1670930494.2906172,-13.061183,-0.8901185350017888
1670930494.2916243,-12.996297,-0.8881657706697106
1670930494.2926311,-12.943192,-0.8862134686397942
1670930494.2936382,-12.952543,-0.8842607043077159
1670930494.2946453,-12.982955,-0.8823079399756376
1670930494.2956522,-12.984782,-0.8803556379457212
1670930494.2966592,-12.971391,-0.8784028736136429
1670930494.297666,-12.95163,-0.8764505715837266
1670930494.2986732,-12.938408,-0.8744978072516483
1670930494.2996812,-12.927133,-0.8725431937109221
1670930494.3006883,-12.943961,-0.8705904293788439
1670930494.301695,-12.96514,-0.8686381273489275
1670930494.3027022,-12.973844,-0.8666853630168492
1670930494.3037093,-12.979854,-0.8647325986847709
1670930494.304716,-12.983387,-0.8627802966548546
1670930494.3057232,-12.995576,-0.8608275323227763
1670930494.3067303,-12.997234,-0.858874767990698
1670930494.307737,-12.996899,-0.8569224659607817
1670930494.3087442,-12.990143,-0.8549697016287033
1670930494.3097513,-12.990479,-0.853016937296625
1670930494.310758,-12.987955,-0.8510646352667087
1670930494.3117652,-12.985527,-0.8521053003575685
1670930494.3127732,-12.985167,-0.9206837606103958
1670930494.3137803,-12.978531,-0.903466
1670930494.3147871,-12.97406,-0.902340558045292
1670930494.3157942,-12.974612,-0.8711284068441064
1670930494.3168013,-12.987667,-0.8324811812112541
1670930494.3178082,-12.996009,-0.8582201566150178
1670930494.3188152,-12.999062,-0.952841982832618
1670930494.319822,-13.001273,-0.9017105820219361
1670930494.3208292,-13.0025,-0.8836317394532153
1670930494.3218362,-13.001273,-0.8667622187447054
1670930494.322843,-13.004807,-0.8498966917674239
1670930494.3238502,-13.012092,-0.8330271710589141
1670930494.3248582,-13.014328,-0.8161416754254909
1670930494.3258653,-13.008558,-0.7992721547169811
1670930494.326872,-13.002572,-0.7824066277396996
1670930494.3278792,-12.99685,-0.7655371070311898
1670930494.3288863,-12.995889,-0.7486675863226799
1670930494.329893,-12.993941,-0.7318020593453985
1670930494.3309002,-12.990047,-0.7149325386368887
1670930494.3319073,-12.997163,-0.6980630179283789
1670930494.332914,-13.007139,-0.6811974909510974
1670930494.3339212,-13.007332,-0.6643279702425875
1670930494.3349283,-13.007308,-0.6474584495340777
1670930494.335935,-13.01012,-0.6305929225567963
1670930494.3369422,-13.003533,-0.6137234018482864
1670930494.3379502,-12.992234,-0.5968379062148632
1670930494.3389573,-12.99161,-0.5799683855063535
1670930494.3399642,-13.002764,-0.563102858529072
1670930494.3409712,-13.012837,-0.5462333378205622
1670930494.341978,-13.013871,-0.5293678108432807
1670930494.3429852,-13.014279,-0.5124982901347709
1670930494.3439922,-13.022766,-0.49562876942626105
1670930494.344999,-13.02517,-0.4787632424489796
1670930494.3460062,-13.024497,-0.4618937217404698
1670930494.3470132,-13.024377,-0.44502420103195994
1670930494.34802,-13.033223,-0.42815867405467845
1670930494.3490272,-13.028175,-0.4112891533461686
1670930494.3500352,-13.022381,-0.39440365771274544
1670930494.3510423,-13.017213,-0.37753413700423566
1670930494.352049,-13.018991,-0.36066861002695416
1670930494.3530562,-13.022406,-0.3437990893184443
1670930494.3540633,-13.031397,-0.3269295686099345
1670930494.35507,-13.037238,-0.310064041632653
1670930494.3560772,-13.040027,-0.2931945209241432
1670930494.3570843,-13.029545,-0.27632500021563344
1670930494.358091,-13.009351,-0.25945947323835195
1670930494.3590982,-12.999662,-0.24258995252984206
1670930494.3601053,-12.994999,-0.22572043182133228
1670930494.361112,-12.998965,-0.20885490484405078
1670930494.3621192,-13.002067,-0.191985384135541
1670930494.3631272,-13.002884,-0.17509988850211777
1670930494.364134,-13.012765,-0.1582343615248364
1670930494.3651412,-13.052624,-0.1413648408163265
1670930494.3661482,-13.07366,-0.12449532010781672
1670930494.367155,-13.066833,-0.10762979313053522
1670930494.3681622,-13.053514,-0.0894424653488926
1670930494.3691692,-13.036878,-0.10740301670644391
1670930494.370176,-13.02166,-0.08893356270863138
1670930494.3711832,-13.005794,-0.05249748987854251
1670930494.3721902,-12.989542,-0.01609421957040573
1670930494.373197,-12.995408,0.017283421793037674
1670930494.3742042,-13.00149,-0.03365012645868064
1670930494.3752122,-13.001538,0.001045
1670930494.3762193,-12.998894,0.0016742047768698932
1670930494.377226,-13.003894,0.012933237712130737
1670930494.3782332,-13.001105,0.024194936769327473
1670930494.3792403,-12.99786,0.0354566358265242
1670930494.380247,-13.004495,0.04671566876178504
1670930494.3812542,-13.0075,0.05797736781898178
1670930494.3822613,-13.004254,0.06923906687617852
1670930494.383268,-13.008582,0.08049809981143935
1670930494.3842752,-13.029401,0.0917597988686361
1670930494.3852823,-13.056999,0.10302149792583283
1670930494.3862891,-13.069332,0.11428053086109367
1670930494.3872962,-13.068491,0.1255422299182904
1670930494.3883042,-13.057817,0.13681459346323066
1670930494.389311,-13.052072,0.14807362639849153
1670930494.3903182,-13.068443,0.15933532545568826
1670930494.3913252,-13.072433,0.17059702451288497
1670930494.392332,-13.050773,0.1818560574481458
1670930494.3933392,-13.013102,0.19311775650534257
1670930494.3943462,-12.981873,0.20437945556253928
1670930494.395353,-12.980622,0.21563848849780012
1670930494.3963602,-12.987667,0.22690018755499688
1670930494.3973672,-12.970358,0.23816188661219362
1670930494.398374,-12.954827,0.24942091954745446
1670930494.3993812,-12.954394,0.2606826186046512
1670930494.4003892,-12.981104,0.2719549821495915
1670930494.4013963,-12.998244,0.2832166812067882
1670930494.402403,-13.003389,0.2944757141420491
1670930494.4034102,-13.008919,0.30573741319924586
1670930494.4044173,-13.014568,0.31699911225644256
1670930494.405424,-13.023367,0.32825814519170343
1670930494.4064312,-13.028584,0.33951984424890014
1670930494.4074383,-13.030868,0.35078154330609684
1670930494.4084451,-13.03118,0.3620405762413577
1670930494.4094522,-13.029353,0.3733022752985544
1670930494.4104593,-13.0238,0.3845639743557512
1670930494.4114661,-13.018318,0.39582300729101205
1670930494.4124732,-13.012404,0.40708470634820876
1670930494.4134812,-13.005553,0.4183570698931491
1670930494.414488,-13.005938,0.4296161028284099
1670930494.4154952,-13.002139,0.4408778018856066
1670930494.4165022,-13.002572,0.4521395009428033
1670930494.417509,-13.007019,0.4633985338780642
1670930494.4185162,-13.006034,0.4746602329352609
1670930494.4195232,-13.00387,0.4859219319924577
1670930494.42053,-13.004615,0.4971809649277185
1670930494.4215372,-13.01601,0.5084426639849152
1670930494.4225442,-13.021227,0.5197043630421119
1670930494.423551,-13.024304,0.5309633959773727
1670930494.4245582,-13.024665,0.5422250950345695
1670930494.4255662,-13.027093,0.5534974585795097
1670930494.4265733,-13.029064,0.5647591576367066
1670930494.42758,-13.034762,0.5760181905719673
1670930494.4285872,-13.035556,0.5872798896291641
1670930494.4295943,-13.026949,0.5985415886863609
1670930494.4306011,-13.007019,0.6098006216216216
1670930494.4316082,-13.008582,0.6241239902241297
1670930494.4326153,-13.025362,0.634195
1670930494.4336221,-13.025939,0.634195
1670930494.4346292,-13.022117,0.6509937939914163
1670930494.4356363,-13.030507,0.6533274309892729
1670930494.4366431,-13.03017,0.6428426979017644
1670930494.4376502,-13.029858,0.6698420615164521
1670930494.4386582,-13.031156,0.6617012336114422
1670930494.439665,-13.030747,0.652288
1670930494.4406722,-13.030699,0.6520291587982833
1670930494.4416792,-13.025242,0.6296956949953875
1670930494.442686,-13.02178,0.6208869026752767
1670930494.4436932,-13.017213,0.6120760244464944
1670930494.4447002,-13.015,0.6032651462177122
1670930494.445707,-13.010794,0.6201042124463519
1670930494.4467142,-13.010674,0.6447922038626609
1670930494.4477212,-13.01791,0.6265738118741059
1670930494.448728,-13.023727,0.6154605258410447
1670930494.4497352,-13.029714,0.6139424396231008
1670930494.4507432,-13.02779,0.612422915823511
1670930494.4517503,-13.02255,0.6109048296055671
1670930494.4527571,-13.012404,0.6093871027830347
1670930494.4537642,-13.004663,0.6078690165650906
1670930494.4547713,-12.998004,0.6063509303471467
1670930494.4557781,-13.00197,0.6048332035246142
1670930494.4567852,-13.009592,0.6033151173066703
1670930494.4577923,-13.000264,0.6017970310887263
1670930494.4587991,-13.000239,0.6002793042661938
1670930494.4598062,-13.007068,0.5987612180482499
1670930494.4608133,-13.016563,0.597243131830306
1670930494.4618201,-13.016804,0.5957254050077735
1670930494.4628272,-13.018294,0.5942073187898295
1670930494.4638352,-13.020122,0.5926877949902398
1670930494.464842,-13.023174,0.5911700681677072
1670930494.4658492,-13.031661,0.5896519819497633
1670930494.4668562,-13.039546,0.5881338957318194
1670930494.467863,-13.033199,0.5866161689092869
1670930494.4688702,-13.027093,0.5850980826913429
1670930494.4698772,-13.02868,0.583579996473399
1670930494.470884,-13.035483,0.5820622696508665
1670930494.4718912,-13.039233,0.5805441834329226
1670930494.4728982,-13.02868,0.5790260972149787
1670930494.473905,-13.017934,0.5775083703924461
1670930494.4749122,-13.003413,0.5759902841745022
1670930494.4759202,-13.010986,0.5744707603749124
1670930494.4769273,-13.017284,0.5729526741569685
1670930494.4779341,-13.020722,0.571434947334436
1670930494.4789412,-13.013198,0.5699168611164921
1670930494.4799483,-13.012332,0.5683987748985482
1670930494.4809551,-13.017164,0.5668810480760156
1670930494.4819622,-13.020313,0.5653629618580717
1670930494.4829693,-13.014112,0.5638448756401278
1670930494.4839761,-13.003437,0.5623271488175953
1670930494.4849832,-13.011058,0.5608090625996512
1670930494.4859903,-13.022381,0.5592909763817073
1670930494.4869971,-13.024617,0.5577732495591748
1670930494.4880042,-13.037238,0.5562551633412309
1670930494.4890122,-13.04207,0.5547356395416412
1670930494.490019,-13.031685,0.5532179127191087
1670930494.4910262,-13.02916,0.5516998265011648
1670930494.4920332,-13.021492,0.5501817402832208
1670930494.49304,-13.005096,0.5486640134606883
1670930494.4940472,-13.002836,0.5471459272427444
1670930494.4950542,-13.014232,0.5456278410248004
1670930494.496061,-13.016684,0.544110114202268
1670930494.4970682,-13.00952,0.54375
1670930494.4980752,-13.009928,0.5858182441001192
1670930494.499082,-13.009183,0.6323923881807647
1670930494.5000892,-13.012381,0.6659160625724218
1670930494.5010972,-13.023415,0.6336290637311703
1670930494.5021043,-13.025122,0.7221649626303592
1670930494.5031111,-13.019881,0.6509739623406721
1670930494.5041182,-13.018318,0.6880507415990731
1670930494.5051253,-13.014303,0.705341597577389
1670930494.5061321,-13.011058,0.6231582686049543
1670930494.5071392,-13.020122,0.6316937363950192
1670930494.5081463,-13.043177,0.6402292041850841
1670930494.5091531,-13.043609,0.6487626512678124
1670930494.5101602,-13.03005,0.6572981190578774
1670930494.5111673,-13.023223,0.6658335868479424
1670930494.5121741,-13.026565,0.6743670339306707
1670930494.5131812,-13.036421,0.6829025017207355
1670930494.5141892,-13.034377,0.6914460523401471
1670930494.515196,-13.032334,0.6999794994228754
1670930494.5162032,-13.033873,0.7085149672129404
1670930494.5172102,-13.039186,0.7170504350030054
1670930494.518217,-13.040893,0.7255838820857337
1670930494.5192242,-13.042936,0.7341193498757985
1670930494.5202312,-13.039353,0.7426548176658635
1670930494.521238,-13.029617,0.7511882647485918
1670930494.5222452,-13.012669,0.7597237325386568
1670930494.5232522,-13.002235,0.7682592003287216
1670930494.524259,-13.020987,0.7767926474114499
1670930494.5252662,-13.032118,0.7853281152015149
1670930494.5262742,-13.030194,0.7938716658209265
1670930494.5272813,-13.036108,0.8024071336109915
1670930494.5282881,-13.035363,0.8109405806937198
1670930494.5292952,-13.030915,0.8194760484837846
1670930494.5303023,-13.023871,0.8280115162738496
1670930494.5313091,-13.023223,0.8365449633565779
1670930494.5323162,-13.036445,0.8450804311466429
1670930494.5333233,-13.051999,0.8536158989367079
1670930494.5343301,-13.059524,0.8621493460194362
1670930494.5353372,-13.057865,0.8706848138095011
1670930494.5363443,-13.058803,0.879220281599566
1670930494.5373511,-13.068347,0.8877537286822943
1670930494.5383582,-13.064092,0.8962891964723592
1670930494.5393662,-13.048826,0.9048327470917708
1670930494.540373,-13.037334,0.913366194174499
1670930494.5413802,-13.032022,0.9219016619645641
1670930494.5423872,-13.032502,0.930437129754629
1670930494.543394,-13.02356,0.9389705768373573
1670930494.5444012,-13.012068,0.9475060446274222
1670930494.5454082,-13.019616,0.9560415124174871
1670930494.546415,-13.02089,0.9645749595002154
1670930494.5474222,-13.010241,0.9731104272902804
1670930494.5484293,-13.010986,0.9816458950803453
1670930494.549436,-13.030988,0.9901793421630736
1670930494.5504432,-13.04796,1.0017934480209822
1670930494.5514512,-13.050893,1.0022146469606674
1670930494.5524583,-13.06063,0.990040342393896
1670930494.5534651,-13.069669,1.007900749880782
1670930494.5544722,-13.081232,1.002318135876043
1670930494.5554793,-13.083372,1.0012025579399142
1670930494.5564861,-13.076256,0.9976183998569385
1670930494.5574932,-13.074453,1.0388755952324196
1670930494.5585003,-13.052383,1.0366214582737243
1670930494.5595071,-13.049619,1.0169825504270036
1670930494.5605142,-13.083059,1.0245667422356093
1670930494.5615213,-13.092844,1.032150934044215
1670930494.5625281,-13.09282,1.039733330352866
1670930494.5635352,-13.091281,1.0473175221614717
1670930494.5645432,-13.062217,1.054908895969896
1670930494.56555,-13.05135,1.062491292278547
1670930494.5665572,-13.057865,1.0700754840871527
1670930494.5675642,-13.038609,1.0776596758957584
1670930494.568571,-13.02154,1.0852420722044094
1670930494.5695782,-13.054451,1.092826264013015
1670930494.5705853,-13.098421,1.1004104558216208
1670930494.571592,-13.111283,1.1079928521302718
1670930494.5725992,-13.128736,1.1155770439388775
1670930494.5736063,-13.152225,1.123161235747483
1670930494.574613,-13.14958,1.130743632056134
1670930494.5756202,-13.125539,1.1383278238647396
1670930494.5766282,-13.074694,1.1459191976731642
1670930494.5776353,-13.049042,1.15350338948177
1670930494.5786421,-13.026901,1.1610857857904207
1670930494.5796492,-12.994302,1.1686699775990264
1670930494.5806563,-12.960597,1.176254169407632
1670930494.5816631,-12.950259,1.183836565716283
1670930494.5826702,-12.96228,1.1914207575248887
1670930494.5836773,-12.973844,1.1990049493334944
1670930494.5846841,-12.994926,1.2065873456421454
1670930494.5856912,-13.018703,1.2141715374507511
1670930494.5866983,-13.046085,1.2217557292593568
1670930494.5877051,-13.064404,1.2293381255680078
1670930494.5887132,-13.064525,1.2369294993764322
1670930494.5897202,-13.055268,1.2445136911850379
1670930494.590727,-13.052816,1.2520960874936888
1670930494.5917342,-13.043465,1.2596802793022945
1670930494.5927413,-13.049764,1.2672644711109002
1670930494.593748,-13.062241,1.2748468674195512
1670930494.5947552,-13.090296,1.282431059228157
1670930494.5957623,-13.143907,1.2900152510367624
1670930494.596769,-13.214465,1.2975976473454134
1670930494.5977762,-13.323441,1.305181839154019
1670930494.5987833,-13.403352,1.3127660309626248
1670930494.59979,-13.432248,1.3203484272712758
1670930494.6007972,-13.434893,1.3279326190798815
1670930494.6018052,-13.405491,1.3355239928883058
1670930494.6028123,-13.344693,1.3431081846969115
1670930494.6038191,-13.271609,1.3506905810055625
1670930494.6048262,-13.16838,1.3582747728141682
1670930494.6058333,-13.06075,1.365858964622774
1670930494.6068401,-12.969011,1.3734413609314249
1670930494.6078472,-12.926964,1.3810255527400306
1670930494.6088543,-12.906049,1.3886097445486363
1670930494.6098611,-12.875278,1.3961921408572873
1670930494.6108682,-12.877633,1.4037763326658927
1670930494.6118753,-12.909631,1.4113605244744987
1670930494.6128821,-12.941196,1.4189429207831494
1670930494.6138902,-12.980502,1.426534294591574
1670930494.6148973,-13.00185,1.4491482629823724
1670930494.615904,-13.008149,1.466341
1670930494.6169112,-13.010241,1.4955496151645207
1670930494.6179183,-13.005577,1.5008652890214798
1670930494.618925,-13.007741,1.494424398666349
1670930494.6199322,-13.018174,1.522752313066285
1670930494.6209393,-13.032238,1.5592126229116945
1670930494.621946,-13.036108,1.574884
1670930494.6229532,-13.046182,1.5958713805436338
1670930494.6239603,-13.054932,1.6192700454873954
1670930494.624967,-13.062312,1.6333433609942043
1670930494.6259742,-13.074934,1.6474200090407969
1670930494.6269822,-13.089502,1.6615099872465247
1670930494.6279893,-13.094864,1.6755866352931172
1670930494.6289961,-13.079309,1.6896599507999264
1670930494.6300032,-13.074405,1.703736598846519
1670930494.6310103,-13.085752,1.7178132468931118
1670930494.6320171,-13.094575,1.7318865623999207
1670930494.6330242,-13.114408,1.7459632104465133
1670930494.6340313,-13.116476,1.760039858493106
1670930494.6350381,-13.120346,1.774113173999915
1670930494.6360452,-13.140059,1.7881898220465076
1670930494.6370523,-13.200041,1.8022664700931004
1670930494.6380591,-13.248459,1.8163397855999093
1670930494.6390672,-13.271633,1.830429763805637
1670930494.6400743,-13.279976,1.8445064118522296
1670930494.641081,-13.284736,1.8142848049594658
1670930494.6420882,-13.276081,1.8583614512514899
1670930494.6430953,-13.242569,1.9130152052932763
1670930494.644102,-13.205955,1.9513104320457797
1670930494.6451092,-13.179317,1.98774021954708
1670930494.6461163,-13.152873,2.007566618264187
1670930494.647123,-13.129746,2.0257806971864567
1670930494.6481302,-13.11674,1.9934068216499763
1670930494.6491373,-13.094575,2.075911665077473
1670930494.650144,-13.066327,2.1036583173195367
1670930494.6511512,-13.033463,2.1273420099500115
1670930494.6521592,-12.997811,2.1510481303197198
1670930494.6531663,-12.954635,2.174731822950194
1670930494.6541731,-12.9148,2.1984099086458606
1670930494.6551802,-12.909776,2.2220936012763355
1670930494.6561873,-12.954178,2.24577729390681
1670930494.6571941,-12.998124,2.2694553796024763
1670930494.6582012,-13.024929,2.293139072232951
1670930494.6592083,-13.032238,2.3168227648634256
1670930494.6602151,-13.034306,2.340500850559092
1670930494.6612222,-13.048513,2.364184543189567
1670930494.6622293,-13.055509,2.3878682358200414
1670930494.6632361,-13.059043,2.411546321515708
1670930494.6642442,-13.069284,2.435252441885416
1670930494.6652513,-13.107942,2.458936134515891
1670930494.666258,-13.125948,2.482614220211557
1670930494.6672652,-13.109023,2.5062979128420317
1670930494.6682723,-13.078876,2.529981605472506
1670930494.669279,-13.053874,2.5536596911681726
1670930494.6702862,-13.077313,2.5773433837986475
1670930494.6712933,-13.108326,2.601027076429122
1670930494.6723,-13.091954,2.6247051621247883
1670930494.6733072,-13.054067,2.648388854755263
1670930494.6743143,-13.014448,2.6720725473857376
1670930494.675321,-13.027622,2.695750633081404
1670930494.6763282,-13.043248,2.719434325711879
1670930494.6773362,-13.04558,2.743140446081587
1670930494.6783433,-13.040916,2.766824138712062
1670930494.6793501,-13.046277,2.797931945159752
1670930494.6803572,-13.072818,2.859281
1670930494.6813643,-13.085223,2.8622908026221694
1670930494.6823711,-13.081978,2.880501286123033
1670930494.6833782,-13.077049,2.9019817982832614
1670930494.6843853,-13.097893,2.935034261978546
1670930494.6853921,-13.150325,2.949734
1670930494.6863992,-13.164365,2.957014657129232
1670930494.6874063,-13.169317,3.012295716090584
1670930494.6884131,-13.182131,3.1220492372534943
1670930494.6894212,-13.16011,3.166603719634616
1670930494.6904283,-13.138665,3.211116050187563
1670930494.691435,-13.122222,3.2556178427834666
1670930494.6924422,-13.108542,3.3001301733364135
1670930494.6934493,-13.093902,3.344642503889361
1670930494.694456,-13.077555,3.389144296485264
1670930494.6954632,-13.064957,3.4336566270382107
1670930494.6964703,-13.055581,3.478168957591158
1670930494.697477,-13.056855,3.522670750187061
1670930494.6984842,-13.052889,3.567183080740008
1670930494.6994913,-13.052216,3.6116954112929553
1670930494.700498,-13.055028,3.6561972038888584
1670930494.7015052,-13.064092,3.7007095344418053
1670930494.7025132,-13.094166,3.7452640168229276
1670930494.7035203,-13.113038,3.7897763473758745
1670930494.7045271,-13.125875,3.834278139971778
1670930494.7055342,-13.136117,3.878790470524725
1670930494.7065413,-13.126308,3.923302801077672
1670930494.7075481,-13.107749,3.9678045936735753
1670930494.7085552,-13.130395,4.012316924226522
1670930494.7095623,-13.183476,4.056829254779469
1670930494.7105691,-13.24305,4.101331047375372
1670930494.7115762,-13.286587,4.145843377928319
1670930494.7125833,-13.29428,4.190355708481267
1670930494.7135901,-13.284783,4.23485750107717
1670930494.7145982,-13.259902,4.279411983458292
1670930494.7156053,-13.230861,4.323924314011239
1670930494.716612,-13.193093,4.368426106607142
1670930494.7176192,-13.128736,4.412938437160089
1670930494.7186263,-13.09181,4.457450767713036
1670930494.719633,-13.077362,4.50195256030894
1670930494.7206402,-13.049307,4.546464890861887
1670930494.7216473,-13.015169,4.590977221414834
1670930494.722654,-13.005337,4.635479014010737
1670930494.7236612,-13.018367,4.679991344563684
1670930494.7246683,-13.027309,4.7245036751166305
1670930494.725675,-13.034017,4.7690054677125335
1670930494.7266822,-13.066159,4.813517798265481
1670930494.7276902,-13.09758,4.858072280646603
1670930494.7286973,-13.11686,4.902584611199551
1670930494.7297041,-13.115009,4.947086403795454
1670930494.7307112,-13.092772,4.9915987343484005
1670930494.7317183,-13.081208,5.036111064901347
1670930494.7327251,-13.095656,5.0806128574972504
1670930494.7337322,-13.100898,5.125125188050198
1670930494.7347393,-13.11775,5.169637518603144
1670930494.7357461,-13.149051,5.210999
1670930494.7367532,-13.153113,5.218073054363376
1670930494.7377603,-13.137608,5.307626838617402
1670930494.7387671,-13.121236,5.378803359084406
1670930494.7397752,-13.106499,5.433518463519314
1670930494.7407823,-13.091594,5.4842918798283264
1670930494.741789,-13.061183,5.512833825268177
1670930494.7427962,-13.051806,5.617747150691464
1670930494.7438033,-13.072025,5.683660455889366
1670930494.74481,-13.125227,5.710897629520296
1670930494.7458172,-13.172226,5.796283737269373
1670930494.7468243,-13.256512,5.88166984501845
1670930494.747831,-13.400394,5.967035738253383
1670930494.7488382,-13.471002,6.052421846002461
1670930494.7498453,-13.534589,6.137807953751538
1670930494.750852,-13.564568,6.22317384698647
1670930494.7518592,-13.498384,6.308559954735548
1670930494.7528672,-13.420252,6.394026920541206
1670930494.7538743,-13.334428,6.479413028290283
1670930494.7548811,-13.245117,6.564778921525216
1670930494.7558882,-13.155782,6.6501650292742935
1670930494.7568953,-13.098205,6.7355511370233705
1670930494.7579021,-13.0714,6.820917030258303
1670930494.7589092,-13.034233,6.906303138007381
1670930494.7599163,-13.010433,6.991689245756458
1670930494.7609231,-13.030964,7.0770551389913905
1670930494.7619302,-13.022742,7.1624412467404674
1670930494.7629373,-12.967424,7.247827354489545
1670930494.7639441,-12.938865,7.333193247724478
1670930494.7649522,-12.947831,7.418660213530136
1670930494.7659593,-12.990912,7.504046321279214
1670930494.766966,-13.027719,7.589412214514145
1670930494.7679732,-13.053994,7.674798322263223
1670930494.7689803,-13.059692,7.7601844300123
1670930494.769987,-13.050701,7.845550323247233
1670930494.7709942,-13.053946,7.930936430996311
1670930494.7720013,-13.068828,8.016322538745388
1670930494.773008,-13.061591,8.101688431980321
1670930494.7740152,-13.064163,8.187074539729398
1670930494.7750223,-13.089334,8.272460647478475
1670930494.776029,-13.124145,8.357826540713408
1670930494.7770362,-13.145396,8.443212648462485
1670930494.7780442,-13.157489,8.528679614268142
1670930494.7790513,-13.126909,8.614065722017221
1670930494.7800581,-13.115298,8.699431615252154
1670930494.7810652,-13.137175,8.78481772300123
1670930494.7820723,-13.138497,8.870203830750308
1670930494.7830791,-13.144218,8.95556972398524
1670930494.7840862,-13.144699,9.040955831734317
1670930494.7850933,-13.169918,9.126341939483396
1670930494.7861001,-13.216052,9.211707832718327
1670930494.7871072,-13.233433,9.297093940467406
1670930494.7881143,-13.242953,9.382480048216483
1670930494.7891212,-13.251439,9.467845941451415
1670930494.7901292,-13.229947,9.553312907257073
1670930494.7911363,-13.184078,9.63869901500615
1670930494.792143,-13.133328,9.724064908241083
1670930494.7931502,-13.09859,9.80945101599016
1670930494.7941573,-13.097243,9.894837123739238
1670930494.795164,-13.114168,9.98020301697417
1670930494.7961712,-13.111355,10.065589124723248
1670930494.7971783,-13.114216,10.150975232472325
1670930494.798185,-13.113928,10.236341125707257
1670930494.7991922,-13.100705,10.321727233456336
1670930494.8001993,-13.102676,10.407113341205413
1670930494.801206,-13.129602,10.492479234440346
1670930494.8022132,-13.150878,10.61219659036719
1670930494.8032212,-13.148017,10.78134951549833
1670930494.8042283,-13.129963,10.900153614302742
1670930494.8052351,-13.120828,11.007291011444922
1670930494.8062422,-13.125034,11.171264982832618
1670930494.8072493,-13.128616,11.32099458045292
1670930494.8082561,-13.140829,11.462958527896996
1670930494.8092632,-13.171601,11.58273240963281
1670930494.8102703,-13.168644,11.68235662932062
1670930494.8112772,-13.159364,11.803920233352635
1670930494.8122842,-13.157633,11.866601507237984
1670930494.813291,-13.161431,11.9292679418066
1670930494.8142982,-13.159966,11.991949215691951
1670930494.8153062,-13.158835,12.054689846844237
1670930494.8163133,-13.149027,12.141275376967096
1670930494.81732,-13.15672,12.288419859322842
1670930494.8183272,-13.189415,12.461000056972587
1670930494.8193343,-13.239828,12.576369113733906
1670930494.820341,-13.277283,12.708288613733906
1670930494.8213482,-13.318705,12.850594816881259
1670930494.8223553,-13.356184,12.990195606197855
1670930494.823362,-13.353492,13.133669855507868
1670930494.8243692,-13.316133,13.240504373390559
1670930494.8253763,-13.247088,13.356905850436421
1670930494.826383,-13.2161,13.491954697511732
1670930494.8273902,-13.219802,13.627035523949363
1670930494.8283982,-13.188021,13.762244267836271
1670930494.8294053,-13.149435,13.897325094273901
1670930494.8304121,-13.111067,14.032373941349213
1670930494.8314192,-13.065823,14.167454767786843
1670930494.8324263,-13.017885,14.302535594224473
1670930494.8334332,-13.026179,14.437584441299784
1670930494.8344402,-13.066327,14.572665267737415
1670930494.835447,-13.074381,14.707714114812726
1670930494.8364542,-13.081834,14.842794941250355
1670930494.8374612,-13.105345,14.977875767687987
1670930494.838468,-13.115129,15.112924614763298
1670930494.8394752,-13.129914,15.248005441200927
1670930494.8404832,-13.141069,15.383214185087837
1670930494.8414903,-13.138882,15.518295011525467
1670930494.842497,-13.129337,15.653343858600778
1670930494.8435042,-13.109865,15.788424685038407
1670930494.8445113,-13.083156,15.923505511476039
1670930494.845518,-13.089646,16.058554358551348
1670930494.8465252,-13.134146,16.19363518498898
1670930494.8475323,-13.157393,16.32871601142661
1670930494.848539,-13.147176,16.46376485850192
1670930494.8495462,-13.145252,16.59884568493955
1670930494.8505533,-13.152922,16.73392651137718
1670930494.85156,-13.144267,16.86897535845249
1670930494.8525672,-13.126645,17.004056184890125
1670930494.8535752,-13.110009,17.13926492877703
1670930494.8545823,-13.095993,17.27434575521466
1670930494.8555892,-13.101378,17.40939460228997
1670930494.8565962,-13.112389,17.544475428727605
1670930494.857603,-13.119938,17.679524275802915
1670930494.8586102,-13.134049,17.814605102240545
1670930494.8596172,-13.166336,17.949685928678175
1670930494.860624,-13.21122,18.084734775753486
1670930494.8616312,-13.270961,18.21981560219112
1670930494.8626382,-13.328609,18.35489642862875
1670930494.863645,-13.362146,18.48994527570406
1670930494.8646522,-13.397486,18.62502610214169
1670930494.8656602,-13.495451,18.760234846028595
1670930494.8666673,-13.56976,18.88879680591321
1670930494.867674,-13.546128,19.016305168097283
1670930494.8686812,-13.515718,19.111829704648393
1670930494.8696883,-13.46064,19.267416306151645
1670930494.870695,-13.394961,19.415103751072962
1670930494.8717022,-13.280601,19.51170385435042
1670930494.8727093,-13.174438,19.65230663090129
1670930494.873716,-13.098758,19.76477265736767
1670930494.8747232,-13.031324,19.874068870083434
1670930494.8757303,-12.997259,20.02217968479117
1670930494.876737,-12.972786,20.17332908153953
1670930494.8777442,-12.967232,20.324514270235976
1670930494.8787522,-13.005577,20.475842626724745
1670930494.879759,-13.019736,20.62699202347311
1670930494.8807662,-12.984084,20.778177212169556
1670930494.8817732,-12.982762,20.929362400866
1670930494.88278,-13.027021,21.080511797614363
1670930494.8837872,-13.109793,21.23169698631081
1670930494.8847942,-13.176794,21.382882175007254
1670930494.885801,-13.251559,21.534031571755616
1670930494.8868082,-13.326302,21.68521676045206
1670930494.8878152,-13.40578,21.836401949148506
1670930494.888822,-13.443571,21.98755134589687
1670930494.8898292,-13.425397,22.138736534593313
1670930494.8908372,-13.3633,22.290064891082086
1670930494.8918443,-13.29339,22.441250079778527
1670930494.892851,-13.230164,22.592399476526893
1670930494.8938582,-13.158258,22.743584665223338
1670930494.8948653,-13.085536,22.894769853919783
1670930494.895872,-12.999084999999999,23.045919250668145
1670930494.8968792,-12.967593,23.19710443936459
1670930494.8978863,-12.981392,23.348289628061035
1670930494.898893,-13.010217,23.499439024809398
1670930494.8999002,-13.021083,23.650624213505843
1670930494.9009073,-13.053754,23.801809402202288
1670930494.9019141,-13.119217,23.95295879895065
1670930494.9029212,-13.154099,24.104143987647095
1670930494.9039292,-13.149267,24.255472344135868
1670930494.904936,-13.144291,24.40662174088423
1670930494.9059432,-13.121837,24.557806929580675
1670930494.9069502,-13.100513,24.70899211827712
1670930494.907957,-13.111524,24.860141515025482
1670930494.9089642,-13.129626,25.011326703721927
1670930494.9099712,-13.128496,25.162511892418372
1670930494.910978,-13.15357,25.313661289166735
1670930494.9119852,-13.175063,25.46484647786318
1670930494.9129922,-13.193141,25.616031666559625
1670930494.913999,-13.212157,25.767181063307987
1670930494.9150062,-13.190545,25.918366252004432
1670930494.9160142,-13.167898,26.069694608493204
1670930494.9170213,-13.163162,26.22087979718965
1670930494.918028,-13.164076,26.372029193938012
1670930494.9190352,-13.162441,26.523214382634457
1670930494.9200423,-13.161119,26.674399571330902
1670930494.921049,-13.121885,26.824362882212686
1670930494.9220562,-13.109504,26.961898703624225
1670930494.9230633,-13.150565,27.07544947771156
1670930494.9240701,-13.170231,27.194213237482117
1670930494.9250772,-13.170976,27.303272848354794
1670930494.9260843,-13.158235,27.439527323241954
1670930494.9270911,-13.158787,27.517861575107297
1670930494.9280982,-13.174702,27.668486758464475
1670930494.9291062,-13.184872,27.82258489103481
1670930494.930113,-13.196339,27.940919860087163
1670930494.9311202,-13.202926,28.035955820664498
1670930494.9321272,-13.203335,28.130991781241836
1670930494.933134,-13.181554,28.22600524277547
1670930494.9341412,-13.157272,28.321041203352806
1670930494.9351482,-13.147344,28.416077163930144
1670930494.936155,-13.177972,28.51109062546378
1670930494.9371622,-13.219129,28.606126586041114
1670930494.9381692,-13.236438,28.701162546618452
1670930494.939176,-13.229514,28.796176008152088
1670930494.9401832,-13.207951,28.891211968729422
1670930494.9411912,-13.166216,28.98633792548155
1670930494.9421983,-13.13679,29.081373886058884
1670930494.943205,-13.155998,29.17638734759252
1670930494.9442122,-13.188021,29.271423308169858
1670930494.9452193,-13.225284,29.366459268747192
1670930494.9462261,-13.254493,29.46147273028083
1670930494.9472332,-13.244948,29.556508690858166
1670930494.9482403,-13.224274,29.6515446514355
1670930494.9492471,-13.215138,29.746558112969137
1670930494.9502542,-13.206941,29.841594073546474
1670930494.9512613,-13.183933,29.93663003412381
1670930494.9522681,-13.152753,30.03164349565745
1670930494.9532752,-13.11662,30.11272239103481
1670930494.9542832,-13.089575,30.232125183551847
1670930494.95529,-13.121669,30.366094655221747
1670930494.9562972,-13.164581,30.469892385312352
1670930494.9573042,-13.30642,30.536989514544587
1670930494.958311,-13.459846,30.664355613587606
1670930494.9593182,-13.530166,30.791569743919887
1670930494.9603252,-13.552547,30.900888475917977
1670930494.961332,-13.518602,31.022665100595948
1670930494.9623392,-13.43648,31.128465912270997
1670930494.9633462,-13.310987,31.22465844144883
1670930494.964353,-13.162874,31.320828197774112
1670930494.9653602,-13.062818,31.417020726951943
1670930494.9663682,-13.005865,31.513304347539982
1670930494.9673753,-12.953193,31.609496876717817
1670930494.9683821,-12.934176,31.705666633043098
1670930494.9693892,-12.975574,31.80185916222093
1670930494.9703963,-13.058755,31.898051691398763
1670930494.9714031,-13.114817,31.994221447724044
1670930494.9724102,-13.108735,32.09041397690188
1670930494.9734173,-13.063707,32.186606506079706
1670930494.9744241,-13.039979,32.28277626240499
1670930494.9754312,-13.055341,32.37896879158282
1670930494.9764383,-13.080992,32.475161320760655
1670930494.9774451,-13.09681,32.57133107708594
1670930494.9784522,-13.091186,32.66752360626377
1670930494.9794602,-13.102052,32.76380722685181
1670930494.980467,-13.130588,32.85997698317709
1670930494.9814742,-13.158235,32.95616951235492
1670930494.9824812,-13.19004,33.05236204153275
1670930494.983488,-13.242857,33.148531797858034
1670930494.9844952,-13.276442,33.24472432703587
1670930494.9855022,-13.29315,33.3409168562137
1670930494.986509,-13.324571,33.437086612538984
1670930494.9875162,-13.388638,33.4971693511323
1670930494.9885232,-13.423714,33.66354733237959
1670930494.98953,-13.438451,33.781358323319026
1670930494.9905372,-13.411477,33.85823587008343
1670930494.9915452,-13.301299,33.94753725751073
1670930494.9925523,-13.194896,34.00566152932761
1670930494.9935591,-13.152104,34.19319090128756
1670930494.9945662,-13.135636,34.24294244123957
1670930494.9955733,-13.101306,34.397434328564614
1670930494.9965801,-13.0426,34.61883171650265
1670930494.9975872,-12.998076,34.84442561203634
1670930494.9985943,-12.98983,35.070019507570024
1670930494.9996011,-13.003894,35.295559995457985
1670930495.0006082,-13.066833,35.52115389099167
1670930495.0016153,-13.107677,35.746747786525354
1670930495.0026221,-13.111163,35.90587291797806
1670930495.0036292,-13.116091,36.05832074445769
1670930495.0046372,-13.126909,36.197215115402955
1670930495.005644,-13.134193,36.28650834716261
1670930495.0066512,-13.148978,36.46232018955651
1670930495.0076582,-13.184896,36.576976429559
1670930495.008665,-13.213528,36.6891796921793
1670930495.0096722,-13.239539,36.81671630829757
1670930495.0106792,-13.257906,36.98435065172825
1670930495.011686,-13.265912,37.12904381936273
1670930495.0126932,-13.29291,37.260685500726794
1670930495.0137002,-13.330846,37.39232718209086
1670930495.014707,-13.33736,37.52393769828415
1670930495.0157142,-13.31142,37.655579379648216
1670930495.0167222,-13.296203,37.787345721695395
1670930495.0177293,-13.246199,37.91898740305946
1670930495.0187361,-13.173717,38.05059791925275
1670930495.0197432,-13.122102,38.18223960061682
1670930495.0207503,-13.09657,38.31388128198088
1670930495.0217571,-13.071015,38.44549179817417
1670930495.0227642,-13.050388,38.57713347953823
1670930495.0237713,-13.029761,38.708775160902306
1670930495.0247781,-13.044378,38.84038567709559
1670930495.0257852,-13.076545,38.972027358459655
1670930495.0267923,-13.104383,39.10366903982372
1670930495.0277991,-13.123351,39.23527955601701
1670930495.0288062,-13.126813,39.36692123738108
1670930495.0298142,-13.137775,39.49868757942826
1670930495.030821,-13.211941,39.63029809562154
1670930495.0318282,-13.370897,39.761939776985614
1670930495.0328352,-13.522208,39.89358145834968
1670930495.033842,-13.602912,40.02519197454296
1670930495.0348492,-13.625463,40.15683365590703
1670930495.0358562,-13.608971,40.2884753372711
1670930495.036863,-13.539373,40.420085853464386
1670930495.0378702,-13.402462,40.55172753482845
1670930495.0388772,-13.233986,40.68336921619252
1670930495.039884,-13.095416,40.81497973238581
1670930495.0408912,-13.023775,40.946621413749874
1670930495.0418992,-12.949274,41.07838775579705
1670930495.0429063,-12.893164,41.206092667381974
1670930495.0439131,-12.87684,41.35117364815256
1670930495.0449202,-12.922348,41.47918714806867
1670930495.0459273,-12.98382,41.57100392370052
1670930495.0469341,-13.04772,41.68004413468415
1670930495.0479412,-13.101691,41.8074925345732
1670930495.0489483,-13.134675,41.95294760309893
1670930495.0499551,-13.154917,42.062215369098716
1670930495.0509622,-13.157994,42.16997526205923
1670930495.0519693,-13.157152,42.20877529365303
1670930495.0529761,-13.139675,42.247566139633285
1670930495.0539832,-13.142127,42.28636617122708
1670930495.0549912,-13.16761,42.32520294527503
1670930495.055998,-13.189463,42.37709463614688
1670930495.0570052,-13.19343,42.4924601716329
1670930495.0580122,-13.186049,42.604686895565095
1670930495.059019,-13.175231,42.76027447925608
1670930495.0600262,-13.165446,42.87126463740032
1670930495.0610332,-13.163692,42.97320918850314
1670930495.06204,-13.172947,43.075129605005785
1670930495.0630472,-13.173813,43.1770741561086
1670930495.0640543,-13.183405,43.279018707211414
1670930495.065061,-13.213167,43.380939123714064
1670930495.0660682,-13.239924,43.482883674816875
1670930495.0670762,-13.236678,43.584924764320355
1670930495.0680833,-13.197613,43.68686931542317
1670930495.0690901,-13.14345,43.78878973192582
1670930495.0700972,-13.135684,43.890734283028635
1670930495.0711043,-13.160182,43.992678834131446
1670930495.0721111,-13.182155,44.0945992506341
1670930495.0731182,-13.200401,44.19654380173691
1670930495.0741253,-13.181458,44.298488352839726
1670930495.0751321,-13.154412,44.40040876934237
1670930495.0761392,-13.152272,44.50235332044519
1670930495.0771463,-13.247088,44.604297871548
1670930495.0781531,-13.281923,44.70621828805065
1670930495.0791602,-13.290673,44.80816283915346
1670930495.0801682,-13.30743,44.91020392865694
1670930495.081175,-13.352842,45.01212434515959
1670930495.0821822,-13.385754,45.1140688962624
1670930495.0831892,-13.400323,45.216013447365214
1670930495.084196,-13.357627,45.317933863867864
1670930495.0852032,-13.270239,45.41987841497068
1670930495.0862103,-13.153258,45.52182296607349
1670930495.087217,-13.107028,45.623743382576144
1670930495.0882242,-13.151936,45.725687933678955
1670930495.0892313,-13.177683,45.82763248478177
1670930495.090238,-13.206724,45.92955290128442
1670930495.0912452,-13.19319,46.031497452387235
1670930495.0922532,-13.165422,46.133538541890715
1670930495.0932603,-13.126501,46.235483092993526
1670930495.0942671,-13.104191,46.33740350949618
1670930495.0952742,-13.1165,46.43934806059899
1670930495.0962813,-13.127992,46.541292611701806
1670930495.0972881,-13.134795,46.64321302820445
1670930495.0982952,-13.116524,46.74515757930727
1670930495.0993023,-13.094046,46.84710213041008
1670930495.1003091,-13.079286,46.94902254691273
1670930495.1013162,-13.092964,47.05096709801554
1670930495.1023233,-13.152296,47.15291164911835
1670930495.1033301,-13.183597,47.254832065621
1670930495.1043382,-13.182515,47.35687315512448
1670930495.1053452,-13.194247,47.45881770622729
1670930495.106352,-13.221028,47.55872788128725
1670930495.1073592,-13.304761,47.64980565665236
1670930495.1083663,-13.393663,47.74452965665236
1670930495.109373,-13.410708,47.861311532061976
1670930495.1103802,-13.416069,47.991543962327135
1670930495.1113873,-13.388975,48.08443549117787
1670930495.112394,-13.338634,48.235986266746124
1670930495.1134012,-13.291299,48.34102453266571
1670930495.1144083,-13.277235,48.449654342870765
1670930495.115415,-13.262642,48.594267645829746
1670930495.1164222,-13.186794,48.68013265634155
1670930495.1174302,-13.091907,48.76607897841634
1670930495.1184373,-13.018535,48.85194398892814
1670930495.1194441,-13.01464,48.9377886715492
1670930495.1204512,-13.047456,49.023653682061
1670930495.1214583,-13.067169,49.109518692572806
1670930495.1224651,-13.042768,49.195363375193864
1670930495.1234722,-13.028487,49.28122838570567
1670930495.1244793,-13.031252,49.36709339621748
1670930495.1254861,-13.090055,49.452938078838535
1670930495.1264932,-13.137487,49.53880308935034
1670930495.1275003,-13.171553,49.62466809986214
1670930495.1285071,-13.198959,49.7105127824832
1670930495.1295152,-13.208983,49.79645910455799
1670930495.1305223,-13.204416,49.88232411506979
1670930495.131529,-13.168307,49.96816879769085
1670930495.1325362,-13.149484,50.054033808202654
1670930495.1335433,-13.176265,50.13989881871446
1670930495.13455,-13.190785,50.225743501335515
1670930495.1355572,-13.171865,50.31160851184732
1670930495.1365643,-13.168451,50.39747352235913
1670930495.137571,-13.188766,50.483318204980186
1670930495.1385782,-13.217999,50.56918321549199
1670930495.1395853,-13.266032,50.65504822600379
1670930495.140592,-13.277428,50.74089290862485
1670930495.1415992,-13.241992,50.826757919136654
1670930495.1426072,-13.203214,50.91270424121144
1670930495.1436143,-13.172539,50.99856925172325
1670930495.1446211,-13.168067,51.084413934344305
1670930495.1456282,-13.176001,51.17027894485611
1670930495.1466353,-13.153234,51.25614395536791
1670930495.1476421,-13.149892,51.34198863798897
1670930495.1486492,-13.157104,51.42785364850077
1670930495.1496563,-13.142968,51.51371865901258
1670930495.1506631,-13.154532,51.59956334163364
1670930495.1516702,-13.167994,51.68542835214544
1670930495.1526773,-13.190064,51.77129336265725
1670930495.1536841,-13.19129,51.857138045278305
1670930495.1546922,-13.182251,51.943084367353094
1670930495.1556993,-13.196819,52.0289493778649
1670930495.156706,-13.21961,52.114794060485956
1670930495.1577132,-13.247762,52.20065907099776
1670930495.1587203,-13.296468,52.28652408150956
1670930495.159727,-13.346736,52.37236876413062
1670930495.1607342,-13.382532,52.45823377464242
1670930495.1617413,-13.429051,52.54409878515423
1670930495.162748,-13.399264,52.629943467775284
1670930495.1637552,-13.373878,52.715808478287094
1670930495.1647623,-13.328249,52.8016734887989
1670930495.165769,-13.26132,52.887518171419956
1670930495.1667762,-13.166143,52.97338318193176
1670930495.1677842,-13.113327,53.05932950400655
1670930495.1687913,-13.048201,53.14519451451835
1670930495.1697981,-13.010505,53.23103919713941
1670930495.1708052,-13.019208,53.31690420765121
1670930495.1718123,-13.067241,53.402769218163016
1670930495.1728191,-13.103999,53.488613900784074
1670930495.1738262,-13.117581,53.57447891129588
1670930495.1748333,-13.111211,53.66034392180769
1670930495.1758401,-13.110947,53.74618860442874
1670930495.1768472,-13.122293,53.83205361494055
1670930495.1778543,-13.135156,53.91791862545235
1670930495.1788611,-13.139506,54.00376330807341
1670930495.1798692,-13.144868,54.0897096301482
1670930495.1808763,-13.159052,54.17557464066
1670930495.181883,-13.16636,54.24633717913292
1670930495.1828902,-13.212854,54.30541492777116
1670930495.1838973,-13.308488,54.40312783142585
1670930495.184904,-13.371378,54.49377750739857
1670930495.1859112,-13.385633,54.60923276470588
1670930495.1869183,-13.389,54.68174333690987
1670930495.187925,-13.345942,54.73709657756563
1670930495.1889322,-13.269205,54.82177654822576
1670930495.1899393,-13.222182,54.87493946113496
1670930495.190946,-13.217543,54.90838398600128
1670930495.1919532,-13.227159,54.96816664547766
1670930495.1929612,-13.193887,55.02800591732096
1670930495.1939683,-13.140372,55.08778857679734
1670930495.1949751,-13.12864,55.14755708318198
1670930495.1959822,-13.146479,55.207339742658355
1670930495.1969893,-13.182082,55.26712240213473
1670930495.1979961,-13.15571,55.326890908519374
1670930495.1990032,-13.130083,55.38667356799575
1670930495.2000103,-13.140805,55.446456227472126
1670930495.2010171,-13.145372,55.50622473385677
1670930495.2020242,-13.147344,55.566007393333145
1670930495.2030313,-13.148907,55.62579005280952
1670930495.2040381,-13.146887,55.68555855919416
1670930495.2050462,-13.153522,55.745397831037465
1670930495.2060533,-13.201435,55.80518049051384
1670930495.20706,-13.25918,55.864948996898484
1670930495.2080672,-13.293077,55.92473165637486
1670930495.2090743,-13.307094,55.984514315851236
1670930495.210081,-13.300386,56.04428282223588
1670930495.2110882,-13.254493,56.104065481712254
1670930495.2120953,-13.196555,56.16384814118863
1670930495.213102,-13.207662,56.22361664757327
1670930495.2141092,-13.195689,56.28339930704965
1670930495.2151163,-13.169798,56.343181966526025
1670930495.216123,-13.19855,56.40295047291067
1670930495.2171302,-13.239155,56.462733132387044
1670930495.2181382,-13.212782,56.522572404230345
1670930495.2191453,-13.174774,56.58235506370672
1670930495.2201521,-13.162345,56.642123570091364
1670930495.2211592,-13.162465,56.70190622956774
1670930495.2221663,-13.162802,56.761688889044116
1670930495.2231731,-13.154076,56.82145739542876
1670930495.2241802,-13.132728,56.881240054905135
1670930495.2251873,-13.12251,56.912575
1670930495.2261941,-13.166793,56.92136934215546
1670930495.2272012,-13.209272,56.92174239308701
1670930495.2282083,-13.220788,56.89447687362899
1670930495.2292151,-13.237568,56.876396
1670930495.2302232,-13.265407,56.88571653624225
1670930495.2312303,-13.288342,56.88503732443385
1670930495.232237,-13.305194,56.85725037911302
1670930495.2332442,-13.315868,56.84991008607535
1670930495.2342513,-13.291035,56.85722084829354
1670930495.235258,-13.246872,56.855223027031414
1670930495.2362652,-13.250045,56.85322473268823
1670930495.2372723,-13.268268,56.85122643834506
1670930495.238279,-13.226534,56.849228617082936
1670930495.2392862,-13.158451,56.847230322739755
1670930495.2402933,-13.099984,56.84523202839658
1670930495.2413,-13.056278,56.84323420713445
1670930495.2423072,-13.056831,56.84123591279128
1670930495.2433152,-13.067938,56.83923572612392
1670930495.2443223,-13.151094,56.837237431780736
1670930495.2453291,-13.180304,56.83523961051861
1670930495.2463362,-13.173236,56.83324131617543
1670930495.2473433,-13.165687,56.83124302183226
1670930495.2483501,-13.177659,56.82924520057013
1670930495.2493572,-13.199993,56.827246906226954
1670930495.2503643,-13.235092,56.82524861188378
1670930495.2513711,-13.326205,56.82325079062165
1670930495.2523782,-13.395394,56.821252496278476
1670930495.2533853,-13.447538,56.8192542019353
1670930495.2543921,-13.487878,56.81725638067317
1670930495.2554002,-13.491917,56.815256194005805
1670930495.2564073,-13.446961,56.81325789966263
1670930495.257414,-13.349453,56.8112600784005
1670930495.2584212,-13.266465,56.80926178405733
1670930495.260435,-13.112629,56.80526566845202
1670930495.2614422,-13.052288,56.80326737410885
1670930495.2624493,-12.998894,56.801269079765675
1670930495.263456,-12.978459,56.799271258503545
1670930495.2644632,-12.99673,56.79727296416037
1670930495.2654703,-13.028848,56.795274669817196
1670930495.266477,-13.06063,56.79327684855507
1670930495.2674842,-13.101475,56.79127855421189
1670930495.2684922,-13.147152,56.789278367544526
1670930495.2694993,-13.184415,56.78728007320135
1670930495.2705061,-13.195786,56.78528225193922
1670930495.2715132,-13.170735,56.78328395759605
1670930495.2725203,-13.169461,56.78128566325287
1670930495.2735271,-13.184246,56.779287841990744
1670930495.2745342,-13.183476,56.77728954764757
1670930495.2755413,-13.185352,56.775291253304395
1670930495.2765481,-13.201195,56.773293432042266
1670930495.2775552,-13.230453,56.77129513769909
1670930495.2785623,-13.247112,56.76929684335592
1670930495.2795691,-13.251007,56.75269868526467
1670930495.2805772,-13.269687,56.718775303933256
1670930495.2815843,-13.310652,56.747641265617546
1670930495.282591,-13.318464,56.785942
1670930495.2835982,-13.288967,56.79709323885578
1670930495.2846053,-13.232207,56.827822873628996
1670930495.285612,-13.187203,56.846036952551266
1670930495.2866192,-13.20307,56.86425655828367
1670930495.2876263,-13.207205,56.85814904005723
1670930495.288633,-13.160133,56.821478881485064
1670930495.2896402,-13.166744,56.81959402491305
1670930495.2906473,-13.191843,56.81770916834105
1670930495.291654,-13.200882,56.815824757994555
1670930495.2926612,-13.170014,56.81393990142255
1670930495.2936692,-13.119914,56.812053259948485
1670930495.2946763,-13.13417,56.81016840337648
1670930495.2956831,-13.150229,56.80828399302999
1670930495.2966902,-13.164101,56.806399136457976
1670930495.2976973,-13.191146,56.80451427988597
1670930495.2987041,-13.205907,56.80262986953948
1670930495.2997112,-13.213984,56.800745012967475
1670930495.3007183,-13.212734,56.79886015639547
1670930495.3017251,-13.187324,56.79697574604897
1670930495.3027322,-13.185449,56.79509088947697
1670930495.3037393,-13.223529,56.79320603290496
1670930495.3047462,-13.259542,56.79132162255847
1670930495.3057542,-13.255117,56.789434981084405
1670930495.3067613,-13.249084,56.7875501245124
1670930495.307768,-13.218023,56.78566571416591
1670930495.3087752,-13.188334,56.783780857593904
1670930495.3097823,-13.177178,56.78189600102189
1670930495.310789,-13.163187,56.7800115906754
1670930495.3117962,-13.167441,56.778126734103395
1670930495.3128033,-13.164172,56.77624187753139
1670930495.31381,-13.157272,56.7743574671849
1670930495.3148172,-13.147176,56.77247261061289
1670930495.3158243,-13.138088,56.77058775404088
1670930495.316831,-13.16083,56.76870334369439
1670930495.3178382,-13.197083,56.766818487122386
1670930495.3188462,-13.21509,56.76493184564832
1670930495.3198533,-13.218023,56.763046989076315
1670930495.3208601,-13.218792,56.761162578729824
1670930495.3218672,-13.185689,56.75927772215782
1670930495.3228743,-13.158812,56.75739286558581
1670930495.3238811,-13.174053,56.755508455239315
1670930495.3248882,-13.186891,56.75362359866731
1670930495.3258953,-13.165663,56.751738742095306
1670930495.3269022,-13.151262,56.749854331748814
1670930495.3279092,-13.169678,56.7479694751768
1670930495.328916,-13.192131,56.74608506483031
1670930495.3299232,-13.201675,56.744200208258306
1670930495.3309312,-13.183092,56.74231356678424
1670930495.3319383,-13.16838,56.740428710212235
1670930495.332945,-13.172875,56.738544299865744
1670930495.3339522,-13.209056,56.73665944329374
1670930495.3349593,-13.273677,56.73477458672173
1670930495.335966,-13.315628,56.732890176375236
1670930495.3369732,-13.334163,56.73100531980323
1670930495.3379803,-13.379023,56.729120463231226
1670930495.338987,-13.38698,56.727236052884734
1670930495.3399942,-13.3683,56.72535119631273
1670930495.3410013,-13.352891,56.72346633974072
1670930495.342008,-13.325051,56.721581929394226
1670930495.3430152,-13.265431,56.71969707282222
1670930495.3440232,-13.209176,56.717810431348155
1670930495.3450303,-13.184919,56.71592557477615
1670930495.3460371,-13.184174,56.71404116442966
1670930495.3470442,-13.189799,56.712156307857654
1670930495.3480513,-13.182515,56.71027145128564
1670930495.3490582,-13.16874,56.70838704093915
1670930495.3500652,-13.180833,56.706502184367146
1670930495.351072,-13.156095,56.704617774020655
1670930495.3520792,-13.142728,56.70273291744865
1670930495.3530862,-13.169461,56.70084806087664
1670930495.354093,-13.184535,56.698963650530146
1670930495.3551002,-13.21509,56.69707879395814
1670930495.3561082,-13.219658,56.70120839055794
1670930495.3571153,-13.207205,56.72569476824034
1670930495.358122,-13.196963,56.69237396614211
1670930495.3591292,-13.209296,56.68388430536353
1670930495.3601363,-13.225884,56.710208495231285
1670930495.361143,-13.212878,56.69199441630901
1670930495.3621502,-13.23603,56.677399
1670930495.3631573,-13.27411,56.677399
1670930495.364164,-13.301395,56.66965337529805
1670930495.3651712,-13.304233,56.63249284626586
1670930495.3661783,-13.317454,56.5927510430622
1670930495.367185,-13.302766,56.55301864842937
1670930495.3681922,-13.249828,56.5679575691464
1670930495.3692002,-13.158812,56.516855401525994
1670930495.3702073,-13.067217,56.514591
1670930495.3712142,-13.037022,56.514591
1670930495.3722212,-13.038368,56.479163473533625
1670930495.373228,-13.041037,56.40704875584168
1670930495.3742352,-13.069261,56.42401195089392
1670930495.3752422,-13.154653,56.40603074749642
1670930495.376249,-13.194415,56.333691
1670930495.3772562,-13.192733,56.333691
1670930495.3782632,-13.214994,56.333691
1670930495.37927,-13.2186,56.333691
1670930495.3802772,-13.218408,56.333691
1670930495.3812852,-13.202662,56.333691
1670930495.3822923,-13.189246,56.333691
1670930495.383299,-13.205522,56.333691
1670930495.3843062,-13.230788,56.333691
1670930495.3853133,-13.245021,56.333691
1670930495.38632,-13.270359,56.333691
1670930495.3873272,-13.264998,56.333691
1670930495.3883343,-13.23562,56.333691
1670930495.389341,-13.194632,56.333691
1670930495.3903482,-13.181866,56.333691
1670930495.3913553,-13.180928,56.333691
1670930495.392362,-13.195401,56.333691
1670930495.3933692,-13.21699,56.333691
1670930495.3943772,-13.221365,56.333691
1670930495.395384,-13.228409,56.333691
1670930495.3963912,-13.235164,56.333691
1670930495.3973982,-13.248627,56.333691
1670930495.398405,-13.280192,56.333691
1670930495.3994122,-13.261945,56.333691
1670930495.4004192,-13.2374,56.333691
1670930495.401426,-13.250261,56.333691
1670930495.4024332,-13.263772,56.333691
1670930495.4034402,-13.237304,56.333691
1670930495.404447,-13.21848,56.333691
1670930495.4054542,-13.219971,56.333691
1670930495.4064622,-13.223624,56.333691
1670930495.4074693,-13.238289,56.333691
1670930495.408476,-13.232592,56.333691
1670930495.4094832,-13.206027,56.333691
1670930495.4104903,-13.161456,56.333691
1670930495.411497,-13.147223,56.333691
1670930495.4125042,-13.137655,56.333691
1670930495.4135113,-13.106932,56.34342990367191
1670930495.414518,-13.121476,56.374863806866955
1670930495.4155252,-13.154147,56.481438425837325
1670930495.4165323,-13.189054,56.43231092538736
1670930495.4175391,-13.217951,56.485753541726275
1670930495.4185462,-13.222062,56.47133024940391
1670930495.4195542,-13.206003,56.524746162097735
1670930495.420561,-13.193045,56.55809326752504
1670930495.4215682,-13.19605,56.50103585856513
1670930495.4225752,-13.221749,56.515035141152204
1670930495.423582,-13.258676,56.52903110951519
1670930495.4245892,-13.280841,56.54303039210226
1670930495.4255962,-13.288365,56.55702967468933
1670930495.426603,-13.294857,56.571025643052316
1670930495.4276102,-13.283654,56.58502492563939
1670930495.4286172,-13.258411,56.59902420822646
1670930495.429624,-13.248891,56.613020176589444
1670930495.4306312,-13.244877,56.627019459176516
1670930495.4316392,-13.276465,56.64103199865998
1670930495.4326463,-13.28012,56.655031281247055
1670930495.433653,-13.247833,56.66902724961003
1670930495.4346602,-13.206147,56.68302653219711
1670930495.4356673,-13.173476,56.69702581478418
1670930495.436674,-13.170471,56.71102178314716
1670930495.4376812,-13.171336,56.72502106573424
1670930495.4386883,-13.168548,56.73902034832131
1670930495.4396951,-13.178476,56.75301631668429
1670930495.4407022,-13.185784,56.76701559927136
1670930495.4417093,-13.228072,56.78101488185844
1670930495.4427161,-13.382388,56.795010850221416
1670930495.4437232,-13.4936,56.80901013280849
1670930495.4447312,-13.515573,56.823022672291955
1670930495.445738,-13.527761,56.83701864065493
1670930495.4467452,-13.513385,56.85101792324201
1670930495.4477522,-13.491316,56.86501720582908
1670930495.448759,-13.397919,56.87901317419206
1670930495.4497662,-13.186097,56.89301245677914
1670930495.4507732,-13.029858,56.90701173936621
1670930495.45178,-13.017237,56.92100770772919
1670930495.4527872,-13.027719,56.93500699031627
1670930495.4537942,-13.043681,56.94900627290334
1670930495.454801,-13.096066,56.96300224126632
1670930495.4558082,-13.173116,56.977001523853396
1670930495.4568162,-13.207253,56.991014063336856
1670930495.4578233,-13.226149,57.005013345923935
1670930495.45883,-13.231125,57.01900931428691
1670930495.4598372,-13.206195,57.033008596873984
1670930495.4608443,-13.163644,57.04700787946106
1670930495.4618511,-13.157585,57.06100384782404
1670930495.4628582,-13.164629,57.07500313041111
1670930495.4638653,-13.173596,57.08900241299819
1670930495.4648721,-13.198237,57.10299838136117
1670930495.4658792,-13.226245,57.11699766394824
1670930495.4668863,-13.201508,57.126173331425846
1670930495.4678931,-13.19956,57.09908402789034
1670930495.4689002,-13.228192,57.14973963662375
1670930495.4699082,-13.264998,57.165836
1670930495.470915,-13.2875,57.17715535041716
1670930495.4719222,-13.299761,57.25867243872199
1670930495.4729292,-13.309858,57.274372
1670930495.473936,-13.295529,57.274372
1670930495.4749432,-13.277283,57.28267911874106
1670930495.4759502,-13.314835,57.332247213382296
1670930495.476957,-13.387197,57.35491575819393
1670930495.4779642,-13.402005,57.377589670882635
1670930495.4789712,-13.390129,57.40026358357133
1670930495.479978,-13.37484,57.422932128382975
1670930495.4809852,-13.323032,57.44560604107167
1670930495.4819932,-13.306949,57.4683014252686
1670930495.4830003,-13.269807,57.490975337957295
1670930495.4840071,-13.199391,57.51364388276894
1670930495.4850142,-13.135949,57.536317795457634
1670930495.4860213,-13.110106,57.55899170814634
1670930495.4870281,-13.141478,57.581660252957974
1670930495.4880352,-13.154147,57.60433416564668
1670930495.4890423,-13.1547,57.62700807833537
1670930495.4900491,-13.153402,57.649676623147016
1670930495.4910562,-13.125659,57.67235053583571
1670930495.4920633,-13.106475,57.695024448524414
1670930495.4930701,-13.083636,57.71769299333606
1670930495.4940772,-13.091209,57.740366906024754
1670930495.4950852,-13.14244,57.763621641766115
1670930495.496092,-13.197829,57.834132831348256
1670930495.4970992,-13.213504,57.78181317735399
1670930495.4981062,-13.235717,57.8176602639485
1670930495.499113,-13.290072,57.83587434287077
1670930495.5001202,-13.350294,57.853256
1670930495.5011272,-13.38912,57.858065972818316
1670930495.502134,-13.394193,57.943718
1670930495.5031412,-13.387701,57.94248593188854
1670930495.5041482,-13.372989,57.92697036029838
1670930495.505155,-13.338225,57.94518439418918
1670930495.5061622,-13.288798,57.963402741135596
1670930495.5071702,-13.220451,57.98163834030451
1670930495.5081773,-13.161023,57.999856687250926
1670930495.5091841,-13.117846,58.018070721141726
1670930495.5101912,-13.092531,58.03628906808815
1670930495.5111983,-13.103037,58.05450741503457
1670930495.5122051,-13.13667,58.07272144892537
1670930495.5132122,-13.148594,58.09093979587179
1670930495.5142193,-13.164148,58.10915814281822
1670930495.5152261,-13.225884,58.12737217670902
1670930495.5162332,-13.249036,58.145590523655436
1670930495.5172403,-13.247064,58.16380887060186
1670930495.5182471,-13.282885,58.18202290449266
1670930495.5192542,-13.278293,58.20024125143908
1670930495.5202622,-13.242136,58.21847685060799
1670930495.521269,-13.228456,58.23669088449879
1670930495.5222762,-13.228409,58.25490923144521
1670930495.5232832,-13.226028,58.27312757839163
1670930495.52429,-13.233793,58.29134161228243
1670930495.5252972,-13.249468,58.30955995922886
1670930495.5263042,-13.290866,58.327778306175276
1670930495.527311,-13.344452,58.345992340066076
1670930495.5283182,-13.347073,58.364210687012495
1670930495.5293252,-13.322311,58.38242903395892
1670930495.530332,-13.289424,58.40064306784972
1670930495.5313392,-13.224803,58.41886141479614
1670930495.5323472,-13.198743,58.4271814259171
1670930495.5333543,-13.179919,58.41911823718713
1670930495.5343611,-13.134314,58.452913320457796
1670930495.5353682,-13.092964,58.56815015324305
1670930495.5363753,-13.102629,58.52899719359431
1670930495.5373821,-13.132487,58.5559141952958
1670930495.5383892,-13.168981,58.495986669992874
1670930495.5393963,-13.19468,58.593693758718864
1670930495.5404031,-13.215932,58.62164418032787
1670930495.5414102,-13.283413,58.64040413399857
1670930495.5424173,-13.324715,58.74640022031473
1670930495.5434241,-13.315459,58.775864
1670930495.5444312,-13.310339,58.76341445768772
1670930495.5454392,-13.334548,58.76586990931023
1670930495.546446,-13.36717,58.77757847952157
1670930495.5474532,-13.382941,58.789289822304596
1670930495.5484602,-13.393471,58.80100116508762
1670930495.549467,-13.401621,58.81270973529896
1670930495.5504742,-13.370969,58.82442107808198
1670930495.5514812,-13.308368,58.836132420865
1670930495.552488,-13.25656,58.847840991076346
1670930495.5534952,-13.150661,58.85955233385936
1670930495.5545022,-13.081257,58.871263676642386
1670930495.555509,-13.039715,58.882972246853726
1670930495.5565162,-13.065222,58.89468358963675
1670930495.5575242,-13.151191,58.9064060227065
1670930495.5585313,-13.196266,58.91811736548952
1670930495.5595381,-13.178476,58.92982593570086
1670930495.5605452,-13.139459,58.941537278483885
1670930495.5615523,-13.14078,58.95324862126691
1670930495.5625591,-13.167706,58.96495719147825
1670930495.5635662,-13.184727,58.97666853426127
1670930495.5645733,-13.191579,58.988379877044295
1670930495.5655801,-13.198694,59.000088447255635
1670930495.5665872,-13.202108,59.01179979003866
1670930495.5675943,-13.216557,59.023511132821675
1670930495.5686011,-13.236919,59.03521970303302
1670930495.5696082,-13.256031,59.04693104581604
1670930495.5706162,-13.296972,59.05865347888579
1670930495.571623,-13.363276,59.07036204909713
1670930495.5726302,-13.418377,59.08207339188015
1670930495.5736372,-13.46629,59.093784734663174
1670930495.574644,-13.506678,59.105493304874514
1670930495.5756512,-13.481627,59.11720464765754
1670930495.5766582,-13.431767,59.12891599044056
1670930495.577665,-13.290145,59.1406245606519
1670930495.5786722,-13.152681,59.152335903434924
1670930495.5796793,-13.080848,59.16404724621795
1670930495.580686,-13.074141,59.17575581642929
1670930495.5816932,-13.093084,59.18746715921231
1670930495.5827012,-13.102605,59.19918959228206
1670930495.5837083,-13.148498,59.210900935065084
1670930495.5847151,-13.162057,59.222609505276424
1670930495.5857222,-13.15571,59.23432084805945
1670930495.5867293,-13.203214,59.24603219084246
1670930495.5877361,-13.295314,59.264156921077735
1670930495.5887432,-13.33522,59.264282
1670930495.5897503,-13.305459,59.26401467580453
1670930495.5907571,-13.261488,59.228615899618504
1670930495.5917642,-13.215692,59.26466588412017
1670930495.5927713,-13.201267,59.28185883909416
1670930495.5937781,-13.216196,59.264282
1670930495.5947852,-13.231894,59.265045454935624
1670930495.5957932,-13.221196,59.282372
1670930495.5968,-13.249708,59.282372
1670930495.5978072,-13.329259,59.282372
1670930495.5988142,-13.358901,59.282372
1670930495.599821,-13.370849,59.282372
1670930495.6008282,-13.364478,59.294945903218114
1670930495.6018353,-13.341543,59.33857817572723
1670930495.602842,-13.326638,59.406052945636624
1670930495.6038492,-13.272379,59.323437214592275
1670930495.6048563,-13.19165,59.299077153241726
1670930495.605863,-13.154051,59.32232892059169
1670930495.6068702,-13.156047,59.345586193924916
1670930495.6078782,-13.1597,59.36886549119123
1670930495.6088853,-13.14643,59.39212276452446
1670930495.6098921,-13.189535,59.41537453187442
1670930495.6108992,-13.212902,59.438631805207656
1670930495.6119063,-13.201387,59.461889078540885
1670930495.6129131,-13.190569,59.48514084589085
1670930495.6139202,-13.170062,59.50839811922408
1670930495.6149273,-13.16874,59.53165539255731
1670930495.6159341,-13.226509,59.55490715990727
1670930495.6169412,-13.273797,59.5781644332405
1670930495.6179483,-13.274734,59.60142170657374
1670930495.6189551,-13.247882,59.6246734739237
1670930495.6199632,-13.261513,59.64795277119001
1670930495.6209702,-13.294977,59.67121004452324
1670930495.621977,-13.314474,59.694461811873204
1670930495.6229842,-13.343034,59.71771908520644
1670930495.6239913,-13.395971,59.74097635853967
1670930495.624998,-13.477685,59.76422812588963
1670930495.6260052,-13.485835,59.78748539922286
1670930495.6270123,-13.447923,59.810742672556096
1670930495.628019,-13.427104,59.83399443990606
1670930495.6290262,-13.373109,59.857251713239286
1670930495.6300333,-13.312383,59.88050898657252
1670930495.63104,-13.208575,59.903760753922484
1670930495.6320472,-13.103422,59.92701802725571
1670930495.6330552,-13.058202,59.950297324522026
1670930495.6340623,-13.104984,59.973554597855255
1670930495.6350691,-13.117581,59.99680636520522
1670930495.6360762,-13.085487,60.02006363853845
1670930495.6370833,-13.070871,60.04332091187168
1670930495.6380901,-13.065173,60.06657267922164
1670930495.6390972,-13.09181,60.08982995255488
1670930495.6401043,-13.135396,60.11308722588811
1670930495.6411111,-13.179366,60.13633899323807
1670930495.6421182,-13.198647,60.1595962665713
1670930495.6431253,-13.194752,60.182853539904535
1670930495.6441321,-13.188261,60.2061053072545
1670930495.6451402,-13.203887,60.22938460452081
1670930495.6461473,-13.224754,60.25264187785404
1670930495.647154,-13.236654,60.275893645204
1670930495.6481612,-13.223985,60.29915091853724
1670930495.6491683,-13.170182,60.322408191870466
1670930495.650175,-13.160927,60.34565995922043
1670930495.6511822,-13.194488,60.36955998330949
1670930495.6521893,-13.231438,60.409051374821175
1670930495.653196,-13.244107,60.49556569010727
1670930495.6542032,-13.24115,60.515048153075824
1670930495.6552103,-13.224923,60.573318063025205
1670930495.656217,-13.221749,60.59360194574729
1670930495.6572242,-13.222519,60.64282161134454
1670930495.6582322,-13.230717,60.654944350140056
1670930495.6592393,-13.2355,60.673033841036414
1670930495.6602461,-13.249564,60.64264393886463
1670930495.6612532,-13.244083,60.67386542468398
1670930495.6622603,-13.206676,60.70508691050333
1670930495.6632671,-13.212566,60.736301004872445
1670930495.6642742,-13.230644,60.767522490691796
1670930495.6652813,-13.248891,60.79874397651115
1670930495.6662881,-13.277163,60.82995807088026
1670930495.6672952,-13.292284,60.86117955669961
1670930495.6683023,-13.276851,60.89240104251896
1670930495.6693091,-13.246583,60.923615136888074
1670930495.6703172,-13.245862,60.95486618850839
1670930495.6713243,-13.264854,60.98608767432774
1670930495.672331,-13.284327,61.01730176869685
1670930495.6733382,-13.319522,61.048523254516205
1670930495.6743453,-13.320508,61.079744740335556
1670930495.675352,-13.324883,61.11095883470467
1670930495.6763592,-13.348827,61.14218032052402
1670930495.6773663,-13.397101,61.17340180634337
1670930495.678373,-13.453548,61.20461590071248
1670930495.6793802,-13.478551,61.235837386531834
1670930495.6803873,-13.535022,61.267058872351186
1670930495.681394,-13.56964,61.2982729667203
1670930495.6824012,-13.553101,61.32949445253965
1670930495.6834092,-13.50687,61.360745504159965
1670930495.6844163,-13.355824,61.391966989979316
1670930495.6854231,-13.254997,61.42318108434843
1670930495.6864302,-13.220523,61.45440257016778
1670930495.6874373,-13.160254,61.48562405598713
1670930495.6884441,-13.098494,61.51683815035624
1670930495.6894512,-13.031733,61.548059636175594
1670930495.6904583,-12.959034,61.579281121994946
1670930495.6914651,-12.972978,61.61049521636406
1670930495.6924722,-13.086353,61.64171670218341
1670930495.6934793,-13.175664,61.67293818800276
1670930495.6944861,-13.20444,61.70415228237187
1670930495.6954942,-13.192973,61.73540333399219
1670930495.6965013,-13.17862,61.76662481981154
1670930495.697508,-13.183765,61.79783891418065
1670930495.6985152,-13.182491,61.8290604
1670930495.6995223,-13.171265,61.860281885819354
1670930495.700529,-13.194199,61.891495980188466
1670930495.7015362,-13.209897,61.92271746600782
1670930495.7025433,-13.200665,61.95393895182717
1670930495.70355,-13.197156,61.98515304619628
1670930495.7045572,-13.230717,62.01637453201563
1670930495.7055643,-13.237688,62.047596017834984
1670930495.706571,-13.224683,62.078810112204096
1670930495.7075782,-13.212494,62.15547187839771
1670930495.7085862,-13.209705,62.19077402169766
1670930495.7095933,-13.215259,62.180796947318235
1670930495.7106001,-13.212133,62.24790568383405
1670930495.7116072,-13.228697,62.31029633476395
1670930495.7126143,-13.262787,62.292565376638855
1670930495.7136211,-13.291082,62.31453603743443
1670930495.7146282,-13.287765,62.306788135670004
1670930495.7156353,-13.285409,62.36284642193087
1670930495.7166421,-13.263772,62.37670272329586
1670930495.7176492,-13.246055,62.37782254339424
1670930495.7196631,-13.229923,62.38006191848208
1670930495.7206712,-13.218071,62.381182799016166
1670930495.7216783,-13.226197,62.38230261911455
1670930495.722685,-13.23538,62.383422174104005
1670930495.7236922,-13.206075,62.38454199420239
1670930495.7246993,-13.201195,62.385661814300775
1670930495.725706,-13.227399,62.38678136929023
1670930495.7267132,-13.21033,62.387901189388614
1670930495.7277203,-13.212181,62.389021009486996
1670930495.728727,-13.236919,62.39014056447646
1670930495.7297342,-13.254564,62.39126038457484
1670930495.7307413,-13.326638,62.39238020467322
1670930495.731748,-13.411093,62.39349975966268
1670930495.7327552,-13.47379,62.41317918223547
1670930495.7337632,-13.535526,62.44281387064083
1670930495.7347703,-13.560192,62.47242052244411
1670930495.7357771,-13.587887,62.50202016509687
1670930495.7367842,-13.528435,62.53162681690015
1670930495.7377913,-13.409506,62.56123346870343
1670930495.7387981,-13.290482,62.59083311135618
1670930495.7398052,-13.191771,62.62043976315946
1670930495.7408123,-13.093661,62.629047
1670930495.7418191,-13.00197,62.668153715884735
1670930495.7428262,-13.007596,62.7360013699284
1670930495.7438333,-13.065125,62.72908427181688
1670930495.7448401,-13.121716,62.74633091640867
1670930495.7458482,-13.14292,62.823444023843585
1670930495.7468553,-13.159052,62.84613
1670930495.747862,-13.154123,62.8599376804001
1670930495.7488692,-13.180712,62.91994558655222
1670930495.7498763,-13.218311,62.9527058638308
1670930495.750883,-13.263556,62.973599174247205
1670930495.7518902,-13.315459,62.994497432167854
1670930495.7528973,-13.358973,63.015395690088496
1670930495.753904,-13.361666,63.0362890005049
1670930495.7549112,-13.334211,63.05718725842555
1670930495.7559183,-13.289976,63.07808551634619
1670930495.756925,-13.284567,63.0989788267626
1670930495.7579322,-13.293343,63.119877084683246
1670930495.7589402,-13.304882,63.14079513262086
1670930495.7599473,-13.27774,63.16169339054151
1670930495.7609541,-13.24704,63.18258670095791
1670930495.7619612,-13.233818,63.203484958878555
1670930495.7629683,-13.204247,63.224383216799204
1670930495.7639751,-13.151912,63.24527652721561
1670930495.7649822,-13.119385,63.26617478513625
1670930495.7659893,-13.114817,63.2870730430569
1670930495.7669961,-13.141934,63.307966353473304
1670930495.7680032,-13.195713,63.328864611393946
1670930495.7690103,-13.241126,63.349762869314596
1670930495.7700171,-13.262907,63.370656179731
1670930495.7710252,-13.271249,63.39157422766861
1670930495.7720323,-13.268941,63.41247248558926
1670930495.773039,-13.271729,63.43336579600567
1670930495.7740462,-13.283654,63.45426405392631
1670930495.7750533,-13.270311,63.47516231184696
1670930495.77606,-13.22812,63.49605562226336
1670930495.7770672,-13.225572,63.516953880184005
1670930495.7780743,-13.254733,63.537852138104654
1670930495.779081,-13.268989,63.55874544852106
1670930495.7800882,-13.267306,63.5796437064417
1670930495.7810953,-13.34176,63.60054196436235
1670930495.782102,-13.463284,63.621435274778754
1670930495.7831092,-13.542354,63.641898527268395
1670930495.7841172,-13.527521,63.625650928946115
1670930495.7851243,-13.496365,63.713997353221956
1670930495.7861311,-13.448692,63.700562210061996
1670930495.7871382,-13.402534,63.826903341662415
1670930495.7881453,-13.355536,63.85667374916547
1670930495.7891521,-13.284375,63.80876703436754
1670930495.7901592,-13.158402,63.87838113812813
1670930495.7911663,-13.089214,63.895363
1670930495.7921731,-13.033296,63.89697972534245
1670930495.7931802,-12.99709,63.918938078546574
1670930495.7941873,-13.022141,63.940896431750694
1670930495.7951941,-13.074549,63.96284958648105
1670930495.7962022,-13.142704,63.98482873358026
1670930495.7972093,-13.203575,64.00678708678439
1670930495.798216,-13.258603,64.02874024151474
1670930495.7992232,-13.327528,64.05069859471887
1670930495.8002303,-13.36294,64.072656947923
1670930495.801237,-13.366979,64.09461010265335
1670930495.8022442,-13.366522,64.11656845585746
1670930495.8032513,-13.32921,64.13852680906159
1670930495.804258,-13.267931,64.16047996379194
1670930495.8052652,-13.207518,64.18243831699607
1670930495.8062723,-13.165999,64.2043966702002
1670930495.807279,-13.197012,64.2165339155937
1670930495.8082862,-13.215667,64.21205720600858
1670930495.8092942,-13.187948,64.24380099380214
1670930495.8103013,-13.200498,64.26686652145924
1670930495.8113081,-13.22961,64.28835772150691
1670930495.8123152,-13.234299,64.28035145315852
1670930495.8133223,-13.228553,64.30379878803052
1670930495.8143291,-13.243194,64.3188000472103
1670930495.8153362,-13.270888,64.293335
1670930495.8163433,-13.302935,64.29480006548218
1670930495.8173501,-13.337577,64.29955196373965
1670930495.8183572,-13.378349,64.30430498723942
1670930495.8193643,-13.410035,64.30905801073921
1670930495.8203712,-13.381307,64.31380990899667
1670930495.8213792,-13.307141,64.31856743346567
1670930495.8223863,-13.239107,64.32332045696545
1670930495.823393,-13.20069,64.32807235522293
1670930495.8244002,-13.153763,64.3328253787227
1670930495.8254073,-13.122414,64.33757840222248
1670930495.826414,-13.155013,64.34233030047994
1670930495.8274212,-13.169245,64.34708332397973
1670930495.8284283,-13.155013,64.3518363474795
1670930495.829435,-13.158571,64.35658824573697
1670930495.8304422,-13.202926,64.36134126923675
1670930495.8314493,-13.269831,64.36609429273653
1670930495.832456,-13.293798,64.370846190994
1670930495.8334632,-13.299809,64.37559921449377
1670930495.8344712,-13.308223,64.38035673896277
1670930495.8354783,-13.294929,64.38510976246256
1670930495.8364851,-13.268965,64.38986166072003
1670930495.8374922,-13.263892,64.3946146842198
1670930495.8384993,-13.250117,64.39936770771958
1670930495.8395061,-13.238554,64.401886
1670930495.8405132,-13.280288,64.41057251549833
1670930495.8415203,-13.35104,64.44642320982355
1670930495.8425272,-13.380633,64.43848708557807
1670930495.8435342,-13.391163,64.46534945970434
1670930495.844541,-13.390923,64.4917459148784
1670930495.8455482,-13.391139,64.49342777282479
1670930495.8465562,-13.352578,64.50012187458273
1670930495.8475633,-13.283365,64.46465074058179
1670930495.84857,-13.223216,64.45490656933569
1670930495.8495772,-13.194704,64.45256784446839
1670930495.8505843,-13.171649,64.45022911960108
1670930495.851591,-13.162922,64.44789094840917
1670930495.8525982,-13.187828,64.44555222354187
1670930495.8536053,-13.175063,64.44321349867457
1670930495.854612,-13.140853,64.44087532748266
1670930495.8556192,-13.140252,64.43853660261536
1670930495.8566263,-13.180688,64.43619787774804
1670930495.857633,-13.243627,64.43385970655613
1670930495.8586402,-13.3044,64.43152098168883
1670930495.8596482,-13.333057,64.42918004211995
1670930495.8606553,-13.37508,64.42684131725265
1670930495.8616621,-13.438378,64.42450314606074
1670930495.8626692,-13.482661,64.42216442119344
1670930495.8636763,-13.516631,64.41982569632613
1670930495.8646832,-13.568486,64.41748752513422
1670930495.8656902,-13.526031,64.41514880026692
1670930495.866697,-13.439845,64.41281062907501
1670930495.8677042,-13.359742,64.41047190420771
1670930495.8687112,-13.297669,64.4081331793404
1670930495.869718,-13.253892,64.40579500814849
1670930495.8707252,-13.253122,64.40345628328119
1670930495.8717332,-13.221316,64.4011153437123
1670930495.8727403,-13.104672,64.398776618845
1670930495.873747,-13.003822,64.3964384476531
1670930495.8747542,-12.949731,64.3940997227858
1670930495.8757613,-12.995168,64.39176099791848
1670930495.876768,-13.080872,64.38942282672657
1670930495.8777752,-13.141623,64.38708410185927
1670930495.8787823,-13.157321,64.38474537699197
1670930495.879789,-13.174486,64.38240720580006
1670930495.8807962,-13.223817,64.38006848093275
1670930495.8818033,-13.268604,64.37772975606545
1670930495.88281,-13.27798,64.37539158487354
1670930495.8838172,-13.292309,64.37305286000624
1670930495.8848252,-13.327961,64.37071192043736
1670930495.8858323,-13.390178,64.36837319557006
1670930495.8868392,-13.44196,64.36603502437815
1670930495.8878462,-13.432368,64.38143435431569
1670930495.888853,-13.380273,64.35210965196663
1670930495.8898602,-13.339139,64.347626
1670930495.8908672,-13.280096,64.33150053314259
1670930495.891874,-13.218985,64.3132869034565
1670930495.8928812,-13.202301,64.29506885264664
1670930495.8938882,-13.21622,64.3592950286123
1670930495.894895,-13.177466,64.34910934112038
1670930495.8959022,-13.139579,64.347626
1670930495.8969102,-13.145061,64.3307231940868
1670930495.8979173,-13.155181,64.36354898069129
1670930495.898924,-13.151262,64.365715
1670930495.8999312,-13.162128,64.33117127038626
1670930495.9009383,-13.20355,64.31212275536481
1670930495.901945,-13.240477,64.32893615494636
1670930495.9029522,-13.279254,64.34153077747622
1670930495.9039593,-13.310315,64.35394125866439
1670930495.904966,-13.337048,64.36634880176516
1670930495.9059732,-13.349284,64.37875928295331
1670930495.9069803,-13.376522,64.39116976414147
1670930495.907987,-13.406213,64.40357730724223
1670930495.9089942,-13.432705,64.41598778843039
1670930495.9100022,-13.437634,64.42841002196816
1670930495.911009,-13.418473,64.44081756506893
1670930495.9120162,-13.504995,64.45322804625708
1670930495.9130232,-13.492518,64.46563852744524
1670930495.91403,-13.447129,64.478046070546
1670930495.9150372,-13.33123,64.49045655173416
1670930495.9160442,-13.232784,64.50286703292232
1670930495.917051,-13.170399,64.51527457602309
1670930495.9180582,-13.162345,64.52768505721124
1670930495.9190652,-13.150709,64.5400955383994
1670930495.920072,-13.114576,64.55250308150016
1670930495.9210792,-13.099383,64.56491356268832
1670930495.9220872,-13.099792,64.5773357962261
1670930495.9230943,-13.104336,64.58974627741425
1670930495.924101,-13.139362,64.60215382051501
1670930495.9251082,-13.191674,64.61456430170317
1670930495.9261153,-13.236174,64.62697478289134
1670930495.927122,-13.265191,64.6393823259921
1670930495.9281292,-13.27548,64.65179280718026
1670930495.9291363,-13.251102,64.66420328836841
1670930495.930143,-13.272042,64.67661083146918
1670930495.9311502,-13.364262,64.68902131265733
1670930495.9321573,-13.425517,64.7014317938455
1670930495.9331641,-13.464871,64.71383933694625
1670930495.9341712,-13.46968,64.72624981813442
1670930495.9351792,-13.450711,64.73867205167218
1670930495.936186,-13.403592,64.75107959477295
1670930495.9371932,-13.328922,64.76349007596112
1670930495.9382002,-13.251295,64.77590055714927
1670930495.939207,-13.162898,64.78830810025003
1670930495.9402142,-13.108783,64.80071858143819
1670930495.9412212,-13.108711,64.813129062626345
1670930495.942228,-13.136357,64.82553660572711
1670930495.9432352,-13.196315,64.83794708691526
1670930495.9442422,-13.239107,64.85035756810343
1670930495.945249,-13.248434,64.86276511120418
1670930495.9462562,-13.262234,64.87517559239235
1670930495.9472642,-13.286443,64.88759782593013
1670930495.9482713,-13.29137,64.90000830711828
1670930495.949278,-13.300386,64.91241585021905
1670930495.9502852,-13.372171,64.9248263314072
1670930495.9512923,-13.43809,64.93723681259536
1670930495.952299,-13.444437,64.94964435569612
1670930495.9533062,-13.472853,64.96205483688428
1670930495.9543133,-13.481651,64.97446531807245
1670930495.9553201,-13.4391,64.9868728611732
1670930495.9563272,-13.38811,64.99928334236137
1670930495.9573343,-13.35628,65.01169382354952
1670930495.9583411,-13.372292,65.02744669027182
1670930495.9593482,-13.327071,65.01379524821174
1670930495.9603562,-13.249204,65.0203979137068
1670930495.961363,-13.170519,65.02415150762995
1670930495.9623702,-13.169894,65.016953
1670930495.9633772,-13.186266,65.07268670917759
1670930495.964384,-13.175856,65.07358825035764
1670930495.9653912,-13.15684,65.0987293669528
1670930495.9663982,-13.170543,65.16006241072706
1670930495.967405,-13.220355,65.17871998964569
1670930495.9684122,-13.236246,65.17711075612603
1670930495.9694192,-13.230764,65.17550152260635
1670930495.970426,-13.216389,65.17389267006054
1670930495.9714332,-13.20557,65.17228343654087
1670930495.9724412,-13.204032,65.17067267912583
1670930495.9734483,-13.203599,65.16906344560616
1670930495.974455,-13.194992,65.16745459306034
1670930495.9754622,-13.2067,65.16584535954067
1670930495.9764693,-13.232639,65.16423612602101
1670930495.9774761,-13.248483,65.16262727347518
1670930495.9784832,-13.262258,65.16101803995552
1670930495.9794903,-13.281971,65.15940880643585
1670930495.9804971,-13.313151,65.15779995389003
1670930495.9815042,-13.327408,65.15619072037036
1670930495.9825113,-13.350558,65.1545814868507
1670930495.9835181,-13.362218,65.15297263430487
1670930495.9845252,-13.335509,65.15136340078521
1670930495.9855332,-13.308368,65.14975264337016
1670930495.98654,-13.297622,65.14814379082435
1670930495.9875472,-13.279014,65.14653455730468
1670930495.9885542,-13.297646,65.14492532378502
1670930495.989561,-13.313224,65.14331647123919
1670930495.9905682,-13.297236,65.14170723771953
1670930495.9915752,-13.297116,65.14009800419986
1670930495.992582,-13.301781,65.13848915165404
1670930495.9935892,-13.278677,65.13687991813437
1670930495.9945962,-13.253386,65.13527068461471
1670930495.995603,-13.277259,65.13366183206888
1670930495.9966102,-13.32284,65.13205259854922
1670930495.9976182,-13.365295,65.13044184113417
1670930495.9986253,-13.402054,65.1288326076145
1670930495.9996321,-13.426022,65.12722375506868
1670930496.0006392,-13.399073,65.12561452154901
1670930496.0016463,-13.400731,65.12400528802935
1670930496.0026531,-13.37008,65.12239643548352
1670930496.0036602,-13.308728,65.12078720196386
1670930496.0046673,-13.293727,65.11917796844419
1670930496.0056741,-13.293678,65.11756911589838
1670930496.0066812,-13.258652,65.1159598823787
1670930496.0076883,-13.207806,65.11435064885904
1670930496.0086951,-13.150805,65.11274179631322
1670930496.0097022,-13.127943,65.11113256279356
1670930496.0107102,-13.159196,65.1095218053785
1670930496.011717,-13.212325,65.10791295283269
1670930496.0127242,-13.284543,65.10630371931302
1670930496.0137312,-13.324354,65.10469448579336
1670930496.014738,-13.336159,65.10308563324753
1670930496.0157452,-13.316133,65.10147639972787
1670930496.0167522,-13.2875,65.0998671662082
1670930496.017759,-13.26257,65.09825831366238
1670930496.0187662,-13.237712,65.09664908014271
1670930496.0197732,-13.250165,65.09503984662305
1670930496.02078,-13.311685,65.09343099407722
1670930496.0217872,-13.358228,65.09182176055756
1670930496.0227952,-13.375008,65.09021100314251
1670930496.0238023,-13.375994,65.0812915665236
1670930496.0248091,-13.397486,65.0793635193133
1670930496.0258162,-13.429099,65.07276856448152
1670930496.0268233,-13.430637,65.03633591988554
1670930496.0278301,-13.35479,65.00842990987124
1670930496.0288372,-13.315291,64.998863
1670930496.0298443,-13.311373,64.96375415522175
1670930496.0308511,-13.288198,64.9354081688126
1670930496.0318582,-13.276249,64.96265862088698
1670930496.0328653,-13.239419,64.97939709776098
1670930496.0338721,-13.176385,64.9766594997594
1670930496.0348792,-13.175471,64.97392125349877
1670930496.0358872,-13.178525,64.97118041420191
1670930496.036894,-13.180304,64.96844281620034
1670930496.0379012,-13.1923,64.9657045699397
1670930496.0389082,-13.211196,64.96296632367907
1670930496.039915,-13.254685,64.96022872567748
1670930496.0409222,-13.300818,64.95749047941685
1670930496.0419292,-13.295698,64.95475223315621
1670930496.042936,-13.293823,64.95201463515464
1670930496.0439432,-13.305026,64.949276388894
1670930496.0449502,-13.32397,64.94653814263337
1670930496.045957,-13.334283,64.9438005446318
1670930496.0469642,-13.317479,64.94106229837116
1670930496.0479722,-13.308055,64.93832145907429
1670930496.0489793,-13.301155,64.93558321281365
1670930496.0499861,-13.249036,64.93284561481208
1670930496.0509932,-13.201796,64.93010736855145
1670930496.0520003,-13.192613,64.92736912229081
1670930496.0530071,-13.184415,64.92463152428924
1670930496.0540142,-13.210017,64.9218932780286
1670930496.0550213,-13.304737,64.91915503176797
1670930496.0560281,-13.371474,64.9164174337664
1670930496.0570352,-13.384192,64.91367918750576
1670930496.0580423,-13.377532,64.91094094124513
1670930496.0590491,-13.414795,64.90820334324354
1670930496.0600562,-13.539373,64.90546509698291
1670930496.0610642,-13.627962,64.90272425768605
1670930496.062071,-13.680275,64.89998665968447
1670930496.0630782,-13.673904,64.89724841342384
1670930496.0640852,-13.601157,64.8945101671632
1670930496.065092,-13.469247,64.89177256916163
1670930496.0660992,-13.321638,64.889034322901
1670930496.0671062,-13.204032,64.88629607664036
1670930496.068113,-13.133929,64.88355847863878
1670930496.0691202,-13.037622,64.88082023237814
1670930496.0701272,-12.951486,64.87808198611751
1670930496.071134,-12.940667,64.87534438811593
1670930496.0721412,-13.055437,64.8726061418553
1670930496.0731492,-13.191939,64.86986530255844
1670930496.0741563,-13.236366,64.8671270562978
1670930496.0751631,-13.227279,64.86438945829622
1670930496.0761702,-13.219225,64.86165121203558
1670930496.0771773,-13.239299,64.85891296577495
1670930496.0781841,-13.267739,64.85617536777337
1670930496.0791912,-13.279495,64.8587694410012
1670930496.0801983,-13.300218,64.8817504620887
1670930496.0812051,-13.332264,64.908417
1670930496.0822122,-13.365368,64.908417
1670930496.0832193,-13.355511,65.05310088145187
1670930496.0842261,-13.330894,65.07031644355644
1670930496.0852332,-13.323994,65.06977478695073
1670930496.0862412,-13.318584,65.06897917382616
1670930496.087248,-13.294544,65.06754553712953
1670930496.0882552,-13.249372,65.03569742979738
1670930496.0892622,-13.295602,65.05321772882702
1670930496.090269,-13.352121,65.05524124173611
1670930496.0912762,-13.311132,65.05726523380999
1670930496.0922832,-13.256945,65.05928922588387
1670930496.09329,-13.253315,65.06131273879295
1670930496.0942972,-13.252858,65.06333673086684
1670930496.0953043,-13.233602,65.06536072294071
1670930496.096311,-13.212325,65.0673842358498
1670930496.0973182,-13.183838,65.06940822792367
1670930496.0983262,-13.214778,65.07143413665672
1670930496.0993333,-13.275215,65.07345812873059
1670930496.1003401,-13.307694,65.07548164163968
1670930496.1013472,-13.323056,65.07750563371356
1670930496.1023543,-13.333538,65.07952962578744
1670930496.1033611,-13.351448,65.08155313869653
1670930496.1043682,-13.434965,65.08357713077041
1670930496.1053753,-13.481387,65.08560112284428
1670930496.1063821,-13.443764,65.08762463575337
1670930496.1073892,-13.380224,65.08964862782726
1670930496.1083963,-13.366161,65.09167261990113
1670930496.1094031,-13.383662,65.09369613281022
1670930496.1104102,-13.397318,65.0957201248841
1670930496.1114182,-13.37395,65.09774603361714
1670930496.112425,-13.314906,65.09976954652622
1670930496.1134322,-13.299689,65.1017935386001
1670930496.1144392,-13.31195,65.10381753067398
1670930496.115446,-13.28738,65.10584104358307
1670930496.1164532,-13.264349,65.10786503565694
1670930496.1174603,-13.252738,65.10988902773083
1670930496.118467,-13.225187,65.1119125406399
1670930496.1194742,-13.201724,65.1139365327138
1670930496.1204813,-13.200545,65.11596052478767
1670930496.121488,-13.221942,65.11798403769676
1670930496.1224952,-13.243266,65.12000802977063
1670930496.1235032,-13.275311,65.12203393850368
1670930496.1245103,-13.290049,65.12405793057755
1670930496.1255171,-13.269518,65.12608144348664
1670930496.1265242,-13.230885,65.12810543556051
1670930496.1275313,-13.22961,65.1301294276344
1670930496.1285381,-13.254517,65.13215294054349
1670930496.1295452,-13.282043,65.13417693261736
1670930496.1305523,-13.321349,65.13620092469124
1670930496.1315591,-13.395851,65.13822443760033
1670930496.1325662,-13.452274,65.14024842967422
1670930496.1335733,-13.438931,65.14227242174809
1670930496.1345801,-13.388447,65.13703979022645
1670930496.1355882,-13.369262,65.09878112446351
1670930496.1365952,-13.360728,65.06674341344778
1670930496.137602,-13.313704,65.08238017163289
1670930496.1386092,-13.269638,65.07122
1670930496.1396163,-13.227279,65.0640344315689
1670930496.140623,-13.171553,65.07506334620886
1670930496.1416302,-13.134506,65.107399
1670930496.1426373,-13.185449,65.08470322699094
1670930496.143644,-13.225404,65.0585731889395
1670930496.1446512,-13.267931,65.07146595735256
1670930496.1456583,-13.283822,65.08435872576563
1670930496.146665,-13.259301,65.09724844191344
1670930496.1476722,-13.238746,65.1101412103265
1670930496.1486802,-13.245934,65.12304618780055
1670930496.1496873,-13.27459,65.11810447702835
1670930496.1506941,-13.288294,65.1089979882698
1670930496.1517012,-13.304641,65.09988934310852
1670930496.1527083,-13.317119,65.09078069794722
1670930496.1537151,-13.324523,65.08167420918866
1670930496.1547222,-13.329812,65.07256556402737
1670930496.1557293,-13.338346,65.06345691886608
1670930496.1567361,-13.362338,65.05435043010753
1670930496.1577432,-13.403976,65.04524178494624
1670930496.1587503,-13.449005,65.03613313978495
1670930496.1597571,-13.481796,65.05106984576877
1670930496.1607652,-13.483502,65.06930499856938
1670930496.1617723,-13.462371,65.12013107296137
1670930496.162779,-13.423017,65.09263106103958
1670930496.1637862,-13.388783,65.10586391442193
1670930496.1647933,-13.407679,65.15744136528374
1670930496.1658,-13.394914,65.1448509806867
1670930496.1668072,-13.347529,65.12664317902265
1670930496.1678143,-13.301588,65.10842550977587
1670930496.168821,-13.24954,65.11760374481813
1670930496.1698282,-13.221966,65.12842051824643
1670930496.1708353,-13.221509,65.13923729167475
1670930496.171842,-13.249324,65.15005150431388
1670930496.1728492,-13.255334,65.16086827774218
1670930496.1738572,-13.218576,65.17169529432714
1670930496.1748643,-13.22848,65.18251206775544
1670930496.1758711,-13.271706,65.19332628039459
1670930496.1768782,-13.275841,65.20414305382289
1670930496.1778853,-13.26733,65.21495982725119
1670930496.1788921,-13.271465,65.22577403989033
1670930496.1798992,-13.318176,65.23659081331863
1670930496.1809063,-13.395154,65.24740758674693
1670930496.1819131,-13.467347,65.25822179938608
1670930496.1829202,-13.540912,65.26903857281438
1670930496.1839273,-13.565578,65.27985534624268
1670930496.1849341,-13.55726,65.29066955888182
1670930496.1859422,-13.556874,65.30149657546679
1670930496.1869493,-13.542979,65.31231334889509
1670930496.187956,-13.498456,65.32312756153422
1670930496.1889632,-13.478959,65.33394433496252
1670930496.1899703,-13.442009,65.34476110839083
1670930496.190977,-13.36003,65.35557532102997
1670930496.1919842,-13.316493,65.36639209445828
1670930496.1929913,-13.307285,65.37720886788658
1670930496.193998,-13.328562,65.38802308052571
1670930496.1950052,-13.281898,65.39883985395402
1670930496.1960123,-13.182732,65.40965662738232
1670930496.197019,-13.150108,65.42047084002147
1670930496.1980262,-13.161095,65.43128761344977
1670930496.1990342,-13.172033,65.44211463003472
1670930496.2000413,-13.196555,65.45418525321888
1670930496.2010481,-13.246632,65.4660005572246
1670930496.2020552,-13.274831,65.46443895446961
1670930496.2030623,-13.262306,65.50617735336195
1670930496.2040691,-13.22336,65.43659815808297
1670930496.2050762,-13.221893,65.45481894874851
1670930496.2060833,-13.276826,65.48456272818312
1670930496.2070901,-13.322576,65.52967365712924
1670930496.2080972,-13.325316,65.49139009990462
1670930496.2091043,-13.299761,65.50976400543853
1670930496.2101111,-13.277619,65.52864890530256
1670930496.2111192,-13.257113,65.54755616474493
1670930496.2121263,-13.265672,65.56644553652464
1670930496.213133,-13.29827,65.58533043638867
1670930496.2141402,-13.303535,65.60421980816838
1670930496.2151473,-13.297597,65.62310917994809
1670930496.216154,-13.293343,65.64199407981212
1670930496.2171612,-13.315796,65.66088345159183
1670930496.2181683,-13.350775,65.67977282337154
1670930496.219175,-13.366353,65.69865772323557
1670930496.2201822,-13.356568,65.71754709501528
1670930496.2211893,-13.36419,65.73643646679498
1670930496.222196,-13.377364,65.75532136665902
1670930496.2232032,-13.364382,65.77421073843873
1670930496.2242112,-13.38763,65.7931179978811
1670930496.2252183,-13.42357,65.81200736966079
1670930496.2262251,-13.379696,65.83089226952484
1670930496.2272322,-13.324643,65.84978164130453
1670930496.2282393,-13.283509,65.86867101308424
1670930496.2292461,-13.253579,65.88755591294827
1670930496.2302532,-13.251968,65.90644528472798
1670930496.2312603,-13.264638,65.92533465650769
1670930496.2322671,-13.262017,65.94421955637172
1670930496.2332742,-13.258099,65.96310892815143
1670930496.2342813,-13.247689,65.98199829993113
1670930496.2352881,-13.220716,66.00088319979517
1670930496.2362962,-13.250647,66.01979045923754
1670930496.2373033,-13.286057,66.03867983101725
1670930496.23831,-13.289231,66.05756473088128
1670930496.2393172,-13.290793,66.07645410266099
1670930496.2403243,-13.313344,66.0953434744407
1670930496.241331,-13.325196,66.11422837430473
1670930496.2423382,-13.300554,66.13311774608444
1670930496.2433453,-13.295025,66.15200711786414
1670930496.244352,-13.316782,66.17089201772818
1670930496.2453592,-13.34777,66.18978138950789
1670930496.2463663,-13.426118,66.20867076128758
1670930496.247373,-13.440999,66.22755566115163
1670930496.2483802,-13.421671,66.24644503293132
1670930496.2493882,-13.377916,66.26571654959466
1670930496.2503953,-13.359574,66.32007255756854
1670930496.2514021,-13.344909,66.35431375560324
1670930496.2524092,-13.317911,66.30303353481163
1670930496.2534163,-13.283389,66.35492676185936
1670930496.2544231,-13.250622,66.33916238412017
1670930496.2554302,-13.243747,66.3727663862661
1670930496.2564373,-13.250911,66.35776845435042
1670930496.2574441,-13.289832,66.38941049523129
1670930496.2584512,-13.36871,66.35716569820393
1670930496.2594583,-13.445495,66.37841913538107
1670930496.2604651,-13.508529,66.39966754096797
1670930496.2614732,-13.579737,66.42094110450608
1670930496.2624803,-13.612167,66.44219454168322
1670930496.263487,-13.575217,66.46344294727012
1670930496.2644942,-13.492278,66.47594461015737
1670930496.2655013,-13.426382,66.43243871053886
1670930496.266508,-13.36318,66.45003050274136
1670930496.2675152,-13.263748,66.36554132665712
1670930496.2685223,-13.191843,66.42276004554124
1670930496.269529,-13.100032,66.3918
1670930496.2705362,-13.062481,66.40323840987125
1670930496.2715433,-13.114385,66.45220101502146
1670930496.27255,-13.152681,66.40425630758226
1670930496.2735572,-13.188285,66.46369042726805
1670930496.2745652,-13.226197,66.46106719653575
1670930496.2755723,-13.264614,66.45844644757331
1670930496.2765791,-13.291876,66.45582631905333
1670930496.2775862,-13.299353,66.45320557009089
1670930496.2785933,-13.329763,66.45058482112844
1670930496.2796001,-13.371882,66.44796469260847
1670930496.2806072,-13.379456,66.43600102503576
1670930496.2816143,-13.359742,66.40472749034565
1670930496.2826211,-13.307646,66.3909373424127
1670930496.2836282,-13.297597,66.38796275820962
1670930496.2846353,-13.356641,66.38498817400655
1670930496.2856421,-13.42381,66.38201429401376
1670930496.2866502,-13.469103,66.37903689296958
1670930496.2876573,-13.491436,66.3760623087665
1670930496.288664,-13.486604,66.3730884287737
1670930496.2896712,-13.487686,66.37011384457062
1670930496.2906783,-13.46802,66.36713926036755
1670930496.291685,-13.410756,66.36416538037476
1670930496.2926922,-13.34777,66.36119079617168
1670930496.2936993,-13.299689,66.35821621196861
1670930496.294706,-13.267042,66.3552423319758
1670930496.2957132,-13.221798,66.35226774777273
1670930496.2967203,-13.165182,66.349293163569655
1670930496.297727,-13.126044,66.34631928357686
1670930496.2987342,-13.149531,66.34334469937379
1670930496.2997422,-13.212975,66.34036729832961
1670930496.3007493,-13.252882,66.33739271412654
1670930496.3017561,-13.268508,66.33441883413374
1670930496.3027632,-13.286634,66.33144424993067
1670930496.3037703,-13.286947,66.3284696657276
1670930496.3047771,-13.26608,66.32549578573479
1670930496.3057842,-13.278485,66.32252120153171
1670930496.3067913,-13.307285,66.31954661732864
1670930496.3077981,-13.340942,66.31657273733585
1670930496.3088052,-13.417199,66.31359815313277
1670930496.3098123,-13.487998,66.3106235689297
1670930496.3108191,-13.514107,66.30764968893689
1670930496.3118272,-13.48997,66.30467228789271
1670930496.3128343,-13.458381,66.30169770368964
1670930496.313841,-13.432633,66.29872382369685
1670930496.3148482,-13.380586,66.29574923949377
1670930496.3158553,-13.330004,66.2927746552907
1670930496.316862,-13.318393,66.28980077529789
1670930496.3178692,-13.287788,66.28682619109482
1670930496.3188763,-13.255383,66.28385160689174
1670930496.319883,-13.238361,66.28087772689895
1670930496.3208902,-13.23139,66.27790314269588
1670930496.3218973,-13.244901,66.2749285584928
1670930496.322904,-13.276081,66.27195467850001
1670930496.3239112,-13.301492,66.26898009429692
1670930496.3249192,-13.326927,66.26600269325276
1670930496.3259263,-13.338298,66.26302810904969
1670930496.3269331,-13.340197999999999,66.26005422905688
1670930496.3279402,-13.360944,66.2570796448538
1670930496.3289473,-13.363637,66.25410506065073
1670930496.3299541,-13.335822,66.25113118065794
1670930496.3309612,-13.288918,66.24815659645486
1670930496.3319683,-13.250838,66.22394333857892
1670930496.3329751,-13.24264,66.2459578750596
1670930496.3339822,-13.249708,66.25334154506437
1670930496.3349893,-13.308969,66.25901500595947
1670930496.3359962,-13.38174,66.23087999932272
1670930496.3370042,-13.418184,66.26516
1670930496.3380113,-13.434099,66.26516
1670930496.339018,-13.429099,66.27762476156414
1670930496.3400252,-13.379647,66.283249
1670930496.3410323,-13.345822,66.29406995286365
1670930496.342039,-13.332095,66.30956042199696
1670930496.3430462,-13.30416,66.32505455924988
1670930496.3440533,-13.260022,66.3405486965028
1670930496.34506,-13.2349,66.35414584815256
1670930496.3460672,-13.266489,66.301338
1670930496.3470743,-13.313104,66.3020848204578
1670930496.348081,-13.340125,66.31770016615019
1670930496.3490882,-13.315532,66.28225268168812
1670930496.3500962,-13.300218,66.26516
1670930496.3511033,-13.340342,66.26643235455413
1670930496.3521101,-13.370008,66.283249
1670930496.3531172,-13.370969,66.283249
1670930496.3541243,-13.356088,66.28289861582088
1670930496.3551311,-13.342673,66.2790352414386
1670930496.3561382,-13.353059,66.27517095221512
1670930496.3571453,-13.348059,66.27130666299165
1670930496.3581522,-13.377219,66.26744328860937
1670930496.3591592,-13.377508,66.26357899938589
1670930496.360166,-13.360103,66.25971562500361
1670930496.3611732,-13.355583,66.25585133578014
1670930496.3621812,-13.355824,66.25198338719186
1670930496.3631883,-13.344957,66.24811909796838
1670930496.364195,-13.353372,66.24425572358611
1670930496.3652022,-13.410348,66.24039143436262
1670930496.3662093,-13.424964,66.23652714513915
1670930496.367216,-13.399697,66.23266377075687
1670930496.3682232,-13.413064,66.22879948153339
1670930496.3692303,-13.393856,66.22493519230991
1670930496.370237,-13.365079,66.22107181792764
1670930496.3712442,-13.35467,66.21720752870415
1670930496.3722513,-13.339476,66.21334323948068
1670930496.373258,-13.295626,66.2094798650984
1670930496.3742652,-13.258916,66.20561557587492
1670930496.3752732,-13.284183,66.20174762728665
1670930496.3762803,-13.283485,66.19788333806316
1670930496.3772871,-13.31094,66.19401996368089
1670930496.3782942,-13.30142,66.19015567445742
1670930496.3793013,-13.253772,66.18629138523393
1670930496.3803082,-13.275288,66.18242801085165
1670930496.3813152,-13.330293,66.17856372162818
1670930496.382322,-13.35717,66.1747003472459
1670930496.3833292,-13.363637,66.17083605802242
1670930496.3843362,-13.346087,66.16697176879894
1670930496.385343,-13.318945,66.16310839441667
1670930496.3863502,-13.281201,66.15924410519318
1670930496.3873582,-13.276081,66.14485762994754
1670930496.3883653,-13.355463,66.11443401883194
1670930496.389372,-13.454029,66.12075587982832
1670930496.3903792,-13.526584,66.144098509299
1670930496.3913863,-13.572212,66.08112477771279
1670930496.392393,-13.634141,66.053312110591
1670930496.3934002,-13.629766,66.02211810473962
1670930496.3944073,-13.573559,66.05229806729082
1670930496.395414,-13.535069,66.0474216332261
1670930496.3964212,-13.481147,66.01197398125822
1670930496.3974283,-13.356568,66.01237050805958
1670930496.398435,-13.253867,66.012766940986225
1670930496.3994422,-13.167177,66.01316346778758
1670930496.4004502,-13.072266,66.0135603700878
1670930496.4014573,-13.046109,66.01395689688916
1670930496.4024642,-13.071303,66.01435332981579
1670930496.4034712,-13.128833,66.01474985661714
1670930496.404478,-13.227447,66.0151462895438
1670930496.4054852,-13.284327,66.01554281634515
1670930496.4064922,-13.278557,66.0159393431465
1670930496.407499,-13.252209,66.01633577607313
1670930496.4085062,-13.251752,66.0167323028745
1670930496.4095132,-13.273509,66.01712882967585
1670930496.41052,-13.291395,66.01752526260249
1670930496.4115272,-13.318417,66.01792178940384
1670930496.4125352,-13.34539,66.01831869170407
1670930496.4135423,-13.369046,66.01871521850542
1670930496.414549,-13.385946,66.01911165143207
1670930496.4155562,-13.358348,66.01950817823342
1670930496.4165633,-13.297525,66.01990470503478
1670930496.41757,-13.270359,66.02030113796141
1670930496.4185772,-13.293463,66.02069766476278
1670930496.4195843,-13.325124,66.02109419156413
1670930496.420591,-13.337288,66.02149062449077
1670930496.4215982,-13.33599,66.02188715129212
1670930496.4226053,-13.353732,66.02228367809349
1670930496.423612,-13.35991,66.02268011102012
1670930496.4246192,-13.353972,66.02307663782148
1670930496.4256272,-13.367195,66.0234735401217
1670930496.426634,-13.373085,66.02386997304833
1670930496.4276412,-13.351255,66.02426649984969
1670930496.4286482,-13.293583,66.02466302665106
1670930496.429655,-13.295265,66.02505945957769
1670930496.4306622,-13.353539,66.02545598637904
1670930496.4316692,-13.370008,66.0258525131804
1670930496.432676,-13.385297,66.02624894610705
1670930496.4336832,-13.411622,66.0266454729084
1670930496.4346902,-13.457995,66.02704199970975
1670930496.435697,-13.486893,66.02743843263639
1670930496.4367042,-13.479032,66.02783495943774
1670930496.4377122,-13.478502,66.02823186173796
1670930496.4387193,-13.448596,66.02862838853932
1670930496.439726,-13.386331,66.02902482146597
1670930496.4407332,-13.33361,66.02942134826732
1670930496.4417403,-13.326278,66.02981787506867
1670930496.442747,-13.298126,66.03957722317597
1670930496.4437542,-13.270985,66.0383953776824
1670930496.4447613,-13.299761,66.03983367818832
1670930496.445768,-13.349766,66.048096
1670930496.4467752,-13.37496,66.02792335479256
1670930496.4477823,-13.394794,66.02211357187127
1670930496.4487891,-13.387918,65.98867768812589
1670930496.4497962,-13.323946,65.957634
1670930496.4508042,-13.264662,65.96823982999523
1670930496.451811,-13.238602,65.9753341371397
1670930496.4528182,-13.256368,65.97467394553121
1670930496.4538252,-13.269782,65.97401375392272
1670930496.454832,-13.260623,65.9733537186096
1670930496.4558392,-13.258411,65.97269352700111
1670930496.4568462,-13.281898,65.97203333539262
1670930496.457853,-13.343082,65.97137330007949
1670930496.4588602,-13.389865,65.970713108471
1670930496.4598672,-13.417272,65.97005291686251
1670930496.460874,-13.447129,65.9693928815494
1670930496.4618812,-13.459294,65.96873268994091
1670930496.4628892,-13.462611,65.96807187315096
1670930496.4638963,-13.42292,65.96741168154247
1670930496.464903,-13.400178,65.96675164622935
1670930496.4659102,-13.380009,65.96609145462087
1670930496.4669173,-13.336303,65.96543126301238
1670930496.467924,-13.297766,65.96477122769925
1670930496.4689312,-13.280433,65.96411103609076
1670930496.4699383,-13.305795,65.96345084448227
1670930496.4709451,-13.327335,65.96279080916915
1670930496.4719522,-13.307911,65.96213061756066
1670930496.4729593,-13.290505,65.96147042595217
1670930496.4739661,-13.300627,65.96081039063904
1670930496.4749732,-13.288822,65.96015019903055
1670930496.4759812,-13.290025,65.95948938224062
1670930496.476988,-13.306805,65.95882934692749
1670930496.4779952,-13.313632,65.958169155319
1670930496.4790022,-13.301275,65.95750896371051
1670930496.480009,-13.370969,65.95684892839739
1670930496.4810162,-13.45487,65.9561887367889
1670930496.4820232,-13.466795,65.95552854518041
1670930496.48303,-13.449943,65.95486850986728
1670930496.4840372,-13.406237,65.9542083182588
1670930496.4850442,-13.36669,65.9535481266503
1670930496.486051,-13.34676,65.95288809133717
1670930496.4870582,-13.337384,65.9522278997287
1670930496.4880662,-13.357867,65.95156708293875
1670930496.4890733,-13.39323,65.95090689133026
1670930496.49008,-13.427296,65.95024685601715
1670930496.4910872,-13.441312,65.94958666440866
1670930496.4920943,-13.420805,65.94892647280017
1670930496.4931011,-13.392197,65.94826643748704
1670930496.4941082,-13.356184,65.94760624587855
1670930496.4951153,-13.314786,65.94694605427006
1670930496.4961221,-13.292645,65.94628601895694
1670930496.4971292,-13.292645,65.94562582734845
1670930496.4981363,-13.286467,65.94496563573996
1670930496.4991431,-13.270599,65.94430560042683
1670930496.5001502,-13.239588,65.94364540881834
1670930496.5011582,-13.252233,65.94298459202841
1670930496.502165,-13.283413,65.94232455671528
1670930496.5031722,-13.334788,65.94166436510679
1670930496.5041792,-13.373999,65.9410041734983
1670930496.505186,-13.371642,65.94034413818518
1670930496.5061932,-13.34789,65.9396839465767
1670930496.5072002,-13.3395,65.939545
1670930496.508207,-13.345967,65.939545
1670930496.5092142,-13.360439,65.939545
1670930496.5102212,-13.369791,65.95430941859357
1670930496.511228,-13.400875,65.97252270481641
1670930496.5122352,-13.455953,66.00575338197424
1670930496.5132432,-13.517496,65.966416488677
1670930496.5142503,-13.539277,65.92705351478301
1670930496.5152571,-13.522858,65.96770054887935
1670930496.5162642,-13.499923,65.97259626068862
1670930496.5172713,-13.490162,65.96893162504729
1670930496.5182781,-13.47569,65.9652678569807
1670930496.5192852,-13.417416,65.96160322133939
1670930496.5202923,-13.32986,65.95793858569807
1670930496.5212991,-13.258026,65.95427481763149
1670930496.5223062,-13.228385,65.95061018199017
1670930496.5233133,-13.240429,65.94694554634884
1670930496.5243201,-13.214345,65.94328177828226
1670930496.5253272,-13.211123,65.93961714264094
1670930496.5263352,-13.241655,65.93594903670072
1670930496.527342,-13.260383,65.93228526863413
1670930496.5283492,-13.257931,65.92862063299282
1670930496.5293562,-13.254926,65.9249559973515
1670930496.530363,-13.270264,65.9212922292849
1670930496.5313702,-13.28601,65.91762759364359
1670930496.5323772,-13.280096,65.91396295800227
1670930496.533384,-13.273172,65.91029918993569
1670930496.5343912,-13.294472,65.90663455429437
1670930496.5353982,-13.358179,65.90296991865306
1670930496.536405,-13.420324,65.89930615058645
1670930496.5374122,-13.48093,65.89564151494514
1670930496.5384202,-13.547475,65.89197340900492
1670930496.5394273,-13.542931,65.8883087733636
1670930496.5404341,-13.482325,65.88464500529702
1670930496.5414412,-13.387461,65.8809803696557
1670930496.5424483,-13.289784,65.87731573401439
1670930496.5434551,-13.227206,65.87365196594779
1670930496.5444622,-13.233121,65.86998733030647
1670930496.5454693,-13.251801,65.86632269466516
1670930496.5464761,-13.258099,65.86265892659857
1670930496.5474832,-13.253219,65.85899429095726
1670930496.5484903,-13.263075,65.85532965531593
1670930496.5494971,-13.301131,65.85166588724934
1670930496.5505042,-13.32546,65.84800125160803
1670930496.5515122,-13.321566,65.8443331456678
1670930496.552519,-13.324594,65.84066937760122
1670930496.5535262,-13.331758,65.8370047419599
1670930496.5545332,-13.336711,65.83334010631859
1670930496.55554,-13.355199,65.82967633825199
1670930496.5565472,-13.344548,65.82601170261067
1670930496.5575542,-13.320436,65.82234706696936
1670930496.558561,-13.318873,65.81868329890277
1670930496.5595682,-13.333826,65.81501866326145
1670930496.5605752,-13.350991,65.85183657449345
1670930496.561582,-13.43196,65.87964801144493
1670930496.5625892,-13.544109,65.85713368669528
1670930496.5635972,-13.586108,65.8753679363528
1670930496.5646043,-13.587911,65.86035564377683
1670930496.5656111,-13.571323,65.87316968907963
1670930496.5666182,-13.520862,65.88721694398093
1670930496.5676253,-13.471602,65.85778499570816
1670930496.5686321,-13.414507,65.85837591845494
1670930496.5696392,-13.344308,65.85353397722837
1670930496.5706463,-13.301564,65.86257284255042
1670930496.5716531,-13.279951,65.8716095679896
1670930496.5726602,-13.279663,65.88064843331165
1670930496.5736673,-13.283966,65.8675022874851
1670930496.5746741,-13.300121,65.85810849356223
1670930496.5756812,-13.366113,65.86550927392821
1670930496.5766892,-13.402799,65.86215974404075
1670930496.577696,-13.384504,65.85881417528135
1670930496.5787032,-13.332047,65.85546781429635
1670930496.5797102,-13.254997,65.85212145331134
1670930496.580717,-13.278893,65.84877588455194
1670930496.5817242,-13.277475,65.84542952356693
1670930496.5827312,-13.285601,65.84208316258193
1670930496.583738,-13.319594,65.83873759382253
1670930496.5847452,-13.358829,65.83539123283752
1670930496.5857522,-13.407078,65.83204487185252
1670930496.586759,-13.456433,65.82869930309312
1670930496.5877662,-13.488431,65.82535294210811
1670930496.5887742,-13.499346,65.82200341222065
1670930496.5897813,-13.500307,65.81865705123563
1670930496.5907881,-13.486676,65.81531148247625
1670930496.5917952,-13.435638,65.81196512149123
1670930496.5928023,-13.373926,65.80861876050622
1670930496.5938091,-13.29827,65.80527319174683
1670930496.5948162,-13.23853,65.80192683076181
1670930496.5958233,-13.252449,65.79858046977681
1670930496.5968301,-13.300362,65.79523490101741
1670930496.5978372,-13.306949,65.7918885400324
1670930496.5988443,-13.307214,65.7885421790474
1670930496.5998511,-13.283846,65.785196610288
1670930496.6008582,-13.29928,65.78185024930299
1670930496.6018662,-13.290145,65.77850071941553
1670930496.602873,-13.282259,65.77515515065613
1670930496.6038802,-13.318921,65.77180878967113
1670930496.6048872,-13.375488,65.76846242868612
1670930496.605894,-13.414314,65.76511685992672
1670930496.6069012,-13.445014,65.76177049894171
1670930496.6079082,-13.449197,65.75842413795671
