measure_time,emg_ch_1,grip_force_inter
1670930376.228548,-10.223461,0.507563
1670930376.229555,-10.223942,0.4715100789222699
1670930376.230563,-10.220456,0.5004688167202572
1670930376.23157,-10.217643,0.5216867612903227
1670930376.2325768,-10.22048,0.5225648516129032
1670930376.233584,-10.222812,0.5432218938906752
1670930376.234591,-10.226274,0.5589214193548386
1670930376.2355978,-10.229784,0.507563
1670930376.236605,-10.232116,0.557651192926045
1670930376.237612,-10.233317,0.5544854774193548
1670930376.2386189,-10.234664,0.5438060698617072
1670930376.239626,-10.232163,0.5471289799007513
1670930376.240633,-10.249208,0.5505183912284106
1670930376.2416399,-10.26647,0.5539070001386155
1670930376.242647,-10.271734,0.5572964114662748
1670930376.243655,-10.2657,0.560689032463752
1670930376.244662,-10.25231,0.5640784437914114
1670930376.245669,-10.232284,0.5674670527016162
1670930376.246676,-10.227813,0.5708564640292756
1670930376.247683,-10.222788,0.5742458753569349
1670930376.24869,-10.204854,0.5776344842671398
1670930376.249697,-10.18728,0.5810238955947992
1670930376.250704,-10.198435,0.5844133069224584
1670930376.251711,-10.223749,0.5878019158326633
1670930376.252718,-10.235168,0.5911913271603226
1670930376.253725,-10.233871,0.594580738487982
1670930376.254732,-10.221874,0.5979693473981869
1670930376.25574,-10.220648,0.6013619683956641
1670930376.256747,-10.224687,0.6047513797233234
1670930376.2577538,-10.22625,0.6081399886335284
1670930376.258761,-10.230385,0.6115293999611876
1670930376.259768,-10.241804,0.614918811288847
1670930376.2607749,-10.242814,0.6183074201990518
1670930376.261782,-10.228148,0.6216968315267112
1670930376.262789,-10.22036,0.6250862428543705
1670930376.2637959,-10.225697,0.6284748517645754
1670930376.264803,-10.231178,0.6318642630922348
1670930376.26581,-10.230673,0.6352536744198941
1670930376.2668169,-10.22774,0.638642283330099
1670930376.267824,-10.221105,0.6420316946577583
1670930376.268832,-10.214326,0.6454243156552355
1670930376.269839,-10.210912,0.6488137269828949
1670930376.270846,-10.21548,0.6522023358930997
1670930376.271853,-10.221561,0.6555917472207591
1670930376.27286,-10.222451,0.6589811585484184
1670930376.273867,-10.222331,0.6623697674586233
1670930376.274874,-10.223437,0.6657591787862827
1670930376.275881,-10.225745,0.669148590113942
1670930376.276888,-10.227716,0.6725371990241469
1670930376.277895,-10.225529,0.6759266103518062
1670930376.278902,-10.226874,0.6793160216794656
1670930376.279909,-10.237285,0.6827046305896705
1670930376.280917,-10.241732,0.6860972515871476
1670930376.281924,-10.242477,0.6775408791418356
1670930376.2829309,-10.258945,0.6466985791607057
1670930376.283938,-10.263272,0.6399098128278493
1670930376.284945,-10.25368,0.652284
1670930376.2859519,-10.247838,0.6642223609058403
1670930376.286959,-10.243847,0.6945643626609442
1670930376.287966,-10.241684,0.6878849835479256
1670930376.2889729,-10.241828,0.6649814474374255
1670930376.28998,-10.240001,0.6755193118741059
1670930376.290987,-10.231395,0.6527083352449138
1670930376.2919939,-10.223774,0.6538787909857832
1670930376.293001,-10.220407,0.6550495238887981
1670930376.294009,-10.217812,0.6562213654403954
1670930376.295016,-10.221057,0.6573920983434104
1670930376.296023,-10.227571,0.6585625540842798
1670930376.29703,-10.227451,0.6597332869872947
1670930376.298037,-10.22786,0.6609040198903097
1670930376.299044,-10.232669,0.662074475631179
1670930376.300051,-10.235145,0.663245208534194
1670930376.301058,-10.238126,0.664415941437209
1670930376.302065,-10.235072,0.6655863971780782
1670930376.303072,-10.2344,0.6667571300810933
1670930376.3040788,-10.225817,0.6679275858219625
1670930376.305086,-10.213364,0.6690983187249775
1670930376.306094,-10.202209,0.6702701602765749
1670930376.307101,-10.209373,0.6714408931795899
1670930376.3081079,-10.226057,0.6726113489204592
1670930376.309115,-10.234471,0.6737820818234741
1670930376.310122,-10.229111,0.674952814726489
1670930376.3111289,-10.219086,0.6761232704673584
1670930376.312136,-10.213172,0.6772940033703734
1670930376.313143,-10.212835,0.6784647362733883
1670930376.3141499,-10.219831,0.6796351920142577
1670930376.315157,-10.222884,0.6808059249172727
1670930376.316164,-10.224928,0.6819766578202876
1670930376.3171709,-10.234063,0.683147113561157
1670930376.318178,-10.250315,0.6843178464641719
1670930376.319186,-10.25743,0.6854896880157693
1670930376.320193,-10.260315,0.6866604209187842
1670930376.3212,-10.254209,0.6878308766596536
1670930376.322207,-10.240962,0.6890016095626685
1670930376.323214,-10.231827,0.6901723424656835
1670930376.324221,-10.224855,0.6913427982065529
1670930376.325228,-10.218389,0.6925135311095678
1670930376.3262348,-10.211561,0.6936839868504372
1670930376.327242,-10.21209,0.6948547197534521
1670930376.328249,-10.222211,0.6960254526564671
1670930376.3292558,-10.221538,0.6971959083973365
1670930376.330263,-10.220648,0.6983666413003514
1670930376.331271,-10.224062,0.6995384828519488
1670930376.332278,-10.220336,0.7007092157549637
1670930376.3332849,-10.218966,0.7018796714958331
1670930376.334292,-10.218917,0.703050404398848
1670930376.335299,-10.226418,0.704221137301863
1670930376.3363059,-10.237476,0.7053915930427322
1670930376.337313,-10.241972,0.7067660300429185
1670930376.33832,-10.24565,0.7790971487839772
1670930376.3393269,-10.247141,0.7963926905840286
1670930376.340334,-10.241708,0.7616896132570339
1670930376.341341,-10.240602,0.796444301382928
1670930376.3423479,-10.241755,0.778916
1670930376.343355,-10.232524,0.778916
1670930376.344363,-10.219783,0.7798735007153076
1670930376.34537,-10.214998,0.7980923733905579
1670930376.346377,-10.215431,0.8157361474642879
1670930376.347384,-10.219735,0.8252686702014846
1670930376.3483908,-10.218725,0.8347989361861394
1670930376.349398,-10.218316,0.844331458923336
1670930376.350405,-10.218292,0.8265855114449213
1670930376.3514118,-10.216081,0.7810785699642432
1670930376.352419,-10.218845,0.8280023812589413
1670930376.353426,-10.222043,0.8158271321979529
1670930376.3544328,-10.22072,0.818310695273342
1670930376.35544,-10.223076,0.8207948464527036
1670930376.356448,-10.226851,0.8232813500479548
1670930376.357455,-10.233534,0.8257655012273163
1670930376.3584619,-10.235481,0.8282490643027055
1670930376.359469,-10.237669,0.8307332154820671
1670930376.360476,-10.238366,0.8332173666614286
1670930376.3614829,-10.230505,0.8357009297368179
1670930376.36249,-10.227139,0.8381850809161795
1670930376.363497,-10.237885,0.840669232095541
1670930376.3645039,-10.243631,0.8431527951709302
1670930376.365511,-10.23827,0.8456369463502917
1670930376.366518,-10.228702,0.8481210975296534
1670930376.3675249,-10.219999,0.8506046606050426
1670930376.368532,-10.225576,0.8530888117844041
1670930376.36954,-10.236395,0.8555753153796553
1670930376.3705468,-10.237765,0.8580588784550445
1670930376.371554,-10.228341,0.8605430296344061
1670930376.372561,-10.227788,0.8630271808137676
1670930376.3735678,-10.227596,0.8655107438891568
1670930376.374575,-10.228534,0.8679948950685183
1670930376.375582,-10.229856,0.87047904624788
1670930376.3765888,-10.223365,0.8729626093232692
1670930376.377596,-10.218629,0.8754467605026307
1670930376.378603,-10.223894,0.8779309116819923
1670930376.3796098,-10.225432,0.8804144747573815
1670930376.380617,-10.225168,0.8828986259367431
1670930376.381625,-10.22863,0.8853851295319942
1670930376.382632,-10.22762,0.8878692807113557
1670930376.3836389,-10.228028,0.890352843786745
1670930376.384646,-10.224591,0.8928369949661066
1670930376.385653,-10.218004,0.8953211461454682
1670930376.3866599,-10.217668,0.8978047092208573
1670930376.387667,-10.218845,0.9002888604002189
1670930376.388674,-10.217475,0.9027730115795805
1670930376.3896809,-10.214206,0.9052565746549697
1670930376.390688,-10.217379,0.9077407258343313
1670930376.391695,-10.216994,0.9102248770136928
1670930376.3927019,-10.216152,0.912708440089082
1670930376.393709,-10.216922,0.9151925912684437
1670930376.394717,-10.22298,0.9176790948636947
1670930376.3957238,-10.229351,0.9201626579390839
1670930376.396731,-10.229255,0.9226468091184455
1670930376.397738,-10.231827,0.8578687942789035
1670930376.3987448,-10.244665,0.8483557410586552
1670930376.399752,-10.258392,0.8917969446828803
1670930376.400759,-10.265532,0.8715250190703219
1670930376.4017658,-10.258921,0.8971365207439199
1670930376.402773,-10.252814,0.923636
1670930376.40378,-10.259305,0.9119130858369099
1670930376.4047868,-10.272047,0.9292373375446961
1670930376.405794,-10.269379,0.92975192799237
1670930376.406802,-10.250892,0.923636
1670930376.407809,-10.224735,0.9726268462455304
1670930376.4088159,-10.200574,0.996001
1670930376.409823,-10.188963,0.996001
1670930376.41083,-10.200093,1.003868447729286
1670930376.4118369,-10.208893,1.0152155214180756
1670930376.412844,-10.227019,1.026565282076718
1670930376.413851,-10.237885,1.03791504273536
1670930376.4148579,-10.237116,1.0492621164241496
1670930376.415865,-10.235769,1.060611877082792
1670930376.416872,-10.235842,1.071961637741434
1670930376.4178789,-10.236563,1.0833087114302236
1670930376.418886,-10.233991,1.0946584720888657
1670930376.419894,-10.230024,1.1060189806269196
1670930376.4209008,-10.221658,1.1173660543157091
1670930376.421908,-10.216634,1.1287158149743513
1670930376.422915,-10.212619,1.1400655756329936
1670930376.4239218,-10.205503,1.151412649321783
1670930376.424929,-10.203003,1.1627624099804252
1670930376.425936,-10.209998,1.1741121706390676
1670930376.4269428,-10.214206,1.185459244327857
1670930376.42795,-10.220889,1.1968090049864992
1670930376.428957,-10.225384,1.2081587656451416
1670930376.4299638,-10.215263,1.219505839333931
1670930376.430971,-10.213436,1.2308555999925732
1670930376.431979,-10.225336,1.2422161085306271
1670930376.432986,-10.257479,1.2535658691892695
1670930376.4339929,-10.292409,1.264912942878059
1670930376.435,-10.303732,1.2762627035367011
1670930376.436007,-10.295463,1.2876124641953435
1670930376.4370139,-10.271518,1.2989595378841328
1670930376.438021,-10.241107,1.3103092985427751
1670930376.439028,-10.219374,1.3216590592014175
1670930376.4400349,-10.202497,1.3330061328902068
1670930376.441042,-10.181222,1.344355893548849
1670930376.442049,-10.166725,1.3557056542074915
1670930376.4430559,-10.18502,1.3670527278962807
1670930376.444063,-10.20394,1.378402488554923
1670930376.445071,-10.215215,1.389762997092977
1670930376.4460778,-10.214638,1.4011100707817663
1670930376.447085,-10.21685,1.4124598314404087
1670930376.448092,-10.220456,1.423809592099051
1670930376.4490988,-10.219951,1.4351566657878403
1670930376.450106,-10.230649,1.4465064264464826
1670930376.451113,-10.235745,1.457856187105125
1670930376.4521198,-10.239087,1.4692032607939143
1670930376.453127,-10.250939,1.4805530214525566
1670930376.454134,-10.249496,1.491902782111199
1670930376.4551408,-10.236202,1.498999537911302
1670930376.456148,-10.222932,1.4547638255065556
1670930376.457156,-10.220817,1.5358155267048164
1670930376.458163,-10.228534,1.502519
1670930376.4591699,-10.231153,1.5059489657061205
1670930376.460177,-10.229231,1.5405304270386264
1670930376.461184,-10.228894,1.556795
1670930376.4621909,-10.227019,1.5547013457966181
1670930376.463198,-10.223533,1.5431139537434428
1670930376.464205,-10.225143,1.5765315123456112
1670930376.4652119,-10.230433,1.5893918536312235
1670930376.466219,-10.23464,1.6022552402261623
1670930376.467226,-10.227187,1.615118626821101
1670930376.4682329,-10.220119,1.6279789681067134
1670930376.46924,-10.219086,1.6408423547016522
1670930376.470248,-10.207739,1.653717922533897
1670930376.4712548,-10.202401,1.6665782638195092
1670930376.472262,-10.214086,1.679441650414448
1670930376.473269,-10.218966,1.6923050370093868
1670930376.4742758,-10.226082,1.7051653782949991
1670930376.475283,-10.228485,1.718028764889938
1670930376.47629,-10.229182,1.7308921514848767
1670930376.4772968,-10.232884,1.743752492770489
1670930376.478304,-10.231395,1.7566158793654278
1670930376.479311,-10.221634,1.7694792659603666
1670930376.4803178,-10.22262,1.782339607245979
1670930376.481325,-10.226754,1.7952029938409177
1670930376.482333,-10.22512,1.8080785616731623
1670930376.48334,-10.222715000000001,1.820941948268101
1670930376.4843469,-10.220913,1.8338022895537134
1670930376.485354,-10.21959,1.8466656761486522
1670930376.486361,-10.221658,1.859529062743591
1670930376.4873679,-10.22161,1.8723894040292035
1670930376.488375,-10.222956,1.885252790624142
1670930376.489382,-10.227476,1.8981161772190809
1670930376.4903889,-10.230745,1.9109765185046932
1670930376.491396,-10.227644,1.9238399050996322
1670930376.492403,-10.215407,1.9367032916945708
1670930376.4934099,-10.217956,1.9495636329801833
1670930376.494417,-10.2181,1.962427019575122
1670930376.495425,-10.215407,1.9753025874073666
1670930376.4964318,-10.212042,1.988162928692979
1670930376.497439,-10.208652,2.001026315287918
1670930376.498446,-10.21447,2.0138897018828565
1670930376.4994528,-10.232596,2.0267500431684686
1670930376.50046,-10.248968,2.0396134297634076
1670930376.501467,-10.249376,2.0524768163583467
1670930376.5024738,-10.245843,2.0653371576439588
1670930376.503481,-10.231395,2.0782005442388973
1670930376.504488,-10.240602,2.0910639308338363
1670930376.5054948,-10.234857,2.103924272119449
1670930376.506502,-10.215407,2.1167876587143875
1670930376.50751,-10.205983,2.129663226546632
1670930376.508517,-10.207954,2.142526613141571
1670930376.5095239,-10.22125,2.1553869544271835
1670930376.510531,-10.234615,2.168250341022122
1670930376.511538,-10.269403,2.1811137276170607
1670930376.5125449,-10.302506,2.193974068902673
1670930376.513552,-10.317147,2.206837455497612
1670930376.514559,-10.320897,2.219700842092551
1670930376.5155659,-10.304381,2.232561183378163
1670930376.516573,-10.269379,2.245424569973102
1670930376.51758,-10.243391,2.258287956568041
1670930376.5185869,-10.220817,2.271148297853653
1670930376.519594,-10.183674,2.2840116844485916
1670930376.520602,-10.153383,2.296887252280836
1670930376.5216088,-10.173456,2.3097475935664487
1670930376.522616,-10.21834,2.3226109801613877
1670930376.523623,-10.231395,2.3354743667563262
1670930376.5246298,-10.231009,2.348334708041939
1670930376.525637,-10.219254,2.3611980946368774
1670930376.526644,-10.209108,2.3740614812318164
1670930376.5276508,-10.204829,2.3869218225174285
1670930376.528658,-10.203507,2.3997852091123675
1670930376.529665,-10.204589,2.4388301000476416
1670930376.5306718,-10.202401,2.463239732696897
1670930376.531679,-10.194083,2.4596321564139245
1670930376.532687,-10.201296,2.504459885578069
1670930376.533694,-10.214951,2.559112873152122
1670930376.5347009,-10.228365,2.5965378803051977
1670930376.535708,-10.225817,2.623494242193087
1670930376.536715,-10.233558,2.6687940536480688
1670930376.5377219,-10.283947,2.7144478602765854
1670930376.538729,-10.328206,2.7477150402046515
1670930376.539736,-10.351766,2.777818613442329
1670930376.5407429,-10.356502,2.807915059887099
1670930376.54175,-10.345395,2.8380186331247765
1670930376.542757,-10.310151,2.8681222063624534
1670930376.5437639,-10.278201,2.898218652807224
1670930376.544771,-10.240434,2.928322226044901
1670930376.545779,-10.208531,2.958454306454205
1670930376.5467858,-10.180621,2.988550752898975
1670930376.547793,-10.179226,3.018654326136652
1670930376.5488,-10.193242,3.0487578993743294
1670930376.5498068,-10.215095,3.0788543458191
1670930376.550814,-10.228991,3.1089579190567767
1670930376.551821,-10.229808,3.139061492294454
1670930376.5528278,-10.229302,3.1691579387392244
1670930376.553835,-10.227236,3.1992615119769017
1670930376.554842,-10.229087,3.2293650852145785
1670930376.5558488,-10.227091,3.259461531659349
1670930376.556856,-10.221922,3.289565104897026
1670930376.557864,-10.221057,3.31969718530633
1670930376.558871,-10.241852,3.349800758544007
1670930376.5598779,-10.252694,3.379897204988777
1670930376.560885,-10.25029,3.410000778226454
1670930376.561892,-10.252237,3.4401043514641314
1670930376.5628989,-10.266157,3.470200797908902
1670930376.563906,-10.290174,3.500304371146579
1670930376.564913,-10.310271,3.530407944384256
1670930376.5659199,-10.323926,3.5605043908290264
1670930376.566927,-10.300006,3.5906079640667037
1670930376.567934,-10.27135,3.6207115373043806
1670930376.5689409,-10.229904,3.650807983749151
1670930376.569948,-10.209397,3.6809115569868283
1670930376.570956,-10.22298,3.711043637396132
1670930376.5719628,-10.217763,3.741140083840902
1670930376.57297,-10.213003,3.7712436570785792
1670930376.573977,-10.229856,3.8013472303162565
1670930376.5749838,-10.236948,3.831443676761027
1670930376.575991,-10.234471,3.8615472499987042
1670930376.576998,-10.241371,3.891650823236381
1670930376.5780048,-10.256276,3.9217472696811515
1670930376.579012,-10.271566,3.9518508429188284
1670930376.580019,-10.267528,3.9819544161565057
1670930376.5810258,-10.262503,4.012050862601276
1670930376.582033,-10.258151,4.042154435838953
1670930376.583041,-10.25279,4.072286516248257
1670930376.584048,-10.256757,4.102390089485934
1670930376.5850549,-10.254377,4.062135168812589
1670930376.586062,-10.242862,4.098975100595948
1670930376.587069,-10.236515,4.092123918693372
1670930376.5880759,-10.241852,4.104912160228898
1670930376.589083,-10.246516,4.170014215971395
1670930376.59009,-10.246757,4.211376133285646
1670930376.5910969,-10.257694,4.231923710061993
1670930376.592104,-10.271254,4.234132
1670930376.593111,-10.285365,4.234132
1670930376.5941179,-10.304911,4.2302515214521454
1670930376.595126,-10.315392,4.2258996213724815
1670930376.596133,-10.316498,4.221551838511437
1670930376.5971398,-10.315056,4.217205084955047
1670930376.598147,-10.302483,4.226311173073396
1670930376.599154,-10.285605,4.240324989894729
1670930376.6001608,-10.268345,4.254335489051095
1670930376.601168,-10.25606,4.268349305872428
1670930376.602175,-10.24678,4.282363122693761
1670930376.6031818,-10.243198,4.296373621850127
1670930376.604189,-10.237813,4.31038743867146
1670930376.605196,-10.230096,4.324401255492792
1670930376.6062028,-10.231346,4.338411754649158
1670930376.60721,-10.232236,4.352425571470492
1670930376.608218,-10.242862,4.366452658951693
1670930376.609225,-10.255459,4.380466475773026
1670930376.6102319,-10.272817,4.3944769749293915
1670930376.611239,-10.287313,4.411954953743443
1670930376.612246,-10.286832,4.430170402860548
1670930376.6132529,-10.275028,4.463654633762517
1670930376.61426,-10.275028,4.5462726678588465
1670930376.615267,-10.283875,4.544228274439676
1670930376.6162739,-10.278441,4.51037385125149
1670930376.617281,-10.272528,4.568575533619456
1670930376.618288,-10.289837,4.561937724606581
1670930376.619295,-10.316281,4.575774533730632
1670930376.620303,-10.319263,4.591222007325254
1670930376.62131,-10.293612,4.606299521046747
1670930376.6223168,-10.285798,4.621373465281089
1670930376.623324,-10.283081,4.636450979002582
1670930376.624331,-10.25731,4.651528492724074
1670930376.6253378,-10.226226,4.666602436958416
1670930376.626345,-10.235097,4.681679950679909
1670930376.627352,-10.252934,4.696757464401401
1670930376.6283588,-10.245914,4.711831408635743
1670930376.629366,-10.246324,4.726908922357236
1670930376.630373,-10.270724,4.7419864360787285
1670930376.6313798,-10.292145,4.757060380313071
1670930376.632387,-10.318325,4.772137894034563
1670930376.633395,-10.337029,4.787229685704655
1670930376.634402,-10.340514,4.8023071994261475
1670930376.6354089,-10.368666,4.81738114366049
1670930376.636416,-10.426123,4.8324586573819825
1670930376.637423,-10.45966,4.847536171103474
1670930376.6384299,-10.453673,4.862610115337817
1670930376.639437,-10.457159,4.877687629059309
1670930376.640444,-10.451509,4.892765142780801
1670930376.641451,-10.440763,4.907839087015144
1670930376.642458,-10.418815,4.922916600736636
1670930376.643465,-10.37345,4.937994114458129
1670930376.644472,-10.323782,4.953068058692471
1670930376.64548,-10.282023,4.9681598503625635
1670930376.646487,-10.226707,4.983237364084055
1670930376.6474938,-10.178,4.998311308318398
1670930376.648501,-10.144487,5.017004340166865
1670930376.649508,-10.125809,5.060908232474964
1670930376.6505148,-10.128452,5.01584100286123
1670930376.651522,-10.198531,5.046145093921335
1670930376.652529,-10.298659,5.043431526739926
1670930376.6535358,-10.381408,5.066278
1670930376.654543,-10.446437,5.0987335474185285
1670930376.65555,-10.468049,5.078025910989011
1670930376.6565568,-10.462232,5.10984859561278
1670930376.657564,-10.439777,5.051373999667806
1670930376.658572,-10.398188,5.072091197507015
1670930376.659579,-10.356525,5.092788795348267
1670930376.6605859,-10.314359,5.11348149319003
1670930376.661593,-10.256396,5.134179091031283
1670930376.6626,-10.188002,5.154876688872535
1670930376.663607,-10.151411,5.175569386714298
1670930376.664614,-10.117009,5.1962669845555505
1670930376.665621,-10.093041,5.216964582396803
1670930376.666628,-10.109581,5.237657280238566
1670930376.667635,-10.159585,5.258354878079818
1670930376.668642,-10.24666,5.279052475921071
1670930376.669649,-10.427686,5.299745173762834
1670930376.670657,-10.471824,5.3204623716020425
1670930376.671664,-10.450716,5.341159969443295
1670930376.6726708,-10.397394,5.361852667285058
1670930376.673678,-10.346092,5.38255026512631
1670930376.674685,-10.318132,5.403247862967563
1670930376.6756918,-10.276807,5.423940560809326
1670930376.676699,-10.25005,5.444638158650578
1670930376.677706,-10.227908,5.465335756491831
1670930376.6787128,-10.201849,5.486028454333594
1670930376.67972,-10.169634,5.506726052174846
1670930376.680727,-10.125279,5.5274236500160985
1670930376.6817338,-10.109292,5.548116347857862
1670930376.682741,-10.135425,5.568813945699114
1670930376.683749,-10.173745,5.589531143538323
1670930376.684756,-10.198819,5.610228741379575
1670930376.685763,-10.203435,5.630921439221338
1670930376.68677,-10.217834999999999,5.6516190370625905
1670930376.687777,-10.248439,5.672316634903843
1670930376.688784,-10.311209,5.693009332745606
1670930376.689791,-10.388619,5.713706930586858
1670930376.690798,-10.427109,5.734404528428111
1670930376.691805,-10.442542,5.755097226269874
1670930376.692812,-10.433046,5.775794824111126
1670930376.693819,-10.408549,5.7964924219523795
1670930376.694826,-10.377393,5.817185119794143
1670930376.695834,-10.333614,5.83790231763335
1670930376.696841,-10.289524,5.858599915474603
1670930376.6978478,-10.233317,5.879292613316366
1670930376.698855,-10.197594,5.899990211157618
1670930376.699862,-10.182256,5.920687808998871
1670930376.7008688,-10.159104,5.941380506840634
1670930376.701876,-10.142228,5.962078104681886
1670930376.702883,-10.168216,5.9827757025231385
1670930376.7038898,-10.227981,6.003468400364902
1670930376.704897,-10.253777,6.022105025751073
1670930376.705904,-10.237765,6.086128862660945
1670930376.7069108,-10.215528,6.082022335876043
1670930376.707918,-10.204878,6.110359824988079
1670930376.708926,-10.203387,6.22516419122556
1670930376.709933,-10.208436,6.257934433953267
1670930376.71094,-10.217812,6.292061465554231
1670930376.711947,-10.217715,6.376631032904149
1670930376.712954,-10.212859,6.35450500286123
1670930376.713961,-10.221105,6.372044220684112
1670930376.714968,-10.260435,6.395929795748861
1670930376.715975,-10.337942,6.419815370813611
1670930376.716982,-10.409823,6.443695291149415
1670930376.717989,-10.44199,6.467580866214164
1670930376.718996,-10.461702,6.51457702113983
1670930376.720003,-10.448071,6.577432971328929
1670930376.721011,-10.406409,6.640363342486758
1670930376.722018,-10.366094,6.7032341768696035
1670930376.7230248,-10.339,6.766090127058702
1670930376.724032,-10.292842,6.828960961441547
1670930376.725039,-10.221466,6.891831795824392
1670930376.7260458,-10.164225,6.954687746013492
1670930376.727053,-10.153744,7.0175585803963365
1670930376.72806,-10.186246,7.080429414779181
1670930376.7290668,-10.212715,7.143285364968281
1670930376.730074,-10.248704,7.206156199351126
1670930376.731081,-10.285702,7.269027033733971
1670930376.7320879,-10.314479,7.3318829839230695
1670930376.733095,-10.330562,7.394753818305915
1670930376.734103,-10.321907,7.457684189463744
1670930376.73511,-10.283418,7.520555023846589
1670930376.736117,-10.258824,7.583410974035688
1670930376.737124,-10.236828,7.646281808418533
1670930376.738131,-10.239016,7.709152642801378
1670930376.739138,-10.249906,7.772008592990478
1670930376.740145,-10.241755,7.834879427373322
1670930376.741152,-10.229038,7.897750261756167
1670930376.742159,-10.209685,7.960606211945266
1670930376.743166,-10.194709,8.02347704632811
1670930376.744173,-10.207907,8.086347880710957
1670930376.74518,-10.216609,8.149203830900056
1670930376.746188,-10.222307,8.212134202057884
1670930376.747195,-10.220768,8.27500503644073
1670930376.7482018,-10.225505,8.337860986629828
1670930376.749209,-10.236588,8.400731821012673
1670930376.750216,-10.229664,8.463602655395519
1670930376.7512228,-10.231683,8.526458605584619
1670930376.75223,-10.283154,8.589329439967463
1670930376.753237,-10.346789,8.652200274350308
1670930376.7542439,-10.438985,8.715056224539406
1670930376.755251,-10.574117,8.777927058922252
1670930376.756258,-10.661384,8.840797893305098
1670930376.7572649,-10.725884,8.903653843494196
1670930376.758272,-10.730764,8.966524677877041
1670930376.75928,-10.683717,9.029455049034869
1670930376.760287,-10.575174,9.092325883417715
1670930376.761294,-10.446004,9.155181833606814
1670930376.762301,-10.317291,9.21805266798966
1670930376.763308,-10.182904,9.280923502372504
1670930376.764315,-10.09244,9.343779452561604
1670930376.765322,-10.01313,9.406650286944448
1670930376.766329,-9.927234,9.469521121327293
1670930376.767336,-9.927666,9.532377071516393
1670930376.768343,-10.033854,9.595247905899237
1670930376.76935,-10.126963,9.658118740282083
1670930376.770357,-10.166509,9.713148265554231
1670930376.771365,-10.169033,9.767862421793037
1670930376.772372,-10.158215,9.89293312207916
1670930376.7733788,-10.154849,10.002679860548273
1670930376.774386,-10.166245,10.126540124472575
1670930376.775393,-10.180068,10.228404268987342
1670930376.7763999,-10.194516,10.312495249344458
1670930376.777407,-10.205695,10.403432387696709
1670930376.778414,-10.225937,10.477275929009359
1670930376.7794209,-10.244496,10.61461921800171
1670930376.780428,-10.252863,10.751995029676753
1670930376.781435,-10.264282,10.889370841351793
1670930376.7824419,-10.262503,11.026714130344146
1670930376.783449,-10.243896,11.164089942019187
1670930376.784457,-10.240794,11.30159584442498
1670930376.785464,-10.249569,11.438971656100023
1670930376.786471,-10.254401,11.576314945092374
1670930376.787478,-10.243366,11.713690756767416
1670930376.788485,-10.22851,11.851066568442457
1670930376.789492,-10.234111,11.98840985743481
1670930376.790499,-10.2538,12.12578566910985
1670930376.791506,-10.283731,12.263161480784891
1670930376.792513,-10.299068,12.400504769777244
1670930376.79352,-10.295222,12.537880581452287
1670930376.794527,-10.290534,12.675256393127327
1670930376.795534,-10.291568,12.81259968211968
1670930376.796542,-10.295077,12.950105584525474
1670930376.797549,-10.296833,13.087481396200515
1670930376.7985559,-10.282023,13.224824685192868
1670930376.799563,-10.266229,13.36220049686791
1670930376.80057,-10.24755,13.499576308542949
1670930376.8015769,-10.233558,13.636919597535304
1670930376.802584,-10.218725,13.774295409210344
1670930376.803591,-10.215384,13.911671220885385
1670930376.8045979,-10.230361,14.049014509877738
1670930376.805605,-10.245482,14.186390321552778
1670930376.806612,-10.254354,14.32376613322782
1670930376.8076189,-10.257719,14.461109422220172
1670930376.808626,-10.270364,14.598485233895214
1670930376.809634,-10.287481,14.735991136301008
1670930376.810641,-10.324335,14.873366947976049
1670930376.811648,-10.355876,15.010710236968402
1670930376.812655,-10.342606,15.148086048643442
1670930376.813662,-10.34162,15.285461860318485
1670930376.814669,-10.389461,15.422805149310836
1670930376.815676,-10.517117,15.560180960985878
1670930376.816683,-10.654893,15.697556772660919
1670930376.81769,-10.783005,15.834900061653272
1670930376.818697,-10.819185,15.972275873328313
1670930376.8197038,-10.758603,16.109619162320666
1670930376.820711,-10.64833,16.246994973995708
1670930376.821719,-10.542143,16.3845008764015
1670930376.822726,-10.425353,16.521876688076542
1670930376.8237329,-10.23726,16.659219977068894
1670930376.82474,-10.059745,16.796595788743936
1670930376.825747,-9.909612,16.940627098712444
1670930376.8267539,-9.859222,17.10094320171674
1670930376.827761,-9.912208,17.23546879828326
1670930376.828768,-9.963102,17.422390388557808
1670930376.8297749,-10.005029,17.56284804148784
1670930376.830782,-10.073568,17.73569909632809
1670930376.831789,-10.130592,17.917854922765198
1670930376.8327959,-10.130328,18.099997799237006
1670930376.833803,-10.140497,18.28219677539342
1670930376.834811,-10.157397,18.338993667979743
1670930376.835818,-10.16384,18.374827347214406
1670930376.836825,-10.185718,18.41065254309698
1670930376.837832,-10.178962,18.446486222331647
1670930376.838839,-10.184875,18.48231990156631
1670930376.839846,-10.215215,18.548124577014782
1670930376.840853,-10.285414,18.75480419499404
1670930376.8418598,-10.3703,18.958227125792497
1670930376.842867,-10.44211,19.154537557135278
1670930376.843874,-10.581401,19.350847988478062
1670930376.8448808,-10.725692,19.547111944813423
1670930376.845888,-10.71259,19.743422376156207
1670930376.846896,-10.605057,19.93991870752867
1670930376.847903,-10.49923,20.136229138871453
1670930376.8489099,-10.381191,20.332493095206814
1670930376.849917,-10.261373,20.5288035265496
1670930376.850924,-10.136891,20.72511395789238
1670930376.8519309,-10.029334,20.92137791422774
1670930376.852938,-9.973103,21.117688345570524
1670930376.853945,-9.957597,21.31399877691331
1670930376.8549519,-10.020223,21.51026273324867
1670930376.855959,-10.116072,21.70657316459145
1670930376.856966,-10.23851,21.902883595934235
1670930376.8579729,-10.283803,22.099147552269596
1670930376.85898,-10.257334,22.29545798361238
1670930376.859988,-10.212955,22.49195431498484
1670930376.860995,-10.171846,22.688264746327626
1670930376.862002,-10.170115,22.884528702662987
1670930376.863009,-10.184347,23.08083913400577
1670930376.8640158,-10.170236,23.277103090341132
1670930376.865023,-10.15545,23.473413521683916
1670930376.86603,-10.196487,23.669723953026697
1670930376.8670368,-10.259161,23.86598790936206
1670930376.868044,-10.317339,24.062298340704842
1670930376.869051,-10.36381,24.258608772047623
1670930376.8700578,-10.367945,24.454872728382988
1670930376.871065,-10.383691,24.65118315972577
1670930376.872073,-10.407612,24.847679491098233
1670930376.87308,-10.406506,25.043989922441014
1670930376.8740869,-10.380469,25.24025387877638
1670930376.875094,-10.358353,25.43656431011916
1670930376.876101,-10.347198,25.63287474146194
1670930376.8771079,-10.424632,25.829138697797305
1670930376.878115,-10.511058,26.025449129140085
1670930376.879122,-10.499855,26.22175956048287
1670930376.8801289,-10.511082,26.41802351681823
1670930376.881136,-10.501466,26.614333948161015
1670930376.882143,-10.423622,26.8106443795038
1670930376.8831499,-10.310127,27.006908335839157
1670930376.884157,-10.224206,27.203218767181944
1670930376.885165,-10.198098,27.399715098554402
1670930376.8861718,-10.138237,27.595979054889767
1670930376.887179,-10.076766,27.792289486232548
1670930376.888186,-10.037483,27.988599917575332
1670930376.8891928,-9.996181,28.184863873910693
1670930376.8902,-10.05609,28.3818616795422
1670930376.891207,-10.16473,28.595006811158797
1670930376.8922138,-10.275773,28.858310108011445
1670930376.893221,-10.395952,29.066621669368295
1670930376.894228,-10.523198,29.262637017644252
1670930376.8952348,-10.61424,29.546253864806864
1670930376.896242,-10.637271,29.682280686531584
1670930376.89725,-10.608446,29.91930985407725
1670930376.898257,-10.508533,30.152077284692417
1670930376.8992639,-10.400663,30.377060933602024
1670930376.900271,-10.257959,30.623358325142398
1670930376.901278,-10.08679,30.869655716682775
1670930376.9022849,-10.013371,31.115894799181593
1670930376.903292,-9.977165,31.362192190721967
1670930376.904299,-9.97154,31.608489582262344
1670930376.9053059,-10.010053,31.85472866476116
1670930376.906313,-10.085348,32.101026056301535
1670930376.90732,-10.165307,32.34732344784191
1670930376.9083269,-10.178865,32.593562530340726
1670930376.909334,-10.166077,32.83985992188111
1670930376.910342,-10.148118,33.08639054958771
1670930376.9113488,-10.143189,33.33262963208653
1670930376.912356,-10.129655,33.5789270236269
1670930376.913363,-10.109797,33.825224415167284
1670930376.9143698,-10.145883,34.0714634976661
1670930376.915377,-10.225312,34.317760889206475
1670930376.916384,-10.337005,34.56405828074685
1670930376.9173908,-10.522333,34.81029736324567
1670930376.918398,-10.726822,35.05659475478604
1670930376.919405,-10.789063,35.302892146326414
1670930376.9204118,-10.780745,35.54913122882524
1670930376.921419,-10.740717,35.79542862036561
1670930376.922427,-10.640132,36.04195924807222
1670930376.923434,-10.474468,36.28825663961259
1670930376.9244409,-10.240458,36.53449572211141
1670930376.925448,-9.998826,36.78079311365179
1670930376.926455,-9.891052,37.02709050519216
1670930376.9274619,-9.884562,37.27332958769098
1670930376.928469,-9.922257,37.519626979231354
1670930376.929476,-9.974713,37.76592437077173
1670930376.9304829,-10.051956,38.012163453270546
1670930376.93149,-10.096695,38.25846084481093
1670930376.932497,-10.117826,38.5047582363513
1670930376.9335039,-10.146892,38.75099731885012
1670930376.934511,-10.179131,38.99729471039049
1670930376.935519,-10.201079,39.243825338097096
1670930376.9365258,-10.224615,39.49006442059592
1670930376.937533,-10.248608,39.736361812136295
1670930376.93854,-10.268778,39.98265920367667
1670930376.9395468,-10.276278,40.228898286175486
1670930376.940554,-10.279908,40.47519567771586
1670930376.941561,-10.301713,40.72149306925624
1670930376.9425678,-10.372151,40.96773215175506
1670930376.943575,-10.406554,41.21402954329543
1670930376.944582,-10.442182,41.460326934835805
1670930376.9455888,-10.444538,41.704879113972346
1670930376.946596,-10.431171,41.941728323319026
1670930376.947604,-10.397563,42.16821583694875
1670930376.948611,-10.396216,42.3722929055794
1670930376.9496179,-10.361598,42.64862192131616
1670930376.950625,-10.300295,42.875063995232416
1670930376.951632,-10.236346,43.117992447305674
1670930376.9526389,-10.181943,43.33498761611826
1670930376.953646,-10.157085,43.60399337052933
1670930376.954653,-10.207474,43.85377782309864
1670930376.9556599,-10.216393,44.08696587480326
1670930376.956667,-10.166101,44.32020914508514
1670930376.957674,-10.103234,44.553452415367005
1670930376.9586809,-10.10809,44.786640467071635
1670930376.959688,-10.169803,45.0198837373535
1670930376.960696,-10.23916,45.25334788194436
1670930376.9617028,-10.247814,45.48653593364898
1670930376.96271,-10.25493,45.719779203930855
1670930376.963717,-10.273922,45.95302247421272
1670930376.9647238,-10.341428,46.18621052591735
1670930376.965731,-10.41528,46.41945379619922
1670930376.966738,-10.41629,46.652697066481096
1670930376.9677448,-10.387489,46.88588511818572
1670930376.968752,-10.340202,47.119128388467594
1670930376.969759,-10.271086,47.35237165874946
1670930376.9707658,-10.227813,47.58555971045409
1670930376.971773,-10.241203,47.81880298073596
1670930376.972781,-10.2206,48.052267125326814
1670930376.973788,-10.145714,48.28551039560868
1670930376.9747949,-10.125207,48.51869844731331
1670930376.975802,-10.148022,48.75194171759518
1670930376.976809,-10.144487,48.985184987877055
1670930376.9778159,-10.15093,49.21837303958168
1670930376.978823,-10.158407,49.45161630986355
1670930376.97983,-10.183169,49.68485958014542
1670930376.9808369,-10.221177,49.91804763185005
1670930376.981844,-10.220432,50.15129090213192
1670930376.982851,-10.255242,50.384534172413794
1670930376.9838579,-10.426483,50.617722224118424
1670930376.984865,-10.629337,50.85096549440029
1670930376.985873,-10.780144,51.08442963899114
1670930376.9868798,-10.866113,51.31761769069577
1670930376.987887,-10.879888,51.55086096097764
1670930376.988894,-10.85027,51.78410423125951
1670930376.9899008,-10.728048,52.017292282964135
1670930376.990908,-10.497018,52.25053555324601
1670930376.991915,-10.248655,52.48377882352788
1670930376.9929218,-10.122587,52.71696687523251
1670930376.993929,-10.002,52.950210145514376
1670930376.994936,-9.904659,53.18345341579625
1670930376.9959428,-9.941489,53.416641467500874
1670930376.99695,-10.082271,53.64988473778275
1670930376.997958,-10.282023,53.883348882373596
1670930376.998965,-10.412395,54.11659215265547
1670930376.9999719,-10.415424,54.349780204360094
1670930377.000979,-10.337773,54.58302347464197
1670930377.001986,-10.224687,54.81626674492384
1670930377.0029929,-10.154898,55.04945479662847
1670930377.004,-10.089724,55.282698066910335
1670930377.005007,-9.989186,55.51594133719221
1670930377.0060139,-9.964208,55.74912938889683
1670930377.007021,-10.069313,55.98237265917871
1670930377.008028,-10.192232,56.215615929460576
1670930377.0090349,-10.289813,56.448803981165206
1670930377.010042,-10.318276,56.696026494754406
1670930377.01105,-10.314406,56.89226992775394
1670930377.0120568,-10.329264,57.09199155637664
1670930377.013064,-10.335875,57.29854878159275
1670930377.014071,-10.298635,57.523343499046256
1670930377.0150778,-10.20269,57.747786106555424
1670930377.016085,-10.168937,57.92907914806867
1670930377.017092,-10.218076,58.155923660705774
1670930377.0180988,-10.220984,58.32202188557807
1670930377.019106,-10.136002,58.46045350476663
1670930377.020113,-10.096911,58.60348485765403
1670930377.0211198,-10.106119,58.74648234895221
1670930377.022127,-10.144343,58.88951370183962
1670930377.023135,-10.207979,59.03268050108392
1670930377.024142,-10.261397,59.17571185397132
1670930377.0251489,-10.304718,59.318709345269504
1670930377.026156,-10.396601,59.4617406981569
1670930377.027163,-10.486297,59.60477205104431
1670930377.0281699,-10.509423,59.74776954234248
1670930377.029177,-10.564139,59.89080089522989
1670930377.030184,-10.574188,60.03383224811729
1670930377.0311909,-10.555894,60.17682973941547
1670930377.032198,-10.638762,60.31986109230287
1670930377.033205,-10.69064,60.46289244519028
1670930377.0342119,-10.740789,60.60588993648845
1670930377.035219,-10.754877,60.74892128937586
1670930377.036227,-10.588636,60.89208808862016
1670930377.0372338,-10.342101,61.03508557991834
1670930377.038241,-10.217091,61.17811693280574
1670930377.039248,-10.079001,61.32114828569314
1670930377.0402548,-9.913939,61.46414577699132
1670930377.041262,-9.888336,61.60717712987873
1670930377.042269,-9.930912,61.750208482766126
1670930377.0432758,-9.992071,61.89320597406431
1670930377.044283,-10.106889,62.036237326951706
1670930377.04529,-10.215961,62.17926867983911
1670930377.0462968,-10.259233,62.32226617113729
1670930377.047304,-10.245217,62.46529752402469
1670930377.048312,-10.143887,62.608464323269
1670930377.049319,-10.042916,62.7514956761564
1670930377.0503259,-9.973488,62.89449316745458
1670930377.051333,-9.92394,63.03752452034198
1670930377.05234,-9.933604,63.18055587322939
1670930377.0533469,-10.014044,63.32355336452756
1670930377.054354,-10.096599,63.46658471741497
1670930377.055361,-10.156436,63.609616070302366
1670930377.0563679,-10.193315,63.75261356160055
1670930377.057375,-10.205671,63.89564491448795
1670930377.058382,-10.233317,64.03867626737535
1670930377.0593889,-10.273081,64.18167375867353
1670930377.060396,-10.281375,64.32470511156093
1670930377.061404,-10.262959,64.46787191080524
1670930377.0624108,-10.267551,64.61086940210342
1670930377.063418,-10.277528,64.75390075499082
1670930377.064425,-10.264234,64.89693210787823
1670930377.073489,-10.231395,66.17929412017168
1670930377.074496,-10.214397,66.31873420600857
1670930377.0755029,-10.180332,66.46443330631703
1670930377.07651,-10.176582,66.56132858607535
1670930377.077517,-10.200069,66.65320876919408
1670930377.0785239,-10.201632,66.76133899785408
1670930377.079531,-10.209108,66.84738208152562
1670930377.080538,-10.261061,66.96339569194087
1670930377.0815449,-10.315296,67.07721880615165
1670930377.082552,-10.307026,67.15926561762468
1670930377.083559,-10.291808,67.22669691969692
1670930377.0845659,-10.390519,67.29411225791924
1670930377.085573,-10.586353,67.36154355999147
1670930377.086581,-10.710499,67.4290387174634
1670930377.0875878,-10.782019,67.49645405568572
1670930377.088595,-10.808825,67.56388535775795
1670930377.089602,-10.73151,67.6313166598302
1670930377.0906088,-10.607893,67.69104397019552
1670930377.091616,-10.455645,67.77902019027182
1670930377.092623,-10.249882,67.91077973778307
1670930377.0936298,-10.05097,68.01106525894134
1670930377.094637,-9.912881,68.08394541702432
1670930377.095644,-9.806718,68.22649374231229
1670930377.0966508,-9.816959,68.27953114663806
1670930377.097658,-9.949062,68.35623602932762
1670930377.098666,-10.054816,68.47187566571293
1670930377.099673,-10.099845,68.59021382344815
1670930377.1006799,-10.116,68.71304060121777
1670930377.101687,-10.141579,68.83589646418223
1670930377.102694,-10.155306,68.95875232714668
1670930377.1037009,-10.200502,69.08157910491632
1670930377.104708,-10.23976,69.20443496788077
1670930377.105715,-10.224855,69.32729083084523
1670930377.1067219,-10.142805,69.45011760861486
1670930377.107729,-10.063519,69.57297347157932
1670930377.108736,-10.091022,69.69582933454377
1670930377.1097429,-10.140257,69.81865611231339
1670930377.110751,-10.181414,69.94162831605718
1670930377.111758,-10.216561,70.06448417902163
1670930377.1127648,-10.247141,70.18731095679126
1670930377.113772,-10.309958,70.31016681975572
1670930377.114779,-10.369171,70.43302268272018
1670930377.1157858,-10.369843,70.5558494604898
1670930377.116793,-10.375036,70.67870532345425
1670930377.1178,-10.377393,70.80156118641871
1670930377.1188068,-10.34715,70.92438796418834
1670930377.119814,-10.325994,71.0472438271528
1670930377.120821,-10.294693,71.17009969011725
1670930377.1218278,-10.263921,71.29292646788689
1670930377.122835,-10.266662,71.41578233085134
1670930377.123843,-10.270292,71.53875453459511
1670930377.12485,-10.266878,71.66161039755957
1670930377.1258569,-10.274788,71.7844371753292
1670930377.126864,-10.235385,71.90729303829366
1670930377.127871,-10.160571,72.03014890125812
1670930377.1288779,-10.157614,72.15297567902775
1670930377.129885,-10.311594,72.2758315419922
1670930377.130892,-10.459948,72.39868740495666
1670930377.1318989,-10.547287,72.52151418272628
1670930377.132906,-10.580367,72.64437004569074
1670930377.133913,-10.547359,72.76722590865519
1670930377.13492,-10.4361,72.89005268642482
1670930377.135928,-10.328422,73.01302489016861
1670930377.136935,-10.226057,73.13588075313307
1670930377.1379418,-10.132179,73.25870753090268
1670930377.138949,-10.027795,73.33456181144219
1670930377.139956,-9.952909,73.54549175441106
1670930377.1409628,-10.051811,73.65978727801622
1670930377.14197,-10.203027,73.80408893444577
1670930377.142977,-10.238318,74.03356736446055
1670930377.1439838,-10.204949,74.18883615805379
1670930377.144991,-10.188867,74.27305841533354
1670930377.145998,-10.166533,74.44590506163141
1670930377.1470048,-10.110351,74.58202603728813
1670930377.148012,-10.070971,75.67911968597997
1670930377.14902,-10.100253,75.83343772858476
1670930377.150027,-10.140473,75.98970916774043
1670930377.1510339,-10.15836,76.14594361081677
1670930377.152041,-10.137877,76.30221504997246
1670930377.153048,-10.095493,76.45848648912813
1670930377.1540549,-10.095157,76.61472093220448
1670930377.155062,-10.1586,76.77099237136015
1670930377.156069,-10.242838,76.92726381051584
1670930377.157076,-10.314936,77.08349825359217
1670930377.158083,-10.399558,77.23976969274786
1670930377.15909,-10.454683,77.39604113190353
1670930377.160097,-10.474588,77.55227557497987
1670930377.161105,-10.528511,77.70869499845294
1670930377.162112,-10.616067,77.86496643760862
1670930377.1631188,-10.639266,78.02120088068496
1670930377.164126,-10.546879,78.17747231984063
1670930377.165133,-10.448889,78.33374375899632
1670930377.168154,-10.302915,78.80252108038401
1670930377.1691608,-10.309694,78.95875552346035
1670930377.170168,-10.301977,79.11502696261603
1670930377.171175,-10.289212,79.27129840177172
1670930377.1721818,-10.252478,79.42753284484805
1670930377.173189,-10.209854,79.58380428400373
1670930377.174197,-10.141122,79.7402237074768
1670930377.175204,-10.050249,79.89649514663247
1670930377.1762109,-10.023564,80.05272958970882
1670930377.177218,-9.980772,80.20900102886449
1670930377.178225,-9.913097,80.36527246802018
1670930377.179232,-9.921271,80.52150691109651
1670930377.180239,-10.004476,80.6777783502522
1670930377.181246,-10.109653,80.83404978940789
1670930377.182253,-10.201993,80.99028423248421
1670930377.18326,-10.270292,81.1465556716399
1670930377.184267,-10.383716,81.30282711079558
1670930377.185274,-10.486921,81.45906155387192
1670930377.186282,-10.57366,81.61548097734497
1670930377.187289,-10.615322,81.77175241650066
1670930377.1882958,-10.593949,81.927986859577
1670930377.189303,-10.532213,82.08425829873268
1670930377.19031,-10.354602,82.24052973788837
1670930377.1913168,-10.144247,82.3967641809647
1670930377.192324,-10.00837,82.55303562012038
1670930377.193331,-9.916246,82.71021083476396
1670930377.1943378,-9.904803,82.8696298057211
1670930377.195345,-9.873672,83.00667688745828
1670930377.196352,-9.92608,83.1970547052506
1670930377.1973588,-10.03104,83.33790800928793
1670930377.198366,-10.108138,83.53973513590844
1670930377.199374,-10.13367,83.66664824940334
1670930377.200381,-10.17461,83.87015122296332
1670930377.201388,-10.198483,84.00072363790227
1670930377.202395,-10.201176,84.13920406979999
1670930377.203402,-10.187232,84.24487088871894
1670930377.204409,-10.211946,84.35051269181902
1670930377.205416,-10.226009,84.45617951073797
1670930377.206423,-10.202786,84.56184632965693
1670930377.20743,-10.219759,84.667488132757
1670930377.208437,-10.225288,84.77315495167596
1670930377.209444,-10.249569,84.87882177059491
1670930377.210451,-10.314334,84.984463573695
1670930377.211459,-10.377152,85.09023045588944
1670930377.212466,-10.422036,85.19589727480839
1670930377.2134728,-10.444946,85.30153907790847
1670930377.21448,-10.444418,85.40720589682742
1670930377.215487,-10.490023,85.51287271574637
1670930377.2164938,-10.591113,85.61851451884645
1670930377.217501,-10.740693,85.7241813377654
1670930377.218508,-10.73002,85.82984815668436
1670930377.2195148,-10.60121,85.93548995978443
1670930377.220522,-10.408646,86.0411567787034
1670930377.221529,-10.184419,86.14682359762234
1670930377.2225358,-10.041378,86.25246540072243
1670930377.223543,-9.934012,86.35813221964138
1670930377.224551,-9.957621,86.46389910183582
1670930377.225558,-9.995605,86.56956592075477
1670930377.226565,-10.014957,86.67520772385485
1670930377.227572,-10.038613,86.7808745427738
1670930377.228579,-10.11023,86.88654136169276
1670930377.229586,-10.184275,86.99218316479285
1670930377.230593,-10.239857,87.0978499837118
1670930377.2316,-10.273297,87.20351680263074
1670930377.232607,-10.307146,87.30915860573083
1670930377.233614,-10.352439,87.41482542464978
1670930377.234621,-10.391,87.52049224356874
1670930377.235628,-10.394798,87.62613404666881
1670930377.236636,-10.605369,87.73190092886325
1670930377.237643,-10.903039,87.83756774778222
1670930377.2386498,-10.970761,87.94320955088229
1670930377.239657,-10.883109,88.04887636980125
1670930377.240664,-10.741534,88.1545431887202
1670930377.2416708,-10.543297,88.26018499182028
1670930377.242678,-10.295126,88.36585181073923
1670930377.243685,-10.112418,88.47151862965818
1670930377.2446918,-9.940408,88.57716043275826
1670930377.245699,-9.802006,88.68282725167721
1670930377.246706,-9.719811,88.78849407059617
1670930377.2477129,-9.695868,88.89413587369626
1670930377.24872,-9.772244,88.9998026926152
1670930377.249728,-9.921872,89.10556957480965
1670930377.250735,-10.037267,89.2112363937286
1670930377.251742,-10.063207,89.31687819682868
1670930377.252749,-10.06525,89.42254501574763
1670930377.253756,-10.061068,89.52821183466659
1670930377.254763,-10.091502,89.63385363776666
1670930377.25577,-10.097248,89.73952045668563
1670930377.256777,-10.084411,89.84518727560457
1670930377.257784,-10.087512,89.95082907870466
1670930377.258791,-10.115784,90.0564958976236
1670930377.259798,-10.157085,90.10233176156414
1670930377.260805,-10.19942,90.18347842765196
1670930377.261813,-10.248919,90.29288573390558
1670930377.26282,-10.322147,90.91033032911393
1670930377.2638268,-10.433767,90.91138107796507
1670930377.264834,-10.537935,91.07115754068715
1670930377.265841,-10.626741,91.1543012357552
1670930377.2668478,-10.604311,91.21181424321881
1670930377.267855,-10.550918,91.37539599367089
1670930377.268862,-10.454394,91.40077145613506
1670930377.2698689,-10.346453,91.4635692147795
1670930377.270876,-10.240722,91.6059426330472
1670930377.271883,-10.089098,91.66277729995231
1670930377.2728899,-9.972982,91.74939688516754
1670930377.273897,-9.909876,91.83658391285245
1670930377.274905,-9.911896,91.92385350401054
1670930377.275912,-9.988873,92.01104053169544
1670930377.276919,-10.113764,92.09820691851205
1670930377.277926,-10.179082,92.18539394619695
1670930377.278933,-10.15783,92.27258097388184
1670930377.27994,-10.153167,92.35974736069845
1670930377.280947,-10.194083,92.44693438838335
1670930377.281954,-10.222932,92.53412141606826
1670930377.282961,-10.304982,92.62128780288486
1670930377.283968,-10.366334,92.70847483056977
1670930377.284975,-10.397538,92.79566185825466
1670930377.285982,-10.450788,92.88282824507127
1670930377.28699,-10.563562,92.97009783622936
1670930377.287997,-10.792524,93.05728486391426
1670930377.2890038,-10.927608,93.14445125073087
1670930377.290011,-10.843298,93.23163827841577
1670930377.291018,-10.772932,93.31882530610068
1670930377.2920249,-10.82195,93.40599169291728
1670930377.293032,-10.737712,93.49317872060217
1670930377.294039,-10.493989,93.58036574828708
1670930377.2950459,-10.215672,93.66753213510368
1670930377.296053,-10.070323,93.75471916278859
1670930377.29706,-10.014091,93.8419061904735
1670930377.2980669,-9.846145,93.9290725772901
1670930377.299074,-9.678823,94.01625960497499
1670930377.300082,-9.720388,94.10352919613308
1670930377.301089,-9.856241,94.19071622381799
1670930377.302096,-9.942259,94.27788261063459
1670930377.303103,-10.129438,94.3650696383195
1670930377.30411,-10.291495,94.4522566660044
1670930377.305117,-10.36893,94.53942305282101
1670930377.311159,-10.005365,95.06250393719382
1670930377.312167,-9.912208,95.14977352835191
1670930377.313174,-9.840856,95.2369605560368
1670930377.3141809,-9.886124,95.31505465712924
1670930377.315188,-10.026304,95.39575671990465
1670930377.316195,-10.130039,95.50414526299475
1670930377.3172019,-10.203074,95.52781998569384
1670930377.318209,-10.229279,95.76119795418069
1670930377.319216,-10.315224,95.79131129225989
1670930377.3202229,-10.462616,95.66104884072485
1670930377.32123,-10.580968,95.72168446494993
1670930377.322237,-10.615297,95.76406677806912
1670930377.3232439,-10.614264,95.76341260925963
1670930377.324251,-10.612701,95.79662347022544
1670930377.325259,-10.636982,95.8298657808702
1670930377.326266,-10.553441,95.86307664183599
1670930377.327273,-10.347054,95.89627964038206
1670930377.32828,-10.145426,95.92949050134787
1670930377.329287,-9.964497,95.96270136231367
1670930377.330294,-9.850857,95.99590436085974
1670930377.331301,-9.791212,96.02911522182555
1670930377.332308,-9.856001,96.06232608279134
1670930377.333315,-9.983945,96.09552908133742
1670930377.334322,-10.088089,96.12873994230321
1670930377.3353288,-10.15045,96.16194294084929
1670930377.336336,-10.176077,96.1951538018151
1670930377.337344,-10.15057,96.22839611245983
1670930377.338351,-10.20632,96.26160697342564
1670930377.3393579,-10.243703,96.29480997197172
1670930377.340365,-10.257719,96.32802083293751
1670930377.341372,-10.237645,96.36123169390332
1670930377.3423789,-10.262815,96.39443469244938
1670930377.343386,-10.261662,96.42764555341519
1670930377.344393,-10.294837,96.460856414381
1670930377.3453999,-10.511731,96.49405941292706
1670930377.346407,-10.666504,96.52727027389287
1670930377.347414,-10.745141,96.56048113485868
1670930377.3484209,-10.784639,96.59368413340474
1670930377.349428,-10.737207,96.62689499437055
1670930377.350436,-10.582771,96.6601373050153
1670930377.351443,-10.356958,96.69334816598109
1670930377.35245,-10.103642,96.72655116452717
1670930377.353457,-9.921439,96.75976202549296
1670930377.354464,-9.837418,96.79297288645877
1670930377.355471,-9.744333,96.82617588500484
1670930377.356478,-9.789577,96.85938674597064
1670930377.3574848,-10.005245,96.89258974451671
1670930377.358492,-10.110975,96.92580060548251
1670930377.359499,-10.152854,96.95901146644832
1670930377.3605058,-10.168192,96.99221446499439
1670930377.361513,-10.184948,97.02542532596019
1670930377.362521,-10.149705,97.05866763660494
1670930377.363528,-10.114533,97.09187849757075
1670930377.3645349,-10.090301,97.1250814961168
1670930377.365542,-10.047893,97.15829235708262
1670930377.366549,-10.042388,97.19150321804842
1670930377.3675559,-10.098162,97.22470621659448
1670930377.368563,-10.140714,97.2579170775603
1670930377.36957,-10.188362,97.29302177372436
1670930377.3705769,-10.24642,97.34026934064363
1670930377.371584,-10.278057,97.35115614592274
1670930377.372591,-10.323662,97.344009
1670930377.3735979,-10.413453,97.33280566650775
1670930377.374605,-10.513895,97.33723618741058
1670930377.375613,-10.55486,97.344009
1670930377.37662,-10.538585,97.36719978212157
1670930377.377627,-10.465069,97.3684693989032
1670930377.378634,-10.391697,97.362099
1670930377.3796408,-10.303588,97.362099
1670930377.380648,-10.220552,97.362099
1670930377.381655,-10.110446,97.362099
1670930377.3826618,-10.019453,97.362099
1670930377.383669,-9.981229,97.362099
1670930377.384676,-9.983055,97.362099
1670930377.3856828,-10.07001,97.362099
1670930377.38669,-10.150619,97.362099
1670930377.387698,-10.120423,97.362099
1670930377.388705,-10.108138,97.362099
1670930377.3897119,-10.209181,97.362099
1670930377.390719,-10.286759,97.362099
1670930377.391726,-10.328878,97.362099
1670930377.3927329,-10.349866,97.362099
1670930377.39374,-10.368714,97.362099
1670930377.394747,-10.387898,97.362099
1670930377.3957539,-10.374268,97.36779520238379
1670930377.396761,-10.313012,97.37436536051503
1670930377.397768,-10.269403,97.3442376409156
1670930377.3987749,-10.217715,97.307816
1670930377.399782,-10.16985,97.28920908917502
1670930377.40079,-10.277888,97.2345011483071
1670930377.4017968,-10.524761,97.23164220405245
1670930377.402804,-10.802261,97.28312700858369
1670930377.403811,-10.995331,97.26490861659514
1670930377.4048178,-10.99961,97.2435314463314
1670930377.405825,-10.785913,97.21690468566678
1670930377.406832,-10.563154,97.19027792500214
1670930377.4078388,-10.352487,97.16365746802137
1670930377.409853,-9.832273,97.11040394669209
1670930377.4108598,-9.578116,97.08378348971132
1670930377.411867,-9.436927,97.05715672904668
1670930377.412875,-9.56814,97.03050475364657
1670930377.413882,-9.844894,97.00387799298194
1670930377.4148889,-10.068832,96.97725753600118
1670930377.415896,-10.181246,96.95063077533653
1670930377.416903,-10.201367,96.9240040146719
1670930377.4179099,-10.206825,96.89738355769113
1670930377.418917,-10.214397,96.87075679702649
1670930377.419924,-10.214566,96.84413003636186
1670930377.4209309,-10.196175,96.81750957938108
1670930377.421938,-10.145185,96.79088281871645
1670930377.422945,-10.113139,96.76425605805181
1670930377.4239519,-10.134704,96.73763560107105
1670930377.424959,-10.17562,96.71100884040641
1670930377.425967,-10.181943,96.6843568650063
1670930377.4269738,-10.209758,96.65773640802553
1670930377.427981,-10.281326,96.63110964736089
1670930377.428988,-10.306593,96.60448288669625
1670930377.4299948,-10.264714,96.57786242971548
1670930377.431002,-10.234784,96.55123566905085
1670930377.432009,-10.256349,96.52460890838621
1670930377.4330158,-10.2945,96.49798845140545
1670930377.434023,-10.261685,96.4713616907408
1670930377.43503,-10.23875,96.44473493007617
1670930377.4360368,-10.22863,96.4181144730954
1670930377.437044,-10.211465,96.39148771243076
1670930377.438052,-10.270965,96.36483573703065
1670930377.439059,-10.307723,96.33820897636602
1670930377.4400659,-10.301136,96.31158851938524
1670930377.441073,-10.304982,96.28496175872061
1670930377.44208,-10.301641,96.25833499805597
1670930377.4430869,-10.246997,96.2317145410752
1670930377.444094,-10.168119,96.21055600691463
1670930377.445101,-10.135785,96.16839074827175
1670930377.4461079,-10.152133,96.1258506981402
1670930377.447115,-10.242285,96.05272993347639
1670930377.448122,-10.301857,96.06049348783978
1670930377.4491289,-10.337726,95.90573860578279
1670930377.450136,-10.323926,95.82322115021157
1670930377.451144,-10.266951,95.95640026299476
1670930377.4521508,-10.234207,95.86092267818832
1670930377.453158,-10.181462,95.79507679997594
1670930377.454165,-10.140594,95.7539601177532
1670930377.4551718,-10.165043,95.71285316959346
1670930377.456179,-10.229182,95.67173648737071
1670930377.457186,-10.333591,95.63061980514794
1670930377.4581928,-10.469396,95.58951285698822
1670930377.4592,-10.586113,95.54839617476546
1670930377.460207,-10.656311,95.50727949254271
1670930377.4612138,-10.636525,95.46617254438297
1670930377.462221,-10.617558,95.42505586216022
1670930377.463229,-10.591954,95.38390024368535
1670930377.464236,-10.453794,95.3427835614626
1670930377.4652429,-10.247285,95.30167661330286
1670930377.46625,-10.058495,95.26055993108011
1670930377.467257,-9.934254,95.21944324885735
1670930377.4682639,-9.92031,95.17833630069762
1670930377.469271,-9.917833,95.13721961847486
1670930377.470278,-9.946947,95.09610293625211
1670930377.4712849,-10.027603,95.05499598809237
1670930377.472292,-10.099003,95.01387930586962
1670930377.473299,-10.117105,94.97276262364686
1670930377.4743059,-10.123693,94.93165567548714
1670930377.475313,-10.072078,94.89053899326437
1670930377.476321,-10.022482,94.84938337478951
1670930377.4773278,-10.062149,94.80827642662977
1670930377.478335,-10.085781,94.76715974440702
1670930377.479342,-10.093306,94.72604306218426
1670930377.4803488,-10.139511,94.68493611402454
1670930377.481356,-10.205647,94.64381943180177
1670930377.482363,-10.231058,94.60270274957902
1670930377.4833698,-10.213917,94.56159580141929
1670930377.484377,-10.192088,94.52047911919654
1670930377.485384,-10.222404,94.47936243697377
1670930377.4863908,-10.25231,94.43825548881405
1670930377.487398,-10.267888,94.39713880659129
1670930377.488406,-10.327413,94.35598318811643
1670930377.489413,-10.380878,94.31486650589366
1670930377.4904199,-10.385158,94.26948567913291
1670930377.491427,-10.389966,94.22072203174224
1670930377.492434,-10.419848,94.17221025250358
1670930377.4934409,-10.408766,94.11780569368295
1670930377.494448,-10.358112,94.11214085836909
1670930377.495455,-10.286351,94.10474276824034
1670930377.4964619,-10.266157,94.05010936185936
1670930377.497469,-10.284451,94.00877157081545
1670930377.498476,-10.299068,93.97019318597997
1670930377.4994829,-10.343688,93.91114884791418
1670930377.50049,-10.318686,93.88175138888889
1670930377.501498,-10.242886,93.85633409227468
1670930377.5025048,-10.250146,93.79069004052444
1670930377.503512,-10.248367,93.7111136003815
1670930377.504519,-10.178168,93.689789
1670930377.5055258,-10.214446,93.67441680686696
1670930377.506533,-10.184395,93.63798317377831
1670930377.50754,-10.132564,93.59361049594659
1670930377.5085468,-10.302627,93.53090181831188
1670930377.509554,-10.604047,93.48362863812905
1670930377.510561,-10.722374,93.46767000626436
1670930377.5115678,-10.645877,93.45171515248487
1670930377.512575,-10.534426,93.43575652062017
1670930377.513583,-10.393932,93.4197827764147
1670930377.51459,-10.204277,93.33503994134479
1670930377.5155969,-10.075587,93.41200746018121
1670930377.516604,-9.934445,93.23221900023837
1670930377.517611,-9.847131,93.25356881020505
1670930377.5186179,-9.851458,93.20408688125895
1670930377.519625,-9.923988,93.1321129511323
1670930377.520632,-10.133309,93.11116488183403
1670930377.5216389,-10.304694,93.0925461645412
1670930377.522646,-10.296184,93.07392303836434
1670930377.523653,-10.221538,93.05529991218748
1670930377.5246599,-10.162133,93.03668119489464
1670930377.525667,-10.113451,93.01805806871778
1670930377.526675,-10.133574,92.99941730700476
1670930377.5276818,-10.165043,92.98079858971194
1670930377.528689,-10.149825,92.96217546353508
1670930377.529696,-10.120207,92.94355233735821
1670930377.5307028,-10.12201,92.92493362006537
1670930377.53171,-10.142084,92.90631049388851
1670930377.532717,-10.177977,92.88768736771165
1670930377.5337238,-10.215672,92.86906865041882
1670930377.534731,-10.194973,92.85044552424196
1670930377.535738,-10.180789,92.83182239806509
1670930377.5367448,-10.183938,92.81320368077226
1670930377.537752,-10.195333,92.7945805545954
1670930377.53876,-10.208941,92.77593979288238
1670930377.539767,-10.227788,92.75731666670552
1670930377.5407739,-10.210359,92.7386979494127
1670930377.541781,-10.171918,92.72007482323582
1670930377.542788,-10.153551,92.70145169705896
1670930377.5437949,-10.156749,92.68283297976613
1670930377.544802,-10.188386,92.66420985358927
1670930377.545809,-10.22863,92.64558672741241
1670930377.5468159,-10.271975,92.62696801011958
1670930377.547823,-10.275076,92.6083448839427
1670930377.54883,-10.26308,92.58972175776584
1670930377.5498369,-10.271807,92.57110304047302
1670930377.550844,-10.269787000000001,92.55247991429616
1670930377.551852,-10.292674,92.53383915258314
1670930377.5528588,-10.372921,92.51522043529032
1670930377.553866,-10.456486,92.49659730911344
1670930377.554873,-10.49459,92.47797418293658
1670930377.5558798,-10.464323,92.45935546564375
1670930377.556887,-10.417781,92.44073233946689
1670930377.557894,-10.38636,92.42210921329003
1670930377.5589008,-10.365781,92.40349049599719
1670930377.559908,-10.278658,92.38486736982033
1670930377.560915,-10.192809,92.36624424364346
1670930377.5619218,-10.126073,92.34762552635064
1670930377.562929,-10.062822,92.32900240017378
1670930377.563937,-10.041402,92.31036163846076
1670930377.564944,-10.122972,92.30184396519665
1670930377.5659509,-10.204854,92.29960658559848
1670930377.566958,-10.16259,92.25542902145922
1670930377.567965,-10.100782,92.242584
1670930377.5689719,-10.141579,92.242584
1670930377.569979,-10.186342,92.31136676851311
1670930377.570986,-10.194853,92.36519175291376
1670930377.5719929,-10.19055,92.333046
1670930377.573,-10.224903,92.34772815043732
1670930377.574007,-10.328831,92.3837599574344
1670930377.5750139,-10.393139,92.3884487532777
1670930377.576021,-10.435018,92.42145780281355
1670930377.577029,-10.461751,92.44070707367668
1670930377.5780358,-10.42944,92.5109470283671
1670930377.579043,-10.288755,92.56634866046734
1670930377.58005,-10.121481,92.53299575298045
1670930377.5810568,-10.014573,92.57352713158339
1670930377.582064,-9.988729,92.6161845281304
1670930377.583071,-10.004355,92.6588419246774
1670930377.5840778,-10.020343,92.70148922240895
1670930377.585085,-10.07489,92.74414661895597
1670930377.586092,-10.11612,92.78680401550298
1670930377.5870988,-10.13343,92.82945131323451
1670930377.588106,-10.140834,92.87210870978153
1670930377.589114,-10.13843,92.91480650159042
1670930377.590121,-10.149849,92.95746389813743
1670930377.5911279,-10.145666,93.00011119586897
1670930377.592135,-10.155258,93.04276859241598
1670930377.593142,-10.146531,93.085425988963
1670930377.5941489,-10.173481,93.12807328669454
1670930377.595156,-10.211272,93.17073068324154
1670930377.596163,-10.242789,93.21338807978856
1670930377.5971699,-10.28861,93.2560353775201
1670930377.598177,-10.379412,93.29869277406712
1670930377.599184,-10.466247,93.34135017061412
1670930377.6001909,-10.494638,93.38399746834567
1670930377.601198,-10.476583,93.42665486489268
1670930377.602206,-10.414487,93.46935265670157
1670930377.6032128,-10.333086,93.51199995443311
1670930377.60422,-10.263369,93.55465735098012
1670930377.605227,-10.21334,93.59731474752714
1670930377.6062338,-10.159561,93.63996204525868
1670930377.607241,-10.173938,93.68261944180568
1670930377.608248,-10.261181,93.7252768383527
1670930377.6092548,-10.333735,93.76792413608425
1670930377.610262,-10.367248,93.81058153263126
1670930377.611269,-10.30955,93.85323892917826
1670930377.6122758,-10.262599,93.89588622690981
1670930377.613283,-10.258824,93.93854362345682
1670930377.614291,-10.202858,93.98124141526571
1670930377.615298,-10.122611,94.02389881181273
1670930377.6163049,-10.083328,94.06654610954426
1670930377.617312,-10.051403,94.10920350609128
1670930377.618319,-10.077655,94.15186090263829
1670930377.6193259,-10.084002,94.19450820036984
1670930377.620333,-10.071284,94.23716559691684
1670930377.62134,-10.10684,94.29247108655221
1670930377.6223469,-10.160643,94.359131
1670930377.623354,-10.254017,94.359131
1670930377.624361,-10.36417,94.36940472389128
1670930377.6253679,-10.559139,94.38478511826419
1670930377.626376,-10.820027,94.3753531864124
1670930377.627383,-10.99937,94.41893266404387
1670930377.6283898,-11.028338,94.43714674296615
1670930377.629397,-10.972108,94.449577
1670930377.630404,-10.777355,94.44608675553458
1670930377.6314108,-10.405736,94.43534382377256
1670930377.632418,-10.053205,94.42459834810057
1670930377.633425,-9.781139,94.41385287242859
1670930377.6344318,-9.630309,94.40310994066657
1670930377.635439,-9.535541,94.39236446499459
1670930377.636446,-9.542657,94.3816189893226
1670930377.6374528,-9.736135,94.37087605756058
1670930377.63846,-9.945697,94.36013058188858
1670930377.639468,-10.007841,94.34937493057677
1670930377.640475,-10.005942,94.33862945490478
1670930377.6414819,-10.039094,94.32788652314275
1670930377.642489,-10.069361,94.31714104747077
1670930377.643496,-10.081285,94.30639557179879
1670930377.6445029,-10.09244,94.29565264003676
1670930377.64551,-10.096623,94.28490716436478
1670930377.646517,-10.104219,94.2741616886928
1670930377.6475239,-10.120231,94.26341875693078
1670930377.648531,-10.136194,94.2526732812588
1670930377.649538,-10.159345,94.24192780558681
1670930377.650545,-10.165043,94.23118487382479
1670930377.651553,-10.181342,94.22042922251296
1670930377.65256,-10.22726,94.20968374684098
1670930377.6535668,-10.343328,94.19894081507896
1670930377.654574,-10.464612,94.18819533940697
1670930377.655581,-10.523848,94.17744986373499
1670930377.6565878,-10.504615,94.16670693197297
1670930377.657595,-10.453745,94.15596145630099
1670930377.658602,-10.395399,94.14521598062899
1670930377.6596088,-10.325489,94.13447304886698
1670930377.660616,-10.241996,94.12372757319498
1670930377.661623,-10.165043,94.112982097523
1670930377.6626298,-10.131578,94.10223916576098
1670930377.663637,-10.081357,94.091493690089
1670930377.664645,-10.037267,94.08073803877717
1670930377.665652,-10.059168,94.06999256310519
1670930377.6666589,-10.112346,94.05924963134316
1670930377.667666,-10.141315,94.04850415567118
1670930377.668673,-10.109629,94.0377586799992
1670930377.6696799,-10.068832,94.02701574823718
1670930377.670687,-10.081382,94.0162702725652
1670930377.671694,-10.142468,94.00552479689321
1670930377.672701,-10.176654,93.99478186513119
1670930377.673708,-10.229135,93.9840363894592
1670930377.674715,-10.296761,93.97329091378722
1670930377.675722,-10.376552,93.9625479820252
1670930377.67673,-10.450524,93.95179233071337
1670930377.677737,-10.472713,93.94645619809297
1670930377.6787438,-10.416819,93.95409544969004
1670930377.679751,-10.426315,93.92861816714354
1670930377.680758,-10.430762,93.94683565744936
1670930377.6817648,-10.340923,93.95723967501193
1670930377.682772,-10.271206,93.943054
1670930377.683779,-10.255386,93.93889288319428
1670930377.6847858,-10.198291,93.924965
1670930377.685793,-10.162927,93.92055273319028
1670930377.6868,-10.148455,93.902961285874
1670930377.6878068,-10.11463,93.88726153492043
1670930377.688814,-10.082416,93.87155806628962
1670930377.689822,-10.059384,93.85583972694988
1670930377.690829,-10.029021,93.84013625831908
1670930377.6918359,-10.000149,93.8244365073655
1670930377.692843,-10.027795,93.8087330387347
1670930377.69385,-10.061812,93.7930295701039
1670930377.694857,-10.06751,93.77732981915034
1670930377.695864,-10.10184,93.76162635051953
1670930377.696871,-10.172688,93.74592288188873
1670930377.697878,-10.245217,93.73022313093516
1670930377.698885,-10.325946,93.71451966230435
1670930377.699892,-10.35126,93.69881619367355
1670930377.700899,-10.307627,93.68311644271998
1670930377.701907,-10.280052,93.66739810338024
1670930377.702914,-10.283514,93.65169463474943
1670930377.7039208,-10.342365,93.63599488379587
1670930377.704928,-10.349866,93.62029141516507
1670930377.705935,-10.314671,93.60458794653427
1670930377.7069418,-10.337678,93.5888881955807
1670930377.707949,-10.322364,93.57318472694989
1670930377.708956,-10.144753,93.55748125831909
1670930377.7099628,-10.036546,93.54178150736551
1670930377.71097,-10.060466,93.52607803873471
1670930377.711977,-10.085612,93.5103745701039
1670930377.7129838,-10.128188,93.49467481915033
1670930377.713991,-10.154849,93.47897135051953
1670930377.714999,-10.169442,93.4632530111798
1670930377.716006,-10.176967,93.42998450166905
1670930377.717013,-10.185237,93.38367022484502
1670930377.71802,-10.178986,93.364166
1670930377.719027,-10.209878,93.33839064091559
1670930377.720034,-10.313036,93.30118129303767
1670930377.721041,-10.403357,93.27411631306629
1670930377.722048,-10.504038,93.2735771988081
1670930377.723055,-10.608374,93.24633073319028
1670930377.724062,-10.585223,93.18291870243205
1670930377.725069,-10.480935,93.15198483902726
1670930377.726076,-10.369219,93.12627075844273
1670930377.727084,-10.203339,93.10052623258163
1670930377.728091,-10.054961,93.07480606294178
1670930377.7290978,-9.946009,93.04909198235724
1670930377.730105,-9.904635,93.02337181271739
1670930377.731112,-9.973151,92.99765164307753
1670930377.7321188,-10.019429,92.971937562493
1670930377.733126,-10.027122,92.94621739285314
1670930377.734133,-10.05008,92.92049722321329
1670930377.7351398,-10.037267,92.89478314262875
1670930377.736147,-10.029718,92.8690629729889
1670930377.737154,-10.073568,92.84334280334905
1670930377.7381608,-10.112754,92.81762872276451
1670930377.739168,-10.105566,92.79190855312466
1670930377.740176,-10.107033,92.76616402726356
1670930377.741183,-10.149008,92.7404438576237
1670930377.74219,-10.178265,92.6964050052456
1670930377.743197,-10.20079,92.66508315569861
1670930377.744204,-10.24541,92.67045723628993
1670930377.745211,-10.326571,92.61714643194279
1670930377.746218,-10.420113,92.6103914434907
1670930377.747225,-10.484446,92.59811965808298
1670930377.748232,-10.448985,92.586288
1670930377.749239,-10.435571,92.56143611206485
1670930377.750246,-10.398788,92.52499863400095
1670930377.751253,-10.323926,92.51823436448598
1670930377.752261,-10.211873,92.52442301246106
1670930377.753268,-10.118765,92.53060580551848
1670930377.7542748,-10.003538,92.53678713484646
1670930377.755282,-9.89913,92.54296992790387
1670930377.756289,-9.920238,92.54915272096129
1670930377.7572958,-10.072318,92.52113474341894
1670930377.758303,-10.228774,92.4868418087598
1670930377.75931,-10.298011,92.45254887410067
1670930377.7603168,-10.283971,92.41826405803403
1670930377.761324,-10.240554,92.38397112337489
1670930377.762331,-10.178457,92.34967818871577
1670930377.7633379,-10.151844,92.31539337264913
1670930377.764345,-10.178217,92.28110043798999
1670930377.765353,-10.218124,92.24677502896091
1670930377.76636,-10.229182,92.21248209430179
1670930377.767367,-10.18966,92.17819727823515
1670930377.768374,-10.188579,92.14390434357601
1670930377.769381,-10.221802,92.10961140891688
1670930377.770388,-10.228077,92.07532659285023
1670930377.771395,-10.202594,92.04103365819111
1670930377.772402,-10.163937,92.00674072353198
1670930377.773409,-10.127684,91.97245590746533
1670930377.774416,-10.061332,91.93610316638856
1670930377.775423,-10.080973,91.8819734282308
1670930377.77643,-10.200118,91.9164185386266
1670930377.777438,-10.320777,91.86308209058403
1670930377.778445,-10.418214,91.808426
1670930377.7794518,-10.4699,91.772247
1670930377.780459,-10.485334,91.77074581783499
1670930377.781466,-10.432638,91.66407557081546
1670930377.7824728,-10.451317,91.68065565645921
1670930377.78348,-10.418718,91.63984735631998
1670930377.784487,-10.288154,91.59903905618074
1670930377.7854939,-10.140233,91.55824041709741
1670930377.786501,-10.015751,91.51743211695818
1670930377.787508,-9.887543,91.47662381681894
1670930377.7885149,-9.857251,91.43582517773561
1670930377.789522,-9.904972,91.39501687759638
1670930377.79053,-9.974089,91.35416993323352
1670930377.791537,-10.12463,91.31336163309427
1670930377.792544,-10.249833,91.27256299401095
1670930377.793551,-10.35251,91.23175469387171
1670930377.794558,-10.395183,91.19094639373247
1670930377.795565,-10.382273,91.15014775464914
1670930377.796572,-10.318662,91.10933945450991
1670930377.797579,-10.256709,91.06853115437067
1670930377.798586,-10.215047,91.02773251528734
1670930377.799593,-10.162086,90.98692421514811
1670930377.8006,-10.096815,90.94611591500886
1670930377.801607,-10.051379,90.90531727592554
1670930377.802615,-10.035464,90.86447033156269
1670930377.803622,-10.025776,90.82366203142345
1670930377.8046288,-10.049167,90.78286339234012
1670930377.805636,-10.112177,90.74205509220087
1670930377.806643,-10.151484,90.70124679206164
1670930377.8076499,-10.152445,90.67615705269432
1670930377.808657,-10.17139,90.69725715617548
1670930377.809664,-10.245891,90.65289244266984
1670930377.8106709,-10.35804,90.59229030042918
1670930377.811678,-10.440619,90.56564503338102
1670930377.812685,-10.474998,90.524025
1670930377.8136919,-10.515674,90.50170438841201
1670930377.814699,-10.588878,90.42439116881259
1670930377.815707,-10.553466,90.39266107008343
1670930377.816714,-10.496946,90.36431569574367
1670930377.817721,-10.415977,90.30817636074856
1670930377.818728,-10.260435,90.252023732044
1670930377.819735,-10.166317,90.19587110333943
1670930377.820742,-10.038541,90.13973176834432
1670930377.821749,-9.943821,90.08357913963975
1670930377.822756,-9.9225930000000009,90.02742651093519
1670930377.823763,-9.932763,89.97128717594008
1670930377.83182,-10.136555,89.52203955888469
1670930377.8328269,-10.164201,89.46590022388956
1670930377.833834,-10.208797,89.40974759518501
1670930377.834841,-10.254809,89.35359496648044
1670930377.8358479,-10.297505,89.29745563148533
1670930377.836855,-10.298131,89.24130300278077
1670930377.837862,-10.300439,89.1851503740762
1670930377.8388689,-10.281158,89.12901103908109
1670930377.839876,-10.279812,89.07285841037653
1670930377.840884,-10.312699,89.01665260683417
1670930377.841891,-10.294525,88.96049997812962
1670930377.842898,-10.215119,88.9043606431345
1670930377.843905,-10.170091,88.84820801442994
1670930377.844912,-10.161701,88.79205538572538
1670930377.845919,-10.131794,88.787376
1670930377.846926,-10.116697,88.70326876615017
1670930377.847933,-10.105542,88.67997964949929
1670930377.84894,-10.111816,88.64467503767287
1670930377.849947,-10.151556,88.59104388867699
1670930377.8509538,-10.185237,88.55372686766809
1670930377.851961,-10.195406,88.48237911802575
1670930377.852969,-10.210792,88.4270497442193
1670930377.853976,-10.216489,88.37237921316165
1670930377.8549829,-10.211152,88.32567199441044
1670930377.85599,-10.210671,88.27911511989721
1670930377.856997,-10.20281,88.23255824538398
1670930377.8580039,-10.180429,88.18601239285809
1670930377.859011,-10.173,88.13945551834486
1670930377.860018,-10.15545,88.09289864383163
1670930377.8610249,-10.171053,88.04635279130574
1670930377.862032,-10.226297,87.99979591679251
1670930377.863039,-10.185405,87.955223
1670930377.8640459,-10.102561,87.95432191797806
1670930377.865053,-10.080829,87.92889344849785
1670930377.866061,-10.118283,87.79123481358761
1670930377.867068,-10.088329,87.77302038197425
1670930377.868075,-10.033468,87.74909479637577
1670930377.869082,-10.061139,87.66734364576877
1670930377.870089,-10.126,87.67882961945637
1670930377.871096,-10.193555,87.62418637577493
1670930377.872103,-10.200815,87.57341484173855
1670930377.8731098,-10.200646,87.555308063702725
1670930377.874117,-10.258103,87.53719699800929
1670930377.875124,-10.346861,87.51908593231586
1670930377.8761308,-10.415881,87.50097915428003
1670930377.877138,-10.471343,87.47881040391036
1670930377.878146,-10.499759,87.430611
1670930377.879153,-10.503293,87.42829751345559
1670930377.8801599,-10.45264,87.40768173962805
1670930377.881167,-10.314286,87.37276350876081
1670930377.882174,-10.21334,87.34718013990403
1670930377.8831809,-10.167278,87.321602827716
1670930377.884188,-10.077727,87.29601945885922
1670930377.885195,-9.992623,87.27043609000243
1670930377.8862019,-9.964184,87.24485877781441
1670930377.887209,-9.948029,87.21927540895764
1670930377.888216,-9.99046,87.19369204010086
1670930377.8892229,-10.090781,87.16811472791284
1670930377.89023,-10.211152,87.14253135905605
1670930377.891238,-10.261445,87.11692376352421
1670930377.892245,-10.239808,87.09134039466743
1670930377.893252,-10.139824,87.0657630824794
1670930377.894259,-10.032988,87.04017971362262
1670930377.8952658,-10.043397,87.0146024014346
1670930377.896273,-10.122202,86.98901903257783
1670930377.89728,-10.217499,86.96343566372104
1670930377.8982868,-10.33674,86.93785835153302
1670930377.899294,-10.44598,86.91227498267624
1670930377.900301,-10.458722,86.88669161381945
1670930377.9013078,-10.391312,86.86111430163143
1670930377.902315,-10.271663,86.83553093277465
1670930377.903323,-10.192472,86.80992333724281
1670930377.90433,-10.126049,86.78433996838604
1670930377.9053369,-10.036714,86.75876265619802
1670930377.906344,-10.003755,86.73317928734123
1670930377.907351,-10.035224,86.70759591848444
1670930377.9083579,-10.055369,86.68201860629642
1670930377.909365,-10.130376,86.65643523743964
1670930377.910372,-10.217883,86.63085186858285
1670930377.9113789,-10.2513,86.60527455639483
1670930377.912386,-10.277047,86.57969118753805
1670930377.913393,-10.333302,86.55410781868127
1670930377.9143999,-10.419223,86.52853050649325
1670930377.915407,-10.496201,86.50294713763647
1670930377.916415,-10.483436,86.47733954210463
1670930377.9174218,-10.409439,86.45176222991661
1670930377.918429,-10.346453,86.42617886105982
1670930377.919436,-10.310199,86.40059549220304
1670930377.9204428,-10.273585,86.37501818001502
1670930377.92145,-10.143575,86.34943481115823
1670930377.922457,-10.016448,86.32385144230146
1670930377.9234638,-10.02116,86.29827413011344
1670930377.924471,-10.041931,86.27269076125665
1670930377.925478,-10.017193,86.24710739239987
1670930377.9264848,-9.981541,86.22153008021185
1670930377.927492,-9.969256,86.19594671135506
1670930377.9285,-9.98029,86.16522572844212
1670930377.929507,-10.005726,86.12880198140644
1670930377.9305139,-10.052965,86.110031
1670930377.931521,-10.114942,86.0921060529833
1670930377.932528,-10.139367,86.09203246653965
1670930377.9335349,-10.166869,86.07321415736767
1670930377.934542,-10.201608,86.0470163856802
1670930377.935549,-10.250867,86.02735598309121
1670930377.9365559,-10.296256,85.99191136671436
1670930377.937563,-10.344457,85.97617160459798
1670930377.93857,-10.435884,85.96260229457216
1670930377.9395769,-10.512068,85.9490361969777
1670930377.940584,-10.575535,85.93546688695189
1670930377.941592,-10.512212,85.92188472720068
1670930377.9425988,-10.390639,85.90831862960621
1670930377.943606,-10.262551,85.8947493195804
1670930377.944613,-10.145521,85.88118000955458
1670930377.9456198,-9.997239,85.86761391196012
1670930377.946627,-9.895548,85.8540446019343
1670930377.947634,-9.872541,85.84047529190849
1670930377.9486408,-9.944014,85.82690919431403
1670930377.949648,-9.997745,85.81333988428821
1670930377.950655,-10.029334,85.7997705742624
1670930377.9516618,-10.071428,85.78620447666793
1670930377.952669,-10.104965,85.77263516664213
1670930377.953677,-10.11386,85.75905300689091
1670930377.954684,-10.121217,85.7454836968651
1670930377.9556909,-10.147277,85.73191759927063
1670930377.956698,-10.159801,85.71834828924482
1670930377.957705,-10.191102,85.704778979219
1670930377.9587119,-10.225409,85.69121288162454
1670930377.959719,-10.243342,85.67764357159872
1670930377.960726,-10.251516,85.66407426157292
1670930377.9617329,-10.26796,85.65050816397846
1670930377.96274,-10.284404,85.63693885395264
1670930377.963747,-10.279211,85.62336954392683
1670930377.9647539,-10.261782,85.60980344633236
1670930377.965761,-10.202497,85.59623413630655
1670930377.966769,-10.103764,85.58265197655533
1670930377.9677758,-10.097561,85.56908587896086
1670930377.968783,-10.140449,85.55551656893505
1670930377.96979,-10.222692,85.54194725890925
1670930377.9707968,-10.279595,85.52838116131478
1670930377.971804,-10.290895,85.51481185128897
1670930377.972811,-10.272912,85.50124254126315
1670930377.9738178,-10.243847,85.48767644366869
1670930377.974825,-10.20959,85.47410713364287
1670930377.975832,-10.175644,85.46053782361706
1670930377.9768388,-10.139343,85.4469717260226
1670930377.977846,-10.112105,85.43340241599678
1670930377.978854,-10.155042,85.41982025624557
1670930377.979861,-10.262455,85.40625094621976
1670930377.9808679,-10.369051,85.3926848486253
1670930377.981875,-10.390062,85.37911553859948
1670930377.982882,-10.349505,85.36554622857366
1670930377.9838889,-10.340563,85.3519801309792
1670930377.984896,-10.322195,85.33841082095338
1670930377.985903,-10.293708,85.32484151092757
1670930377.9869099,-10.247454,85.3112754133331
1670930377.987917,-10.167759,85.29770610330729
1670930377.988924,-10.151171,85.28413679328148
1670930377.9899309,-10.196247,85.27057069568701
1670930377.990938,-10.254449,85.2570013856612
1670930377.991946,-10.23976,85.24341922590999
1670930377.9929528,-10.185958,85.20987569098713
1670930377.99396,-10.177495,85.205528
1670930377.994967,-10.188025,85.23786917997617
1670930377.9959738,-10.208941,85.21753700444445
1670930377.996981,-10.212018,85.2027057065481
1670930377.997988,-10.173841,85.19526674787879
1670930377.9989948,-10.141915,85.22122061818182
1670930378.000002,-10.156893,85.19179685852869
1670930378.001009,-10.139223,85.18351985206144
1670930378.0020158,-10.111192,85.18505812160228
1670930378.003023,-10.102345,85.16102730631704
1670930378.004031,-10.115182,85.17926142632332
1670930378.005038,-10.099556,85.1867218384035
1670930378.0060449,-10.07804,85.185420904803
1670930378.007052,-10.065347,85.18411966314338
1670930378.008059,-10.078232,85.18281842148376
1670930378.0090659,-10.122082,85.18151748788324
1670930378.010073,-10.165331,85.18021624622362
1670930378.01108,-10.188819,85.178915004564
1670930378.0120869,-10.189948,85.17761407096349
1670930378.013094,-10.203123,85.17631282930387
1670930378.014101,-10.196535,85.17501158764426
1670930378.0151079,-10.192449,85.17371065404375
1670930378.016115,-10.205526,85.17240941238413
1670930378.017123,-10.252958,85.1711069384881
1670930378.0181298,-10.312892,85.16980600488758
1670930378.019137,-10.302506,85.16850476322796
1670930378.020144,-10.271421,85.16720352156834
1670930378.0211508,-10.236346,85.16590258796782
1670930378.022158,-10.22125,85.1646013463082
1670930378.023165,-10.185261,85.16330010464858
1670930378.0241718,-10.156003,85.16199917104808
1670930378.025179,-10.107057,85.16069792938846
1670930378.026186,-10.035993,85.15939668772884
1670930378.0271928,-10.026905,85.15809575412833
1670930378.0282,-10.080083,85.15679451246871
1670930378.029208,-10.144776,85.15549203857267
1670930378.030215,-10.19632,85.15419079691306
1670930378.0312219,-10.212186,85.15288986331254
1670930378.032229,-10.221201,85.15158862165292
1670930378.033236,-10.194203,85.1502873799933
1670930378.0342429,-10.152685,85.1489864463928
1670930378.03525,-10.146194,85.14768520473318
1670930378.036257,-10.185381,85.14638396307356
1670930378.0372639,-10.254425,85.14508302947304
1670930378.038271,-10.303852,85.14378178781342
1670930378.039278,-10.321738,85.1424805461538
1670930378.0402849,-10.326499,85.14117961255329
1670930378.041292,-10.337558,85.13987837089367
1670930378.0423,-10.303588,85.13857589699764
1670930378.0433068,-10.305752,85.13727496339712
1670930378.044314,-10.413478,85.1359737217375
1670930378.045321,-10.469419,85.13467248007788
1670930378.0463278,-10.393188,85.13337154647738
1670930378.047335,-10.372224,85.10234897639485
1670930378.048342,-10.354627,85.1436127925608
1670930378.0493488,-10.253464,85.0729525215733
1670930378.050356,-10.118259,85.1081852799237
1670930378.051363,-10.054336,85.06732253695755
1670930378.0523698,-9.996278,85.10893723241955
1670930378.053377,-9.912232,85.16359195040533
1670930378.054385,-9.884273,85.0877665472103
1670930378.055392,-9.966179,85.04601939713946
1670930378.0563989,-10.055658,85.05452591023736
1670930378.057406,-10.068472,85.06750353190948
1670930378.058413,-10.056572,85.08048115358159
1670930378.0594199,-10.045489,85.09345570290009
1670930378.060427,-10.052437,85.10643332457221
1670930378.061434,-10.098282,85.11010959236621
1670930378.0624409,-10.135592,85.09520648559725
1670930378.063448,-10.178745,85.08029984979518
1670930378.064455,-10.255939,85.0653932139931
1670930378.0654619,-10.357632,85.05049010722414
1670930378.066469,-10.445259,85.03558347142207
1670930378.067477,-10.532382,85.02066271948762
1670930378.0684838,-10.570366,85.00575961271865
1670930378.069491,-10.500672,84.99085297691657
1670930378.070498,-10.358329,84.97594634111451
1670930378.0715048,-10.199661,84.96104323434554
1670930378.072512,-10.159128,84.95975763102625
1670930378.073519,-10.143646,84.98560249535603
1670930378.0745258,-10.022602,85.02975076680973
1670930378.075533,-9.9074,85.05293945680191
1670930378.07654,-9.896269,85.042725
1670930378.0775468,-9.939782,85.03459825029798
1670930378.078554,-10.013419,85.0328738769671
1670930378.079562,-10.089339,85.00075097711016
1670930378.080569,-10.111336,84.97782523313468
1670930378.0815759,-10.121601,85.00457937221107
1670930378.082583,-10.147541,85.00046576154219
1670930378.08359,-10.165235,84.9963521508733
1670930378.0845969,-10.146315,84.99223951407059
1670930378.085604,-10.1379,84.98812590340171
1670930378.086611,-10.176798,84.98401229273283
1670930378.0876179,-10.195743,84.9798996559301
1670930378.088625,-10.236034,84.97578604526122
1670930378.089632,-10.323494,84.97167243459234
1670930378.0906389,-10.400905,84.96755979778962
1670930378.091646,-10.441581,84.96344618712074
1670930378.092654,-10.444875,84.95932868098721
1670930378.0936608,-10.423045,84.9552160441845
1670930378.094668,-10.355804,84.95110243351562
1670930378.095675,-10.314454,84.94698882284673
1670930378.0966818,-10.289764,84.942876186044
1670930378.097689,-10.242814,84.93876257537512
1670930378.098696,-10.142108,84.93464896470624
1670930378.0997028,-10.038541,84.93053632790352
1670930378.10071,-10.028324,84.92642271723464
1670930378.101717,-10.120471,84.92230910656576
1670930378.1027238,-10.142468,84.91819646976305
1670930378.103731,-10.162519,84.91408285909417
1670930378.104739,-10.147517,84.90996535296064
1670930378.105746,-10.119557,84.90585174229174
1670930378.1067529,-10.140281,84.90173910548903
1670930378.10776,-10.099772,84.89762549482015
1670930378.108767,-10.051499,84.89351188415127
1670930378.1097739,-10.057389,84.88939924734855
1670930378.110781,-10.088954,84.88528563667967
1670930378.111788,-10.146194,84.88117202601079
1670930378.1127949,-10.168119,84.879906
1670930378.113802,-10.220744,84.90537289725864
1670930378.114809,-10.281302,84.916084
1670930378.1158159,-10.299236,84.92908375894987
1670930378.116823,-10.2751,84.934174
1670930378.117831,-10.281038,84.9474323657606
1670930378.1188378,-10.284428,84.96565922124105
1670930378.119845,-10.235745,84.95683802214813
1670930378.120852,-10.13992,84.97953883118741
1670930378.1218588,-10.079675,84.98413325794992
1670930378.122866,-10.121097,84.97843100084573
1670930378.123873,-10.16134,84.97272874374154
1670930378.1248798,-10.154032,84.96702783660352
1670930378.125887,-10.148262,84.96132557949932
1670930378.126894,-10.125496,84.95562332239513
1670930378.1279008,-10.12814,84.9499224152571
1670930378.128908,-10.150619,84.9442201581529
1670930378.129916,-10.197858,84.93851250118404
1670930378.130923,-10.247525,84.93281024407983
1670930378.1319299,-10.288106,84.92710933694181
1670930378.132937,-10.317411,84.92140707983762
1670930378.133944,-10.305295,84.91570482273342
1670930378.1349509,-10.255843,84.9100039155954
1670930378.135958,-10.220961,84.9043016584912
1670930378.136965,-10.160715,84.898599401387
1670930378.1379719,-10.16336,84.89289849424898
1670930378.138979,-10.173456,84.88719623714479
1670930378.139986,-10.185789,84.88149398004059
1670930378.1409929,-10.24017,84.87579307290257
1670930378.142001,-10.287962,84.87008541593369
1670930378.143008,-10.284668,84.8643831588295
1670930378.1440148,-10.233221,84.85868225169148
1670930378.145022,-10.192929,84.85297999458729
1670930378.146029,-10.154729,84.84727773748308
1670930378.1470358,-10.038036,84.84157683034506
1670930378.148043,-9.971901,84.83587457324087
1670930378.14905,-10.00724,84.83017231613667
1670930378.1500568,-10.10297,84.82447140899865
1670930378.151064,-10.268705,84.81876915189446
1670930378.152071,-10.375638,84.81306689479025
1670930378.1530778,-10.457039,84.80736598765223
1670930378.154085,-10.487618,84.80166373054804
1670930378.155093,-10.457616,84.79595607357916
1670930378.1561,-10.394365,84.79025381647497
1670930378.1571069,-10.336692,84.78455290933695
1670930378.158114,-10.256829,84.77885065223275
1670930378.159121,-10.193098,84.77314839512856
1670930378.1601279,-10.085372,84.76744748799054
1670930378.161135,-9.91942,84.76174523088633
1670930378.162142,-9.920622,84.75604297378214
1670930378.1631489,-10.001038,84.75034206664412
1670930378.164156,-10.019164,84.74463980953992
1670930378.165163,-10.038204,84.73893755243573
1670930378.16617,-10.089218,84.73323664529771
1670930378.167178,-10.0947,84.72752898832883
1670930378.168185,-10.057726,84.72182673122464
1670930378.1691918,-10.048518,84.717087
1670930378.170199,-10.081309,84.717087
1670930378.171206,-10.126457,84.72041589344458
1670930378.1722128,-10.381215,84.73862645302813
1670930378.17322,-10.443336,84.75684801144492
1670930378.174227,-10.506706,84.75652956604674
1670930378.1752338,-10.534666,84.698997
1670930378.176241,-10.468001,84.7148383004292
1670930378.177248,-10.326066,84.77137
1670930378.1782548,-10.218942,84.77077446600347
1670930378.179262,-10.13052,84.76819971103792
1670930378.18027,-9.979329,84.76562251785745
1670930378.181277,-9.839149,84.7630477628919
1670930378.1822839,-9.795924,84.76047361748009
1670930378.183291,-9.908578,84.75789886251454
1670930378.184298,-10.062774,84.75532410754899
1670930378.1853049,-10.106047,84.75274996213717
1670930378.186312,-10.102537,84.75017520717162
1670930378.187319,-10.094844,84.74760045220607
1670930378.188326,-10.112466,84.74502630679426
1670930378.189333,-10.144127,84.74245155182871
1670930378.19034,-10.173985,84.73987679686316
1670930378.191347,-10.184948,84.73730265145134
1670930378.192355,-10.172879,84.73472545827086
1670930378.193362,-10.164514,84.73215070330531
1670930378.1943688,-10.182496,84.7295765578935
1670930378.195376,-10.249232,84.72700180292794
1670930378.196383,-10.348255,84.7244270479624
1670930378.1973898,-10.453168,84.72185290255058
1670930378.198397,-10.512669,84.71927814758503
1670930378.199404,-10.510625,84.71670339261948
1670930378.2004108,-10.487811,84.71412924720767
1670930378.201418,-10.39701,84.71155449224212
1670930378.202425,-10.286712,84.70897973727658
1670930378.2034318,-10.183987,84.70640559186475
1670930378.204439,-10.047581,84.7038308368992
1670930378.205447,-9.943773,84.70125364371873
1670930378.206454,-9.929445,84.69867888875318
1670930378.2074609,-9.962549,84.69610474334137
1670930378.208468,-9.984618,84.69352998837581
1670930378.209475,-10.000484,84.69095523341026
1670930378.210482,-10.014453,84.68838108799845
1670930378.211489,-10.049047,84.6858063330329
1670930378.212496,-10.098546,84.68323157806735
1670930378.213503,-10.108067,84.68065743265554
1670930378.21451,-10.122851,84.67808267768999
1670930378.215517,-10.211849,84.67550792272444
1670930378.216524,-10.333951,84.67293377731262
1670930378.217532,-10.425402,84.67035658413214
1670930378.218539,-10.505577,84.6677818291666
1670930378.2195458,-10.571159,84.66520768375477
1670930378.220553,-10.625491,84.66263292878922
1670930378.22156,-10.625034,84.66005817382369
1670930378.2225668,-10.524112,84.65748402841186
1670930378.223574,-10.36292,84.65490927344632
1670930378.224581,-10.180068,84.65233451848077
1670930378.2255878,-10.012986,84.64976037306894
1670930378.226595,-9.968607,84.6471856181034
1670930378.227602,-9.970362,84.64461086313786
1670930378.2286088,-9.954399,84.64203671772603
1670930378.229616,-9.920622,84.63946196276049
1670930378.230624,-9.947932,84.63688476958
1670930378.231631,-10.012794,84.63431001461446
1670930378.232638,-10.068784,84.63173586920264
1670930378.233645,-10.094988,84.62916111423709
1670930378.234652,-10.088978,84.62701957081545
1670930378.235659,-10.058543,84.64321608583691
1670930378.236666,-10.043734,84.59109586960668
1670930378.237673,-10.062702,84.6001721031579
1670930378.23868,-10.095469,84.51127348289474
1670930378.239687,-10.118596,84.51026549657534
1670930378.240694,-10.137997,84.45251096210526
1670930378.241701,-10.199541,84.45126857157895
1670930378.242709,-10.298251,84.46634990015805
1670930378.243716,-10.41504,84.43044176795581
1670930378.2447228,-10.529785,84.27980005643774
1670930378.24573,-10.576448,84.2627959157355
1670930378.246737,-10.551062,84.24579177503325
1670930378.2477438,-10.421026,84.22879165993251
1670930378.248751,-10.249738,84.21178751923027
1670930378.249758,-10.142204,84.19478337852803
1670930378.2507648,-10.056523,84.17778326342727
1670930378.251772,-9.982238,84.16077912272505
1670930378.252779,-10.005053,84.1437749820228
1670930378.2537858,-10.034142,84.12677486692205
1670930378.254793,-10.002071,84.109770726219807
1670930378.255801,-10.013347,84.0927504831116
1670930378.256808,-10.058855,84.07574634240936
1670930378.257815,-10.133068,84.05874622730862
1670930378.258822,-10.17889,84.04174208660638
1670930378.259829,-10.188626,84.02473794590414
1670930378.260836,-10.258416,84.00773783080339
1670930378.261843,-10.423478,83.99073369010115
1670930378.26285,-10.521516,83.97372954939891
1670930378.263857,-10.535171,83.95672943429817
1670930378.264864,-10.487378,83.93972529359593
1670930378.265871,-10.418622,83.92272115289369
1670930378.266878,-10.364916,83.90572103779294
1670930378.267886,-10.222259,83.88870079468472
1670930378.268893,-10.037075,83.8716966539825
1670930378.2698998,-9.916945,83.85469653888174
1670930378.270907,-9.877638,83.8376923981795
1670930378.271914,-9.874584,83.82068825747726
1670930378.2729208,-9.890379,83.80368814237652
1670930378.273928,-9.940359,83.78668400167427
1670930378.274935,-10.004476,83.76967986097203
1670930378.2759418,-10.055057,83.75267974587129
1670930378.276949,-10.07477,83.73567560516905
1670930378.277956,-10.100517,83.71867146446681
1670930378.2789629,-10.146964,83.70167134936607
1670930378.27997,-10.181078,83.68466720866383
1670930378.280978,-10.186535,83.66764696555562
1670930378.281985,-10.213099,83.65064282485338
1670930378.282992,-10.252646,83.63364270975262
1670930378.283999,-10.29765,83.6166385690504
1670930378.285006,-10.38059,83.59963442834815
1670930378.286013,-10.463338,83.5826343132474
1670930378.28702,-10.467857,83.56563017254516
1670930378.288027,-10.396553,83.54862603184291
1670930378.289034,-10.237885,83.53162591674217
1670930378.290041,-10.11374,83.59614661776614
1670930378.291048,-10.061956,83.6401326103958
1670930378.292055,-10.051187,83.60420907684964
1670930378.293063,-10.081262,83.595497
1670930378.29407,-10.064024,83.60514676422957
1670930378.2950768,-10.066428,83.60382121793037
1670930378.296084,-10.058904,83.6054006195704
1670930378.297091,-10.081814,83.62361541652774
1670930378.2980978,-10.098138,83.62153110729614
1670930378.299105,-10.078208,83.61939495038693
1670930378.300112,-10.097321,83.62969596064488
1670930378.3011189,-10.167495,83.63999453221669
1670930378.302126,-10.206223,83.65029554247462
1670930378.303133,-10.202377,83.66059655273257
1670930378.3041399,-10.194997,83.67089512430438
1670930378.305147,-10.193049,83.68119613456231
1670930378.306155,-10.171365,83.69150689956483
1670930378.307162,-10.157614,83.70180790982278
1670930378.308169,-10.176678,83.71210648139457
1670930378.309176,-10.212113,83.72240749165252
1670930378.310183,-10.231395,83.73270850191047
1670930378.31119,-10.236563,83.74300707348226
1670930378.312197,-10.308733,83.75330808374021
1670930378.313204,-10.411049,83.76360909399816
1670930378.314211,-10.516323,83.77390766556996
1670930378.315218,-10.544522,83.7842086758279
1670930378.316225,-10.479974,83.79450968608585
1670930378.317232,-10.440451,83.80480825765765
1670930378.31824,-10.354915,83.81511902266016
1670930378.319247,-10.17687,83.8254200329181
1670930378.3202538,-10.107346,83.8357186044899
1670930378.321261,-10.058663,83.84601961474785
1670930378.322268,-10.04496,83.8563206250058
1670930378.3232749,-10.075516,83.8666191965776
1670930378.324282,-10.104965,83.87692020683554
1670930378.325289,-10.113139,83.88722121709348
1670930378.3262959,-10.156243,83.89751978866529
1670930378.327303,-10.164874,83.90782079892324
1670930378.32831,-10.14557,83.91812180918117
1670930378.3293169,-10.127443,83.92842038075298
1670930378.330324,-10.058615,83.93872139101093
1670930378.331332,-10.055995,83.94903215601343
1670930378.332339,-10.147492,83.95933316627138
1670930378.333346,-10.226586,83.96963173784317
1670930378.334353,-10.25118,83.97993274810112
1670930378.33536,-10.32633,83.99023375835907
1670930378.336367,-10.408333,84.00053232993088
1670930378.337374,-10.453289,84.01083334018881
1670930378.338381,-10.485503,84.02113435044676
1670930378.339388,-10.316594,84.03143292201857
1670930378.340395,-10.186174,84.04173393227651
1670930378.341402,-10.024549,84.05203494253445
1670930378.342409,-9.918266,84.06233351410626
1670930378.343417,-9.928508,84.07264427910876
1670930378.344424,-9.949206,84.0829452893667
1670930378.3454309,-9.969112,84.09324386093851
1670930378.346438,-9.970578,84.10354487119645
1670930378.347445,-10.000004,84.1138458814544
1670930378.3484519,-10.00087,84.1241444530262
1670930378.349459,-10.03758,84.13444546328415
1670930378.350466,-10.097681,84.14474647354209
1670930378.3514729,-10.155499,84.1550450451139
1670930378.35248,-10.190598,84.16534605537184
1670930378.353487,-10.232837,84.17564706562979
1670930378.3544939,-10.249425,84.18594563720158
1670930378.355501,-10.223942,84.192474
1670930378.356509,-10.205286,84.18565504220315
1670930378.357516,-10.183818,84.1674366502146
1670930378.358523,-10.164346,84.17043948510131
1670930378.35953,-10.144103,84.19967887482117
1670930378.360537,-10.114461,84.210579
1670930378.361544,-10.13992,84.22548181573302
1670930378.362551,-10.212595,84.25433605746305
1670930378.363558,-10.271398,84.264847
1670930378.364565,-10.315921,84.26640777464722
1670930378.365572,-10.34162,84.27003812272534
1670930378.3665788,-10.315777,84.27366761134604
1670930378.367586,-10.254521,84.27729795942415
1670930378.368594,-10.258488,84.28093174533188
1670930378.369601,-10.268609,84.29925320333732
1670930378.3706079,-10.205551,84.29427128040057
1670930378.371615,-10.171101,84.264847
1670930378.372622,-10.169706,84.29899881406436
1670930378.3736289,-10.163769,84.337204
1670930378.374636,-10.211729,84.34599402908917
1670930378.375643,-10.248655,84.36956392457509
1670930378.3766499,-10.224807,84.3987061462775
1670930378.377657,-10.21959,84.42785526881384
1670930378.378664,-10.233871,84.4570043913502
1670930378.3796709,-10.261397,84.4861466130526
1670930378.380678,-10.265844,84.51529573558895
1670930378.381686,-10.237669,84.54447246146103
1670930378.382693,-10.172014,84.57362158399738
1670930378.3837,-10.097873,84.6027638056998
1670930378.384707,-10.068135,84.63191292823613
1670930378.385714,-10.021424,84.66106205077247
1670930378.386721,-10.012385,84.69020427247489
1670930378.387728,-10.042171,84.71935339501124
1670930378.3887348,-10.062269,84.74849561671365
1670930378.389742,-10.003442,84.77764473925
1670930378.390749,-9.99885,84.80679386178635
1670930378.3917558,-10.065178,84.83593608348875
1670930378.392763,-10.098979,84.8650852060251
1670930378.393771,-10.096478,84.89426193189718
1670930378.394778,-10.110591,84.92341105443353
1670930378.3957849,-10.13843,84.95255327613593
1670930378.396792,-10.182664,84.98170239867228
1670930378.397799,-10.247141,85.01085152120862
1670930378.3988059,-10.277408,85.03999374291104
1670930378.399813,-10.288443,85.06914286544739
1670930378.40082,-10.307242,85.09829198798373
1670930378.4018269,-10.301256,85.12743420968614
1670930378.402834,-10.299429,85.15658333222248
1670930378.403841,-10.318565,85.18573245475883
1670930378.4048479,-10.289837,85.21487467646125
1670930378.405855,-10.228293,85.24402379899759
1670930378.406863,-10.206344,85.27320052486967
1670930378.40787,-10.198603,85.30234964740602
1670930378.408877,-10.185308,85.33149186910843
1670930378.409884,-10.175524,85.36064099164477
1670930378.4108908,-10.178674000000001,85.38978321334719
1670930378.411898,-10.236659,85.41893233588353
1670930378.412905,-10.286038,85.44808145841988
1670930378.4139118,-10.298347,85.4772236801223
1670930378.414919,-10.293803,85.50637280265863
1670930378.415926,-10.336644,85.53552192519498
1670930378.4169328,-10.342822,85.56466414689739
1670930378.41794,-10.329095,85.59381326943374
1670930378.418948,-10.366286,85.62298999530582
1670930378.419955,-10.3252,85.65213911784217
1670930378.4209619,-10.177952,85.71652877467811
1670930378.421969,-10.048109,85.77458796709585
1670930378.422976,-9.962189,85.76946696185935
1670930378.4239829,-9.948221,85.84930423643807
1670930378.42499,-9.979378,85.84763003070624
1670930378.425997,-10.00236,85.89750415337423
1670930378.4270039,-10.0258,85.89791627123849
1670930378.428011,-10.072679,85.8155579647115
1670930378.429018,-10.123981,85.89910240929679
1670930378.4300249,-10.214397,85.94536339758726
1670930378.431032,-10.324071,85.98486844403276
1670930378.43204,-10.336956,86.01513485363529
1670930378.4330468,-10.326715,85.99279136194563
1670930378.434054,-10.301424,86.06319023700524
1670930378.435061,-10.317099,86.110031
1670930378.4360678,-10.350563,86.10457195971395
1670930378.437075,-10.395255,86.07099759227468
1670930378.438082,-10.360901,86.05874780686695
1670930378.4390888,-10.225937,86.08317873539929
1670930378.440096,-10.106095,86.11194007439198
1670930378.441103,-9.998802,86.0386634972161
1670930378.4421098,-9.913121,86.044020736631
1670930378.443117,-9.92495,86.04937924463206
1670930378.444125,-10.000293,86.05474282697783
1670930378.445132,-10.0446,86.0601013349789
1670930378.4461389,-10.054384,86.06545857439379
1670930378.447146,-10.078352,86.07081708239484
1670930378.448153,-10.097969,86.0761755903959
1670930378.4491599,-10.168192,86.0815328298108
1670930378.450167,-10.192088,86.08689133781186
1670930378.451174,-10.153335,86.09224984581293
1670930378.4521809,-10.151123,86.09760708522782
1670930378.453188,-10.194804,86.10296559322889
1670930378.454195,-10.24666,86.10832410122995
1670930378.4552019,-10.316907,86.11368134064485
1670930378.456209,-10.37607,86.11903984864591
1670930378.457217,-10.413141,86.12440343099168
1670930378.4582238,-10.411025,86.12976067040657
1670930378.459231,-10.343592,86.13511917840763
1670930378.460238,-10.249208,86.1404776864087
1670930378.4612448,-10.106769,86.14583492582359
1670930378.462252,-10.029093,86.15119343382466
1670930378.463259,-10.001975,86.15655194182573
1670930378.4642658,-10.020583,86.16190918124062
1670930378.465273,-10.039791,86.16726768924168
1670930378.46628,-10.023035,86.17262619724275
1670930378.4672868,-10.019981,86.17798343665764
1670930378.468294,-10.033444,86.18334194465871
1670930378.469302,-10.064914,86.18870552700447
1670930378.470309,-10.087584,86.19406403500554
1670930378.4713159,-10.083497,86.19942127442043
1670930378.472323,-10.056211,86.2047797824215
1670930378.47333,-10.069337,86.21013829042256
1670930378.4743369,-10.098475,86.21549552983745
1670930378.475344,-10.116793,86.2108591396901
1670930378.476351,-10.160186,86.18479300476872
1670930378.4773579,-10.189444,86.18823901955174
1670930378.478365,-10.202546,86.22668311540296
1670930378.479372,-10.209517,86.21197214302742
1670930378.4803789,-10.194613,86.19911281878875
1670930378.481386,-10.199492,86.21009819861708
1670930378.482394,-10.249713,86.18323574636472
1670930378.4834008,-10.335947,86.1380526249404
1670930378.484408,-10.43384,86.11474498975116
1670930378.485415,-10.485791,86.12441565158161
1670930378.4864218,-10.536541,86.13408402395615
1670930378.487429,-10.542118,86.14375468578659
1670930378.488436,-10.531541,86.15342534761704
1670930378.4894428,-10.51065,86.16309371999156
1670930378.49045,-10.413622,86.1961463454112
1670930378.491457,-10.227451,86.18444839341917
1670930378.4924638,-10.106047,86.2147433710062
1670930378.493471,-10.035896,86.25116607842669
1670930378.494479,-9.94185,86.28763672627564
1670930378.495486,-9.842803,86.20808349308535
1670930378.4964929,-9.81732,86.21718489964243
1670930378.4975,-9.892423,86.21896411965386
1670930378.498507,-10.043157,86.2193779846328
1670930378.4995139,-10.114894,86.21979175163236
1670930378.500521,-10.132203,86.22020561661131
1670930378.501528,-10.14581,86.22061948159025
1670930378.5025349,-10.199997,86.2210332485898
1670930378.503542,-10.245314,86.22144711356876
1670930378.504549,-10.240385,86.2218609785477
1670930378.5055559,-10.243126,86.22227474554725
1670930378.506563,-10.379027,86.2226886105262
1670930378.507571,-10.40427,86.22310286742274
1670930378.5085778,-10.383691,86.2235166344223
1670930378.509585,-10.342101,86.22393049940125
1670930378.510592,-10.260171,86.22434436438019
1670930378.5115988,-10.164826,86.22475813137974
1670930378.512606,-10.127178,86.2251719963587
1670930378.513613,-10.108884,86.22558586133763
1670930378.5146198,-10.0446,86.22599962833719
1670930378.515627,-9.933124,86.22641349331614
1670930378.516634,-9.890764,86.22682735829508
1670930378.5176408,-9.978392,86.22724112529464
1670930378.518648,-10.080732,86.22765499027359
1670930378.519656,-10.15682,86.22806924717013
1670930378.520663,-10.195814,86.22848311214908
1670930378.5216699,-10.217282,86.22889687914864
1670930378.522677,-10.241948,86.22931074412757
1670930378.523684,-10.23815,86.22972460910653
1670930378.5246909,-10.213052,86.23013837610608
1670930378.525698,-10.192569,86.23055224108502
1670930378.526705,-10.213604,86.23096610606397
1670930378.5277119,-10.24779,86.23137987306353
1670930378.528719,-10.188506,86.23179373804247
1670930378.529726,-10.077607,86.23220760302142
1670930378.5307329,-10.046787,86.23262137002098
1670930378.53174,-10.10148,86.23303523499992
1670930378.532748,-10.122779,86.23344949189647
1670930378.5337548,-10.096671,86.23386325889601
1670930378.534762,-10.132059,86.23427712387496
1670930378.535769,-10.177039,86.23469098885391
1670930378.5367758,-10.215912,86.23510475585346
1670930378.537783,-10.253632,86.23551862083241
1670930378.53879,-10.336932,86.23593248581136
1670930378.5397968,-10.430282,86.23634625281092
1670930378.540804,-10.42908,86.2451262360515
1670930378.541811,-10.370109,86.26848252943981
1670930378.5428178,-10.31508,86.268197075345725
1670930378.543825,-10.272047,86.309021
1670930378.544833,-10.196175,86.28994067627441
1670930378.54584,-10.122202,86.2464350784267
1670930378.5468469,-10.137059,86.272842
1670930378.547854,-10.137468,86.28825286981402
1670930378.548861,-10.136867,86.33237528963052
1670930378.5498679,-10.129992,86.34564818315853
1670930378.550875,-10.070924,86.34716389625828
1670930378.551882,-9.968944,86.34867960935803
1670930378.5528889,-9.868334,86.35019496362419
1670930378.553896,-9.902616,86.35171067672395
1670930378.554903,-10.032507,86.3532263898237
1670930378.5559099,-10.117154,86.35474174408986
1670930378.556917,-10.138477,86.35625745718961
1670930378.557925,-10.157422,86.35777460562375
1670930378.5589318,-10.197208,86.3592899598899
1670930378.559939,-10.237405,86.36080567298967
1670930378.560946,-10.267383,86.36232138608942
1670930378.5619528,-10.286688,86.36383674035558
1670930378.56296,-10.282192,86.36535245345533
1670930378.563967,-10.259113,86.3668681665551
1670930378.5649738,-10.310752,86.36838352082125
1670930378.565981,-10.409174,86.369899233921
1670930378.566988,-10.379364,86.37141494702075
1670930378.5679948,-10.264931,86.37293030128691
1670930378.569002,-10.250506,86.37444601438668
1670930378.57001,-10.274042,86.37596316282081
1670930378.571017,-10.291111,86.37747887592056
1670930378.5720239,-10.305776,86.37899423018672
1670930378.573031,-10.270653,86.38050994328647
1670930378.574038,-10.190718,86.38202565638623
1670930378.5750449,-10.054936,86.3835410106524
1670930378.576052,-9.934278,86.38505672375214
1670930378.577059,-10.001278,86.38657243685189
1670930378.5780659,-10.111672,86.38808779111805
1670930378.579073,-10.164561,86.38960350421782
1670930378.58008,-10.160667,86.39111921731757
1670930378.5810869,-10.143262,86.39263457158373
1670930378.582094,-10.133982,86.39415028468348
1670930378.583102,-10.173072,86.39566743311761
1670930378.5841088,-10.202137,86.39718278738377
1670930378.585116,-10.225505,86.39869850048352
1670930378.586123,-10.300655,86.40021421358328
1670930378.5871298,-10.345179,86.40172956784944
1670930378.588137,-10.372007,86.40324528094919
1670930378.589144,-10.379292,86.40476099404896
1670930378.5901508,-10.306953,86.40627634831512
1670930378.591158,-10.222884,86.40779206141487
1670930378.592165,-10.115952,86.40930777451462
1670930378.5931718,-9.983055,86.41082312878078
1670930378.594179,-9.886436,86.41233884188054
1670930378.595187,-9.894538,86.41385599031466
1670930378.596194,-9.931681,86.41537170341442
1670930378.5972009,-10.024285,86.41688705768058
1670930378.598208,-10.066837,86.417557
1670930378.599215,-10.06525,86.37638509082241
1670930378.6002219,-10.072991,86.35561605507868
1670930378.601229,-10.087175,86.31056059871244
1670930378.602236,-10.092392,86.31553235756854
1670930378.6032429,-10.117058,86.29122078183119
1670930378.60425,-10.151748,86.2766035977587
1670930378.605257,-10.178698,86.31304077777779
1670930378.6062639,-10.222259,86.29357897353992
1670930378.607271,-10.262286,86.27724571332374
1670930378.608279,-10.281375,86.28434945232898
1670930378.6092858,-10.357559,86.2914447905076
1670930378.610293,-10.445427,86.29854180885152
1670930378.6113,-10.430546,86.30563882719547
1670930378.6123068,-10.360204,86.28996126460072
1670930378.613314,-10.318181,86.31147088936576
1670930378.614321,-10.27736,86.32562676418694
1670930378.6153278,-10.202377,86.309021
1670930378.616335,-10.120447,86.30795343332893
1670930378.617342,-10.073689,86.30601557272792
1670930378.6183488,-10.032723,86.30407817090072
1670930378.619356,-9.978439,86.3021403102997
1670930378.620364,-9.994499,86.30020061460341
1670930378.621371,-10.006927,86.2982627540024
1670930378.6223779,-10.008538,86.29632535217519
1670930378.623385,-10.047821,86.29438749157417
1670930378.624392,-10.091262,86.29244963097315
1670930378.6253989,-10.104725,86.29051222914596
1670930378.626406,-10.110302,86.28857436854493
1670930378.627413,-10.132371,86.28663650794391
1670930378.6284199,-10.17437,86.28469910611672
1670930378.629427,-10.176486,86.2827612455157
1670930378.630434,-10.213243,86.28082338491468
1670930378.6314409,-10.319046,86.27888598308748
1670930378.632448,-10.451486,86.27694812248646
1670930378.633456,-10.593565,86.27500842679017
1670930378.6344628,-10.645709,86.27307102496297
1670930378.63547,-10.601355,86.27113316436196
1670930378.636477,-10.496562,86.26919530376094
1670930378.6374838,-10.358786,86.26725790193373
1670930378.638491,-10.212042,86.26532004133271
1670930378.639498,-10.098931,86.2633821807317
1670930378.6405048,-9.998273,86.26144477890449
1670930378.641512,-9.901318,86.25950691830347
1670930378.642519,-9.84951,86.25756905770245
1670930378.6435258,-9.863958,86.25563165587525
1670930378.644533,-9.897375,86.25369379527423
1670930378.645541,-9.996422,86.25175409957795
1670930378.646548,-10.073809,86.24981623897693
1670930378.6475549,-10.13254,86.24787883714973
1670930378.648562,-10.171534,86.24594097654871
1670930378.649569,-10.189684,86.24400311594769
1670930378.6505759,-10.203868,86.24206571412049
1670930378.651583,-10.180669,86.24012785351947
1670930378.65259,-10.16598,86.23818999291845
1670930378.6535969,-10.192352,86.23625259109124
1670930378.654604,-10.203243,86.23431473049023
1670930378.655611,-10.199829,86.23237686988921
1670930378.6566179,-10.197329,86.230439468062
1670930378.657626,-10.190958,86.22849977236572
1670930378.658633,-10.234255,86.2265619117647
1670930378.6596398,-10.296448,86.2246245099375
1670930378.660647,-10.338832,86.22268664933648
1670930378.661654,-10.333927,86.22074878873546
1670930378.6626608,-10.32811,86.21881138690826
1670930378.663668,-10.295053,86.2667613609919
1670930378.664675,-10.22411,86.22427451311397
1670930378.6656818,-10.210912,86.2512005680572
1670930378.666689,-10.201608,86.254753
1670930378.667696,-10.161749,86.27132380066762
1670930378.6687028,-10.145233,86.272842
1670930378.66971,-10.123332,86.272842
1670930378.670718,-10.02705,86.272842
1670930378.671725,-9.961492,86.30702878331347
1670930378.6727319,-10.085901,86.31343785402055
1670930378.673739,-10.172544,86.31811139895612
1670930378.674746,-10.203411,86.3227849438917
1670930378.6757529,-10.166605,86.32745738240091
1670930378.67676,-10.105013,86.3321309273365
1670930378.677767,-10.054359,86.33680447227206
1670930378.6787739,-10.039431,86.34147691078128
1670930378.679781,-10.057966,86.34615045571685
1670930378.680788,-10.090901,86.35082400065242
1670930378.681795,-10.139704,86.35549643916164
1670930378.682803,-10.167062,86.36017440980264
1670930378.68381,-10.181366,86.36484795473822
1670930378.6848168,-10.191127,86.36952039324743
1670930378.685824,-10.188914,86.37419393818301
1670930378.686831,-10.224182,86.37886748311858
1670930378.6878378,-10.236923,86.3835399216278
1670930378.688845,-10.227331,86.38821346656337
1670930378.689852,-10.21459,86.39288701149894
1670930378.6908588,-10.200863,86.39755945000816
1670930378.691866,-10.204493,86.40223299494373
1670930378.692873,-10.213941,86.4069065398793
1670930378.6938798,-10.191968,86.41157897838852
1670930378.694887,-10.260604,86.41625252332409
1670930378.695895,-10.35715,86.40440573390558
1670930378.696902,-10.41153,86.35963670369487
1670930378.6979089,-10.476127,86.3988035286123
1670930378.698916,-10.476272,86.4852194122556
1670930378.699923,-10.424993,86.49435851907488
1670930378.7009299,-10.320464,86.47614772610251
1670930378.701937,-10.225456,86.49965927753935
1670930378.702944,-10.173144,86.52205780686695
1670930378.703951,-10.159273,86.526108
1670930378.704958,-10.088714,86.53050441163847
1670930378.705965,-10.017218,86.53610973695118
1670930378.706972,-10.006375,86.54171373524557
1670930378.70798,-10.090854,86.54732436863148
1670930378.708987,-10.132973,86.55292969394417
1670930378.7099938,-10.11612,86.55853369223856
1670930378.711001,-10.145761,86.56413901755126
1670930378.712008,-10.15396,86.56974434286396
1670930378.7130148,-10.124702,86.57534834115835
1670930378.714022,-10.148142,86.58095366647103
1670930378.715029,-10.243752,86.58655899178373
1670930378.7160358,-10.305199,86.59216299007812
1670930378.717043,-10.315921,86.59776831539082
1670930378.71805,-10.310488,86.60337364070351
1670930378.7190568,-10.289164,86.60897763899791
1670930378.720064,-10.217211,86.6145829643106
1670930378.721072,-10.131337,86.62019359769651
1670930378.722079,-10.04407,86.6257989230092
1670930378.7230859,-9.993225,86.6314029213036
1670930378.724093,-9.990171,86.63700824661629
1670930378.7251,-9.99332,86.64261357192899
1670930378.726107,-10.036786,86.64821757022338
1670930378.727114,-10.058086,86.65382289553608
1670930378.728121,-10.045561,86.65942822084877
1670930378.729128,-10.025487,86.66503221914316
1670930378.730135,-10.035416,86.67063754445586
1670930378.731142,-10.116649,86.72369421149261
1670930378.732149,-10.188506,86.65411348640916
1670930378.733157,-10.227692,86.63484240104911
1670930378.734164,-10.234447,86.67067539070322
1670930378.7351708,-10.209854,86.65283651359084
1670930378.736178,-10.161629,86.69134273280001
1670930378.737185,-10.135136,86.725105
1670930378.7381918,-10.165307,86.65852276
1670930378.739199,-10.212475,86.680230048
1670930378.740206,-10.23714,86.74789943361144
1670930378.7412128,-10.216152,86.79722984120171
1670930378.74222,-10.173649,86.8019133304721
1670930378.743227,-10.130953,86.78369469241774
1670930378.7442338,-10.109148,86.80715191752086
1670930378.745241,-10.136338,86.85760517119695
1670930378.746249,-10.146291,86.87642973216032
1670930378.747256,-10.14444,86.88493140957966
1670930378.748263,-10.150186,86.8934310742913
1670930378.74927,-10.153358,86.90193275171066
1670930378.750277,-10.143815,86.91043442913
1670930378.751284,-10.131122,86.91893409384164
1670930378.752291,-10.139415,86.927435771261
1670930378.753298,-10.156075,86.93593744868035
1670930378.754305,-10.204108,86.94443711339198
1670930378.755312,-10.27635,86.95293879081134
1670930378.756319,-10.34263,86.96144046823069
1670930378.757326,-10.412564,86.96994013294233
1670930378.758334,-10.499471,86.97844986119257
1670930378.759341,-10.592363,86.98695153861192
1670930378.7603478,-10.673573,86.99545120332355
1670930378.761355,-10.73151,87.003952880742915
1670930378.762362,-10.638112,87.01245455816226
1670930378.7633688,-10.408982,87.0209542228739
1670930378.764376,-10.175212,87.02945590029326
1670930378.765383,-9.970819,87.0379575777126
1670930378.7663898,-9.77561,87.04645724242424
1670930378.767397,-9.793592,87.0549589198436
1670930378.768404,-9.874513,87.06346059726295
1670930378.7694108,-9.8886,87.07196026197458
1670930378.770418,-9.859031,87.08046193939394
1670930378.771426,-9.911343,87.08897166764417
1670930378.772433,-10.030463,87.09747334506353
1670930378.77344,-10.076044,87.10597300977517
1670930378.774447,-10.104725,87.11447468719452
1670930378.775454,-10.164947,87.12297636461388
1670930378.776461,-10.218533,87.15907484620887
1670930378.777468,-10.236155,87.12321502193609
1670930378.778475,-10.242332,87.19510719790176
1670930378.779482,-10.253655,87.15983382908225
1670930378.780489,-10.236828,87.1946068683834
1670930378.781496,-10.208676,87.16142981545065
1670930378.782503,-10.198819,87.2309446340882
1670930378.783511,-10.193266,87.21595661421078
1670930378.784518,-10.260411,87.26753444712222
1670930378.7855248,-10.330826,87.26254524619152
1670930378.786532,-10.324768,87.25755486382562
1670930378.787539,-10.311762,87.25256448145971
1670930378.7885458,-10.275292,87.24757528052902
1670930378.789553,-10.199252,87.24258489816312
1670930378.79056,-10.13855,87.23759451579721
1670930378.7915668,-10.094316,87.23260531486652
1670930378.792574,-10.010005,87.22761493250061
1670930378.793581,-9.990532,87.22262455013471
1670930378.7945879,-10.076886,87.21763534920402
1670930378.795595,-10.111816,87.21264496683811
1670930378.796603,-10.126097,87.20764985873133
1670930378.79761,-10.135617,87.20265947636543
1670930378.798617,-10.107104,87.19767027543473
1670930378.799624,-10.048326,87.195435
1670930378.800631,-10.016472,87.2158050681764
1670930378.801638,-10.040777,87.23350641921263
1670930378.802645,-10.075732,87.23685278019764
1670930378.803652,-10.106456,87.24019914118264
1670930378.804659,-10.134535,87.24354470994204
1670930378.805666,-10.154128,87.24689107092705
1670930378.806673,-10.141387,87.25023743191207
1670930378.80768,-10.162686,87.25358300067145
1670930378.808688,-10.225288,87.25693253055891
1670930378.809695,-10.297505,87.26027889154392
1670930378.8107018,-10.365661,87.26362446030332
1670930378.811709,-10.421074,87.26697082128833
1670930378.812716,-10.472064,87.27031718227335
1670930378.8137228,-10.467472,87.27366275103273
1670930378.81473,-10.359747,87.27700911201775
1670930378.815737,-10.188843,87.28035547300276
1670930378.8167439,-10.082776,87.28370104176216
1670930378.817751,-10.065635,87.28704740274716
1670930378.818758,-10.073039,87.29039376373217
1670930378.8197649,-10.107393,87.29373933249157
1670930378.820772,-10.146988,87.29708569347657
1670930378.82178,-10.182472,87.30043522336403
1670930378.822787,-10.185237,87.30378158434904
1670930378.823794,-10.170476,87.30712715310844
1670930378.824801,-10.169106,87.31047351409345
1670930378.825808,-10.169394,87.31381987507845
1670930378.826815,-10.122034,87.31716544383785
1670930378.827822,-10.073472,87.32051180482286
1670930378.828829,-10.090925,87.32385816580786
1670930378.829836,-10.145041,87.32720373456726
1670930378.830843,-10.189756,87.33055009555227
1670930378.83185,-10.188002,87.33389645653729
