measure_time,emg_ch_1,grip_force_inter
1673610971.590386,0.259396,1.678355
1673610971.591394,0.266175,1.7142562746781116
1673610971.592401,0.269565,1.6780832768240344
1673610971.5934079,0.266896,1.6618530054827176
1673610971.594415,0.265214,1.73263
1673610971.595422,0.256487,1.7338992520286396
1673610971.5964289,0.242832,1.767255296137339
1673610971.597436,0.221508,1.7308202691116932
1673610971.598443,0.203598,1.696444
1673610971.5994499,0.195448,1.696444
1673610971.600457,0.187635,1.696444
1673610971.6014638,0.182514,1.696444
1673610971.6024709,0.18112,1.696444
1673610971.603479,0.18963,1.696444
1673610971.604486,0.197467,1.696444
1673610971.6054928,0.205641,1.696444
1673610971.6065,0.218455,1.696444
1673610971.607507,0.232326,1.696444
1673610971.6085138,0.24199,1.6918505164677804
1673610971.609521,0.246678,1.660266
1673610971.610528,0.254828,1.660266
1673610971.6115348,0.26519,1.6656487067238912
1673610971.612542,0.262497,1.6908025092989987
1673610971.613549,0.25817,1.6661648681764005
1673610971.6145558,0.257545,1.6933730968049596
1673610971.615563,0.250885,1.6815552951835957
1673610971.616571,0.236125,1.6963848711783587
1673610971.617578,0.223744,1.6960630153244762
1673610971.6185849,0.213743,1.6957412356675288
1673610971.619592,0.205665,1.6954193798136463
1673610971.620599,0.197636,1.6950975239597639
1673610971.6216059,0.191529,1.6947757443028164
1673610971.622613,0.191505,1.694453888448934
1673610971.6236198,0.193741,1.6941321087919865
1673610971.6246269,0.19576,1.693810252938104
1673610971.625634,0.203045,1.6934883970842214
1673610971.6266408,0.213454,1.6931666174272741
1673610971.6276479,0.228672,1.6928447615733915
1673610971.628656,0.242712,1.6925226009317687
1673610971.629663,0.256463,1.6922007450778862
1673610971.6306698,0.262569,1.6918789654209387
1673610971.631677,0.263891,1.6915571095670563
1673610971.632684,0.265935,1.6912352537131736
1673610971.6336908,0.264036,1.6909134740562264
1673610971.634698,0.259612,1.6905916182023437
1673610971.635705,0.246991,1.6902697623484613
1673610971.6367118,0.235475,1.6899479826915138
1673610971.637719,0.222397,1.6896261268376314
1673610971.638726,0.206074,1.689304270983749
1673610971.6397328,0.192082,1.6889824913268014
1673610971.64074,0.177297,1.688660635472919
1673610971.641748,0.170277,1.688338474831296
1673610971.642755,0.168667,1.6880166189774135
1673610971.6437619,0.17535,1.687694839320466
1673610971.644769,0.186216,1.6873729834665836
1673610971.6457758,0.198669,1.6870512038096361
1673610971.6467829,0.216964,1.6867293479557537
1673610971.64779,0.236245,1.6864074921018712
1673610971.6487968,0.251751,1.6860857124449238
1673610971.6498039,0.261896,1.6857638565910413
1673610971.650811,0.266247,1.6854420007371587
1673610971.6518178,0.268219,1.6851202210802114
1673610971.6528249,0.268699,1.6847983652263288
1673610971.653833,0.267017,1.684476204584706
1673610971.65484,0.263435,1.6841543487308235
1673610971.6558468,0.254227,1.683832569073876
1673610971.656854,0.242207,1.6835107132199936
1673610971.657861,0.226941,1.683188857366111
1673610971.6588678,0.212877,1.6828670777091637
1673610971.659875,0.202203,1.682545221855281
1673610971.660882,0.191553,1.6822233660013985
1673610971.6618888,0.190544,1.681901586344451
1673610971.662896,0.187683,1.6815797304905686
1673610971.663903,0.186096,1.6812578746366862
1673610971.6649098,0.190087,1.6809360949797387
1673610971.665917,0.201386,1.6806142391258563
1673610971.666925,0.217734,1.6802920784842332
1673610971.6679318,0.232182,1.6799702988272858
1673610971.6689389,0.238865,1.6796484429734033
1673610971.669946,0.247448,1.6793265871195209
1673610971.6709528,0.259059,1.6790048074625734
1673610971.6719599,0.262233,1.678682951608691
1673610971.672967,0.260694,1.6783610957548085
1673610971.6739738,0.261271,1.678355
1673610971.6749809,0.261463,1.6963534256080115
1673610971.675988,0.247472,1.696444
1673610971.6769948,0.229273,1.6967632374821173
1673610971.6780019,0.20956,1.7320520591179975
1673610971.67901,0.196578,1.6977381106342395
1673610971.680017,0.187659,1.749597602765856
1673610971.6810238,0.184005,1.7152266140643624
1673610971.682031,0.189943,1.7327181033869323
1673610971.683038,0.200761,1.7346976177826905
1673610971.6840448,0.200088,1.7366766635434117
1673610971.685052,0.193597,1.7386561779391698
1673610971.686059,0.208334,1.740635692334928
1673610971.6870658,0.224513,1.7426147380956492
1673610971.688073,0.235019,1.7445942524914073
1673610971.68908,0.244779,1.7465737668871655
1673610971.6900868,0.252232,1.7485528126478866
1673610971.691094,0.260622,1.7505323270436448
1673610971.692102,0.2643,1.7525137159795505
1673610971.6931088,0.266656,1.7544927617402717
1673610971.6941159,0.26418,1.7564722761360299
1673610971.695123,0.258001,1.758451790531788
1673610971.6961298,0.248049,1.7604308362925094
1673610971.6971369,0.23699,1.7624103506882673
1673610971.698144,0.224465,1.7643898650840255
1673610971.6991508,0.211363,1.766368910844747
1673610971.7001579,0.198958,1.768348425240505
1673610971.701165,0.190568,1.770327939636263
1673610971.7021718,0.182394,1.7723069853969844
1673610971.703179,0.181048,1.7742864997927426
1673610971.704187,0.183524,1.776267888728648
1673610971.705194,0.188813,1.7782474031244062
1673610971.7062008,0.199102,1.7802264488851276
1673610971.707208,0.211074,1.7822059632808855
1673610971.708215,0.220258,1.7841854776766437
1673610971.7092218,0.231485,1.786164523437365
1673610971.710229,0.241942,1.7881440378331233
1673610971.711236,0.25264,1.7901235522288812
1673610971.7122428,0.260045,1.7921025979896026
1673610971.71325,0.255838,1.7940821123853607
1673610971.714257,0.25014,1.796061626781119
1673610971.7152638,0.240933,1.79804067254184
1673610971.716271,0.231172,1.8000201869375982
1673610971.717279,0.213863,1.8020015758735037
1673610971.7182858,0.200136,1.8039806216342251
1673610971.7192929,0.192058,1.8059601360299833
1673610971.7203,0.182178,1.8079396504257415
1673610971.7213068,0.177009,1.8099186961864626
1673610971.7223139,0.179269,1.8118982105822208
1673610971.723321,0.181601,1.813877724977979
1673610971.7243278,0.186168,1.8158567707387
1673610971.725335,0.20004,1.8178362851344583
1673610971.726342,0.21581,1.8198157995302164
1673610971.7273488,0.22747,1.8217948452909376
1673610971.728356,0.235451,1.8237743596866958
1673610971.729364,0.242808,1.8257557486226015
1673610971.730371,0.256463,1.8277352630183596
1673610971.7313778,0.262209,1.8297143087790808
1673610971.732385,0.262064,1.831693823174839
1673610971.733392,0.260285,1.8336733375705971
1673610971.7343988,0.252929,1.8356523833313183
1673610971.735406,0.242952,1.8376318977270765
1673610971.736413,0.22961,1.8396114121228346
1673610971.7374198,0.215426,1.8568617711561384
1673610971.738427,0.202107,1.9054290615164522
1673610971.739434,0.194919,1.877351
1673610971.7404408,0.182154,1.8730475859356377
1673610971.741448,0.17987,1.8504007579876014
1673610971.742456,0.179221,1.8413819301382928
1673610971.7434628,0.181432,1.8907398784266984
1673610971.74447,0.188404,1.862869635193133
1673610971.745477,0.200857,1.8478560314735337
1673610971.7464838,0.216099,1.913639795430675
1673610971.747491,0.226677,1.914037078876491
1673610971.748498,0.237928,1.914434362322307
1673610971.7495048,0.251438,1.9148315517142769
1673610971.750512,0.260502,1.9152288351600928
1673610971.751519,0.265166,1.9156261186059087
1673610971.7525258,0.265262,1.9160233079978786
1673610971.753533,0.262425,1.9164205914436947
1673610971.754541,0.254996,1.9168182511048948
1673610971.755548,0.243505,1.917215534550711
1673610971.7565548,0.234201,1.9176127239426808
1673610971.757562,0.223696,1.9180100073884967
1673610971.758569,0.211291,1.9184072908343126
1673610971.7595758,0.202011,1.9188044802262825
1673610971.760583,0.192683,1.9192017636720984
1673610971.76159,0.187178,1.9195990471179145
1673610971.7625968,0.18237,1.9199962365098844
1673610971.763604,0.185687,1.9203935199557003
1673610971.764611,0.190808,1.9207908034015162
1673610971.7656178,0.195135,1.921187992793486
1673610971.766625,0.19653,1.921585276239302
1673610971.767633,0.201963,1.9219829359005023
1673610971.7686398,0.21694,1.9223801252924722
1673610971.769647,0.231893,1.922777408738288
1673610971.770654,0.247977,1.9231746921841042
1673610971.7716608,0.262449,1.923571881576074
1673610971.772668,0.266368,1.92396916502189
1673610971.773675,0.263266,1.9243664484677059
1673610971.7746818,0.257545,1.9247636378596757
1673610971.775689,0.252328,1.9251609213054917
1673610971.776696,0.245789,1.9255582047513078
1673610971.7777028,0.236846,1.9259553941432777
1673610971.77871,0.226725,1.9263526775890936
1673610971.779718,0.212517,1.9267503372502939
1673610971.780725,0.204944,1.9271476206961098
1673610971.7817318,0.194751,1.9275448100880797
1673610971.782739,0.190183,1.9279420935338956
1673610971.783746,0.18927,1.9283393769797117
1673610971.7847528,0.191505,1.9287365663716816
1673610971.78576,0.202588,1.9291338498174975
1673610971.786767,0.215858,1.9295311332633134
1673610971.7877738,0.22872,1.9299283226552832
1673610971.788781,0.237182,1.9303256061010992
1673610971.789788,0.248866,1.9307228895469153
1673610971.7907948,0.258314,1.9311200789388852
1673610971.791802,0.262088,1.931517362384701
1673610971.79281,0.258963,1.8907560100143062
1673610971.7938168,0.258458,1.9048424845016692
1673610971.794824,0.253818,1.913529
1673610971.795831,0.241894,1.9275292131616595
1673610971.7968378,0.228047,1.931618
1673610971.797845,0.213815,1.9458692860548272
1673610971.798852,0.205353,1.949707
1673610971.7998588,0.199318,1.9352021580829757
1673610971.800866,0.194102,1.9169872545887963
1673610971.801873,0.185086,1.9176155197557354
1673610971.8028798,0.18112,1.9226585860703087
1673610971.803887,0.186048,1.9277028465753425
1673610971.804895,0.191097,1.9327518838422182
1673610971.805902,0.202468,1.937796144347252
1673610971.8069088,0.218503,1.9428392106618255
1673610971.807916,0.235115,1.9478834711668593
1673610971.808923,0.242351,1.926442320457797
1673610971.8099298,0.244443,1.890019768057211
1673610971.810937,0.256703,1.9011159952312828
1673610971.811944,0.264901,1.913529
1673610971.8129508,0.261055,1.9256630753277713
1673610971.813958,0.251991,1.931618
1673610971.814965,0.243793,1.9564008788745828
1673610971.8159719,0.237976,1.9552794816404389
1673610971.816979,0.230932,1.949707
1673610971.817987,0.214464,1.9529041321495841
1673610971.8189938,0.196698,1.957457754094843
1673610971.820001,0.186938,1.9620124543308777
1673610971.821008,0.183764,1.9665671545669123
1673610971.8220148,0.183548,1.9711207765121714
1673610971.823022,0.181384,1.9756754767482059
1673610971.824029,0.183788,1.9802301769842405
1673610971.8250358,0.188861,1.9847837989294996
1673610971.826043,0.198453,1.9893384991655343
1673610971.82705,0.211291,1.993893199401569
1673610971.8280568,0.22396,1.9984468213468278
1673610971.829064,0.233937,2.0030015215828625
1673610971.830072,0.241101,2.0075605349819994
1673610971.831079,0.249948,2.012115235218034
1673610971.8320858,0.25579,2.016668857163293
1673610971.833093,0.253987,2.0212235573993276
1673610971.8341,0.252039,2.0257782576353622
1673610971.8351068,0.247592,2.0303318795806216
1673610971.836114,0.238384,2.0348865798166558
1673610971.837121,0.223527,2.0394412800526904
1673610971.8381279,0.211098,2.0439949019979498
1673610971.839135,0.200665,2.0485496022339844
1673610971.840142,0.191577,2.053104302470019
1673610971.8411489,0.175062,2.057657924415278
1673610971.842156,0.166575,2.0622126246513126
1673610971.843164,0.165806,2.0667716380504495
1673610971.8441708,0.171023,2.0713252599957084
1673610971.845178,0.177442,2.075879960231743
1673610971.846185,0.187923,2.0804346604677777
1673610971.8471918,0.194679,2.0849882824130366
1673610971.848199,0.20367,2.0895429826490712
1673610971.849206,0.211219,2.094097682885106
1673610971.8502128,0.216964,2.098651304830365
1673610971.85122,0.2286,2.1032060050664
1673610971.852227,0.244034,2.107760705302434
1673610971.8532338,0.253554,2.1123143272476934
1673610971.854241,0.255189,2.116869027483728
1673610971.855249,0.254852,2.121428040882865
1673610971.856256,0.245404,2.1259827411188996
1673610971.8572628,0.231797,2.1305363630641585
1673610971.85827,0.21593,2.2022454048640916
1673610971.859277,0.198453,2.1669041129916566
1673610971.8602839,0.189462,2.1669300181211253
1673610971.861291,0.181528,2.2034954777391853
1673610971.862298,0.173667,2.202101819387433
1673610971.8633049,0.170422,2.2216532059380922
1673610971.864312,0.173836,2.237617260498895
1673610971.865319,0.174605,2.2219957211872434
1673610971.8663259,0.182105,2.2062609867340495
1673610971.867333,0.192828,2.2626297294398094
1673610971.868341,0.222181,2.275335
1673610971.8693478,0.231605,2.3036287148307104
1673610971.870355,0.237014,2.369010547553436
1673610971.871362,0.2361,2.3791788283773667
1673610971.8723688,0.234898,2.3893447019378447
1673610971.873376,0.228672,2.3995129827617756
1673610971.874383,0.224224,2.409681263585706
1673610971.8753898,0.2217,2.419847137146184
1673610971.876397,0.216507,2.4300154179701146
1673610971.877404,0.206675,2.440183698794045
1673610971.8784108,0.197179,2.450349572354523
1673610971.879418,0.185687,2.4605178531784535
1673610971.880426,0.173908,2.4706957630561948
1673610971.881433,0.16946,2.4808640438801253
1673610971.8824399,0.167008,2.491029917440603
1673610971.883447,0.168474,2.5011981982645337
1673610971.884454,0.175783,2.5113664790884647
1673610971.8854609,0.186457,2.5215323526489426
1673610971.886468,0.194318,2.531700633472873
1673610971.887475,0.202275,2.5418689142968036
1673610971.8884819,0.206194,2.5520347878572816
1673610971.889489,0.217685,2.562203068681212
1673610971.890496,0.231677,2.5723713495051426
1673610971.8915029,0.242976,2.5825372230656205
1673610971.892511,0.251583,2.5927151329433618
1673610971.893518,0.258651,2.6028834137672923
1673610971.8945248,0.253049,2.61304928732777
1673610971.895532,0.233769,2.6232175681517007
1673610971.896539,0.223119,2.6333858489756317
1673610971.8975458,0.212661,2.6435517225361096
1673610971.898553,0.197107,2.65372000336004
1673610971.89956,0.182033,2.6638882841839706
1673610971.9005668,0.170013,2.6740541577444485
1673610971.901574,0.163378,2.684222438568379
1673610971.902581,0.159051,2.6943907193923096
1673610971.9035878,0.15845,2.7045565929527875
1673610971.904595,0.163642,2.7147248737767185
1673610971.905603,0.17761,2.7249027836544593
1673610971.90661,0.195424,2.7350710644783898
1673610971.9076169,0.212084,2.745236938038868
1673610971.908624,0.221147,2.7554052188627987
1673610971.909631,0.235427,2.765573499686729
1673610971.9106379,0.248121,2.775739373247207
1673610971.911645,0.254299,2.7859076540711376
1673610971.912652,0.252688,2.796075934895068
1673610971.9136589,0.256631,2.8225161983313467
1673610971.914666,0.25139,2.8475410042918456
1673610971.915673,0.233288,2.854218
1673610971.9166799,0.22134,3.0166055235066374
1673610971.917688,0.204439,3.0137074915629323
1673610971.918695,0.182851,3.074890782331764
1673610971.9197018,0.1647,3.092791654037611
1673610971.920709,0.150348,3.14266479784292
1673610971.921716,0.142222,3.1314892475768485
1673610971.9227228,0.137679,3.2190918893805307
1673610971.92373,0.134914,3.21002134215546
1673610971.924737,0.138736,3.2283448768496417
1673610971.9257438,0.147295,3.203429472579876
1673610971.926751,0.154315,3.2264169976911106
1673610971.927758,0.174629,3.2599769458916827
1673610971.9287648,0.202155,3.2935289490287607
1673610971.929772,0.236966,3.327088897229333
1673610971.93078,0.260261,3.360680625683883
1673610971.931787,0.26531,3.394240573884455
1673610971.9327939,0.261511,3.427792577021533
1673610971.933801,0.256054,3.461352525222105
1673610971.934808,0.250308,3.4949124734226773
1673610971.9358149,0.233648,3.528464476559755
1673610971.936822,0.204415,3.5620244247603274
1673610971.937829,0.170542,3.5955843729608996
1673610971.9388359,0.147655,3.629136376097977
1673610971.939843,0.142559,3.6626963242985493
1673610971.94085,0.130707,3.696256272499122
1673610971.9418569,0.130058,3.7298082756361994
1673610971.942865,0.144386,3.7634000040907494
1673610971.943872,0.168691,3.7969599522913215
1673610971.9448788,0.189943,3.8305119554283995
1673610971.945886,0.204872,3.920517625148845
1673610971.946893,0.211195,3.92153
1673610971.9478998,0.222085,3.9756669818788746
1673610971.948907,0.22158,3.940815988806859
1673610971.949914,0.225114,4.049386063185503
1673610971.9509208,0.244106,4.122252873508353
1673610971.951928,0.260742,4.194036780662063
1673610971.952935,0.267546,4.23181114806867
1673610971.9539418,0.269589,4.304726539478166
1673610971.954949,0.26995,4.378905809455685
1673610971.955957,0.255141,4.453155324954016
1673610971.956964,0.231172,4.527334594931535
1673610971.9579709,0.211098,4.601496303528851
1673610971.958978,0.195712,4.6756755735063695
1673610971.959985,0.185303,4.749854843483888
1673610971.9609919,0.177538,4.824016552081204
1673610971.961999,0.175518,4.898195822058724
1673610971.963006,0.172682,4.972375092036242
1673610971.9640129,0.170951,5.046536800633558
1673610971.96502,0.174701,5.120716070611077
1673610971.966027,0.184125,5.194895340588596
1673610971.9670339,0.19802,5.2690570491859114
1673610971.968042,0.20879,5.34046952631579
1673610971.969049,0.21537799999999999,5.408814752742012
1673610971.9700558,0.220138,5.543055977565633
1673610971.971063,0.224561,5.612969774439676
1673610971.97207,0.226845,5.68334587854251
1673610971.9730768,0.232062,5.8159152079160705
1673610971.974084,0.236774,5.885418700238664
1673610971.975091,0.234322,5.9577316553941415
1673610971.9760978,0.223864,6.092417209823557
1673610971.977105,0.212565,6.181783229191477
1673610971.978112,0.194847,6.264510798118999
1673610971.9791188,0.188741,6.347218781921303
1673610971.980126,0.185687,6.429946350848825
1673610971.981134,0.177225,6.512752260277225
1673610971.982141,0.17148,6.595479829204748
1673610971.9831479,0.1741,6.6781878130070504
1673610971.984155,0.177706,6.7609153819345735
1673610971.985162,0.178764,6.843642950862096
1673610971.9861689,0.176889,6.9263509346643986
1673610971.987176,0.165373,7.009078503591921
1673610971.988183,0.158954,7.091806072519444
1673610971.9891899,0.157392,7.174514056321747
1673610971.990197,0.163618,7.257241625249269
1673610971.991204,0.171455,7.339969194176791
1673610971.9922109,0.175639,7.422677177979095
1673610971.993219,0.17083,7.5054830874074945
1673610971.994226,0.175999,7.588210656335018
1673610971.9952328,0.182009,7.67091864013732
1673610971.99624,0.170662,7.753646209064843
1673610971.997247,0.161551,7.836373777992366
1673610971.9982538,0.160132,7.9190817617946685
1673610971.999261,0.166455,8.00180933072219
1673610972.000268,0.185519,8.084536899649713
1673610972.0012748,0.199799,8.167244883452016
1673610972.002282,0.213959,8.249972452379538
1673610972.003289,0.226388,8.332700021307062
1673610972.0042958,0.228624,8.415408005109363
1673610972.005303,0.227326,8.498135574036887
1673610972.006311,0.226508,8.580941483465287
1673610972.007318,0.21355,8.663669052392809
1673610972.0083249,0.167561,8.746377036195113
1673610972.009332,0.1196,8.829104605122634
1673610972.010339,0.066494,8.911832174050158
1673610972.0113459,-0.043948,8.99454015785246
1673610972.012353,-0.11429,9.077267726779983
1673610972.01336,-0.117848,9.159995295707505
1673610972.0143669,-0.089168,9.242703279509808
1673610972.015374,-0.041496,9.32543084843733
1673610972.016381,-1.94e-4,9.408158417364852
1673610972.0173879,0.042839,9.490866401167157
1673610972.018396,0.105464,9.573672310595557
1673610972.019403,0.181577,9.656399879523079
1673610972.0204098,0.246318,9.739107863325382
1673610972.021417,0.298991,9.821835432252904
1673610972.022424,0.348081,9.904563001180428
1673610972.0234308,0.377844,9.98727098498273
1673610972.024438,0.401331,10.069998553910253
1673610972.025445,0.386907,10.152726122837775
1673610972.0264518,0.344523,10.235434106640078
1673610972.027459,0.290336,10.3181616755676
1673610972.028466,0.251607,10.400889244495122
1673610972.0294728,0.245861,10.483597228297427
1673610972.03048,0.258891,10.566324797224947
1673610972.031488,0.266464,10.649130706653349
1673610972.032495,0.252833,10.731858275580873
1673610972.0335019,0.226076,10.814566259383174
1673610972.034509,0.194054,10.897293828310696
1673610972.035516,0.154795,10.980021397238218
1673610972.0365229,0.126956,11.062729381040523
1673610972.03753,0.112292,11.145456949968043
1673610972.038537,0.102627,11.228184518895567
1673610972.0395439,0.093396,11.31089250269787
1673610972.040551,0.090415,11.393620071625392
1673610972.041558,0.105488,11.476347640552914
1673610972.0425649,0.13602,11.559055624355217
1673610972.043573,0.166455,11.641861533783619
1673610972.04458,0.182226,11.72458910271114
1673610972.0455868,0.189943,11.818429885550787
1673610972.046594,0.20165,11.943262510491179
1673610972.047601,0.237928,12.112666871275328
1673610972.0486078,0.261728,12.288979897711014
1673610972.049615,0.266464,12.442874854077253
1673610972.050622,0.272907,12.582033175446961
1673610972.0516288,0.285023,12.724868313066285
1673610972.052636,0.286057,12.898542520505483
1673610972.053643,0.276032,13.079816282069624
1673610972.0546498,0.268796,13.281632169561114
1673610972.055657,0.242976,13.485049064460886
1673610972.056665,0.20403,13.688658588995983
1673610972.057672,0.178163,13.892075483895757
1673610972.0586789,0.161046,14.0954442213867
1673610972.059686,0.139794,14.298861116286474
1673610972.060693,0.121403,14.502278011186247
1673610972.0616999,0.09354,14.705646748677191
1673610972.062707,0.057263,14.909063643576964
1673610972.063714,0.044305,15.112480538476738
1673610972.0647209,0.050676,15.315849275967683
1673610972.065728,0.078539,15.519266170867455
1673610972.066735,0.110921,15.72268306576723
1673610972.0677419,0.141886,15.926051803258174
1673610972.06875,0.177586,16.12966132779327
1673610972.069757,0.221917,16.333078222693043
1673610972.0707638,0.263699,16.536446960183987
1673610972.071771,0.300361,16.739863855083758
1673610972.072778,0.306251,16.943280749983533
1673610972.0737848,0.295841,17.146649487474477
1673610972.074792,0.283484,17.35006638237425
1673610972.075799,0.273916,17.553483277274026
1673610972.0768058,0.25817,17.756852014764966
1673610972.077813,0.226725,17.96026890966474
1673610972.07882,0.207564,18.163685804564516
1673610972.0798268,0.195424,18.36705454205546
1673610972.080834,0.184558,18.57047143695523
1673610972.081842,0.17636,18.774080961490327
1673610972.082849,0.175759,18.9774978563901
1673610972.0838559,0.180254,19.180866593881046
1673610972.084863,0.181504,19.38428348878082
1673610972.08587,0.183043,19.58770038368059
1673610972.0868769,0.193957,19.79106912117154
1673610972.087884,0.209464,19.99448601607131
1673610972.088891,0.210473,20.197902910971084
1673610972.0898979,0.210858,20.40127164846203
1673610972.090905,0.215882,20.604688543361803
1673610972.091912,0.216027,20.808105438261574
1673610972.0929189,0.209295,21.011474175752518
1673610972.093927,0.199944,21.215083700287614
1673610972.094934,0.189895,21.41850059518739
1673610972.0959408,0.179846,21.62186933267833
1673610972.096948,0.185447,21.825286227578104
1673610972.097955,0.207973,22.04679415351609
1673610972.0989618,0.226725,22.275733048640916
1673610972.099969,0.20867,22.451290886266094
1673610972.100976,0.17749,22.628787832419544
1673610972.1019828,0.171335,22.801569814258464
1673610972.10299,0.184317,22.943142108965187
1673610972.103997,0.194703,23.128540281287247
1673610972.1050038,0.208045,23.325289266094423
1673610972.106011,0.217709,24.178605491182957
1673610972.107019,0.2123,24.316198956713134
1673610972.108026,0.201122,24.566413995597944
1673610972.1090329,0.199919,23.970972432284217
1673610972.11004,0.199823,24.141368615322254
1673610972.111047,0.199679,24.29642555115307
1673610972.1120539,0.178596,24.451445778429
1673610972.113061,0.14102,24.60650271425982
1673610972.114068,0.096161,24.761559650090632
1673610972.1150749,0.042286,24.916579877366566
1673610972.116082,-0.023513,25.07163681319738
1673610972.1170888,-0.057435,25.226657040473313
1673610972.1180959,-0.057218,25.381713976304127
1673610972.119104,-0.029427,25.53691774635448
1673610972.120111,0.012355,25.691974682185297
1673610972.1211178,0.053176,25.846994909461227
1673610972.122125,0.109575,26.002051845292044
1673610972.123132,0.1672,26.157108781122858
1673610972.1241388,0.225955,26.31212900839879
1673610972.125146,0.279518,26.467185944229605
1673610972.126153,0.32808,26.622242880060423
1673610972.1271598,0.365583,26.777263107336353
1673610972.128167,0.370367,26.93232004316717
1673610972.129174,0.336902,27.087376978997984
1673610972.1301808,0.317333,27.242397206273917
1673610972.131188,0.295144,27.39745414210473
1673610972.132196,0.26882,27.552657912155084
1673610972.133203,0.261944,27.7077148479859
1673610972.1342099,0.263579,27.86273507526183
1673610972.135217,0.25805,28.01779201109265
1673610972.136224,0.239082,28.172848946923462
1673610972.1372309,0.21069,28.327869174199396
1673610972.138238,0.170037,28.48292611003021
1673610972.1392448,0.125226,28.637946337306143
1673610972.1402519,0.092771,28.793003273136957
1673610972.141259,0.094406,28.948060208967775
1673610972.1422658,0.101906,29.103080436243705
1673610972.1432729,0.101618,29.258137372074522
1673610972.144281,0.129793,29.41334114212487
1673610972.145288,0.154002,29.56839807795569
1673610972.1462948,0.185014,29.72341830523162
1673610972.147302,0.196337,29.878475241062436
1673610972.148309,0.195472,30.033532176893253
1673610972.1493158,0.209175,30.188552404169183
1673610972.150323,0.245789,30.34360934
1673610972.15133,0.29363,30.498666275830814
1673610972.1523368,0.308414,30.653686503106748
1673610972.153344,0.283893,30.80874343893756
1673610972.154351,0.267762,30.963800374768375
1673610972.1553578,0.25978,31.11882060204431
1673610972.156365,0.242303,31.273877537875123
1673610972.157373,0.24026,31.409900831150274
1673610972.15838,0.23009,31.49598764797136
1673610972.1593869,0.213382,31.574269546494993
1673610972.160394,0.203982,31.691572166626937
1673610972.1614008,0.190616,31.835296306628518
1673610972.1624079,0.189245,31.96627945779685
1673610972.163415,0.197083,32.05736551966627
1673610972.1644218,0.202035,32.18234849404479
1673610972.1654289,0.197876,32.29461210739857
1673610972.166436,0.198741,32.329221053598516
1673610972.1674428,0.202732,32.34209611436036
1673610972.1684499,0.207829,32.354974223917075
1673610972.169458,0.195232,32.36786452865329
1673610972.170465,0.180062,32.380742638210016
1673610972.1714718,0.17434,32.39361769897185
1673610972.172479,0.188308,32.568280506437766
1673610972.173486,0.197227,32.65782834749403
1673610972.1744928,0.206531,32.794535248689854
1673610972.1755,0.207084,32.92414520786651
1673610972.176507,0.191409,33.06790601287554
1673610972.1775138,0.181312,33.18092704482594
1673610972.178521,0.174725,33.24078680405244
1673610972.179528,0.167248,33.32865611587983
1673610972.1805348,0.164652,33.419807705011934
1673610972.181542,0.205305,33.611964956656344
1673610972.18255,0.207709,33.67652250214592
1673610972.1835568,0.202131,33.764561857067925
1673610972.1845639,0.208766,33.85474213716234
1673610972.185571,0.235764,33.944922417256755
1673610972.1865778,0.245284,34.03508134785304
1673610972.1875849,0.241173,34.12526162794745
1673610972.188592,0.252111,34.21544190804187
1673610972.1895988,0.27745,34.30560083863815
1673610972.1906059,0.283388,34.395781118732565
1673610972.191613,0.270863,34.48596139882698
1673610972.1926198,0.255645,34.57612032942327
1673610972.1936269,0.242063,34.66630060951768
1673610972.194635,0.230475,34.756566287604606
1673610972.195642,0.210089,34.84674656769902
1673610972.1966488,0.183572,34.9369054982953
1673610972.197656,0.15881,35.02708577838972
1673610972.198663,0.135635,35.117266058484134
1673610972.1996698,0.111979,35.20742498908042
1673610972.200677,0.120538,35.29760526917483
1673610972.201684,0.135274,35.387785549269246
1673610972.2026908,0.121884,35.477944479865535
1673610972.203698,0.115994,35.56812475995994
1673610972.204705,0.119432,35.65830504005436
1673610972.2057118,0.121547,35.74846397065065
1673610972.206719,0.126428,35.83864425074506
1673610972.207727,0.147896,35.928909928831985
1673610972.2087338,0.184558,36.01906885942827
1673610972.2097409,0.222373,36.10924913952269
1673610972.210748,0.270022,36.199429419617104
1673610972.2117548,0.305866,36.289588350213386
1673610972.2127619,0.319521,36.3797686303078
1673610972.213769,0.30339,36.469948910402216
1673610972.2147758,0.280888,36.5601078409985
1673610972.2157829,0.260622,36.65028812109291
1673610972.21679,0.238024,36.74046840118733
1673610972.2177968,0.233456,36.83062733178361
1673610972.218804,0.240692,36.920807611878026
1673610972.219812,0.252232,37.011073289964955
1673610972.220819,0.256198,37.10125357005937
1673610972.2218258,0.256222,37.19141250065565
1673610972.222833,0.244106,37.281794807820695
1673610972.22384,0.231028,37.38120711799762
1673610972.2248468,0.231893,37.613541569572746
1673610972.225854,0.224513,37.67723077193995
1673610972.226861,0.22771,37.74554832314788
1673610972.2278678,0.236605,37.8346202869515
1673610972.228875,0.244178,37.88794272921478
1673610972.229882,0.239827,37.95343218304987
1673610972.2308888,0.237687,37.86069784862932
1673610972.231896,0.243144,37.92960775079516
1673610972.232904,0.246919,37.9885943482613
1673610972.2339108,0.248481,38.04751118863489
1673610972.2349179,0.252111,38.10644198042699
1673610972.235925,0.238336,38.165372772219094
1673610972.2369318,0.194078,38.22428961259268
1673610972.2379389,0.132317,38.28322040438478
1673610972.238946,0.06611,38.34215119617688
1673610972.2399528,7.44e-4,38.40106803655047
1673610972.24096,-0.030173,38.45999882834257
1673610972.241967,-0.018248,38.51892962013467
1673610972.2429738,0.024183,38.57784646050826
1673610972.243981,0.079981,38.63677725230036
1673610972.244989,0.125201,38.69576384976651
1673610972.245996,0.165998,38.75469464155861
1673610972.2470028,0.217493,38.8136114819322
1673610972.252038,0.419193,39.108251489474185
1673610972.2530448,0.377339,39.167168329847776
1673610972.254052,0.345196,39.226099121639876
1673610972.255059,0.311828,39.28502991343198
1673610972.2560658,0.273652,39.34394675380557
1673610972.257073,0.241101,39.40287754559767
1673610972.258081,0.22134,39.46186414306381
1673610972.2590878,0.205064,39.520780983437405
1673610972.260095,0.193957,39.579711775229505
1673610972.261102,0.181697,39.638642567021606
1673610972.2621088,0.181384,39.6975594073952
1673610972.263116,0.190472,39.7564901991873
1673610972.264123,0.197948,39.8154209909794
1673610972.2651298,0.211339,39.87433783135298
1673610972.266137,0.222421,39.93326862314508
1673610972.267144,0.224657,39.99219941493718
1673610972.2681508,0.228432,40.051116255310774
1673610972.269158,0.23372,40.110047047102874
1673610972.270166,0.233528,40.16903364456902
1673610972.271173,0.232422,40.22796443636112
1673610972.2721798,0.224609,40.28688127673471
1673610972.273187,0.211098,40.34581206852681
1673610972.274194,0.196145,40.40474286031891
1673610972.2752008,0.184101,40.4636597006925
1673610972.276208,0.181553,40.5225904924846
1673610972.277215,0.173547,40.56412980686695
1673610972.2782218,0.159507,40.60056051883644
1673610972.279229,0.152391,40.680014608581644
1673610972.280236,0.148545,40.66981172508345
1673610972.2812428,0.137126,40.73555611587983
1673610972.28225,0.146309,40.782475430615165
1673610972.283258,0.185543,40.80407190750894
1673610972.2842648,0.219777,40.822285218407245
1673610972.285272,0.243168,40.825382
1673610972.286279,0.270358,40.83561862418525
1673610972.2872858,0.289591,40.84784409475491
1673610972.288293,0.305121,40.86007246029748
1673610972.2893,0.307886,40.87230082584004
1673610972.2903068,0.306323,40.88452629640971
1673610972.291314,0.3,40.89675466195227
1673610972.292321,0.285047,40.90898302749484
1673610972.2933278,0.275984,40.9212084980645
1673610972.294335,0.279902,40.93343686360707
1673610972.295343,0.277643,40.945676809041245
1673610972.29635,0.252111,40.957905174583814
1673610972.2973568,0.225547,40.970130645153475
1673610972.298364,0.193933,40.982359010696044
1673610972.299371,0.149314,40.994587376238606
1673610972.3003778,0.109647,41.00681284680827
1673610972.301385,0.085078,41.019041212350835
1673610972.302392,0.079741,41.031269577893404
1673610972.3033988,0.082313,41.043495048463065
1673610972.304406,0.081352,41.05572341400563
1673610972.305413,0.105512,41.067951779548196
1673610972.3064198,0.138544,41.080177250117856
1673610972.307427,0.186865,41.092405615660425
1673610972.308435,0.231533,41.1046455610946
1673610972.3094418,0.252111,41.11687103166427
1673610972.310449,0.285816,41.12909939720683
1673610972.311456,0.314593,41.1413277627494
1673610972.3124628,0.330964,41.15355323331906
1673610972.31347,0.328536,41.16578159886163
1673610972.314477,0.313295,41.17800996440419
1673610972.3154838,0.308126,41.19023543497386
1673610972.316491,0.309785,41.20246380051642
1673610972.317498,0.298894,41.21469216605899
1673610972.3185048,0.279854,41.22691763662865
1673610972.319512,0.258747,41.23914600217121
1673610972.32052,0.241894,41.25138594760539
1673610972.321527,0.225883,41.26361431314796
1673610972.3225338,0.212829,41.27583978371762
1673610972.323541,0.21569,41.288068149260184
1673610972.324548,0.221796,41.30029651480275
1673610972.3255548,0.226629,41.31252198537241
1673610972.326562,0.230066,41.32475035091498
1673610972.327569,0.238192,41.336978716457544
1673610972.3285758,0.251246,41.34920418702721
1673610972.329583,0.249635,41.361432552569774
1673610972.33059,0.240428,41.37366091811234
1673610972.3315969,0.221484,41.385886388682
1673610972.332604,0.179846,41.39811475422457
1673610972.333612,0.156622,41.41035469965875
1673610972.3346188,0.150492,41.42258017022841
1673610972.335626,0.14917,41.434808535770976
1673610972.336633,0.157272,41.447036901313545
1673610972.3376398,0.127942,41.459262371883206
1673610972.338647,0.115128,41.47149073742577
1673610972.339654,0.145179,41.48371910296834
1673610972.3406608,0.195833,41.49836895493562
1673610972.341668,0.245885,41.530899
1673610972.342675,0.287451,41.528820102050545
1673610972.3436818,0.316348,41.51501397687172
1673610972.344689,0.313102,41.523900433134685
1673610972.345697,0.299351,41.47910670004769
1673610972.346704,0.290096,41.49993032808774
1673610972.3477108,0.284133,41.525439808820025
1673610972.348718,0.279878,41.49472
1673610972.349725,0.289278,41.4949897641019
1673610972.3507318,0.300673,41.49663602682203
1673610972.351739,0.299712,41.498282679374675
1673610972.352746,0.288605,41.49992933192732
1673610972.3537529,0.269613,41.50157559464745
1673610972.35476,0.256511,41.50322224720009
1673610972.355767,0.250525,41.504868899752736
1673610972.3567739,0.234297,41.506515162472866
1673610972.357781,0.200256,41.50816181502551
1673610972.358789,0.167369,41.50981002690822
1673610972.3597958,0.125009,41.51145628962835
1673610972.360803,0.095175,41.51310294218099
1673610972.36181,0.082722,41.51474959473364
1673610972.3628168,0.093684,41.516395857453766
1673610972.363824,0.111883,41.51804251000641
1673610972.364831,0.134048,41.519689162559054
1673610972.3658378,0.171912,41.52133542527918
1673610972.366845,0.222758,41.52298207783183
1673610972.367852,0.26204,41.52462873038447
1673610972.3688588,0.293245,41.5262749931046
1673610972.369866,0.316564,41.527921645657244
1673610972.370874,0.330868,41.52956985753996
1673610972.371881,0.336229,41.531216510092605
1673610972.3728878,0.34248,41.53286277281273
1673610972.373895,0.330844,41.53450942536538
1673610972.374902,0.3044,41.53615607791802
1673610972.3759089,0.279566,41.537802340638144
1673610972.376916,0.258266,41.539448993190796
1673610972.377923,0.245645,41.54109564574344
1673610972.3789299,0.225787,41.54274190846356
1673610972.379937,0.211603,41.544388561016206
1673610972.380944,0.198862,41.54603521356886
1673610972.3819509,0.178043,41.54768147628898
1673610972.382958,0.15994,41.54932812884162
1673610972.383966,0.148088,41.55097634072434
1673610972.3849728,0.137486,41.55262260344447
1673610972.38598,0.138496,41.55426925599711
1673610972.386987,0.148785,41.55591590854976
1673610972.3879938,0.157512,41.557562171269886
1673610972.389001,0.183211,41.55920882382253
1673610972.390008,0.209632,41.560855476375174
1673610972.3910148,0.234706,41.5625017390953
1673610972.392022,0.270959,41.56414839164795
1673610972.393029,0.302236,41.56579504420059
1673610972.3940358,0.321348,41.567085
1673610972.395043,0.320723,41.563017778493084
1673610972.396051,0.309304,41.553209865760614
1673610972.397058,0.290697,41.55839863480334
1673610972.3980649,0.259973,41.54429329184549
1673610972.399072,0.236052,41.5759879148784
1673610972.400079,0.229273,41.553717681764006
1673610972.4010859,0.220715,41.57192884120172
1673610972.402093,0.207877,41.59014686576061
1673610972.4031,0.195087,41.608361890213374
1673610972.4041069,0.186,41.626574301347006
1673610972.405114,0.179365,41.62338234191703
1673610972.406121,0.182057,41.585175
1673610972.4071279,0.189197,41.5739633909416
1673610972.408136,0.185255,41.55474531735813
1673610972.409143,0.170734,41.567085
1673610972.4101498,0.165902,41.57308768891537
1673610972.411157,0.166215,41.585175
1673610972.412164,0.176985,41.59143187529804
1673610972.4131708,0.18624,41.59687807343825
1673610972.414178,0.204752,41.58062765716029
1673610972.415185,0.226388,41.56790714315042
1673610972.4161918,0.249804,41.55518964062587
1673610972.417199,0.286129,41.54246912661599
1673610972.418206,0.323247,41.530899
1673610972.4192128,0.325724,41.52913064282308
1673610972.42022,0.302308,41.510912145922745
1673610972.421228,0.274878,41.488588281764
1673610972.422235,0.263098,41.44262247234144
1673610972.4232419,0.248602,41.46083655126371
1673610972.424249,0.228576,41.48147786483909
1673610972.425256,0.198405,41.50771181473534
1673610972.4262629,0.154266,41.48197935002384
1673610972.42727,0.138905,41.51305738615486
1673610972.428277,0.153281,41.51466501556737
1673610972.4292839,0.182154,41.51627226438579
1673610972.430291,0.22509,41.5178798937983
1673610972.431298,0.272426,41.519487523210806
1673610972.4323049,0.305265,41.52109477202923
1673610972.433313,0.334931,41.52270392381807
1673610972.43432,0.358058,41.52431155323058
1673610972.4353268,0.353803,41.525918802049006
1673610972.436334,0.335412,41.52752643146151
1673610972.437341,0.320074,41.529134060874014
1673610972.4383478,0.297356,41.53074130969244
1673610972.439355,0.257016,41.53234893910495
1673610972.440362,0.209536,41.53395656851745
1673610972.4413688,0.182634,41.53556381733588
1673610972.442376,0.18011,41.53717144674838
1673610972.443383,0.181192,41.53877907616089
1673610972.4443898,0.178932,41.540386324979316
1673610972.445397,0.179629,41.54199395439182
1673610972.446405,0.200232,41.54360310618067
1673610972.447412,0.21807000000000001,41.54521073559317
1673610972.4484189,0.223263,41.5468179844116
1673610972.449426,0.226076,41.5484256138241
1673610972.450433,0.22646,41.55003324323661
1673610972.4514399,0.230042,41.551640492055036
1673610972.452447,0.239346,41.55324812146754
1673610972.453454,0.241173,41.554855750880044
1673610972.4544609,0.242567,41.55646299969847
1673610972.455468,0.244803,41.55807062911098
1673610972.456475,0.245621,41.55967825852348
1673610972.4574819,0.237711,41.56128550734191
1673610972.45849,0.239899,41.56289465913075
1673610972.459497,0.247712,41.56450228854326
1673610972.4605038,0.251943,41.56610953736168
1673610972.461511,0.246005,41.567085
1673610972.462518,0.239851,41.588951037196
1673610972.4635248,0.24663,41.606522317596564
1673610972.464532,0.26204,41.56254598355185
1673610972.465539,0.258122,41.56157564711492
1673610972.4665458,0.249707,41.60326
1673610972.467553,0.253169,41.57949767151371
1673610972.46856,0.254083,41.58118739198856
1673610972.4695668,0.241486,41.63769597305675
1673610972.470574,0.21694,41.65796810958575
1673610972.471582,0.211868,41.65893475027591
1673610972.472589,0.204511,41.65990047645265
1673610972.4735959,0.190423,41.66086597400103
1673610972.474603,0.185808,41.661831700177764
1673610972.47561,0.191577,41.6627974263545
1673610972.4766169,0.188644,41.66376292390288
1673610972.477624,0.18487,41.66472865007962
1673610972.478631,0.17398,41.66569437625635
1673610972.4796379,0.175663,41.66665987380473
1673610972.480645,0.193404,41.66762559998146
1673610972.481652,0.199871,41.6685913261582
1673610972.4826589,0.210377,41.66955682370658
1673610972.483667,0.214969,41.670523464396744
1673610972.484674,0.200184,41.671489190573475
1673610972.4856808,0.200472,41.67245468812186
1673610972.486688,0.221292,41.67342041429859
1673610972.487695,0.24151,41.67438614047533
1673610972.4887018,0.260405,41.675351638023706
1673610972.489709,0.280239,41.67631736420044
1673610972.490716,0.30476,41.67728309037718
1673610972.4917228,0.323897,41.67824858792556
1673610972.49273,0.321781,41.679214314102296
1673610972.493737,0.3213,41.68018004027903
1673610972.4947438,0.310794,41.68114553782741
1673610972.495751,0.284975,41.68211126400415
1673610972.496759,0.265069,41.68307790469431
1673610972.497766,0.246029,41.684043630871045
1673610972.4987729,0.218863,41.68500912841942
1673610972.49978,0.20153,41.68597485459616
1673610972.500787,0.190255,41.68694058077289
1673610972.5017939,0.172273,41.68790607832128
1673610972.502801,0.156598,41.68887180449801
1673610972.503808,0.14691,41.689837530674744
1673610972.5048149,0.161791,41.69080302822312
1673610972.505822,0.184726,41.69176875439986
1673610972.506829,0.210137,41.6927344805766
1673610972.5078359,0.247424,41.693699978124975
1673610972.508844,0.27822,41.694666618815134
1673610972.509851,0.29875,41.69563234499187
1673610972.5108578,0.301707,41.69659784254025
1673610972.511865,0.296178,41.69756356871699
1673610972.512872,0.30476,41.698529294893724
1673610972.5138788,0.314953,41.6994947924421
1673610972.514886,0.313319,41.70046051861884
1673610972.515893,0.296226,41.70142624479558
1673610972.5168998,0.248842,41.702391742343956
1673610972.517907,0.157873,41.70335746852069
1673610972.518914,0.088684,41.70432319469742
1673610972.5199208,0.055268,41.70528869224581
1673610972.520928,0.042358,41.70625441842254
1673610972.521936,0.051998,41.707221059112705
1673610972.522943,0.076856,41.708186785289435
1673610972.5239499,0.120898,41.70915228283782
1673610972.524957,0.16809,41.71011800901455
1673610972.525964,0.228215,41.71108373519129
1673610972.5269709,0.294952,41.711803
1673610972.527978,0.340148,41.702251759656654
1673610972.528985,0.36479,41.68542474302742
1673610972.5299919,0.383613,41.701751333333334
1673610972.530999,0.390777,41.685927507868385
1673610972.532006,0.375464,41.71708679828326
1673610972.5330129,0.347288,41.72448540524434
1673610972.534021,0.309689,41.69514779613734
1673610972.535028,0.283821,41.657528
1673610972.5360348,0.271632,41.65619884301581
1673610972.537042,0.265358,41.65202769955279
1673610972.538049,0.255597,41.64785655608978
1673610972.5390558,0.241702,41.643686400113374
1673610972.540063,0.229201,41.63951525665036
1673610972.54107,0.222902,41.635344113187344
1673610972.5420768,0.225835,41.63117395721094
1673610972.543084,0.222133,41.62700281374793
1673610972.544091,0.202155,41.62283167028491
1673610972.5450978,0.182081,41.618661514308506
1673610972.546105,0.177393,41.614490370845495
1673610972.547113,0.185375,41.610315277436015
1673610972.54812,0.198525,41.606144133973
1673610972.5491269,0.214248,41.6019739779966
1673610972.550134,0.231557,41.59780283453358
1673610972.551141,0.246823,41.59363169107056
1673610972.5521479,0.246702,41.589461535094166
1673610972.553155,0.245572,41.58529039163115
1673610972.554162,0.244827,41.58111924816813
1673610972.5551689,0.235668,41.57694909219173
1673610972.556176,0.229273,41.572777948728714
1673610972.557183,0.234826,41.568606805265695
1673610972.5581899,0.240308,41.5644366492893
1673610972.559198,0.240452,41.56026155587982
1673610972.560205,0.233216,41.5560904124168
1673610972.5612118,0.219416,41.551920256440404
1673610972.562219,0.208478,41.547749112977385
1673610972.563226,0.214897,41.54357796951437
1673610972.5642328,0.225811,41.53940781353797
1673610972.56524,0.243601,41.53523667007495
1673610972.566247,0.259829,41.53106552661194
1673610972.5672538,0.262785,41.526895370635536
1673610972.568261,0.254443,41.52272422717252
1673610972.569268,0.26293,41.518553083709506
1673610972.5702748,0.274229,41.5143829277331
1673610972.571282,0.280335,41.51021178427008
1673610972.57229,0.266704,41.50603669086061
1673610972.573297,0.245116,41.50186554739759
1673610972.5743039,0.219272,41.49769539142119
1673610972.575311,0.196866,41.49352424795818
1673610972.576318,0.180591,41.48935310449516
1673610972.5773249,0.180206,41.485182948518755
1673610972.578332,0.183235,41.48101180505574
1673610972.579339,0.189294,41.476840661592725
1673610972.5803459,0.187442,41.47267050561632
1673610972.581353,0.18176899999999999,41.46849936215331
1673610972.58236,0.174509,41.46432821869029
1673610972.5833669,0.18499,41.46015806271389
1673610972.584375,0.200088,41.455982969304415
1673610972.585382,0.232326,41.451811825841396
1673610972.5863888,0.26204,41.44764166986499
1673610972.587396,0.277667,41.44347052640198
1673610972.588403,0.273868,41.43929938293896
1673610972.5894098,0.273243,41.43512922696256
1673610972.590417,0.281152,41.43095808349955
1673610972.591424,0.288389,41.42678694003653
1673610972.5924308,0.287523,41.42261678406013
1673610972.593438,0.298846,41.43945757598856
1673610972.594445,0.315002,41.42321353221957
1673610972.5954518,0.311804,41.40499091559371
1673610972.596459,0.298942,41.404266
1673610972.597467,0.28822,41.38662987195995
1673610972.598474,0.28911,41.386177000000004
1673610972.5994809,0.282018,41.29674434016687
1673610972.600488,0.276128,41.295731
1673610972.601495,0.259636,41.38613425286506
1673610972.6025019,0.239346,41.372248010490786
1673610972.603509,0.21194,41.35835847987536
1673610972.604516,0.195472,41.344468949259934
1673610972.6055229,0.187298,41.33058270688566
1673610972.60653,0.174941,41.316693176270235
1673610972.607537,0.175951,41.30280364565481
1673610972.6085439,0.185976,41.288917403280536
1673610972.609552,0.185615,41.275014719700515
1673610972.610559,0.196193,41.26112518908509
1673610972.6115658,0.222373,41.247238946710816
1673610972.612573,0.254564,41.233349416095386
1673610972.61358,0.282811,41.219459885479964
1673610972.6145868,0.30113,41.20557364310569
1673610972.615594,0.302284,41.191684112490265
1673610972.616601,0.293293,41.17779458187484
1673610972.6176078,0.28209,41.163908339500566
1673610972.618615,0.26531,41.15001880888514
1673610972.619622,0.244683,41.13612927826971
1673610972.6206288,0.23223,41.122243035895444
1673610972.621636,0.219585,41.108353505280014
1673610972.622644,0.206555,41.09445082169999
1673610972.623651,0.199511,41.08056129108457
1673610972.6246579,0.207011,41.066675048710295
1673610972.625665,0.220354,41.05278551809487
1673610972.626672,0.230595,41.03889598747944
1673610972.6276789,0.237543,41.025009745105166
1673610972.628686,0.237807,41.01112021448974
1673610972.629693,0.214031,40.99723068387432
1673610972.6306999,0.179509,40.983344441500044
1673610972.631707,0.17398,40.96945491088462
1673610972.6327138,0.18463,40.955568668510345
1673610972.6337209,0.183476,40.94167913789492
1673610972.634729,0.186481,40.927776454314895
1673610972.635736,0.200881,40.91388692369947
1673610972.6367428,0.2048,40.900000681325196
1673610972.63775,0.203357,40.88611115070977
1673610972.638757,0.223119,40.87222162009435
1673610972.6397638,0.242976,40.858335377720074
1673610972.640771,0.243721,40.84444584710465
1673610972.641778,0.245669,40.83055631648922
1673610972.6427848,0.249203,40.81667007411495
1673610972.643792,0.251919,40.80278054349952
1673610972.644799,0.257376,40.7888910128841
1673610972.6458058,0.254564,40.775004770509824
1673610972.646813,0.257497,40.7611152398944
1673610972.647821,0.273267,40.74721255631438
1673610972.648828,0.284302,40.73332302569895
1673610972.6498349,0.289855,40.719436783324674
1673610972.650842,0.278003,40.70554725270925
1673610972.651849,0.260646,40.69165772209383
1673610972.6528559,0.235956,40.67777147971955
1673610972.653863,0.223768,40.66388194910413
1673610972.6548698,0.216844,40.649995706729854
1673610972.6558769,0.212613,40.63610617611443
1673610972.656884,0.2073,40.61543479904648
1673610972.6578908,0.204391,40.590218
1673610972.6588979,0.207204,40.57875101788269
1673610972.659906,0.192707,40.5481536920143
1673610972.660913,0.190688,40.54795223175966
1673610972.6619198,0.221676,40.572128
1673610972.662927,0.25103,40.584644864329995
1673610972.663934,0.260165,40.59553438998808
1673610972.6649408,0.273772,40.56561670457797
1673610972.665948,0.291394,40.55117410556202
1673610972.666955,0.29363,40.54333296059383
1673610972.6679618,0.288581,40.53549367195731
1673610972.668969,0.282162,40.52765252698912
1673610972.669976,0.28822,40.51981138202093
1673610972.6709828,0.298293,40.511972093384415
1673610972.67199,0.301827,40.50413094841623
1673610972.672998,0.298197,40.52401866150179
1673610972.674005,0.295,40.521182233190274
1673610972.6750119,0.29512,40.49001115712923
1673610972.676019,0.282042,40.50822799880811
1673610972.6770258,0.247712,40.55220653242728
1673610972.6780329,0.214945,40.564063542203144
1673610972.67904,0.174461,40.553638110157365
1673610972.6800468,0.123302,40.55418595470798
1673610972.6810539,0.105248,40.554138536480686
1673610972.682061,0.106762,40.57242559513628
1673610972.6830678,0.122028,40.57301313335999
1673610972.6840749,0.144314,40.573600810711866
1673610972.685083,0.175038,40.574189044576386
1673610972.68609,0.215594,40.57477672192826
1673610972.6870968,0.25103,40.57536426015197
1673610972.688104,0.288148,40.575951937503845
1673610972.689111,0.327238,40.57653961485572
1673610972.6901178,0.362313,40.57712715307943
1673610972.691125,0.378949,40.577714830431304
1673610972.692132,0.37782,40.57830250778318
1673610972.6931388,0.358467,40.57889004600689
1673610972.694146,0.330868,40.579477723358764
1673610972.695153,0.302188,40.58006540071064
1673610972.6961598,0.276489,40.58065293893435
1673610972.697167,0.246823,40.58124061628622
1673610972.698175,0.222638,40.58182885015074
1673610972.6991818,0.212493,40.582416388374455
1673610972.7001889,0.202396,40.58300406572633
1673610972.701196,0.189221,40.5835917430782
1673610972.7022028,0.189221,40.584179281301914
1673610972.7032099,0.188644,40.58476695865379
1673610972.704217,0.189053,40.58535463600566
1673610972.7052238,0.207396,40.58594217422937
1673610972.7062309,0.229081,40.58652985158125
1673610972.707238,0.233648,40.58711752893312
1673610972.7082448,0.239659,40.58770506715683
1673610972.7092519,0.2549,40.588292744508706
1673610972.71026,0.26043,40.588880978373226
1673610972.711267,0.25567,40.5894686557251
1673610972.7122738,0.231725,40.59005619394881
1673610972.713281,0.214464,40.60342029589891
1673610972.714288,0.219416,40.594975312112545
1673610972.7152948,0.220186,40.61713153361946
1673610972.716302,0.212637,40.626396
1673610972.717309,0.195304,40.59897352455889
1673610972.7183158,0.187659,40.590218
1673610972.719323,0.190255,40.61814275899881
1673610972.72033,0.198357,40.61230521244635
1673610972.7213368,0.211219,40.59409113352408
1673610972.722344,0.216267,40.58706521350861
1673610972.723352,0.21557,40.583057401937474
1673610972.7243588,0.212108,40.57905432997321
1673610972.7253659,0.21456,40.575050310087576
1673610972.726373,0.213719,40.571046290201934
1673610972.7273798,0.215618,40.56704321823767
1673610972.7283869,0.238745,40.56303919835203
1673610972.729394,0.277522,40.559035178466395
1673610972.7304008,0.295505,40.55503210650213
1673610972.7314079,0.297188,40.55102808661649
1673610972.732415,0.299543,40.547024066730856
1673610972.7334218,0.300962,40.54302099476659
1673610972.734429,0.304712,40.53901697488095
1673610972.735437,0.287211,40.535009163309816
1673610972.736444,0.266536,40.53100514342418
1673610972.7374508,0.258458,40.52700207145992
1673610972.738458,0.242447,40.52299805157428
1673610972.739465,0.22872,40.51899403168864
1673610972.7404718,0.224585,40.51499095972438
1673610972.741479,0.218455,40.51098693983874
1673610972.742486,0.206579,40.5069829199531
1673610972.7434928,0.206555,40.50297984798884
1673610972.7445,0.203453,40.4989758281032
1673610972.745507,0.200665,40.494971808217564
1673610972.7465138,0.204247,40.4909687362533
1673610972.747521,0.223359,40.48696471636766
1673610972.748529,0.238024,40.482956904796524
1673610972.7495358,0.246101,40.47895383283226
1673610972.7505429,0.258747,40.474949812946626
1673610972.75155,0.271248,40.470945793060984
1673610972.7525568,0.273604,40.46694272109672
1673610972.753564,0.273195,40.46293870121109
1673610972.754571,0.278989,40.458934681325445
1673610972.7555778,0.273123,40.45493160936118
1673610972.756585,0.25978,40.45092758947555
1673610972.757592,0.218863,40.446923569589906
1673610972.7585988,0.200617,40.42207530466889
1673610972.759606,0.192611,40.44479864672229
1673610972.760614,0.17511,40.45161192799237
1673610972.761621,0.177802,40.49395274033413
1673610972.7626278,0.192034,40.48116168016195
1673610972.763635,0.204247,40.50064354840248
1673610972.764642,0.218335,40.467876589976136
1673610972.7656488,0.235139,40.48332393736604
1673610972.766656,0.24764,40.487030828326176
1673610972.767663,0.25805,40.47548947833066
1673610972.7686698,0.2593,40.466731183558814
1673610972.769677,0.266416,40.457970814836045
1673610972.770684,0.269012,40.44921044611328
1673610972.7716908,0.239346,40.445496
1673610972.772698,0.199006,40.47734471370679
1673610972.773706,0.179437,40.4890018996185
1673610972.7747128,0.180471,40.47078782069623
1673610972.77572,0.186505,40.47460057129232
1673610972.776727,0.174749,40.492816306555426
1673610972.7777338,0.161935,40.5043717190758
1673610972.778741,0.1503,40.51182471653987
1673610972.779748,0.160325,40.51927771400395
1673610972.7807548,0.189895,40.52672894702733
1673610972.781762,0.215089,40.53418194449141
1673610972.782769,0.235091,40.54163494195548
1673610972.7837758,0.249707,40.54908617497887
1673610972.784783,0.260742,40.55653917244294
1673610972.785791,0.257184,40.56399922766977
1673610972.786798,0.244875,40.57145222513384
1673610972.7878048,0.255694,40.57890345815723
1673610972.788812,0.28084,40.5863564556213
1673610972.789819,0.307092,40.59380945308538
1673610972.7908258,0.316901,40.60126068610876
1673610972.791833,0.312862,40.60871368357284
1673610972.79284,0.320074,40.61616668103691
1673610972.7938468,0.331181,40.6236179140603
1673610972.794854,0.333489,40.63107091152437
1673610972.795861,0.319762,40.63852390898845
1673610972.7968678,0.296995,40.645975142011835
1673610972.797875,0.278364,40.653428139475906
1673610972.798883,0.255934,40.66088819470273
1673610972.7998898,0.236942,40.69074752085816
1673610972.800897,0.224513,40.64188810586552
1673610972.801904,0.219897,40.64074125846447
1673610972.8029108,0.217301,40.687884064362336
1673610972.803918,0.212613,40.71335429184549
1673610972.804925,0.204607,40.73157236623748
1673610972.8059318,0.229922,40.74978234731824
1673610972.806939,0.248698,40.782975760133525
1673610972.807946,0.256655,40.77409880686695
1673610972.8089528,0.257376,40.780904346934605
1673610972.80996,0.257497,40.792616163828335
1673610972.810968,0.257256,40.80433907145776
1673610972.811975,0.256415,40.8160508883515
1673610972.8129818,0.263603,40.82775993256131
1673610972.813989,0.267954,40.839471749455036
1673610972.814996,0.25353,40.85118356634877
1673610972.8160028,0.237158,40.86289261055858
1673610972.81701,0.225955,40.87460442745231
1673610972.818017,0.218551,40.88631624434605
1673610972.8190238,0.220498,40.89802528855586
1673610972.820031,0.221917,40.909737105449594
1673610972.821038,0.210738,40.92144892234332
1673610972.8220448,0.208887,40.93315796655313
1673610972.823052,0.214873,40.933926
1673610972.82406,0.212757,40.96825800762995
1673610972.8250668,0.212517,40.970104
1673610972.826074,0.220835,40.952687677949946
1673610972.827081,0.229754,40.969560553648066
1673610972.8280878,0.224825,40.93476273485932
1673610972.829095,0.217854,40.916129234803336
1673610972.830102,0.234322,40.969612301382924
1673610972.8311088,0.260814,40.95205381759657
1673610972.832116,0.26781,40.95299408517222
1673610972.833123,0.27132,40.953975260917765
1673610972.8341298,0.288052,40.954956204377375
1673610972.835137,0.280455,40.95593738012292
1673610972.836145,0.242014,40.95691948501216
1673610972.837152,0.201073,40.957900660757694
1673610972.8381588,0.184173,40.95888160421731
1673610972.839166,0.190015,40.959862779962855
1673610972.840173,0.20968,40.96084395570839
1673610972.8411798,0.231316,40.96182489916801
1673610972.842187,0.24639,40.96280607491355
1673610972.843194,0.262978,40.96378725065909
1673610972.8442008,0.271464,40.964768194118705
1673610972.845208,0.27709,40.96574936986425
1673610972.846215,0.278099,40.966730545609785
1673610972.8472219,0.262785,40.9677114890694
1673610972.848229,0.249491,40.968692664814945
1673610972.849237,0.241942,40.969674769704184
1673610972.8502438,0.241558,40.9706557131638
1673610972.851251,0.239466,40.97163688890934
1673610972.852258,0.242447,40.97261806465488
1673610972.8532648,0.246534,40.9735990081145
1673610972.854272,0.255213,40.974580183860034
1673610972.855279,0.252087,40.97556135960558
1673610972.8562858,0.231365,40.976542303065195
1673610972.857293,0.203718,40.97752347881073
1673610972.8583,0.172609,40.978504654556275
1673610972.8593068,0.165421,40.97948559801589
1673610972.860314,0.171167,40.98046677376143
1673610972.861322,0.172081,40.98144887865067
1673610972.862329,0.182514,40.98243005439621
1673610972.8633358,0.206074,40.98341099785582
1673610972.864343,0.234586,40.984392173601364
1673610972.86535,0.254083,40.9853733493469
1673610972.8663568,0.274349,40.98635429280652
1673610972.867364,0.294952,40.98733546855206
1673610972.868371,0.311972,40.9883166442976
1673610972.8693779,0.308102,40.989297587757214
1673610972.870385,0.311948,40.99027876350276
1673610972.871392,0.319425,40.991259939248295
1673610972.8723989,0.302573,40.99224088270791
1673610972.873406,0.285456,40.993222058453455
1673610972.874414,0.275287,40.994204163342694
1673610972.8754208,0.256367,40.99518510680231
1673610972.876428,0.236365,40.99616628254785
1673610972.877435,0.234802,40.99714745829339
1673610972.8784418,0.234442,40.99812840175301
1673610972.879449,0.225114,40.999109577498544
1673610972.880456,0.203526,41.00009075324409
1673610972.8814628,0.195785,41.001071696703704
1673610972.88247,0.202492,41.00205287244924
1673610972.883477,0.205497,41.003034048194785
1673610972.8844838,0.210593,41.0040149916544
1673610972.885491,0.230739,41.00499616739994
1673610972.886499,0.257473,41.00597827228918
1673610972.887506,0.271392,41.00629
1673610972.8885128,0.28346,41.0188417167382
1673610972.88952,0.293509,41.0370604148784
1673610972.890527,0.295072,41.016854785458875
1673610972.8915339,0.29125,41.01922128755365
1673610972.892541,0.283244,40.99825934859322
1673610972.893548,0.274686,41.06731973373063
1673610972.8945549,0.270262,41.07011601907487
1673610972.895562,0.261223,41.08743777205532
1673610972.896569,0.251559,41.08299085442834
1673610972.8975759,0.242712,41.0645388605475
1673610972.898583,0.212829,41.046082497262475
1673610972.899591,0.183332,41.10114152098235
1673610972.9005978,0.160998,41.112708858310626
1673610972.901605,0.143016,41.1101065520436
1673610972.902612,0.12686,41.10750424577656
1673610972.9036188,0.120297,41.10490255558583
1673610972.904626,0.130923,41.1023002493188
1673610972.905633,0.159411,41.099697943051765
1673610972.9066398,0.191217,41.097096252861036
1673610972.907647,0.222013,41.09449394659401
1673610972.908654,0.248674,41.09189164032697
1673610972.9096608,0.266704,41.08928995013624
1673610972.910668,0.297644,41.08668764386921
1673610972.911676,0.331734,41.084082873297
1673610972.912683,0.357505,41.08148056702997
1673610972.9136899,0.371497,41.078878876839234
1673610972.914697,0.36527,41.076276570572205
1673610972.915704,0.330003,41.073674264305176
1673610972.9167109,0.281273,41.07107257411444
1673610972.917718,0.251198,41.06847026784741
1673610972.918725,0.242976,41.06586796158038
1673610972.9197319,0.236774,41.063266271389644
1673610972.920739,0.233216,41.060663965122615
1673610972.921746,0.208574,41.07803134445769
1673610972.9227529,0.167008,41.096245310443486
1673610972.923761,0.145179,41.11447703099666
1673610972.924768,0.13828,41.09695260562708
1673610972.9257748,0.162248,41.04275359976162
1673610972.926782,0.20165,41.00639351549833
1673610972.927789,0.240019,41.06072186650775
1673610972.9287958,0.266488,41.078648
1673610972.929803,0.294086,41.0786272976182
1673610972.93081,0.321805,41.07771639281883
1673610972.9318168,0.343273,41.076805703669265
1673610972.932824,0.350389,41.075894798869896
1673610972.933831,0.36253,41.07498389407053
1673610972.9348378,0.368708,41.074073204920964
1673610972.935845,0.345461,41.073162300121595
1673610972.936853,0.301563,41.07225053272298
1673610972.93786,0.245669,41.071339627923614
1673610972.9388669,0.208117,41.07042893877405
1673610972.939874,0.178403,41.06951803397468
1673610972.940881,0.150636,41.06860712917531
1673610972.9418879,0.136933,41.06769644002575
1673610972.942895,0.130683,41.06678553522638
1673610972.943902,0.139938,41.06587463042701
1673610972.9449089,0.139938,41.06496394127745
1673610972.945916,0.148256,41.06405303647808
1673610972.946923,0.174004,41.06314213167871
1673610972.9479299,0.204199,41.062231442529146
1673610972.948938,0.237254,41.061319675130534
1673610972.949945,0.279037,41.063542806866955
1673610972.9509518,0.319593,41.0817569794994
1673610972.951959,0.345221,41.08703242203147
1673610972.952966,0.360895,41.039104808297566
1673610972.9539728,0.360871,41.020891368295594
1673610972.95498,0.345822,41.00629
1673610972.955987,0.327118,41.01377769003338
1673610972.9569938,0.304712,41.03473114520744
1673610972.958001,0.292259,41.002292740643625
1673610972.959008,0.281946,40.99025640202895
1673610972.9600148,0.265069,40.99933586099155
1673610972.961022,0.228624,41.00841746995628
1673610972.96203,0.190327,41.01750767892949
1673610972.963037,0.139049,41.02658928789422
1673610972.9640439,0.104839,41.03566874685682
1673610972.965051,0.082313,41.04475035582155
1673610972.966058,0.083683,41.053831964786276
1673610972.9670649,0.097891,41.062911423748886
1673610972.968072,0.109479,41.07199303271361
1673610972.969079,0.128567,41.081074641678335
1673610972.9700859,0.181288,41.090154100640945
1673610972.971093,0.244587,41.099235709605665
1673610972.9721,0.304328,41.10831731857039
1673610972.9731069,0.359933,41.117396777533
1673610972.974115,0.398086,41.126486986506215
1673610972.975122,0.420491,41.13556859547094
1673610972.9761288,0.41864,41.144648054433546
1673610972.977136,0.376377,41.15372966339827
1673610972.978143,0.32594,41.162811272363
1673610972.9791498,0.29512,41.171890731325604
1673610972.980157,0.264012,41.18097234029033
1673610972.981164,0.247472,41.19005394925506
1673610972.9821708,0.235043,41.19913340821766
1673610972.983178,0.229369,41.20821501718239
1673610972.984185,0.232134,41.21729662614712
1673610972.9851918,0.232422,41.22637608510972
1673610972.986199,0.241173,41.23545769407445
1673610972.987207,0.259011,41.24454790304767
1673610972.988214,0.281056,41.253629512012395
1673610972.9892209,0.299063,41.262708970975
1673610972.990228,0.313439,41.271790579939726
1673610972.991235,0.321757,41.28087218890445
1673610972.9922419,0.318031,41.289951647867056
1673610972.993249,0.305554,41.299033256831784
1673610972.994256,0.297885,41.30811486579651
1673610972.9952629,0.290096,41.317194324759114
1673610972.99627,0.270094,41.32627593372384
1673610972.997277,0.25216,41.33535754268857
1673610972.9982839,0.223768,41.34443700165117
1673610972.999292,0.18725,41.35352721062439
1673610973.000299,0.171119,41.36260881958912
1673610973.0013058,0.180951,41.37168827855172
1673610973.002313,0.194222,41.38076988751645
1673610973.00332,0.187442,41.38985149648118
1673610973.0043268,0.173884,41.39893095544378
1673610973.005334,0.159628,41.40801256440851
1673610973.006341,0.17172,41.417094173373236
1673610973.0073478,0.182057,41.42617363233584
1673610973.008355,0.195448,41.43525524130057
1673610973.009362,0.222133,41.444336850265294
1673610973.0103688,0.257905,41.4534163092279
1673610973.011376,0.283653,41.462497918192625
1673610973.012384,0.294759,41.47158812716584
1673610973.013391,0.299279,41.480669736130565
1673610973.0143979,0.301563,41.48974919509317
1673610973.015405,0.296947,41.48647341726276
1673610973.016412,0.29012,41.4598790505484
1673610973.0174189,0.272546,41.47444957854589
1673610973.018426,0.244226,41.50418339055794
1673610973.019433,0.222902,41.51223153314258
1673610973.0204399,0.219561,41.55754522889843
1673610973.021447,0.231365,41.54013078188319
1673610973.022454,0.231917,41.48558492560801
1673610973.0234609,0.21944,41.485891153314256
1673610973.024469,0.205761,41.49472
1673610973.025476,0.201386,41.49472
1673610973.0264828,0.198717,41.49472
1673610973.02749,0.208213,41.49472
1673610973.028497,0.236461,41.49472
1673610973.0295038,0.258025,41.510743927038625
1673610973.030511,0.273147,41.52897785322195
1673610973.031518,0.273628,41.596022176708736
1673610973.0325248,0.257016,41.5959690694415
1673610973.033532,0.250068,41.58787101772467
1673610973.034539,0.275527,41.57977296600784
1673610973.0355458,0.301082,41.571676831443405
1673610973.036553,0.294543,41.563578779726576
1673610973.037561,0.266824,41.55547305940017
1673610973.038568,0.238072,41.547375007683335
1673610973.0395749,0.217998,41.5392788731189
1673610973.040582,0.209055,41.531180821402074
1673610973.041589,0.206194,41.51333556751608
1673610973.0425959,0.201097,41.495121137339055
1673610973.043603,0.198116,41.441217141527446
1673610973.04461,0.191145,41.458399804430684
1673610973.0456169,0.19338,41.458542
1673610973.046624,0.203622,41.49504353361946
1673610973.047631,0.228768,41.548521570917764
1673610973.0486379,0.255645,41.51388411182642
1673610973.049646,0.284494,41.56715227716186
1673610973.050653,0.301563,41.56958115521064
1673610973.0516598,0.307789,41.57200945824094
1673610973.052667,0.311684,41.574438336289724
1673610973.053674,0.318752,41.576867214338506
1673610973.0546808,0.330676,41.57929551736881
1673610973.055688,0.336566,41.58172439541759
1673610973.056695,0.330916,41.58415327346637
1673610973.0577018,0.307453,41.58658157649668
1673610973.058709,0.272522,41.58901045454545
1673610973.059716,0.243625,41.591439332594234
1673610973.0607228,0.223744,41.59386763562454
1673610973.06173,0.216003,41.596296513673316
1673610973.062738,0.215305,41.59872769179601
1673610973.063745,0.218839,41.60115656984479
1673610973.0647519,0.210377,41.603584872875096
1673610973.065759,0.209415,41.60601375092387
1673610973.066766,0.213478,41.608442628972654
1673610973.0677729,0.213262,41.61087093200296
1673610973.06878,0.203526,41.613299810051736
1673610973.069787,0.204728,41.61572868810052
1673610973.0707939,0.208646,41.618156991130824
1673610973.071801,0.213911,41.6205858691796
1673610973.072808,0.226028,41.62301474722838
1673610973.0738149,0.241582,41.62544305025869
1673610973.074823,0.262088,41.62787422838138
1673610973.07583,0.280864,41.630303106430155
1673610973.0768368,0.278532,41.63273140946046
1673610973.077844,0.266271,41.635160287509244
1673610973.078851,0.256246,41.63758916555802
1673610973.0798578,0.243096,41.630760870767766
1673610973.080865,0.223359,41.61219478998808
1673610973.081872,0.202636,41.644032415593706
1673610973.0828788,0.184774,41.65280500095466
1673610973.083886,0.171191,41.6614028234661
1673610973.084893,0.173283,41.65954357366433
1673610973.0858998,0.209247,41.650971469255666
1673610973.086907,0.252232,41.68187010764263
1673610973.087915,0.280191,41.655550677396285
1673610973.088922,0.300553,41.693714
1673610973.0899289,0.321709,41.693714
1673610973.090936,0.336806,41.693714
1673610973.091943,0.347384,41.693714
1673610973.0929499,0.343105,41.693714
1673610973.093957,0.325652,41.693714
1673610973.094964,0.302573,41.693714
1673610973.0959709,0.28084,41.693714
1673610973.096978,0.25692,41.693714
1673610973.097985,0.222277,41.693714
1673610973.0989919,0.191097,41.693714
1673610973.1,0.163546,41.693714
1673610973.101007,0.142222,41.693714
1673610973.1020138,0.128952,41.693714
1673610973.103021,0.125586,41.693714
1673610973.104028,0.147655,41.693714
1673610973.1050348,0.166744,41.693714
1673610973.106042,0.178571,41.693714
1673610973.107049,0.189534,41.693714
1673610973.1080558,0.208863,41.693714
1673610973.109063,0.230331,41.693714
1673610973.11007,0.261896,41.693714
1673610973.1110768,0.283076,41.693714
1673610973.112084,0.299952,41.693714
1673610973.113092,0.305866,41.693714
1673610973.114099,0.301587,41.693714
1673610973.1151059,0.296106,41.693714
1673610973.116113,0.270238,41.693714
1673610973.11712,0.24877,41.693714
1673610973.1181269,0.248193,41.693714
1673610973.119134,0.279277,41.693714
1673610973.120141,0.279902,41.693714
1673610973.1211479,0.261704,41.693714
1673610973.122155,0.247015,41.693714
1673610973.123162,0.21593,41.693714
1673610973.1241689,0.201771,41.693714
1673610973.125177,0.209247,41.693714
1673610973.126184,0.226316,41.693714
1673610973.1271908,0.239562,41.693714
1673610973.128198,0.243553,41.693714
1673610973.129205,0.250669,41.693714
1673610973.1302118,0.260838,41.693714
1673610973.131219,0.268411,41.693714
1673610973.132226,0.275695,41.693714
1673610973.1332328,0.297837,41.693714
1673610973.13424,0.332455,41.693714
1673610973.135247,0.352745,41.70047707486886
1673610973.1362538,0.344764,41.719371686695276
1673610973.137261,0.308871,41.68288870393326
1673610973.138269,0.279974,41.715581454935624
1673610973.139276,0.273916,41.73380063805436
1673610973.1402829,0.253097,41.747982
1673610973.14129,0.235403,41.747982
1673610973.142297,0.225619,41.73940738721984
1673610973.1433039,0.216051,41.73386482188842
1673610973.144311,0.213911,41.80225
1673610973.145318,0.216892,41.80225
1673610973.1463249,0.227638,41.80225
1673610973.147332,0.249804,41.80225
1673610973.1483388,0.272979,41.80225
1673610973.1493459,0.290937,41.7859548078665
1673610973.150354,0.302693,41.817043817358126
1673610973.151361,0.307549,41.820339
1673610973.1523678,0.302549,41.85373018140643
1673610973.153375,0.308487,41.856525
1673610973.154382,0.315675,41.856525
1673610973.1553888,0.298486,41.87359730274136
1673610973.156396,0.284061,41.883996996412876
1673610973.157403,0.275407,41.89393419622431
1673610973.1584098,0.258554,41.90386904347896
1673610973.159417,0.227085,41.913806243290395
1673610973.160424,0.189342,41.92374344310183
1673610973.1614308,0.173138,41.93367829035649
1673610973.162438,0.155108,41.94361549016792
1673610973.163446,0.153521,41.95356210020645
1673610973.164453,0.167128,41.96349930001788
1673610973.1654599,0.189294,41.97343414727254
1673610973.166467,0.205232,41.983371347083974
1673610973.167474,0.227662,41.993308546895406
1673610973.1684809,0.267065,42.00324339415006
1673610973.169488,0.296394,42.01318059396149
1673610973.1704948,0.300457,42.023115441216156
1673610973.1715019,0.287355,42.03305264102759
1673610973.172509,0.261968,42.04298984083902
1673610973.1735158,0.240187,42.052924688093675
1673610973.1745229,0.22247,42.06286188790511
1673610973.175531,0.226148,42.07280849794363
1673610973.176538,0.219296,42.082745697755065
1673610973.1775448,0.21593,42.09268054500973
1673610973.178552,0.21658,42.10261774482116
1673610973.179559,0.216964,42.11255494463259
1673610973.1805658,0.213959,42.12248979188725
1673610973.181573,0.190904,42.13242699169868
1673610973.18258,0.18624,42.14236419151011
1673610973.1835868,0.192371,42.152299038764774
1673610973.184594,0.217325,42.162236238576206
1673610973.185601,0.245548,42.17217343838764
1673610973.1866078,0.257448,42.18210828564229
1673610973.187615,0.271753,42.192045485453725
1673610973.188623,0.289062,42.20199209549225
1673610973.18963,0.303486,42.21192929530368
1673610973.1906369,0.328897,42.221864142558346
1673610973.191644,0.356303,42.23180134236978
1673610973.1926508,0.362097,42.24173618962443
1673610973.1936579,0.361015,42.251673389435865
1673610973.194665,0.353082,42.2616105892473
1673610973.1956718,0.332599,42.27154543650196
1673610973.1966789,0.309809,42.28148263631339
1673610973.197686,0.282883,42.291419836124824
1673610973.1986928,0.258651,42.30135468337948
1673610973.1996999,0.242327,42.322609258464475
1673610973.200708,0.222782,42.35353238092968
1673610973.201715,0.199775,42.33663105197902
1673610973.2027218,0.183788,42.363045
1673610973.203729,0.165181,42.368194203192
1673610973.204736,0.160349,42.38640132705602
1673610973.2057428,0.171552,42.38306726037196
1673610973.20675,0.186865,42.367023391750116
1673610973.207757,0.196145,42.41732
1673610973.2087638,0.212637,42.41918565334773
1673610973.209771,0.23937,42.42507983415612
1673610973.210778,0.261247,42.43097401496451
1673610973.2117848,0.266007,42.43991077234803
1673610973.212792,0.268315,42.44423992727706
1673610973.2138,0.262425,42.41732
1673610973.2148068,0.271512,42.41732
1673610973.2158139,0.278604,42.41229527777777
1673610973.216821,0.272907,42.399231
1673610973.2178278,0.253049,42.409789678111586
1673610973.2188349,0.240836,42.42459510941597
1673610973.219842,0.249948,42.41029863400095
1673610973.2208488,0.260333,42.43541
1673610973.2218559,0.248794,42.43541
1673610973.222863,0.228071,42.43541
1673610973.2238698,0.220883,42.43541
1673610973.2248769,0.217493,42.43541
1673610973.225885,0.228071,42.43541
1673610973.226892,0.251006,42.43541
1673610973.2278988,0.285408,42.43541
1673610973.228906,0.310121,42.43541
1673610973.229913,0.309785,42.43541
1673610973.2309198,0.31029,42.43541
1673610973.231927,0.316107,42.43541
1673610973.232934,0.312573,42.43541
1673610973.2339408,0.290624,42.43541
1673610973.234948,0.261704,42.43541
1673610973.235955,0.232134,42.43541
1673610973.2369618,0.198333,42.43541
1673610973.237969,0.175158,42.43541
1673610973.238977,0.159123,42.43541
1673610973.2399838,0.158666,42.43541
1673610973.2409909,0.160613,42.43541
1673610973.241998,0.170326,42.43541
1673610973.2430048,0.201266,42.43541
1673610973.2440119,0.22747,42.43541
1673610973.245019,0.226268,42.43541
1673610973.2460258,0.233095,42.43541
1673610973.2470329,0.248481,42.43541
1673610973.24804,0.278244,42.43541
1673610973.2490468,0.302284,42.43541
1673610973.250054,0.325483,42.43541
1673610973.251062,0.334018,42.43541
1673610973.252069,0.337407,42.43541
1673610973.2530758,0.341542,42.43541
1673610973.254083,0.329137,42.44530198617072
1673610973.25509,0.309256,42.43345430870083
1673610973.2560968,0.284807,42.42746489270386
1673610973.257104,0.260814,42.41486198426323
1673610973.258111,0.241293,42.40963163599523
1673610973.2591178,0.223551,42.38574370052456
1673610973.260125,0.198621,42.37369827372437
1673610973.261132,0.186409,42.42426764329995
1673610973.2621388,0.181384,42.475305891775925
1673610973.263146,0.177081,42.48918300600556
1673610973.264154,0.179028,42.48837146471999
1673610973.2651608,0.19165,42.487560883156846
1673610973.2661679,0.205232,42.486750109649215
1673610973.267175,0.212853,42.485939336141584
1673610973.2681818,0.222686,42.48512875457845
1673610973.2691889,0.22408,42.48431798107082
1673610973.270196,0.221796,42.483507207563186
1673610973.2712028,0.238697,42.48269662600004
1673610973.27221,0.26043,42.48188585249241
1673610973.273217,0.270863,42.48107507898479
1673610973.2742238,0.28185,42.48026449742164
1673610973.275231,0.29137,42.47945372391401
1673610973.276239,0.28911,42.47864218262844
1673610973.277246,0.284566,42.47783140912081
1673610973.2782528,0.260021,42.477020827557666
1673610973.27926,0.234538,42.47621005405004
1673610973.280267,0.216532,42.47539928054241
1673610973.2812738,0.207757,42.47458869897927
1673610973.282281,0.195328,42.47377792547164
1673610973.283288,0.204343,42.472967151964006
1673610973.2842948,0.229057,42.47215657040086
1673610973.285302,0.24776,42.466231484740106
1673610973.286309,0.284783,42.453495
1673610973.2873158,0.304279,42.43667898092968
1673610973.288323,0.302861,42.42215830972818
1673610973.289331,0.298486,42.45982788125894
1673610973.2903378,0.296322,42.429407311084624
1673610973.291345,0.288172,42.411191132808774
1673610973.292352,0.275118,42.40548925917978
1673610973.2933588,0.26543,42.436464390941595
1673610973.294366,0.268748,42.472084629164335
1673610973.295373,0.262737,42.47348599270983
1673610973.2963798,0.257857,42.47488702449313
1673610973.297387,0.260574,42.476288388038625
1673610973.298394,0.274878,42.47768975158412
1673610973.2994008,0.279133,42.47909078336741
1673610973.300408,0.251318,42.48049214691291
1673610973.301416,0.230499,42.48189483750722
1673610973.302423,0.217325,42.48329620105272
1673610973.3034298,0.205882,42.48469723283601
1673610973.304437,0.196121,42.48609859638151
1673610973.305444,0.18951,42.48749995992701
1673610973.3064508,0.188043,42.4889009917103
1673610973.307458,0.178547,42.4903023552558
1673610973.308465,0.174533,42.49170371880129
1673610973.3094718,0.191577,42.493104750584585
1673610973.310479,0.217493,42.49450611413008
1673610973.311486,0.242952,42.49590747767558
1673610973.3124928,0.270478,42.497308509458875
1673610973.3135,0.301803,42.49870987300437
1673610973.314508,0.320843,42.500112563598684
1673610973.3155148,0.319882,42.50151359538197
1673610973.316522,0.315603,42.50291495892747
1673610973.317529,0.305073,42.50431632247297
1673610973.3185358,0.288148,42.50571735425626
1673610973.319543,0.278845,42.50711871780176
1673610973.32055,0.265742,42.49792292896305
1673610973.3215568,0.249275,42.51956795565093
1673610973.322564,0.237182,42.564134708154505
1673610973.323571,0.225859,42.517356646498456
1673610973.3245778,0.220907,42.53558446755922
1673610973.325585,0.22848,42.49131291915551
1673610973.326593,0.247231,42.5058198130793
1673610973.3276,0.258362,42.53265414401526
1673610973.3286068,0.256848,42.507687957081544
1673610973.329614,0.261968,42.4750001049224
1673610973.330621,0.273435,42.48065878225269
1673610973.3316278,0.290144,42.48631611993399
1673610973.332635,0.301948,42.49197479726428
1673610973.333642,0.301274,42.49763347459456
1673610973.3346488,0.284975,42.50329081227586
1673610973.335656,0.272522,42.508949489606145
1673610973.336663,0.262064,42.51460816693643
1673610973.3376698,0.245981,42.520265504617726
1673610973.338677,0.239899,42.525924181948014
1673610973.339685,0.230932,42.53158821787426
1673610973.3406918,0.202083,42.53724555555556
1673610973.341699,0.175927,42.542904232885846
1673610973.342706,0.155589,42.54856291021613
1673610973.3437128,0.12323,42.554220247897426
1673610973.34472,0.097988,42.559878925227714
1673610973.345727,0.108133,42.565537602558
1673610973.3467338,0.147319,42.571194940239295
1673610973.347741,0.187418,42.57685361756958
1673610973.348748,0.222902,42.58251229489987
1673610973.3497548,0.262641,42.58816963258117
1673610973.350762,0.302452,42.59382830991146
1673610973.35177,0.315074,42.599492345837696
1673610973.352777,0.320363,42.605151023167984
1673610973.3537838,0.317862,42.61080836084928
1673610973.354791,0.320747,42.61646703817957
1673610973.355798,0.315627,42.62212571550986
1673610973.3568048,0.305289,42.62778305319115
1673610973.357812,0.295625,42.63344173052144
1673610973.358819,0.284013,42.63910040785173
1673610973.3598258,0.272522,42.64475774553303
1673610973.360833,0.261439,42.65041642286331
1673610973.36184,0.250308,42.6560751001936
1673610973.3628469,0.241293,42.661732437874896
1673610973.363854,0.234562,42.667391115205184
1673610973.364862,0.219176,42.67305515113143
1673610973.3658688,0.208935,42.67871248881272
1673610973.366876,0.198669,42.68437116614301
1673610973.367883,0.184317,42.6900298434733
1673610973.3688898,0.172802,42.6956871811546
1673610973.369897,0.160108,42.70134585848488
1673610973.370904,0.175687,42.707004535815166
1673610973.3719108,0.201194,42.712661873496465
1673610973.372918,0.230451,42.71832055082675
1673610973.373925,0.260381,42.723979228157035
1673610973.3749318,0.270118,42.6786284114422
1673610973.375939,0.25728,42.655039464473056
1673610973.376947,0.242976,42.715222038626614
1673610973.377954,0.238024,42.693225723891274
1673610973.3789608,0.23723,42.72053784266985
1673610973.379968,0.255213,42.70878725321889
1673610973.380975,0.267185,42.69056874916547
1673610973.3819818,0.262064,42.70498344028606
1673610973.382989,0.245669,42.73964372627563
1673610973.383996,0.243938,42.736257606133435
1673610973.3850029,0.246799,42.72891363781004
1673610973.38601,0.256006,42.72156793044607
1673610973.387017,0.272907,42.7142222230821
1673610973.3880239,0.293197,42.706878254758706
1673610973.389031,0.303222,42.70676
1673610973.390039,0.311948,42.710374230884774
1673610973.3910458,0.318055,42.71401692707246
1673610973.392053,0.318319,42.71766048584508
1673610973.39306,0.310049,42.721304044617696
1673610973.3940668,0.291826,42.72494674080538
1673610973.395074,0.275479,42.728590299578
1673610973.396081,0.255525,42.73223385835062
1673610973.3970878,0.249539,42.7358765545383
1673610973.398095,0.232927,42.739520113310924
1673610973.399102,0.212974,42.74316367208355
1673610973.4001088,0.199174,42.74680636827123
1673610973.401116,0.198886,42.750449927043846
1673610973.402124,0.202203,42.754096936156216
1673610973.403131,0.206699,42.75774049492883
1673610973.4041378,0.213142,42.761383191116515
1673610973.405145,0.199631,42.76502674988914
1673610973.406152,0.191818,42.768670308661754
1673610973.4071589,0.193933,42.77231300484944
1673610973.408166,0.206843,42.77595656362206
1673610973.409173,0.20266,42.779600122394676
1673610973.4101799,0.194582,42.78324281858236
1673610973.411187,0.203718,42.78688637735498
1673610973.412194,0.237495,42.790529936127605
1673610973.4132009,0.255357,42.79417263231529
1673610973.414208,0.264637,42.797816191087904
1673610973.415216,0.270382,42.801463200200274
1673610973.4162228,0.268147,42.80510589638796
1673610973.41723,0.269613,42.80874945516057
1673610973.418237,0.273387,42.812393013933196
1673610973.4192438,0.278604,42.81603571012088
1673610973.420251,0.268074,42.819679268893495
1673610973.421258,0.240019,42.82332282766612
1673610973.4222648,0.21706,42.8269655238538
1673610973.423272,0.212661,42.830609082626424
1673610973.424279,0.222782,42.83425264139904
1673610973.4252858,0.24776,42.83789533758672
1673610973.426293,0.260886,42.841538896359346
1673610973.427301,0.256126,42.84518590547171
1673610973.428308,0.249707,42.84882946424433
1673610973.4293149,0.242231,42.852472160432015
1673610973.430322,0.237423,42.85611571920463
1673610973.431329,0.253241,42.859759277977254
1673610973.4323359,0.296587,42.86340197416494
1673610973.433343,0.31868,42.86704553293755
1673610973.43435,0.320266,42.870689091710176
1673610973.4353569,0.307261,42.87433178789786
1673610973.436364,0.307116,42.87797534667048
1673610973.437371,0.303294,42.8816189054431
1673610973.4383779,0.284398,42.88526160163078
1673610973.439386,0.259756,42.887657
1673610973.440393,0.237663,42.919576866475914
1673610973.4413998,0.206843,42.95858287052933
1673610973.442407,0.195688,42.97030396566524
1673610973.443414,0.193549,43.03017123647199
1673610973.4444208,0.192587,43.00308896685742
1673610973.445428,0.180783,43.021307358845974
1673610973.446435,0.168787,43.032379
1673610973.4474418,0.170927,43.03964651669051
1673610973.448449,0.180158,43.049603739378746
1673610973.449456,0.193837,43.04747508814599
1673610973.4504628,0.21581,43.045346940855275
1673610973.45147,0.245356,43.043218289622516
1673610973.452478,0.258554,43.04108762262154
1673610973.453485,0.262064,43.03895897138877
1673610973.4544919,0.265622,43.03683082409807
1673610973.455499,0.265334,43.0347021728653
1673610973.456506,0.264372,43.03257352163254
1673610973.4575129,0.271007,43.03044537434183
1673610973.45852,0.27608,43.02831672310907
1673610973.459527,0.272907,43.026188071876305
1673610973.4605339,0.28334,43.0240599245856
1673610973.461541,0.30113,43.021931273352834
1673610973.462548,0.303823,43.019802622120075
1673610973.4635549,0.268435,43.01767447482936
1673610973.464563,0.24675,43.015543807828394
1673610973.46557,0.251775,43.0442436576061
1673610973.4665768,0.259949,43.05620096447306
1673610973.467584,0.269853,43.029770216924916
1673610973.468591,0.28108,43.05832797141496
1673610973.4695978,0.286489,43.060575085918856
1673610973.470605,0.288918,43.06671504840248
1673610973.471612,0.285696,43.07016875779948
1673610973.4726188,0.27733,43.075559315513125
1673610973.473626,0.273676,43.08773813304721
1673610973.474633,0.264228,43.073160792974654
1673610973.4756398,0.245957,43.082874733370424
1673610973.476647,0.237254,43.09259097401256
1673610973.477655,0.211531,43.10231641564015
1673610973.478662,0.195977,43.11203265628229
1673610973.4796689,0.197419,43.12174659667806
1673610973.480676,0.198838,43.1314628373202
1673610973.481683,0.194799,43.141179077962335
1673610973.4826899,0.198886,43.150893018358104
1673610973.483697,0.21218,43.16060925900024
1673610973.484704,0.226268,43.170325499642374
1673610973.4857109,0.24062,43.18003944003815
1673610973.486718,0.251078,43.189755680680285
1673610973.487725,0.270358,43.19947192132242
1673610973.4887319,0.298414,43.2091858617182
1673610973.48974,0.315074,43.218911303345784
1673610973.490747,0.31065,43.228627543987926
1673610973.4917538,0.30315,43.238341484383696
1673610973.492761,0.294158,43.24805772502583
1673610973.493768,0.278869,43.257773965667965
1673610973.4947748,0.272594,43.26748790606374
1673610973.495782,0.26091,43.27720414670588
1673610973.496789,0.237062,43.28692038734801
1673610973.4977958,0.234658,43.29663432774378
1673610973.498803,0.232879,43.306350568385916
1673610973.49981,0.228287,43.31606680902806
1673610973.5008168,0.2098,43.32578074942383
1673610973.501824,0.20468,43.33549699006596
1673610973.502832,0.216988,43.34522243169356
1673610973.503839,0.221989,43.35493867233569
1673610973.5048459,0.221748,43.357998
1673610973.505853,0.235884,43.3706054326969
1673610973.50686,0.275431,43.350616397711015
1673610973.5078669,0.306611,43.39134867771156
1673610973.508874,0.311227,43.42526036051502
1673610973.509881,0.319762,43.430363
1673610973.5108879,0.331758,43.39064839690107
1673610973.511895,0.350437,43.38946119241774
1673610973.512902,0.344187,43.394184
1673610973.5139089,0.313295,43.39181645295413
1673610973.514917,0.29762,43.38864672879012
1673610973.515924,0.279253,43.38548000341907
1673610973.5169308,0.245645,43.38231402774627
1673610973.517938,0.209079,43.379147302375216
1673610973.518945,0.181048,43.37598057700417
1673610973.5199518,0.179966,43.37281460133136
1673610973.520959,0.18814,43.36964787596032
1673610973.521966,0.205713,43.36648115058927
1673610973.5229728,0.222013,43.363315174916465
1673610973.52398,0.241005,43.36014844954542
1673610973.524987,0.266945,43.356981724174375
1673610973.5259938,0.280263,43.35381574850157
1673610973.527001,0.281537,43.35064902313052
1673610973.528009,0.272762,43.34747929896651
1673610973.529016,0.276921,43.34431257359547
1673610973.5300229,0.274157,43.34114659792266
1673610973.53103,0.271079,43.337979872551614
1673610973.532037,0.27132,43.33481314718056
1673610973.5330439,0.268748,43.33164717150776
1673610973.534051,0.271392,43.32848044613671
1673610973.535058,0.262978,43.325313720765664
1673610973.5360649,0.252039,43.322147745092856
1673610973.537072,0.238096,43.31898101972181
1673610973.538079,0.233504,43.315814294350766
1673610973.5390859,0.23711,43.31264831867796
1673610973.540094,0.240885,43.30947859451395
1673610973.541101,0.253698,43.3063118691429
1673610973.5421078,0.261992,43.303145893470095
1673610973.543115,0.256343,43.29997916809905
1673610973.544122,0.248626,43.296812442728005
1673610973.5451288,0.248674,43.2936464670552
1673610973.546136,0.268363,43.29047974168415
1673610973.547143,0.287932,43.28731301631311
1673610973.5481498,0.283052,43.2841470406403
1673610973.549157,0.278748,43.280980315269254
1673610973.550164,0.285239,43.2778135898982
1673610973.5511708,0.286586,43.2746476142254
1673610973.552178,0.271055,43.27148088885435
1673610973.553186,0.243962,43.26831116469034
1673610973.554193,0.222878,43.26514443931929
1673610973.5551999,0.211026,43.261978463646486
1673610973.556207,0.185447,43.25881173827544
1673610973.557214,0.163979,43.255645012904395
1673610973.5582209,0.173379,43.25247903723159
1673610973.559228,0.190015,43.250350178588455
1673610973.560235,0.226052,43.26958219718646
1673610973.5612419,0.266993,43.301457180929674
1673610973.562249,0.286177,43.26502754315689
1673610973.563256,0.293413,43.23277012041011
1673610973.5642629,0.299087,43.254019596185934
1673610973.565271,0.306443,43.305394163328565
1673610973.566278,0.31755,43.32360902145923
1673610973.5672848,0.335965,43.336079314735336
1673610973.568292,0.346591,43.30476136603291
1673610973.569299,0.34849,43.31391662789583
1673610973.5703058,0.341422,43.32306972231986
1673610973.571313,0.315146,43.33222498418278
1673610973.57232,0.28709,43.341380246045695
1673610973.5733268,0.283436,43.350533340469724
1673610973.574334,0.281802,43.357998
1673610973.575341,0.276705,43.34754074035255
1673610973.5763478,0.256872,43.31453499665871
1673610973.577355,0.234081,43.35051030996662
1673610973.578363,0.218623,43.325704968087635
1673610973.57937,0.205112,43.34791482863962
1673610973.5803769,0.193957,43.36781208154506
1673610973.581384,0.18612,43.35271764123957
1673610973.582391,0.190087,43.38978898545542
1673610973.5833979,0.209536,43.37774869312538
1673610973.584405,0.227686,43.3844139600735
1673610973.585412,0.233456,43.39107922702162
1673610973.5864189,0.238216,43.39774291601828
1673610973.587426,0.26293,43.4044081829664
1673610973.588433,0.322598,43.41107344991452
1673610973.5894399,0.341278,43.41773713891118
1673610973.590448,0.344331,43.424408717665116
1673610973.591455,0.341903,43.431073984613235
1673610973.5924618,0.34034,43.4377376736099
1673610973.593469,0.320194,43.444402940558014
1673610973.594476,0.294014,43.45106820750613
1673610973.5954828,0.280407,43.4577318965028
1673610973.59649,0.274277,43.46439716345091
1673610973.597497,0.269829,43.47106243039903
1673610973.5985038,0.253386,43.4777261193957
1673610973.599511,0.229441,43.48439138634381
1673610973.600518,0.204006,43.49105665329193
1673610973.6015248,0.184582,43.497720342288595
1673610973.602532,0.171864,43.504385609236714
1673610973.60354,0.15292,43.51105718799065
1673610973.604547,0.144049,43.51772245493877
1673610973.6055539,0.154964,43.52438614393543
1673610973.606561,0.179269,43.53105141088355
1673610973.607568,0.211531,43.53771667783167
1673610973.6085749,0.254275,43.54438036682833
1673610973.609582,0.293702,43.55104563377645
1673610973.610589,0.320315,43.557710900724565
1673610973.6115959,0.327791,43.564374589721226
1673610973.612603,0.329979,43.571039856669344
1673610973.61361,0.322743,43.57770512361746
1673610973.6146169,0.313992,43.58436881261412
1673610973.615625,0.301371,43.59104039136806
1673610973.616632,0.284542,43.59770565831618
1673610973.6176388,0.269421,43.60436934731284
1673610973.618646,0.25728,43.61103461426096
1673610973.619653,0.258651,43.61769988120908
1673610973.6206598,0.257521,43.62436357020574
1673610973.621667,0.251823,43.631028837153856
1673610973.622674,0.251366,43.637694104101975
1673610973.6236808,0.252857,43.644357793098635
1673610973.624688,0.250044,43.62792975970469
1673610973.625695,0.253362,43.60137664916468
1673610973.6267018,0.260069,43.651835262423226
1673610973.627709,0.268387,43.61920621334923
1673610973.628717,0.279999,43.63184950357654
1673610973.629724,0.291826,43.62660365522175
1673610973.6307309,0.298125,43.590177133492254
1673610973.631738,0.303246,43.58574535874226
1673610973.632745,0.300601,43.62555765155131
1673610973.6337519,0.287451,43.6484232245551
1673610973.634759,0.264901,43.650047829577105
1673610973.635766,0.248986,43.651672434599114
1673610973.6367729,0.246895,43.65329665500819
1673610973.63778,0.244971,43.65492126003019
1673610973.638787,0.237062,43.6565458650522
1673610973.6397939,0.233937,43.65817008546127
1673610973.640802,0.236533,43.65979622893501
1673610973.641809,0.243337,43.66142083395701
1673610973.6428158,0.254564,43.66304505436609
1673610973.643823,0.270118,43.66466965938809
1673610973.64483,0.285215,43.6662942644101
1673610973.6458368,0.301635,43.66791848481917
1673610973.646844,0.323127,43.66954308984118
1673610973.647851,0.333344,43.671167694863186
1673610973.6488578,0.316252,43.672791915272256
1673610973.649865,0.288749,43.674416520294265
1673610973.650872,0.280936,43.67604112531627
1673610973.6518788,0.281729,43.677665345725345
1673610973.652886,0.280455,43.679289950747346
1673610973.653894,0.278075,43.68091609422108
1673610973.654901,0.277931,43.682540699243084
1673610973.6559079,0.2831,43.68416491965216
1673610973.656915,0.279638,43.68578952467417
1673610973.657922,0.269349,43.68741412969617
1673610973.6589289,0.237423,43.68903835010525
1673610973.659936,0.222758,43.69066295512725
1673610973.660943,0.221508,43.69228756014926
1673610973.6619499,0.206242,43.69391178055833
1673610973.662957,0.180471,43.69553638558034
1673610973.6639638,0.175855,43.69716060598942
1673610973.6649709,0.195304,43.69878521101142
1673610973.665979,0.231316,43.700411354485155
1673610973.666986,0.259059,43.70203595950716
1673610973.6679928,0.2693,43.703660179916234
1673610973.669,0.271392,43.705284784938236
1673610973.670007,0.275743,43.706909389960245
1673610973.6710138,0.291129,43.708533610369315
1673610973.672021,0.306804,43.710158215391324
1673610973.673028,0.308342,43.71178282041333
1673610973.6740348,0.306058,43.7134070408224
1673610973.675042,0.305121,43.71503164584441
1673610973.676049,0.29524,43.716656250866414
1673610973.6770558,0.270551,43.71828047127549
1673610973.678063,0.24288,43.72420681402003
1673610973.679071,0.235836,43.78967722079161
1673610973.680078,0.22259,43.755981
1673610973.6810849,0.21081,43.754480742550655
1673610973.682092,0.218623,43.74114778230806
1673610973.683099,0.222734,43.77231548497854
1673610973.6841059,0.224801,43.752221318474376
1673610973.685113,0.230836,43.721812575822604
1673610973.6861198,0.240211,43.735765345255125
1673610973.6871269,0.255117,43.71937522021302
1673610973.688134,0.279566,43.71589461368588
1673610973.6891408,0.287115,43.71241483116597
1673610973.6901479,0.281657,43.70893422463884
1673610973.691156,0.294591,43.7054503220828
1673610973.692163,0.308583,43.70196971555566
1673610973.6931698,0.311492,43.69848993303575
1673610973.694177,0.306732,43.69500932650862
1673610973.695184,0.289783,43.69152871998148
1673610973.6961908,0.261295,43.68804893746157
1673610973.697198,0.246702,43.68456833093443
1673610973.698205,0.235019,43.6810877244073
1673610973.6992118,0.223744,43.67760794188739
1673610973.700219,0.212324,43.674127335360254
1673610973.701226,0.212781,43.67064672883312
1673610973.7022328,0.22848,43.66716694631321
1673610973.70324,0.241702,43.663686339786075
1673610973.704248,0.242519,43.66020243723003
1673610973.705255,0.235644,43.65672183070289
1673610973.7062619,0.23937,43.65324204818299
1673610973.707269,0.261608,43.64976144165585
1673610973.7082758,0.278821,43.646281659135944
1673610973.7092829,0.285744,43.6428010526088
1673610973.71029,0.303727,43.63932044608167
1673610973.7112968,0.325051,43.63584066356176
1673610973.7123039,0.342095,43.632360057034624
1673610973.713311,0.345605,43.62887945050749
1673610973.7143178,0.341879,43.62539966798758
1673610973.7153249,0.330388,43.621919061460446
1673610973.716333,0.302693,43.618435158904404
1673610973.71734,0.2712,43.61495455237726
1673610973.7183468,0.236629,43.61147476985736
1673610973.719354,0.200328,43.577043132093465
1673610973.720361,0.1622,43.626803930853605
1673610973.7213678,0.113205,43.59462323032904
1673610973.722375,0.084188,43.62815422026222
1673610973.723382,0.096016,43.646978693848354
1673610973.7243888,0.135395,43.6296981788269
1673610973.725396,0.174917,43.629353
1673610973.726403,0.208358,43.6653578111588
1673610973.7274098,0.255165,43.68363490048478
1673610973.728417,0.318343,43.68727835644918
1673610973.729425,0.366112,43.690925262655966
1673610973.7304318,0.387147,43.69456785605976
1673610973.7314389,0.386498,43.698211312024156
1673610973.732446,0.369862,43.70185476798856
1673610973.7334528,0.353947,43.705497361392354
1673610973.7344599,0.34341699999999997,43.70914081735675
1673610973.735467,0.324642,43.71278427332115
1673610973.7364738,0.295721,43.716426866724944
1673610973.7374809,0.26317,43.720070322689345
1673610973.738488,0.247592,43.72371377865374
1673610973.7394948,0.24526,43.727356372057535
1673610973.7405019,0.251126,43.730999828021936
1673610973.74151,0.246342,43.73464673422872
1673610973.742517,0.228432,43.735924928707675
1673610973.7435238,0.20367,43.721903150214594
1673610973.744531,0.175807,43.737896
1673610973.745538,0.17624,43.74024610133524
1673610973.7465448,0.201698,43.75845683690987
1673610973.747552,0.240933,43.76625801883194
1673610973.748559,0.274758,43.71707667811159
1673610973.7495658,0.306203,43.71028227610873
1673610973.750573,0.328248,43.750013799046485
1673610973.75158,0.336734,43.72117643747113
1673610973.7525868,0.333681,43.729197428373446
1673610973.753594,0.308463,43.73722031863425
1673610973.754602,0.291971,43.74525080632901
1673610973.7556088,0.292932,43.75327179723133
1673610973.7566159,0.297212,43.761294687492125
1673610973.757623,0.286249,43.76931757775293
1673610973.7586298,0.271079,43.777338568655246
1673610973.7596369,0.241774,43.78536145891605
1673610973.760644,0.223335,43.793384349176854
1673610973.7616508,0.230283,43.801405340079164
1673610973.7626579,0.23812,43.80942823033997
1673610973.763665,0.25139,43.81745112060077
1673610973.7646718,0.256896,43.82547211150309
1673610973.765679,0.265021,43.83349500176389
1673610973.766687,0.264949,43.841525489458654
1673610973.767694,0.251318,43.84954837971946
1673610973.7687008,0.23586,43.857569370621775
1673610973.769708,0.2405,43.86559226088258
1673610973.770715,0.2455,43.87361515114338
1673610973.7717218,0.242399,43.88163614204569
1673610973.772729,0.233889,43.8896590323065
1673610973.773736,0.237495,43.8976819225673
1673610973.7747428,0.244635,43.90570291346962
1673610973.77575,0.247159,43.91372580373042
1673610973.776757,0.242615,43.921748693991226
1673610973.7777638,0.242351,43.929769684893536
1673610973.778771,0.239514,43.93779257515434
1673610973.779779,0.229249,43.9458230628491
1673610973.7807858,0.22295,43.95384405375142
1673610973.7817929,0.212469,43.96186694401222
1673610973.7828,0.189173,43.969889834273026
1673610973.7838068,0.169701,43.97791082517534
1673610973.7848139,0.168018,43.98593371543615
1673610973.785821,0.179822,43.993956605696944
1673610973.7868278,0.170734,44.00197759659926
1673610973.787835,0.163811,44.010000486860065
1673610973.788842,0.192635,44.01802337712087
1673610973.7898488,0.247712,44.026044368023186
1673610973.790856,0.307741,44.03406725828399
1673610973.791864,0.346471,44.04209774597875
1673610973.792871,0.389383,44.050120636239555
1673610973.7938778,0.431959,44.058141627141865
1673610973.794885,0.449773,44.06616451740267
1673610973.795892,0.440854,44.07418740766347
1673610973.7968988,0.398615,44.082964690164324
1673610973.797906,0.345894,44.099701
1673610973.798913,0.303654,44.099701
1673610973.7999198,0.255573,44.1031688011445
1673610973.800927,0.225835,44.1340188711598
1673610973.801934,0.232975,44.11779
1673610973.8029408,0.258602,44.119903519313304
1673610973.803948,0.274421,44.1426
1673610973.804956,0.282859,44.1877765193133
1673610973.8059628,0.294591,44.172667633697955
1673610973.80697,0.29387,44.177122811449124
1673610973.807977,0.287667,44.18157798920029
1673610973.8089838,0.276368,44.18603211222188
1673610973.809991,0.279686,44.19048728997304
1673610973.810998,0.283557,44.19494246772421
1673610973.8120048,0.290192,44.1993965907458
1673610973.813012,0.296178,44.20385176849697
1673610973.814019,0.300217,44.208306946248136
1673610973.8150258,0.295721,44.21276106926972
1673610973.816033,0.287812,44.217216247020886
1673610973.817041,0.277042,44.221675643690375
1673610973.818048,0.251943,44.226130821441544
1673610973.8190548,0.237254,44.23058494446313
1673610973.820062,0.230235,44.2350401222143
1673610973.821069,0.226003,44.23949529996546
1673610973.8220758,0.223071,44.24394942298705
1673610973.823083,0.219296,44.24840460073822
1673610973.82409,0.208863,44.25285977848939
1673610973.8250968,0.201698,44.25731390151097
1673610973.826104,0.207997,44.26176907926214
1673610973.827111,0.214416,44.266224257013306
1673610973.8281178,0.225162,44.270678380034894
1673610973.829125,0.236341,44.275133557786056
1673610973.830133,0.252448,44.27959295445555
1673610973.8311398,0.250477,44.28404707747714
1673610973.832147,0.240572,44.2885022552283
1673610973.833154,0.230547,44.29295743297947
1673610973.8341608,0.221051,44.29741155600106
1673610973.835168,0.207853,44.30186673375223
1673610973.836175,0.197467,44.30632191150339
1673610973.8371818,0.206963,44.31077603452498
1673610973.838189,0.212925,44.315231212276146
1673610973.839196,0.223455,44.319686390027314
1673610973.8402028,0.247159,44.324140513048896
1673610973.84121,0.279734,44.328595690800064
1673610973.842218,0.303895,44.33305508746956
1673610973.843225,0.32606,44.33751026522072
1673610973.8442318,0.333994,44.34196438824231
1673610973.845239,0.337696,44.34641956599348
1673610973.846246,0.339643,44.35087474374465
1673610973.8472528,0.339859,44.35532886676623
1673610973.84826,0.330724,44.3597840445174
1673610973.849267,0.315747,44.364239222268566
1673610973.8502738,0.317309,44.368693345290154
1673610973.851281,0.328056,44.373148523041316
1673610973.852288,0.326469,44.377603700792484
1673610973.8532948,0.314425,44.38205782381407
1673610973.854302,0.311227,44.38651300156524
1673610973.85531,0.307501,44.39097239823473
1673610973.8563168,0.279109,44.39542652125632
1673610973.857324,0.23949,44.39988169900749
1673610973.858331,0.216532,44.40433687675865
1673610973.8593378,0.211844,44.400848183551844
1673610973.860345,0.199439,44.38263258297568
1673610973.861352,0.169196,44.37768980901288
1673610973.8623588,0.14792,44.37561485026228
1673610973.863366,0.141092,44.352962
1673610973.864373,0.155108,44.366997105627085
1673610973.8653798,0.191529,44.374855729613735
1673610973.866387,0.243433,44.352962
1673610973.867395,0.266488,44.352962
1673610973.868402,0.280648,44.3554764568068
1673610973.8694088,0.308535,44.361547669554156
1673610973.870416,0.324594,44.36762031995549
1673610973.871423,0.326277,44.394821746304245
1673610973.8724298,0.335051,44.44141636337625
1673610973.873437,0.361568,44.461498
1673610973.874444,0.370247,44.444199775956285
1673610973.8754508,0.368804,44.435700878569655
1673610973.876458,0.35926,44.45205645691582
1673610973.877465,0.333513,44.416275
1673610973.8784719,0.292764,44.479334903402034
1673610973.879479,0.268315,44.407010579976166
1673610973.880487,0.246318,44.42848061212844
1673610973.8814938,0.219176,44.43482135560512
1673610973.882501,0.207612,44.44116360056025
1673610973.883508,0.211964,44.44750584551538
1673610973.8845148,0.212228,44.453846588992064
1673610973.885522,0.206483,44.46018883394719
1673610973.886529,0.204535,44.46653107890232
1673610973.8875358,0.220162,44.472871822379
1673610973.888543,0.247039,44.47921406733413
1673610973.88955,0.26555,44.485556312289255
1673610973.8905568,0.265839,44.49189705576594
1673610973.891564,0.25615,44.49823930072107
1673610973.892572,0.227999,44.50458755158998
1673610973.893579,0.210209,44.510929796545106
1673610973.8945858,0.198261,44.517270540021784
1673610973.895593,0.204103,44.52361278497691
1673610973.8966,0.207468,44.52995502993204
1673610973.8976068,0.19802,44.536295773408725
1673610973.898614,0.192299,44.54263801836385
1673610973.899621,0.187851,44.54898026331898
1673610973.9006279,0.21932,44.555321006795666
1673610973.901635,0.264853,44.56166325175079
1673610973.902642,0.315915,44.568005496705915
1673610973.9036489,0.344427,44.5743462401826
1673610973.904656,0.35349,44.58068848513773
1673610973.905664,0.358779,44.58703673600664
1673610973.9066708,0.344932,44.59337747948332
1673610973.907678,0.328705,44.59971972443845
1673610973.908685,0.319377,44.60606196939358
1673610973.9096918,0.316131,44.61240271287026
1673610973.910699,0.310915,44.618744957825385
1673610973.911706,0.315627,44.62508720278051
1673610973.9127128,0.323272,44.6314279462572
1673610973.91372,0.31791,44.637770191212326
1673610973.914727,0.303077,44.644112436167454
1673610973.9157338,0.284975,44.65045317964413
1673610973.916741,0.266344,44.65679542459926
1673610973.917749,0.246414,44.66314367546817
1673610973.918756,0.245861,44.6694859204233
1673610973.9197628,0.227614,44.67582666389998
1673610973.92077,0.208165,44.68216890885511
1673610973.921777,0.190856,44.68851115381024
1673610973.9227839,0.181528,44.694851897286924
1673610973.923791,0.189414,44.701194142242045
1673610973.924798,0.189053,44.70753638719717
1673610973.9258049,0.209391,44.71387713067386
1673610973.926812,0.250645,44.761813862660944
1673610973.927819,0.280263,44.73740460515022
1673610973.9288259,0.29887,44.79658885101311
1673610973.929833,0.326565,44.789152141154034
1673610973.930841,0.352769,44.803333503099665
1673610973.9318478,0.361183,44.805214
1673610973.932855,0.345798,44.7887553390558
1673610973.933862,0.34034,44.787125
1673610973.9348688,0.327863,44.803834147794994
1673610973.935876,0.308799,44.810772678676315
1673610973.936883,0.29851,44.81678698675233
1673610973.9378898,0.278917,44.822799870986465
1673610973.938897,0.250717,44.828814179062476
1673610973.939904,0.228359,44.834828487138495
1673610973.9409108,0.210377,44.84084137137263
1673610973.941918,0.202876,44.846855679448645
1673610973.942926,0.207877,44.852875682892154
1673610973.943933,0.212348,44.858889990968166
1673610973.9449399,0.207492,44.864902875202304
1673610973.945947,0.20266,44.870917183278316
1673610973.946954,0.194174,44.876931491354334
1673610973.9479609,0.195256,44.88294437558847
1673610973.948968,0.196217,44.888958683664484
1673610973.949975,0.187274,44.894972991740495
1673610973.9509819,0.172585,44.900985875974634
1673610973.951989,0.18612,44.907000184050645
1673610973.952996,0.206194,44.91301449212666
1673610973.9540029,0.228191,44.9190273763608
1673610973.955011,0.261896,44.92504737980431
1673610973.956018,0.293341,44.93106168788032
1673610973.9570248,0.30916,44.93707457211446
1673610973.958032,0.313223,44.94308888019047
1673610973.959039,0.297957,44.949103188266484
1673610973.9600458,0.271128,44.95511607250062
1673610973.961053,0.246101,44.96113038057664
1673610973.96206,0.24437,44.96714468865265
1673610973.9630668,0.237904,44.97315757288679
1673610973.964074,0.232759,44.9791718809628
1673610973.965081,0.229754,44.985186189038814
1673610973.9660878,0.239923,44.99119907327296
1673610973.967095,0.280624,44.99721338134897
1673610973.968103,0.325387,45.00323338479248
1673610973.96911,0.350221,45.00924769286849
1673610973.9701169,0.353563,45.01526057710263
1673610973.971124,0.355077,45.02127488517864
1673610973.972131,0.357337,45.02728919325465
1673610973.9731379,0.356015,45.0333020774888
1673610973.974145,0.334667,45.03931638556481
1673610973.975152,0.300746,45.04533069364082
1673610973.9761589,0.272834,45.05134357787496
1673610973.977166,0.249515,45.05735788595097
1673610973.978173,0.22045,45.06337219402699
1673610973.9791799,0.210089,45.06938507826113
1673610973.980188,0.20629,45.07540508170463
1673610973.981195,0.200905,45.08141938978065
1673610973.9822018,0.203766,45.08743227401479
1673610973.983209,0.201723,45.0934465820908
1673610973.984216,0.207805,45.109214911778736
1673610973.9852228,0.215546,45.039308987124464
1673610973.98623,0.229249,45.06673592252682
1673610973.987237,0.232567,45.04667816547449
1673610973.9882438,0.231966,45.025315958035286
1673610973.989251,0.244226,45.05268233921335
1673610973.990258,0.270983,45.0737998583691
1673610973.9912648,0.290408,45.13834679995231
1673610973.992272,0.305313,45.07105131020505
1673610973.99328,0.324978,45.08991115137068
1673610973.994287,0.336686,45.15214443233984
1673610973.9952939,0.333585,45.115785887975335
1673610973.996301,0.339956,45.100378211643836
1673610973.997308,0.333705,45.17579084978541
1673610973.9983149,0.308943,45.16874993443014
1673610973.999322,0.285888,45.167011
1673610974.000329,0.272594,45.1338003896042
1673610974.0013359,0.259612,45.13385401256028
1673610974.002343,0.252953,45.13714371533279
1673610974.00335,0.246173,45.1404334181053
1673610974.0043569,0.238264,45.143722342065615
1673610974.005365,0.237976,45.147015160086966
1673610974.006372,0.242615,45.15030486285948
1673610974.0073788,0.238192,45.15359378681979
1673610974.008386,0.245332,45.1568834895923
1673610974.009393,0.258386,45.16017319236482
1673610974.0103998,0.266536,45.16346211632513
1673610974.011407,0.275239,45.16675181909764
1673610974.012414,0.281177,45.17004152187016
1673610974.0134208,0.255333,45.173330445830466
1673610974.014428,0.182995,45.17662014860298
1673610974.015435,0.135539,45.1799098513755
1673610974.0164418,0.134625,45.1831987753358
1673610974.017449,0.155949,45.186488478108316
1673610974.018457,0.18713,45.189781296129674
1673610974.019464,0.225691,45.193070998902186
1673610974.0204709,0.264204,45.19635992286249
1673610974.021478,0.2906,45.19964962563501
1673610974.022485,0.325339,45.202939328407524
1673610974.0234919,0.353178,45.20622825236783
1673610974.024499,0.35462,45.20951795514035
1673610974.025506,0.337888,45.21280765791286
1673610974.0265129,0.303366,45.21609658187317
1673610974.02752,0.280335,45.21938628464569
1673610974.028527,0.263411,45.2226759874182
1673610974.0295339,0.263531,45.225964911378504
1673610974.030542,0.285528,45.22925772939986
1673610974.031549,0.295865,45.232547432172375
1673610974.0325558,0.301443,45.23583635613269
1673610974.033563,0.295745,45.2391260589052
1673610974.03457,0.274205,45.24241576167771
1673610974.0355768,0.259131,45.245704685638025
1673610974.036584,0.265694,45.24899438841054
1673610974.037591,0.271296,45.25228409118305
1673610974.0385978,0.265021,45.25557301514336
1673610974.039605,0.258723,45.258862717915875
1673610974.040612,0.244274,45.26215242068839
1673610974.0416188,0.217661,45.2654413446487
1673610974.042626,0.202684,45.26873104742121
1673610974.043634,0.205545,45.27202386544257
1673610974.044641,0.212661,45.27531356821508
1673610974.0456479,0.238865,45.275555
1673610974.046655,0.247376,45.32656884120172
1673610974.047662,0.238529,45.27842792560801
1673610974.0486689,0.229249,45.258301581644815
1673610974.049676,0.236894,45.274847618025746
1673610974.050683,0.247664,45.25804298283262
1673610974.0516899,0.26757,45.186919512875534
1673610974.052697,0.304905,45.25615412228844
1673610974.053704,0.349307,45.257465
1673610974.0547109,0.370343,45.27147299876406
1673610974.055719,0.371473,45.285652031269315
1673610974.056726,0.333465,45.29981764936349
1673610974.0577328,0.32945,45.29728406819265
1673610974.05874,0.310001,45.21826480429594
1673610974.059747,0.276657,45.19687155965706
1673610974.0607538,0.246847,45.17682053934192
1673610974.061761,0.232663,45.222299402195524
1673610974.062768,0.213983,45.22772628909135
1673610974.0637748,0.185591,45.23315189121281
1673610974.064782,0.158738,45.23857877810864
1673610974.065789,0.138929,45.24400566500446
1673610974.0667958,0.125298,45.24943126712593
1673610974.067803,0.104695,45.25485815402175
1673610974.068811,0.118903,45.26029018001501
1673610974.069818,0.162609,45.26571706691084
1673610974.0708249,0.235427,45.2711426690323
1673610974.071832,0.323921,45.27656955592813
1673610974.072839,0.367674,45.28199644282395
1673610974.0738459,0.385272,45.287422044945416
1673610974.074853,0.401644,45.29284893184124
1673610974.07586,0.406909,45.29827581873706
1673610974.0768669,0.398566,45.30370142085853
1673610974.077874,0.35414,45.30912830775435
1673610974.078881,0.309665,45.314555194650175
1673610974.0798879,0.278965,45.31998079677164
1673610974.080896,0.262233,45.3254128227649
1673610974.081903,0.256535,45.33083970966073
1673610974.0829098,0.254876,45.33626531178219
1673610974.083917,0.246029,45.34169219867802
1673610974.084924,0.245861,45.34711908557384
1673610974.0859308,0.258242,45.35254468769531
1673610974.086938,0.271921,45.357971574591126
1673610974.087945,0.281201,45.36339846148695
1673610974.0889518,0.291658,45.368824063608415
1673610974.089959,0.29774,45.37425095050424
1673610974.090966,0.294495,45.37967783740007
1673610974.0919728,0.29298,45.38510343952153
1673610974.09298,0.29125,45.390530326417355
1673610974.093988,0.287283,45.39596235241062
1673610974.094995,0.271681,45.40138923930644
1673610974.0960019,0.245861,45.40681484142791
1673610974.097009,0.233384,45.41224172832373
1673610974.098016,0.219801,45.417668615219554
1673610974.0990229,0.202396,45.42309421734102
1673610974.10003,0.199847,45.42852110423684
1673610974.101037,0.195352,45.43394799113267
1673610974.1020439,0.189558,45.43937359325413
1673610974.103051,0.197011,45.44480048014996
1673610974.104058,0.194655,45.45022736704578
1673610974.1050649,0.183067,45.45565296916725
1673610974.106073,0.185856,45.461084995160505
1673610974.10708,0.203357,45.46651188205633
1673610974.1080868,0.238625,45.47193748417779
1673610974.109094,0.270286,45.45568321629347
1673610974.110101,0.293004,45.42881483551847
1673610974.1111078,0.315314,45.439625415355266
1673610974.112115,0.347817,45.456455
1673610974.113122,0.36503,45.48627513145987
1673610974.1141288,0.368083,45.510731
1673610974.115136,0.35188,45.459761574224345
1673610974.118157,0.290096,45.4774366827641
1673610974.119165,0.274133,45.48241685374271
1673610974.120172,0.255477,45.48739231311207
1673610974.1211789,0.226797,45.49236659457911
1673610974.122186,0.198309,45.497342053948465
1673610974.123193,0.184485,45.50231751331783
1673610974.1241999,0.18451,45.50729179478487
1673610974.125207,0.18487,45.512267254154224
1673610974.126214,0.154819,45.51724271352358
1673610974.1272209,0.132173,45.52221699499063
1673610974.128228,0.149434,45.527192454359984
1673610974.129235,0.187611,45.53216791372934
1673610974.1302419,0.237879,45.53714219519638
1673610974.13125,0.271945,45.54212236617499
1673610974.132257,0.286489,45.54709782554435
1673610974.1332638,0.297596,45.55207210701139
1673610974.134271,0.305409,45.557047566380746
1673610974.135278,0.312766,45.56202302575011
1673610974.1362848,0.311323,45.56699730721715
1673610974.137292,0.295024,45.571972766586505
1673610974.138299,0.277787,45.57694822595586
1673610974.1393058,0.270839,45.58192250742291
1673610974.140313,0.256968,45.586897966792264
1673610974.14132,0.239298,45.59187342616162
1673610974.1423268,0.22408,45.59684770762866
1673610974.143334,0.228119,45.601823166998024
1673610974.144342,0.243625,45.60680333797663
1673610974.145349,0.263218,45.611778797345984
1673610974.1463559,0.270839,45.616753078813034
1673610974.147363,0.281056,45.62172853818239
1673610974.14837,0.300313,45.62670399755174
1673610974.1493769,0.308967,45.631678279018786
1673610974.150384,0.30791,45.63665373838815
1673610974.151391,0.309015,45.6416291977575
1673610974.1523979,0.309064,45.646603479224545
1673610974.153405,0.311131,45.6515789385939
1673610974.154412,0.324137,45.65655439796326
1673610974.1554189,0.316348,45.661528679430305
1673610974.156427,0.284133,45.66650885040891
1673610974.157434,0.260333,45.671484309778265
1673610974.1584408,0.242135,45.676458591245314
1673610974.159448,0.229489,45.68143405061467
1673610974.160455,0.21105,45.686409509984024
1673610974.1614618,0.187202,45.69138379145107
1673610974.162469,0.160998,45.69635925082043
1673610974.163476,0.123086,45.701334710189784
1673610974.1644828,0.106185,45.706308991656826
1673610974.16549,0.109046,45.71128445102618
1673610974.166497,0.143737,45.71625991039554
1673610974.1675038,0.195905,45.721234191862585
1673610974.168511,0.244563,45.72620965123194
1673610974.169519,0.292139,45.731189822210546
1673610974.170526,0.342528,45.73616528157991
1673610974.1715329,0.365751,45.74113956304695
1673610974.17254,0.384022,45.745126304721026
1673610974.173547,0.391835,45.727806
1673610974.1745539,0.392172,45.72883703289631
1673610974.175561,0.373252,45.74821486742966
1673610974.176568,0.336229,45.77822547925608
1673610974.1775749,0.311708,45.734856883909416
1673610974.178582,0.299616,45.81211810872676
1673610974.1795888,0.279614,45.75088468335718
1673610974.1805959,0.254636,45.794802413587604
1673610974.181604,0.233384,45.746711613190236
1673610974.182611,0.226869,45.75433568041246
1673610974.1836178,0.228888,45.76195794269453
1673610974.184625,0.2311,45.76958200991675
1673610974.185632,0.226941,45.77720607713898
1673610974.1866388,0.21557,45.78482833942105
1673610974.187646,0.226124,45.79245240664327
1673610974.188653,0.23598,45.800076473865495
1673610974.1896598,0.239634,45.807698736147564
1673610974.190667,0.239226,45.81532280336979
1673610974.191674,0.2286,45.82294687059201
1673610974.1926808,0.237327,45.83056913287408
1673610974.193688,0.257617,45.838193200096306
1673610974.194696,0.282523,45.845824487079156
1673610974.195703,0.275431,45.85344855430138
1673610974.1967099,0.241389,45.86107081658345
1673610974.197717,0.22747,45.868694883805674
1673610974.198724,0.229994,45.8763189510279
1673610974.1997309,0.237567,45.88394121330997
1673610974.200738,0.24163,45.89156528053219
1673610974.2017448,0.25502,45.89918754281426
1673610974.2027519,0.2618,45.906811610036485
1673610974.203759,0.26305,45.91443567725871
1673610974.2047658,0.276897,45.92205793954078
1673610974.2057729,0.276032,45.929682006763
1673610974.206781,0.25942,45.93731329374585
1673610974.207788,0.253722,45.944937360968076
1673610974.2087948,0.259107,45.952559623250146
1673610974.209802,0.266752,45.96018369047237
1673610974.210809,0.26555,45.967807757694594
1673610974.2118158,0.271488,45.97543001997666
1673610974.212823,0.28947,45.98305408719889
1673610974.21383,0.289927,45.99067815442111
1673610974.2148368,0.300241,45.99830041670318
1673610974.215844,0.297308,46.005924483925405
1673610974.216851,0.290192,46.01354855114763
1673610974.2178578,0.280744,46.0211708134297
1673610974.218865,0.272041,46.02879488065192
1673610974.219873,0.284374,46.03642616763477
1673610974.22088,0.297572,46.044050234856996
1673610974.2218869,0.290192,46.051672497139066
1673610974.222894,0.265141,46.05929656436129
1673610974.2239008,0.230571,46.06691882664336
1673610974.2249079,0.221772,46.07454289386558
1673610974.225915,0.218647,46.08216696108781
1673610974.2269218,0.214488,46.08978922336988
1673610974.2279289,0.220282,46.0974132905921
1673610974.228936,0.224104,46.105037357814325
1673610974.2299428,0.228287,46.112659620096395
1673610974.2309499,0.247303,46.12028368731862
1673610974.231958,0.275359,46.12791497430147
1673610974.232965,0.291418,46.13553904152369
1673610974.2339718,0.290288,46.14316130380576
1673610974.234979,0.280576,46.150785371027986
1673610974.235986,0.260405,46.15840943825021
1673610974.2369928,0.216003,46.181358919885554
1673610974.238,0.166695,46.17851229613734
1673610974.239007,0.151814,46.161976
1673610974.2400138,0.155805,46.136438085800606
1673610974.241021,0.161959,46.221404476276824
1673610974.242028,0.153449,46.193157521909946
1673610974.2430348,0.155661,46.198154
1673610974.244042,0.157199,46.20122548807821
1673610974.24505,0.16797,46.194790215307584
1673610974.2460568,0.191217,46.18054954619688
1673610974.2470639,0.230595,46.18136302916017
1673610974.248071,0.282162,46.182176512123455
1673610974.2490778,0.321805,46.18298980250081
1673610974.2500849,0.348538,46.183803285464094
1673610974.251092,0.366761,46.18461676842738
1673610974.2520988,0.362217,46.18543005880474
1673610974.2531059,0.342456,46.18624354176803
1673610974.254113,0.326902,46.18705702473132
1673610974.2551198,0.305842,46.187870315108675
1673610974.2561269,0.27733,46.188683798071956
1673610974.257135,0.252015,46.18949805137896
1673610974.258142,0.206723,46.19031153434224
1673610974.2591488,0.177562,46.1911248247196
1673610974.260156,0.163835,46.19193830768289
1673610974.261163,0.165181,46.19275179064618
1673610974.2621698,0.187466,46.193565081023536
1673610974.263177,0.2098,46.194378563986824
1673610974.264184,0.226388,46.195192046950105
1673610974.2651908,0.244875,46.19600533732746
1673610974.266198,0.277883,46.19681882029075
1673610974.267205,0.305457,46.19763230325404
1673610974.2682118,0.321468,46.1984455936314
1673610974.269219,0.327527,46.19925907659468
1673610974.270227,0.343466,46.200073329901684
1673610974.2712338,0.367482,46.20088662027904
1673610974.2722409,0.373444,46.201700103242324
1673610974.273248,0.355101,46.20251358620561
1673610974.2742548,0.333609,46.20332687658297
1673610974.2752619,0.300385,46.20414035954626
1673610974.276269,0.269012,46.204953842509546
1673610974.2772758,0.244226,46.2057671328869
1673610974.2782829,0.219681,46.206580615850186
1673610974.27929,0.212397,46.207394098813474
1673610974.2802968,0.211675,46.20820738919083
1673610974.281304,0.209488,46.20902087215412
1673610974.282312,0.202227,46.20983512546112
1673610974.283319,0.194943,46.21064860842441
1673610974.2843258,0.185399,46.211461898801765
1673610974.285333,0.200424,46.21227538176505
1673610974.28634,0.232639,46.213088864728334
