measure_time,emg_ch_1,grip_force_inter
1673610895.863502,0.403759,1.587909
1673610895.8645089,0.401908,1.5696776058655222
1673610895.865516,0.399312,1.551723
1673610895.866523,0.396739,1.5513430878281622
1673610895.878608,0.435613,1.533634
1673610895.8796148,0.428377,1.533634
1673610895.880622,0.420035,1.533634
1673610895.881629,0.41864,1.533634
1673610895.8826358,0.417607,1.533634
1673610895.883643,0.412077,1.533634
1673610895.88465,0.407389,1.533634
1673610895.8856568,0.408087,1.533634
1673610895.886664,0.410106,1.533634
1673610895.887672,0.417751,1.533634
1673610895.888679,0.425372,1.533634
1673610895.8896859,0.434699,1.533634
1673610895.890693,0.443378,1.533634
1673610895.8917,0.450133,1.533634
1673610895.8927069,0.452946,1.533634
1673610895.893714,0.456432,1.533634
1673610895.894721,0.45874,1.533634
1673610895.8957279,0.45987,1.533634
1673610895.896735,0.455879,1.533634
1673610895.902778,0.408399,1.533634
1673610895.903785,0.404601,1.533634
1673610895.9047918,0.407173,1.533634
1673610895.905799,0.408255,1.533634
1673610895.906806,0.409289,1.533634
1673610895.9078128,0.417631,1.533634
1673610895.90882,0.427944,1.533634
1673610895.909827,0.438426,1.533634
1673610895.9108338,0.445301,1.533634
1673610895.911841,0.453812,1.533634
1673610895.912849,0.463644,1.533634
1673610895.913856,0.461865,1.533634
1673610895.9148629,0.462466,1.5205551231245533
1673610895.91587,0.464125,1.4774908161659512
1673610895.916877,0.462154,1.4771436503579953
1673610895.9178839,0.452586,1.4990000777300905
1673610895.918891,0.441407,1.5149310703030303
1673610895.919898,0.433978,1.5277290344687753
1673610895.9209049,0.426357,1.4860899562753036
1673610895.921912,0.422367,1.510056176161616
1673610895.922919,0.41989,1.5283745462287104
1673610895.9239259,0.418208,1.5163698753684598
1673610895.924934,0.418688,1.5183269870732006
1673610895.925941,0.416212,1.5202822472058461
1673610895.9269478,0.416477,1.5222370444454678
1673610895.927955,0.424819,1.5241923045781134
1673610895.928962,0.431791,1.526147564710759
1673610895.9299688,0.447753,1.5281023619503806
1673610895.930976,0.4585,1.5300576220830262
1673610895.931983,0.46451,1.5320128822156718
1673610895.9329898,0.468837,1.5339676794552934
1673610895.933997,0.469678,1.535922939587939
1673610895.935004,0.46576,1.5378781997205846
1673610895.9360108,0.467491,1.5398329969602063
1673610895.937018,0.465423,1.5417882570928518
1673610895.938026,0.459822,1.5437453687975926
1673610895.939033,0.450422,1.5457006289302382
1673610895.9400399,0.438354,1.5476554261698598
1673610895.941047,0.428136,1.5496106863025054
1673610895.942054,0.427055,1.551565946435151
1673610895.9430609,0.416717,1.5535207436747727
1673610895.944068,0.408976,1.5554760038074182
1673610895.945075,0.411188,1.5574312639400638
1673610895.9460819,0.417294,1.5593860611796855
1673610895.947089,0.418304,1.561341321312331
1673610895.948096,0.425901,1.5632965814449766
1673610895.9491029,0.434243,1.5652513786845983
1673610895.950111,0.440445,1.5672084903893393
1673610895.953132,0.463596,1.573073807894252
1673610895.954139,0.467419,1.5750290680268977
1673610895.9551458,0.465135,1.5769838652665193
1673610895.956153,0.464606,1.578939125399165
1673610895.95716,0.460038,1.5808943855318103
1673610895.9581668,0.449725,1.5828491827714322
1673610895.959174,0.440878,1.5848044429040777
1673610895.960181,0.434748,1.586759703036723
1673610895.9611878,0.424867,1.588714500276345
1673610895.962195,0.418135,1.5906697604089906
1673610895.963203,0.41602,1.5926268721137313
1673610895.96421,0.413808,1.594582132246377
1673610895.9652169,0.410899,1.5965369294859986
1673610895.966224,0.410659,1.5984921896186441
1673610895.967231,0.414313,1.6004474497512897
1673610895.9682379,0.424795,1.6024022469909114
1673610895.969245,0.435156,1.604357507123557
1673610895.970252,0.442537,1.611856947368421
1673610895.9712589,0.449653,1.6360982372315036
1673610895.972266,0.456769,1.5932644206008584
1673610895.973273,0.462466,1.5369456452920143
1673610895.989387,0.433594,1.564110507729285
1673610895.9903939,0.440565,1.563125815012662
1673610895.991401,0.445397,1.562140889122296
1673610895.992408,0.452465,1.56115596323193
1673610895.9934149,0.456552,1.560171270515307
1673610895.994422,0.460687,1.5591863446249412
1673610895.995429,0.458187,1.5582014187345752
1673610895.9964359,0.456144,1.5572167260179524
1673610895.997443,0.450783,1.5562318001275863
1673610895.9984498,0.441503,1.5552471074109633
1673610895.999457,0.430468,1.5542621815205975
1673610896.000465,0.422944,1.5532763229352595
1673610896.001472,0.420203,1.5522913970448937
1673610896.0024788,0.418111,1.5513067043282707
1673610896.003486,0.417126,1.5503217784379046
1673610896.004493,0.418568,1.5493368525475388
1673610896.0054998,0.415563,1.5483521598309158
1673610896.006507,0.411717,1.54736723394055
1673610896.007514,0.414962,1.546382308050184
1673610896.0085208,0.422246,1.545397615333561
1673610896.009528,0.427439,1.544412689443195
1673610896.010535,0.440109,1.543427763552829
1673610896.0115418,0.449773,1.542443070836206
1673610896.012549,0.460615,1.5414581449458402
1673610896.013557,0.464245,1.5404722863605023
1673610896.014564,0.45987,1.5394873604701365
1673610896.0155709,0.461433,1.5385026677535134
1673610896.016578,0.454773,1.5375177418631474
1673610896.017585,0.446407,1.5365328159727816
1673610896.0185919,0.436551,1.5355481232561585
1673610896.019599,0.432175,1.5345631973657927
1673610896.0206058,0.435781,1.533634
1673610896.021613,0.433113,1.5324780982355746
1673610896.02262,0.422607,1.5181149747318234
1673610896.0236268,0.418592,1.551723
1673610896.024634,0.418592,1.5532591306628516
1673610896.025642,0.415876,1.56982
1673610896.026649,0.417486,1.5680120259895087
1673610896.0276558,0.424146,1.5497889016706443
1673610896.028663,0.435204,1.533634
1673610896.02967,0.446888,1.5349486910165935
1673610896.0306768,0.455182,1.545877707085638
1673610896.031684,0.460158,1.5568093111291246
1673610896.032691,0.46814,1.5677409151726112
1673610896.0336978,0.474366,1.5786699312416554
1673610896.034705,0.47201,1.5822662618025751
1673610896.035712,0.467491,1.5605726066746126
1673610896.0367188,0.462851,1.5967839322842157
1673610896.037726,0.455062,1.5581311174224344
1673610896.038734,0.444628,1.591269185758514
1673610896.039741,0.437921,1.5990539632808776
1673610896.040748,0.43381,1.5626173451073986
1673610896.041755,0.424362,1.544856177227251
1673610896.0427618,0.417318,1.5840583499404053
1673610896.043769,0.4134,1.5691406833595347
1673610896.044776,0.412943,1.5660284995316331
1673610896.0457828,0.413424,1.5629170524896756
1673610896.04679,0.417703,1.559804868661774
1673610896.047797,0.424362,1.5566926848338722
1673610896.0488038,0.429699,1.5535812377919147
1673610896.049811,0.439075,1.5504690539640131
1673610896.050819,0.447826,1.547353922992335
1673610896.051826,0.45422,1.5442417391644334
1673610896.0528328,0.459581,1.5411302921224759
1673610896.05384,0.465712,1.5380181082945743
1673610896.054847,0.466217,1.5349059244666727
1673610896.0558538,0.463115,1.5317944774247152
1673610896.056861,0.461072,1.5286822935968136
1673610896.057868,0.455206,1.5255701097689118
1673610896.062903,0.412462,1.510010664201292
1673610896.063911,0.410178,1.506895533229614
1673610896.0649178,0.411164,1.5037840861876564
1673610896.065925,0.412101,1.5006719023597548
1673610896.066932,0.414481,1.497559718531853
1673610896.0679388,0.421453,1.4944482714898957
1673610896.068946,0.435493,1.4913360876619939
1673610896.069953,0.443642,1.4882239038340923
1673610896.0709598,0.449653,1.4851124567921348
1673610896.071967,0.457562,1.4820002729642332
1673610896.077003,0.461433,1.457949106555423
1673610896.0780098,0.452465,1.4500833306336351
1673610896.079017,0.443282,1.479367
1673610896.080024,0.433978,1.4756577629947545
1673610896.0810308,0.429026,1.4689448038140644
1673610896.082038,0.423713,1.4977290415094338
1673610896.083045,0.414529,1.498985389369836
1673610896.0840518,0.404937,1.5002414397993997
1673610896.085059,0.396547,1.5014977876598017
1673610896.086066,0.38871,1.5027541355202039
1673610896.0870728,0.398927,1.5040101859497677
1673610896.08808,0.418039,1.5052665338101696
1673610896.089088,0.432151,1.5065240713939243
1673610896.0900948,0.44934,1.5077801218234883
1673610896.091102,0.455543,1.5090364696838903
1673610896.092109,0.45886,1.5102928175442922
1673610896.0931158,0.463644,1.5115488679738562
1673610896.1464908,0.414602,1.7318441380703946
1673610896.147498,0.424458,1.7400111851715776
1673610896.148505,0.43518,1.7481782322727606
1673610896.1495118,0.44071,1.756343345887414
1673610896.150519,0.451624,1.764510392988597
1673610896.151527,0.458764,1.7726851740358986
1673610896.152534,0.466794,1.7808522211370819
1673610896.1535408,0.474174,1.789017334751735
1673610896.154548,0.476362,1.7971843818529183
1673610896.155555,0.472924,1.8066143977137414
1673610896.1565619,0.464678,1.8420831402002862
1673610896.157569,0.455086,1.8571633267303103
1673610896.158576,0.447513,1.8266597525035766
1673610896.1595829,0.437007,1.8786692267206477
1673610896.16059,0.425973,1.8940110121718376
1673610896.161597,0.422343,1.877351
1673610896.1626039,0.417198,1.877351
1673610896.163611,0.409505,1.8809688
1673610896.164619,0.403134,1.9155824902631504
1673610896.1656258,0.402365,1.934558178187186
1673610896.166633,0.406788,1.9535383595253641
1673610896.16764,0.41715,1.9725185408635422
1673610896.1686468,0.428425,1.9914942287875776
1673610896.169654,0.432343,2.010474410125756
1673610896.170661,0.43768,2.029454591463934
1673610896.1716678,0.446888,2.0484302793879694
1673610896.172675,0.456648,2.0674104607261476
1673610896.173682,0.462562,2.0863906420643255
1673610896.1746888,0.467731,2.105366329988361
1673610896.175696,0.469871,2.1243465113265394
1673610896.176704,0.462635,2.143344666321288
1673610896.177711,0.455254,2.1623248476594656
1673610896.1787179,0.441839,2.1813005355835013
1673610896.179725,0.432392,2.2002807169216796
1673610896.180732,0.429266,2.2192608982598574
1673610896.1817389,0.422992,2.238236586183893
1673610896.182746,0.414794,2.2572167675220713
1673610896.183753,0.411596,2.276196948860249
1673610896.1847599,0.411116,2.295172636784285
1673610896.185767,0.412101,2.3141528181224627
1673610896.186774,0.416597,2.333132999460641
1673610896.1877809,0.422319,2.3521086873846766
1673610896.188788,0.431574,2.371088868722855
1673610896.189796,0.440686,2.390087023717603
1673610896.1908028,0.451504,2.4090627116416385
1673610896.19181,0.457418,2.428042892979817
1673610896.192817,0.464798,2.4470230743179946
1673610896.1938238,0.467923,2.4659987622420303
1673610896.194831,0.466794,2.4849789435802085
1673610896.195838,0.463716,2.5039591249183863
1673610896.1968448,0.461288,2.522934812842422
1673610896.197852,0.452249,2.5419149941806003
1673610896.198859,0.443787,2.5739628311874108
1673610896.1998658,0.436575,2.541569929661421
1673610896.200873,0.424891,2.5702633671036947
1673610896.201881,0.41739,2.582865
1673610896.202888,0.412342,2.582865
1673610896.2038949,0.409216,2.6257325658082973
1673610896.204902,0.410779,2.6515471435041715
1673610896.205909,0.412654,2.611590021459228
1673610896.2069159,0.419698,2.6743049904625655
1673610896.207923,0.425901,2.7012726362552653
1673610896.20893,0.43119,2.713417265675912
1673610896.2099369,0.437416,2.725559019947548
1673610896.210944,0.44833,2.75793412443385
1673610896.211951,0.456312,2.763764
1673610896.2129579,0.461264,2.732908323795899
1673610896.213965,0.463163,2.712028769909394
1673610896.214973,0.464317,2.7722975234803338
1673610896.2159798,0.464846,2.829333919170243
1673610896.216987,0.460182,2.8042128798283263
1673610896.217994,0.451215,2.8481887709177593
1673610896.2190008,0.445205,2.9352389501669047
1673610896.220008,0.434339,2.9716027639763762
1673610896.221015,0.421525,3.001651235863415
1673610896.2220218,0.408976,3.031692594002374
1673610896.223029,0.402461,3.061741065889412
1673610896.224036,0.407005,3.091789537776451
1673610896.2250428,0.411476,3.12183089591541
1673610896.22605,0.416645,3.151879367802448
1673610896.227058,0.42417,3.181956294681804
1673610896.228065,0.435733,3.2120047665688425
1673610896.2290719,0.440205,3.242046124707801
1673610896.230079,0.447417,3.27209459659484
1673610896.231086,0.453114,3.302143068481878
1673610896.2320929,0.460471,3.332184426620837
1673610896.2331,0.470568,3.3622328985078758
1673610896.234107,0.4729,3.392281370394914
1673610896.2351139,0.474919,3.422322728533873
1673610896.236121,0.472852,3.4523712004209117
1673610896.237128,0.463716,3.48241967230795
1673610896.2381349,0.450807,3.512461030446909
1673610896.239142,0.441695,3.5425095023339477
1673610896.24015,0.433041,3.5725864292133034
1673610896.2411568,0.431863,3.6026277873522625
1673610896.242164,0.427247,3.6326762592393007
1673610896.243171,0.421621,3.662724731126339
1673610896.2441778,0.422775,3.692766089265298
1673610896.245185,0.423569,3.7228145611523367
1673610896.246192,0.422944,3.752863033039375
1673610896.2471988,0.427631,3.782904391178334
1673610896.248206,0.431742,3.8129528630653726
1673610896.249213,0.438233,3.843001334952411
1673610896.2502198,0.44809,3.87304269309137
1673610896.251227,0.457514,3.9030911649784086
1673610896.252235,0.467707,3.9638600862932063
1673610896.253242,0.475905,4.0588005944206005
1673610896.2542489,0.477972,4.117049668574153
1673610896.255256,0.475665,4.168350815017878
1673610896.256263,0.470808,4.256339592989986
1673610896.2572699,0.466794,4.342575051502146
1673610896.258277,0.458956,4.4050426524433854
1673610896.259284,0.450446,4.48585072579876
1673610896.2602909,0.440998,4.593060604673343
1673610896.261298,0.429675,4.708886592302453
1673610896.262305,0.419386,4.810388405926431
1673610896.2633119,0.411669,4.911866189764987
1673610896.264319,0.411356,5.0133680033889645
1673610896.265327,0.416308,5.114965936154633
1673610896.2663338,0.417126,5.216443719993189
1673610896.267341,0.414602,5.317945533617166
1673610896.268348,0.422727,5.419447347241144
1673610896.2693548,0.433137,5.5209251310797
1673610896.270362,0.441142,5.622426944703679
1673610896.271369,0.449412,5.723928758327657
1673610896.2723758,0.460783,5.8254065421662125
1673610896.273383,0.470977,5.92690835579019
1673610896.27439,0.483622,6.028410169414169
1673610896.2753968,0.486507,6.104206656734207
1673610896.276404,0.480497,6.209410090128755
1673610896.277412,0.474198,6.293759943252265
1673610896.278419,0.465592,6.402885248867699
1673610896.2794259,0.455735,6.514270098712446
1673610896.280433,0.446431,6.640328896995708
1673610896.28144,0.437464,6.739702896543505
1673610896.2824469,0.42465,6.837893671435384
1673610896.283454,0.415828,6.954409818788746
1673610896.284461,0.412486,7.003590156862745
1673610896.2854679,0.414602,7.014605513840831
1673610896.286475,0.418256,7.025623479238755
1673610896.287482,0.424578,7.036641444636678
1673610896.2884889,0.433497,7.047656801614764
1673610896.289497,0.442633,7.151126347639485
1673610896.290504,0.451215,7.258975238379023
1673610896.2915108,0.456937,7.362794886981402
1673610896.292518,0.462346,7.490351685978532
1673610896.293525,0.465808,7.625469730711727
1673610896.2945318,0.470303,7.7605557872714535
1673610896.295539,0.477083,7.895673832004649
1673610896.296546,0.479727,8.030791876737844
1673610896.2975528,0.475472,8.16587793329757
1673610896.29856,0.47052,8.300995978030766
1673610896.299567,0.459726,8.436114022763961
1673610896.3005738,0.459028,8.571200079323686
1673610896.301581,0.454942,8.706318124056882
1673610896.302589,0.442392,8.841564121483954
1673610896.303596,0.440277,8.976682166217149
1673610896.3046029,0.439604,9.111768222776876
1673610896.30561,0.428449,9.246886267510071
1673610896.306617,0.422078,9.382004312243266
1673610896.3076239,0.428737,9.517090368802993
1673610896.308631,0.440205,9.652208413536187
1673610896.309638,0.452874,9.787326458269382
1673610896.3106449,0.461481,9.922412514829109
1673610896.311652,0.46713,10.057530559562304
1673610896.312659,0.475376,10.1926486042955
1673610896.3136659,0.484175,10.327734660855224
1673610896.314674,0.485305,10.462980658282296
1673610896.315681,0.47879,10.598098703015491
1673610896.3166878,0.47088,10.733184759575218
1673610896.317695,0.463668,10.868302804308414
1673610896.318702,0.455735,11.003420849041609
1673610896.3197088,0.455254,11.138506905601336
1673610896.320716,0.454028,11.273624950334531
1673610896.321723,0.447898,11.408742995067726
1673610896.3227298,0.440205,11.543829051627451
1673610896.323737,0.432007,11.678947096360647
1673610896.324744,0.434603,11.814065141093842
1673610896.3257508,0.436502,11.949151197653569
1673610896.326758,0.437993,12.084269242386764
1673610896.327766,0.442368,12.219515239813834
1673610896.328773,0.448643,12.354633284547031
1673610896.3297799,0.456096,12.489719341106756
1673610896.330787,0.462034,12.624837385839951
1673610896.331794,0.469702,12.759955430573147
1673610896.3328009,0.475136,12.895041487132874
1673610896.333808,0.478069,13.030159531866069
1673610896.334815,0.478838,13.165277576599264
1673610896.3358219,0.479992,13.300363633158991
1673610896.336829,0.473381,13.435481677892184
1673610896.337836,0.463909,13.570599722625381
1673610896.3388429,0.454052,13.705685779185107
1673610896.339851,0.441407,13.842216111587982
1673610896.340858,0.430781,14.004310206962327
1673610896.3418648,0.418039,14.138206955423122
1673610896.342872,0.410875,14.37024824892704
1673610896.343879,0.409673,14.534222768240344
1673610896.3448858,0.409433,14.701048087029088
1673610896.345893,0.411116,14.901463616209773
1673610896.3469,0.421141,15.100133078206962
1673610896.3479068,0.435036,15.276815989270386
1673610896.348914,0.447657,15.393999070093036
1673610896.349921,0.456913,15.425059644205582
1673610896.3509278,0.462635,15.456112864962515
1673610896.351935,0.468428,15.487173439075061
1673610896.352943,0.477323,15.518263426610062
1673610896.35395,0.477275,15.549324000722608
1673610896.3549569,0.479247,15.72699556509299
1673610896.355964,0.475809,15.911465877473182
1673610896.356971,0.465928,16.125715314258464
1673610896.3579779,0.453908,16.29583693562232
1673610896.358985,0.442633,16.492332482717522
1673610896.359992,0.433834,16.659933463519312
1673610896.3609989,0.423497,16.88999800524559
1673610896.362006,0.41162,17.02684919022646
1673610896.363013,0.404288,17.19224182817776
1673610896.3640199,0.401596,17.36082636245183
1673610896.365028,0.395682,17.529610499537025
1673610896.366035,0.393806,17.69823495437332
1673610896.3670418,0.39698,17.86681948864739
1673610896.368049,0.403327,18.035443943483685
1673610896.369056,0.414241,18.204068398319983
1673610896.3700628,0.428377,18.37265293259405
1673610896.37107,0.437729,18.54127738743035
1673610896.372077,0.447008,18.709901842266643
1673610896.3730838,0.457346,18.878486376540714
1673610896.374091,0.460543,19.047110831377008
1673610896.375098,0.464558,19.215735286213302
1673610896.3761048,0.467996,19.384319820487374
1673610896.377112,0.466144,19.552944275323668
1673610896.37812,0.456384,19.72172841240886
1673610896.379127,0.44309,19.890352867245156
1673610896.3801339,0.434146,20.058937401519227
1673610896.381141,0.422415,20.22756185635552
1673610896.382148,0.416909,20.39618631119182
1673610896.3831549,0.409553,20.564770845465887
1673610896.384162,0.408111,20.733395300302185
1673610896.385169,0.410154,20.90201975513848
1673610896.3861759,0.406909,21.07060428941255
1673610896.387183,0.408111,21.239228744248845
1673610896.38819,0.41388,21.40785319908514
1673610896.3891969,0.419842,21.57643773335921
1673610896.390205,0.429026,21.745221870444404
1673610896.391212,0.435998,21.913846325280698
1673610896.3922188,0.4234,22.08243085955477
1673610896.393226,0.418328,22.251055314391063
1673610896.394233,0.423184,22.419679769227358
1673610896.3952398,0.422944,22.58826430350143
1673610896.396247,0.415419,22.756888758337723
1673610896.397254,0.403687,22.92551321317402
1673610896.3982608,0.406572,23.09409774744809
1673610896.399268,0.417991,23.262722202284387
1673610896.400275,0.427559,23.43134665712068
1673610896.4012818,0.439556,23.599931191394752
1673610896.402289,0.444003,23.768555646231047
1673610896.403297,0.455567,23.93733978331624
1673610896.404304,0.457778,24.105964238152534
1673610896.4053109,0.45184,24.285759717453505
1673610896.406318,0.452706,24.500177483547926
1673610896.407325,0.460086,24.69624162455304
1673610896.4083319,0.46439,24.896217278969957
1673610896.409339,0.467034,25.393853263315084
1673610896.410346,0.468092,25.560378383524142
1673610896.4113529,0.466457,25.777633159990046
1673610896.41236,0.453908,25.96962313165754
1673610896.413367,0.436142,26.2163801271777
1673610896.4143739,0.411188,26.377092342373725
1673610896.415382,0.38782,27.384278670825193
1673610896.416389,0.397004,27.598937745818585
1673610896.4173958,0.411957,27.813546001902175
1673610896.418403,0.41162,28.028205076895567
1673610896.41941,0.406187,28.24286415188896
1673610896.4204168,0.397196,28.45747240797255
1673610896.421424,0.393879,28.67213148296594
1673610896.422431,0.405971,28.886790557959333
1673610896.4234378,0.420323,29.101398814042927
1673610896.424445,0.430733,29.316057889036315
1673610896.425452,0.455567,29.530716964029708
1673610896.4264588,0.491531,29.7453252201133
1673610896.427466,0.516149,29.959984295106693
1673610896.428474,0.520356,30.174846645739283
1673610896.429481,0.50497,30.389505720732675
1673610896.4304879,0.494801,30.604113976816265
1673610896.431495,0.493262,30.818773051809657
1673610896.432502,0.49557,31.03343212680305
1673610896.4335089,0.502494,31.24804038288664
1673610896.434516,0.506557,31.46269945788003
1673610896.435523,0.503888,31.677358532873424
1673610896.4365299,0.492853,31.891966788957017
1673610896.437537,0.474607,32.106625863950406
1673610896.438544,0.456432,32.3212849389438
1673610896.4395509,0.446095,32.53589319502739
1673610896.440559,0.437103,32.750755545659985
1673610896.441566,0.426213,32.96541462065337
1673610896.4425728,0.415611,33.18002287673696
1673610896.44358,0.412798,33.394681951730355
1673610896.444587,0.412005,33.60934102672375
1673610896.4455938,0.405226,33.82394928280734
1673610896.446601,0.40037,34.03860835780073
1673610896.447608,0.405009,34.253267432794125
1673610896.4486148,0.425612,34.46787568887771
1673610896.449622,0.445157,34.682534763871104
1673610896.450629,0.456913,34.897193838864496
1673610896.4516358,0.466914,35.11180209494809
1673610896.452643,0.470207,35.32646116994148
1673610896.453651,0.46915,35.54132352057407
1673610896.454658,0.465976,35.75598259556746
1673610896.4556649,0.462659,35.97059085165105
1673610896.456672,0.464582,36.185249926644445
1673610896.457679,0.460423,36.39990900163784
1673610896.4586859,0.452249,36.61451725772143
1673610896.459693,0.441767,36.82917633271482
1673610896.4607,0.431165,37.043835407708215
1673610896.4617069,0.421549,37.23700790941597
1673610896.462714,0.406788,37.41918639484978
1673610896.463721,0.387003,37.6381828583691
1673610896.4647279,0.375199,37.82538590369487
1673610896.465736,0.369165,38.0271096409156
1673610896.466743,0.362049,38.27107457749166
1673610896.4677498,0.363612,38.43654541954708
1673610896.468757,0.360847,38.60281320171674
1673610896.469764,0.359549,38.74587747639485
1673610896.4707708,0.36289,38.80556263103448
1673610896.471778,0.368348,38.83926418933441
1673610896.472785,0.379935,38.872965747634325
1673610896.4737918,0.402653,38.90665932734563
1673610896.474799,0.424338,38.94036088564555
1673610896.475806,0.424242,38.97406244394547
1673610896.4768128,0.419049,39.18882949213162
1673610896.47782,0.417871,39.383771345732
1673610896.478828,0.408615,39.581322424892704
1673610896.479835,0.384551,39.755047985013725
1673610896.4808419,0.345485,39.92365621006669
1673610896.481849,0.306395,40.092304361291816
1673610896.482856,0.287716,40.260952512516944
1673610896.4838629,0.28911,40.42956073756991
1673610896.48487,0.293221,40.598208888795035
1673610896.485877,0.293461,40.76685704002016
1673610896.4868839,0.298798,40.93546526507313
1673610896.487891,0.302957,41.104113416298254
1673610896.488898,0.317838,41.27276156752338
1673610896.4899049,0.333272,41.441369792576346
1673610896.490913,0.354212,41.61017764849013
1673610896.49192,0.399095,41.77882579971526
1673610896.4929268,0.415227,41.94743402476822
1673610896.493934,0.427656,42.11608217599335
1673610896.494941,0.465519,42.284730327218476
1673610896.4959478,0.482853,42.45333855227144
1673610896.496955,0.477179,42.62198670349657
1673610896.497962,0.449124,42.790634854721695
1673610896.4989688,0.415227,42.95924307977466
1673610896.499976,0.40775,43.127891230999786
1673610896.500983,0.398999,43.29653938222492
1673610896.5019898,0.38306,43.46514760727788
1673610896.502997,0.370583,43.633795758503005
1673610896.504005,0.357938,43.802603614416796
1673610896.505012,0.3545,43.971251765641924
1673610896.5060189,0.347961,44.13985999069489
1673610896.507026,0.327599,44.308508141920015
1673610896.508033,0.314665,44.47715629314514
1673610896.5090399,0.330075,44.645764518198106
1673610896.510047,0.331926,44.814412669423234
1673610896.511054,0.328368,44.98306082064836
1673610896.5120609,0.327479,45.151669045701325
1673610896.513068,0.325051,45.32031719692645
1673610896.5140748,0.332479,45.48386805150215
1673610896.515082,0.34849,45.5982209272944
1673610896.51609,0.352962,45.7696213583691
1673610896.517097,0.363804,45.98302181902718
1673610896.5181038,0.387123,46.02617841406436
1673610896.519111,0.395081,46.251966033381024
1673610896.520118,0.395033,46.40472296041965
1673610896.5211248,0.393855,46.597706339690106
1673610896.522132,0.38145,46.74860712398665
1673610896.523139,0.36228900000000003,46.92604863235382
1673610896.5241458,0.338105,47.07631514019193
1673610896.525153,0.327863,47.226617230911366
1673610896.52616,0.320315,47.37691932163081
1673610896.5271668,0.305698,47.526383158321416
1673610896.528174,0.297572,47.6855194738975
1673610896.529182,0.299688,48.80158078823529
1673610896.530189,0.306155,49.0324345273899
1673610896.5311959,0.312958,49.175816458646615
1673610896.532203,0.318752,49.37040879358288
1673610896.53321,0.32344,49.557786242749735
1673610896.5342169,0.325652,49.66383825857843
1673610896.535224,0.326781,49.78310476465173
1673610896.5362308,0.333032,48.85514560200561
1673610896.537238,0.3451,48.996452157105885
1673610896.538245,0.361905,49.13775871220617
1673610896.5392518,0.369093,49.279031814050036
1673610896.540259,0.356832,49.420338369150315
1673610896.541267,0.341783,49.561778737276256
1673610896.542274,0.309665,49.703085292376535
1673610896.5432808,0.287235,49.8443583942204
1673610896.544288,0.272907,49.98566494932068
1673610896.545295,0.267714,50.126971504420965
1673610896.5463018,0.277763,50.26824460626483
1673610896.547309,0.295457,50.40955116136511
1673610896.548316,0.310049,50.55085771646539
1673610896.5493228,0.320531,50.69213081830925
1673610896.55033,0.325051,50.83343737340953
1673610896.551337,0.319113,50.97474392850981
1673610896.5523438,0.303246,51.116017030353674
1673610896.553351,0.266368,51.25732358545396
1673610896.554359,0.225354,51.3987639535799
1673610896.555366,0.170734,51.54007050868018
1673610896.5563729,0.097194,51.681343610524046
1673610896.55738,0.048103,51.822650165624324
1673610896.5583868,0.063586,51.96392326746819
1673610896.559394,0.119384,52.10522982256847
1673610896.560401,0.207925,52.246536377668754
1673610896.5614078,0.280816,52.38780947951262
1673610896.562415,0.314713,52.5291160346129
1673610896.563422,0.364862,52.670422589713176
1673610896.5644288,0.440613,52.81169569155704
1673610896.565436,0.51473,52.95300224665732
1673610896.566444,0.586996,53.09444261478326
1673610896.567451,0.633058,53.23574916988355
1673610896.5684578,0.652507,53.37702227172741
1673610896.569465,0.638563,53.51832882682769
1673610896.570472,0.581924,53.65963538192797
1673610896.5714788,0.527905,53.800908483771835
1673610896.572486,0.490714,53.942215038872114
1673610896.573493,0.452465,54.08352159397239
1673610896.5744998,0.441022,54.22479469581626
1673610896.575507,0.446936,54.36610125091654
1673610896.576514,0.446263,54.50740780601682
1673610896.5775208,0.430588,54.64868090786069
1673610896.578528,0.408904,54.789987462960966
1673610896.579536,0.402389,54.93142783108691
1673610896.5805428,0.400201,55.050121219814244
1673610896.58155,0.401644,55.12296348854415
1673610896.582557,0.39121,55.220922533142584
1673610896.5835638,0.371881,55.347487257449345
1673610896.584571,0.359573,55.45154774416388
1673610896.585578,0.372122,55.56579465274463
1673610896.5865848,0.397004,55.65692180448259
1673610896.587592,0.412222,55.741094672064776
1673610896.588599,0.420564,55.83496639832936
1673610896.5896058,0.439195,55.93145009790867
1673610896.590613,0.444075,55.97966414474818
1673610896.591621,0.408543,56.02792384882901
1673610896.592628,0.363708,56.07613789566852
1673610896.5936348,0.358491,56.1243405281977
1673610896.594642,0.376858,56.1725545750372
1673610896.595649,0.383613,56.220768621876715
1673610896.5966558,0.392508,56.26897125440589
1673610896.597663,0.404216,56.3171853012454
1673610896.59867,0.409481,56.36539934808491
1673610896.5996768,0.408159,56.41360198061408
1673610896.600684,0.412967,56.461816027453594
1673610896.601691,0.442248,56.5100300742931
1673610896.6026978,0.478213,56.55823270682228
1673610896.603705,0.496291,56.606446753661785
1673610896.604713,0.485786,56.65470645774262
1673610896.6057198,0.473765,56.702909090271795
1673610896.606727,0.466553,56.75112313711131
1673610896.607734,0.472563,56.79933718395081
1673610896.6087408,0.477419,56.84753981647999
1673610896.609748,0.484079,56.8957538633195
1673610896.610755,0.494296,56.943967910159
1673610896.6117618,0.505379,56.992170542688186
1673610896.612769,0.501075,57.04038458952769
1673610896.613776,0.495474,57.0885986363672
1673610896.6147828,0.497806,57.13680126889638
1673610896.61579,0.489921,57.18501531573588
1673610896.616798,0.457754,57.233275019816716
1673610896.617805,0.427656,57.28148906665623
1673610896.6188118,0.427247,57.3296916991854
1673610896.619819,0.424242,57.37790574602491
1673610896.620826,0.427824,57.42611979286442
1673610896.6218328,0.461793,57.474322425393595
1673610896.62284,0.4823,57.52253647223311
1673610896.623847,0.483646,57.57075051907261
1673610896.6248538,0.470664,57.61895315160179
1673610896.625861,0.465255,57.6671671984413
1673610896.626868,0.468068,57.7153812452808
1673610896.6278749,0.46463,57.76358387780998
1673610896.628882,0.465928,57.81179792464949
1673610896.62989,0.471241,57.860057628730324
1673610896.6308968,0.47335700000000003,57.9082602612595
1673610896.631904,0.464077,57.95647430809901
1673610896.632911,0.438185,58.004688354938516
1673610896.6339178,0.319113,58.05289098746769
1673610896.634925,0.276248,58.1011050343072
1673610896.635932,0.265454,58.14931908114671
1673610896.6369388,0.283581,58.19752171367588
1673610896.637946,0.327431,58.245735760515394
1673610896.638953,0.40186,58.293949807354906
1673610896.6399598,0.47153,58.34215243988408
1673610896.640967,0.51187,58.390366486723586
1673610896.641975,0.534828,58.43862619080442
1673610896.642982,0.551633,58.48684023764393
1673610896.6439888,0.576947,58.53504287017311
1673610896.644996,0.613345,58.58962127181688
1673610896.646003,0.615412,58.62603749546972
1673610896.6470098,0.578221,58.60846218090692
1673610896.648017,0.542738,58.63549257291667
1673610896.649024,0.526342,58.55378555777669
1673610896.6500309,0.521774,58.626363306734994
1673610896.651038,0.510643,58.55538187372014
1673610896.652045,0.503431,58.52036129254023
1673610896.6530519,0.499729,58.53614690987125
1673610896.654059,0.49456,58.5524121885578
1673610896.655067,0.485377,58.516727416098426
1673610896.6560738,0.472683,58.498513802966
1673610896.657081,0.462322,58.48029587687759
1673610896.658088,0.454244,58.46207795078919
1673610896.6590948,0.430132,58.44386433765676
1673610896.660102,0.416044,58.427074
1673610896.661109,0.397244,58.42240406269368
1673610896.6621158,0.388421,58.36945134167859
1673610896.663123,0.40662,58.340242449451594
1673610896.66413,0.427848,58.36893468271752
1673610896.6651368,0.448643,58.334570667381975
1673610896.666144,0.470376,58.31635215450644
1673610896.667152,0.502758,58.300449
1673610896.668159,0.524106,58.300449
1673610896.6691658,0.539444,58.293818027298954
1673610896.670173,0.546608,58.24705804618172
1673610896.67118,0.53603,58.200298065064494
1673610896.6721869,0.526174,58.15354915401855
1673610896.673194,0.505114,58.106789172901316
1673610896.674201,0.482949,58.06002919178409
1673610896.6752079,0.464462,58.013280280738144
1673610896.676215,0.432872,57.96652029962092
1673610896.677222,0.384527,57.919760318503684
1673610896.6782289,0.34724,57.87301140745774
1673610896.679236,0.322574,57.82625142634051
1673610896.680244,0.314064,57.779447164938134
1673610896.6812508,0.304087,57.73269825389219
1673610896.682258,0.28423,57.685938272774955
1673610896.683265,0.300842,57.63917829165773
1673610896.6842718,0.34349,57.59242938061178
1673610896.685279,0.397292,57.54566939949456
1673610896.686286,0.444051,57.49890941837732
1673610896.6872928,0.479775,57.45216050733138
1673610896.6883,0.502422,57.40540052621415
1673610896.689307,0.51812,57.35864054509692
1673610896.6903138,0.531126,57.31189163405097
1673610896.691321,0.534564,57.265131652933746
1673610896.692329,0.533602,57.21832739153137
1673610896.693336,0.551657,57.171567410414134
1673610896.6943429,0.583799,57.12481849936819
1673610896.69535,0.603152,57.07805851825096
1673610896.696357,0.627625,57.03129853713373
1673610896.6973639,0.648997,56.984549626087784
1673610896.698371,0.6439,56.93778964497056
1673610896.699378,0.609691,56.87539618597997
1673610896.701392,0.533891,56.729421063423935
1673610896.702399,0.496339,56.65192849928469
1673610896.7034059,0.450278,56.60420704816404
1673610896.704413,0.433353,56.56071851680572
1673610896.705421,0.435036,56.49881738793514
1673610896.7064278,0.428329,56.43328045493563
1673610896.707435,0.420251,56.386079888915376
1673610896.708442,0.438955,56.353063578278295
1673610896.7094488,0.450085,56.32485715486865
1673610896.710456,0.447104,56.2966440522207
1673610896.711463,0.463284,56.26843094957274
1673610896.7124698,0.507999,56.2402245261631
1673610896.713477,0.563196,56.20437796709585
1673610896.714484,0.602262,56.18496838545887
1673610896.7154908,0.604161,56.081121862077175
1673610896.716498,0.592261,56.040808940572795
1673610896.717506,0.577452,56.004338939675726
1673610896.718513,0.556609,55.93287740247678
1673610896.7195199,0.542185,55.87762532362768
1673610896.720527,0.523746,55.83710450448789
1673610896.721534,0.497902,55.796917145863425
1673610896.7225409,0.453211,55.75673930129167
1673610896.723548,0.389792,55.71655194266721
1673610896.724555,0.373636,55.676364584042744
1673610896.7255619,0.366352,55.636186739470986
1673610896.726569,0.344043,55.59599938084653
1673610896.727576,0.318872,55.555812022222064
1673610896.7285829,0.305674,55.515634177650306
1673610896.72959,0.342576,55.47544681902585
1673610896.730598,0.385537,55.435221404190564
1673610896.7316048,0.413087,55.395043559618806
1673610896.732612,0.41037,55.35485620099435
1673610896.733619,0.433377,55.31466884236988
1673610896.7346258,0.486194,55.274490997798125
1673610896.735633,0.533987,55.23430363917367
1673610896.73664,0.564855,55.1941162805492
1673610896.7376468,0.591203,55.153938435977444
1673610896.738654,0.624379,55.11375107735299
1673610896.739661,0.625918,55.07356371872852
1673610896.7406678,0.605243,55.033385874156764
1673610896.741675,0.589713,54.993198515532306
1673610896.742683,0.579159,54.95297310069702
1673610896.74369,0.562932,54.912785742072565
1673610896.7446969,0.532737,54.87260789750081
1673610896.745704,0.515235,54.83242053887634
1673610896.746711,0.499368,54.792233180251884
1673610896.7477179,0.462514,54.752055335680126
1673610896.748725,0.400514,54.71186797705566
1673610896.749732,0.311996,54.6716806184312
1673610896.7507389,0.229369,54.631502773859445
1673610896.751746,0.176913,54.59131541523498
1673610896.752753,0.183836,54.55112805661052
1673610896.7537599,0.216628,54.52352821671826
1673610896.754767,0.293365,54.54577191885442
1673610896.755775,0.367362,54.56548791702432
1673610896.7567818,0.463284,54.52905543671037
1673610896.757789,0.577596,54.50596501716738
1673610896.758796,0.676475,54.52418416332856
1673610896.7598028,0.76819,54.528296497020264
1673610896.76081,0.833171,54.4870525659838
1673610896.761817,0.823074,54.452193448687346
1673610896.7628238,0.716935,54.46534
1673610896.763831,0.590049,54.470543979995234
1673610896.764838,0.519466,54.483429
1673610896.7658448,0.502614,54.47250801430615
1673610896.766852,0.509081,54.46401551323003
1673610896.76786,0.517904,54.49578593490701
1673610896.768867,0.527953,54.49515223819743
1673610896.7698739,0.534997,54.519608
1673610896.770881,0.535742,54.50129028775607
1673610896.771888,0.538122,54.47156969618138
1673610896.7728949,0.536247,54.48152565654406
1673610896.773902,0.534468,54.476078689905904
1673610896.774909,0.537449,54.47063172326775
1673610896.7759159,0.541367,54.46518604615768
1673610896.776923,0.533722,54.45973907951953
1673610896.77793,0.516966,54.454292112881376
1673610896.7789369,0.4967,54.44884643577131
1673610896.779944,0.487565,54.44725
1673610896.780952,0.484511,54.43420728755365
1673610896.7819588,0.474078,54.42942971082274
1673610896.782966,0.471554,54.42980148760467
1673610896.783973,0.470784,54.43017326438661
1673610896.7849798,0.464918,54.43054495315321
1673610896.785987,0.467731,54.43091672993514
1673610896.786994,0.497541,54.431288506717074
1673610896.7880008,0.523024,54.43166019548367
1673610896.789008,0.521606,54.432031972265605
1673610896.790015,0.507278,54.432403749047545
1673610896.7910218,0.50247,54.43277543781414
1673610896.792029,0.485593,54.433147214596076
1673610896.793037,0.441166,54.43351934343936
1673610896.794044,0.409938,54.43389112022129
1673610896.7950509,0.399841,54.43426280898789
1673610896.796058,0.40888,54.43463458576982
1673610896.797065,0.419049,54.43500636255176
1673610896.7980719,0.434026,54.43537805131836
1673610896.799079,0.444171,54.43574982810029
1673610896.800086,0.438498,54.436121604882224
1673610896.8010929,0.440421,54.43649329364882
1673610896.8021,0.467082,54.436865070430756
1673610896.803107,0.509466,54.437236847212695
1673610896.8041139,0.54326700000000006,54.437608535979294
1673610896.805122,0.563412,54.43798066482257
1673610896.806129,0.567355,54.43835244160451
1673610896.8071358,0.581707,54.43872413037111
1673610896.808143,0.604498,54.43909590715304
1673610896.80915,0.588631,54.43946768393497
1673610896.8101568,0.562836,54.43983937270157
1673610896.811164,0.555792,54.4402111494835
1673610896.812171,0.562042,54.44058292626544
1673610896.8131778,0.554013,54.44095461503204
1673610896.814185,0.539516,54.44132639181397
1673610896.815192,0.52901,54.441698168595906
1673610896.8161988,0.52526,54.442069857362505
1673610896.817206,0.533314,54.44244163414444
1673610896.818214,0.53103,54.44281376298772
1673610896.819221,0.515043,54.44318553976966
1673610896.8202279,0.498094,54.44355722853626
1673610896.821235,0.483718,54.44392900531819
1673610896.822242,0.467443,54.44430078210012
1673610896.8232489,0.443042,54.44467247086672
1673610896.824256,0.424338,54.44504424764865
1673610896.825263,0.414073,54.44541602443059
1673610896.8262699,0.402413,54.44578771319719
1673610896.827277,0.40662,54.446159489979124
1673610896.828284,0.425396,54.446531266761056
1673610896.8292909,0.455903,54.446902955527655
1673610896.830299,0.488815,54.44725
1673610896.831306,0.507134,54.448587124463515
1673610896.8323128,0.545262,54.466803525298324
1673610896.83332,0.593006,54.480211363614686
1673610896.834327,0.622624,54.45072228792569
1673610896.8353338,0.62248,54.47605514821002
1673610896.836341,0.616398,54.41504864711492
1673610896.837348,0.602238,54.44936531078828
1673610896.8383548,0.577236,54.46534
1673610896.839362,0.550815,54.464804821963796
1673610896.840369,0.528866,54.460687168002195
1673610896.8413758,0.516606,54.45657048886398
1673610896.842383,0.50134,54.45245283490238
1673610896.843391,0.488719,54.448331281647256
1673610896.844398,0.479655,54.444213627685656
1673610896.8454049,0.472852,54.44009694854744
1673610896.846412,0.46213,54.43597929458584
1673610896.847419,0.432776,54.43186164062424
1673610896.8484259,0.408519,54.42774496148602
1673610896.849433,0.405298,54.42362730752443
1673610896.85044,0.431574,54.41950965356283
1673610896.8514469,0.457947,54.415392974424606
1673610896.852454,0.459894,54.411275320463005
1673610896.853461,0.479799,54.40715766650141
1673610896.8544679,0.510764,54.40304098736319
1673610896.855476,0.542401,54.398919434108066
1673610896.856483,0.585987,54.394801780146466
1673610896.8574898,0.610652,54.39068510100825
1673610896.858497,0.611854,54.38656744704665
1673610896.859504,0.600747,54.38244979308505
1673610896.8605108,0.58327,54.37833311394684
1673610896.861518,0.566874,54.37421545998524
1673610896.862525,0.555888,54.37009780602364
1673610896.8635318,0.549637,54.365981126885416
1673610896.8796449,0.546752,54.30009963832321
1673610896.880653,0.531967,54.29597808506809
1673610896.88166,0.510764,54.29186043110649
1673610896.8826668,0.500763,54.28774375196827
1673610896.883674,0.502902,54.28805655030997
1673610896.884681,0.498599,54.30627194849786
1673610896.8856878,0.490858,54.31674896566524
1673610896.886695,0.492853,54.31851747938022
1673610896.887702,0.495907,54.374886
1673610896.8887088,0.506436,54.37063739484978
1673610896.889716,0.516413,54.35241928128725
1673610896.890723,0.52264,54.34771293133047
1673610896.8917298,0.522808,54.37951392012398
1673610896.892737,0.533145,54.39444110290121
1673610896.893745,0.52776,54.4000609424899
1673610896.894752,0.494921,54.40567546529563
1673610896.8957589,0.437272,54.411072
1673610896.896766,0.360029,54.411072
1673610896.897773,0.316348,54.407241520743916
1673610896.8987799,0.320867,54.33654178087745
1673610896.899787,0.357746,54.306163981878875
1673610896.900794,0.392821,54.35600869148639
1673610896.9018009,0.40525,54.345318003856164
1673610896.902808,0.441743,54.334624784687314
1673610896.903815,0.487661,54.32393156551846
1673610896.9048219,0.558821,54.313240877888234
1673610896.90583,0.644141,54.30253753256487
1673610896.906837,0.699193,54.29184431339601
1673610896.9078438,0.722681,54.28115362576579
1673610896.908851,0.707127,54.27046040659694
1673610896.909858,0.652627,54.25976718742809
1673610896.9108648,0.610965,54.249076499797866
1673610896.911872,0.590218,54.238383280629016
1673610896.912879,0.588174,54.22769006146016
1673610896.9138858,0.57762,54.216999373829935
1673610896.914893,0.548027,54.206306154661085
1673610896.9159,0.495378,54.195612935492235
1673610896.9169068,0.448931,54.18492224786201
1673610896.917914,0.398615,54.174229028693155
1673610896.918922,0.348971,54.16352568336979
1673610896.919929,0.333296,54.15283246420094
1673610896.9209359,0.352024,54.14214177657072
1673610896.921943,0.386041,54.13144855740186
1673610896.92295,0.408231,54.12075533823301
1673610896.9239569,0.444724,54.11006465060279
1673610896.924964,0.498527,54.09937143143394
1673610896.925971,0.548291,54.08867821226508
1673610896.9269779,0.577813,54.07798752463486
1673610896.927985,0.60231,54.06729430546601
1673610896.928992,0.654815,54.05660108629716
1673610896.9299989,0.688087,54.04591039866693
1673610896.931007,0.679841,54.03520705334356
1673610896.932014,0.638852,54.02451383417471
1673610896.9330208,0.597646,54.01382314654449
1673610896.934028,0.577669,54.00312992737564
1673610896.935035,0.563412,53.99243670820678
1673610896.9360418,0.560191,53.98174602057656
1673610896.937049,0.554614,53.97105280140771
1673610896.938056,0.542978,53.96035958223886
1673610896.9390628,0.534371,53.949668894608635
1673610896.94007,0.524202,53.93897567543978
1673610896.941077,0.511749,53.92828245627093
1673610896.9420838,0.499368,53.917591768640705
1673610896.943091,0.473597,53.906898549471855
1673610896.944099,0.436719,53.89619520414848
1673610896.945106,0.294182,53.88550198497963
1673610896.9461129,0.258362,53.87481129734941
1673610896.94712,0.288629,53.861132000000005
1673610896.948127,0.34349,53.86500458726753
1673610896.9491339,0.421309,53.8789681030043
1673610896.950141,0.503672,53.875981480333735
1673610896.951148,0.585578,53.86322628612304
1673610896.9521549,0.667027,53.83218
1673610896.953162,0.719796,53.81619228843862
1673610896.954169,0.734966,53.812246660705775
1673610896.9551759,0.723595,53.80744161945636
1673610896.956184,0.698376,53.77520927639942
1673610896.957191,0.652603,53.76933404490465
1673610896.9581978,0.590771,53.76346020432643
1673610896.959205,0.532208,53.75758497283166
1673610896.960212,0.511028,53.75170974133688
1673610896.9612188,0.512134,53.745835900758664
1673610896.962226,0.508023,53.73996066926389
1673610896.963233,0.497445,53.73408543776912
1673610896.9642398,0.488887,53.72821159719089
1673610896.965247,0.483622,53.71957897973295
1673610896.966254,0.469895,53.68876431402003
1673610896.9672608,0.458644,53.633194
1673610896.968268,0.470616,53.642087788507396
1673610896.969276,0.469799,53.669373
1673610896.970283,0.479271,53.66464993133047
1673610896.9712899,0.487709,53.631895808581646
1673610896.972297,0.483983,53.57395083524082
1673610896.973304,0.492853,53.560829
1673610896.9743109,0.512783,53.555294244193874
1673610896.975318,0.524371,53.53600479821609
1673610896.976325,0.551897,53.5167153522383
1673610896.9773319,0.56447,53.49743047289072
1673610896.978339,0.562811,53.47814102691294
1673610896.979346,0.564278,53.45885158093515
1673610896.9803529,0.561273,53.439566701587566
1673610896.981361,0.540261,53.42025898908897
1673610896.982368,0.535838,53.40096954311119
1673610896.9833748,0.535165,53.38168466376361
1673610896.984382,0.545166,53.36239521778582
1673610896.985389,0.549782,53.343105771808034
1673610896.9863958,0.534444,53.32382089246045
1673610896.987403,0.522183,53.30453144648267
1673610896.98841,0.531511,53.28524200050488
1673610896.9894168,0.548099,53.2659571211573
1673610896.990424,0.550575,53.246667675179516
1673610896.991431,0.553195,53.250004226275635
1673610896.9924378,0.55697,53.21873092846924
1673610896.993445,0.554421,53.144756
1673610896.994453,0.556657,53.136959835041715
1673610896.99546,0.55257,53.134590102765856
1673610896.9964669,0.535982,53.112562828326176
1673610896.997474,0.51473,53.088750700595945
1673610896.998481,0.4967,53.1251833051979
1673610896.9994879,0.477107,53.11104460801145
1673610897.000495,0.451576,53.06617591898218
1673610897.001502,0.431574,53.0529267787507
1673610897.0025089,0.427607,53.0396807751528
1673610897.003516,0.454773,53.02643163492132
1673610897.004523,0.492132,53.01318249468984
1673610897.0055299,0.531511,52.99993649109194
1673610897.006538,0.560335,52.98667480432615
1673610897.007545,0.567716,52.97342566409467
1673610897.0085518,0.566995,52.96017966049677
1673610897.009559,0.569375,52.94693052026529
1673610897.010566,0.578101,52.93368138003381
1673610897.0115728,0.574712,52.86789694420601
1673610897.01258,0.573149,52.8494201888412
1673610897.013587,0.577669,52.86318894994041
1673610897.0145938,0.568221,52.855316
1673610897.015601,0.561081,52.84484387505961
1673610897.016608,0.550815,52.837227
1673610897.0176148,0.532016,52.837227
1673610897.018622,0.478237,52.84807867477349
1673610897.01963,0.407798,52.84431768097282
1673610897.020637,0.358755,52.842385289408256
1673610897.0216439,0.335268,52.85082848947456
1673610897.022651,0.332191,52.859273688877835
1673610897.023658,0.346927,52.86771888828112
1673610897.0246649,0.382411,52.85561897877921
1673610897.025672,0.440012,52.83732025441107
1673610897.026679,0.514105,52.873413
1673610897.0276859,0.571658,52.841859780639005
1673610897.028693,0.611277,52.78939840796376
1673610897.0296998,0.671355,52.787922155899885
1673610897.030707,0.722657,52.7782491316166
1673610897.031715,0.721263,52.794211789938004
1673610897.032722,0.689265,52.78992294159714
1673610897.0337288,0.638203,52.80266774282016
1673610897.034736,0.589448,52.80683195077657
1673610897.035743,0.571202,52.81099615873297
1673610897.0367498,0.575745,52.81515938084469
1673610897.037757,0.576202,52.81932358880109
1673610897.038764,0.572452,52.8234877967575
1673610897.0397708,0.56661,52.82765101886921
1673610897.040778,0.550767,52.83181522682562
1673610897.041785,0.524467,52.83597943478202
1673610897.0427918,0.491195,52.84014265689373
1673610897.043799,0.457875,52.84430686485014
1673610897.044807,0.438305,52.84847501618529
1673610897.045814,0.428665,52.85263922414169
1673610897.0468209,0.417486,52.85680244625341
1673610897.047828,0.396691,52.86096665420981
1673610897.048835,0.411572,52.86513086216622
1673610897.0498419,0.442152,52.86929408427793
1673610897.050849,0.470929,52.87345829223433
1673610897.0518558,0.507037,52.87762151434605
1673610897.052863,0.561994,52.88178572230245
1673610897.05387,0.610484,52.88594993025886
1673610897.0548768,0.64842,52.890113152370574
1673610897.055884,0.678519,52.89427736032698
1673610897.056892,0.676668,52.898445511662125
1673610897.057899,0.651184,52.90260971961853
1673610897.0589058,0.613273,52.906772941730246
1673610897.059913,0.57399,52.91093714968665
1673610897.06092,0.544348,52.91510135764305
1673610897.0619268,0.526654,52.919264579754774
1673610897.062934,0.517615,52.923428787711174
1673610897.063941,0.50848,52.92759299566758
1673610897.0649478,0.502638,52.931756217779295
1673610897.065955,0.50622,52.935920425735695
1673610897.066962,0.51562,52.9400846336921
1673610897.0679688,0.521558,52.944247855803816
1673610897.068976,0.529419,52.957327100619935
1673610897.069984,0.529756,52.928749326340885
1673610897.070991,0.522856,52.89776060515022
1673610897.071998,0.515524,52.915414300429184
1673610897.073005,0.525092,52.939763330870086
1673610897.0740118,0.527328,52.896945414878395
1673610897.075019,0.517375,52.88574836957559
1673610897.076026,0.521342,52.891502
1673610897.0770328,0.519178,52.90408822317597
1673610897.07804,0.503816,52.90647906480382
1673610897.079047,0.501316,52.902018739746595
1673610897.0800538,0.505042,52.89755947063753
1673610897.081061,0.506485,52.89309914558031
1673610897.082069,0.508384,52.88863459673042
1673610897.083076,0.501532,52.884174271673196
1673610897.0840828,0.517351,52.87971500256414
1673610897.08509,0.545406,52.875254677506916
1673610897.086097,0.584953,52.87079435244969
1673610897.0871038,0.612479,52.86633508334063
1673610897.088111,0.61635,52.861874758283406
1673610897.089118,0.602262,52.85741443322618
1673610897.0901248,0.571971,52.85295516411713
1673610897.091132,0.532544,52.8484948390599
1673610897.092139,0.484391,52.84403451400268
1673610897.0931458,0.455134,52.839575244893624
1673610897.094153,0.443354,52.8351149198364
1673610897.095161,0.436094,52.830650370986504
1673610897.0961678,0.445157,52.82619110187745
1673610897.097175,0.474318,52.821730776820225
1673610897.098182,0.517639,52.817270451763
1673610897.0991888,0.561008,52.812811182653945
1673610897.100196,0.599786,52.80835085759672
1673610897.101203,0.612888,52.8038905325395
1673610897.1022098,0.593992,52.79943126343044
1673610897.103217,0.559157,52.79497093837321
1673610897.104224,0.560528,52.79051061331599
1673610897.1052308,0.56649,52.78605134420693
1673610897.106238,0.548123,52.78159101914971
1673610897.107246,0.54995,52.77712647029982
1673610897.108253,0.572404,52.772666145242596
1673610897.1092598,0.593127,52.76820687613354
1673610897.110267,0.601156,52.76374655107631
1673610897.111274,0.604546,52.759286226019086
1673610897.1122808,0.593535,52.75482695691003
1673610897.113288,0.580794,52.750366631852806
1673610897.114295,0.563412,52.74590630679558
1673610897.1153018,0.53704,52.74144703768653
1673610897.116309,0.524707,52.7369867126293
1673610897.117316,0.529804,52.73252638757208
1673610897.1183228,0.533891,52.728067118463024
1673610897.11933,0.526751,52.7236067934058
1673610897.120338,0.518192,52.719142244555904
1673610897.1213448,0.513649,52.71468297544685
1673610897.122352,0.513168,52.710222650389625
1673610897.123359,0.533266,52.7057623253324
1673610897.1243658,0.556994,52.701303056223345
1673610897.125373,0.574135,52.69684273116612
1673610897.12638,0.564278,52.6923824061089
1673610897.1273868,0.547305,52.687923136999835
1673610897.128394,0.52389,52.68346281194261
1673610897.129401,0.509754,52.67900248688539
1673610897.1304078,0.511437,52.67454321777633
1673610897.131415,0.531174,52.67008289271911
1673610897.132423,0.563124,52.66561834386922
1673610897.13343,0.587092,52.661158018811996
1673610897.1344368,0.590097,52.65669874970293
1673610897.135444,0.584328,52.656326
1673610897.136451,0.57286,52.63950473921334
1673610897.1374578,0.560167,52.62129096256557
1673610897.138465,0.550094,52.620148
1673610897.139472,0.541319,52.58572811171987
1673610897.1404788,0.530477,52.56663523075089
1673610897.141486,0.522736,52.53096204148784
1673610897.142493,0.519899,52.60003926180257
1673610897.1434999,0.525236,52.584344941120385
1673610897.144507,0.532905,52.5686616452924
1673610897.145515,0.532064,52.55301819385256
1673610897.1465218,0.52038,52.53739324223704
1673610897.147529,0.510042,52.52176459065665
1673610897.148536,0.501628,52.50613593907626
1673610897.1495428,0.505691,52.49051098746074
1673610897.15055,0.503864,52.474882335880345
1673610897.151557,0.508143,52.45925368429996
1673610897.1525638,0.52514,52.44362873268443
1673610897.153571,0.533434,52.428000081104045
1673610897.154578,0.519923,52.41237142952366
1673610897.1555848,0.517735,52.39674647790813
1673610897.156592,0.525837,52.381117826327745
1673610897.1576,0.525308,52.3654743748879
1673610897.158607,0.499801,52.34984572330752
1673610897.1596138,0.477251,52.33422077169199
1673610897.160621,0.486218,52.3185921201116
1673610897.161628,0.50021,52.30296346853121
1673610897.1626348,0.515956,52.28733851691569
1673610897.163642,0.554277,52.271709865335296
1673610897.164649,0.598103,52.25608121375491
1673610897.1656559,0.634693,52.24045626213938
1673610897.166663,0.663012,52.224827610559
1673610897.16767,0.659647,52.20919895897861
1673610897.1686769,0.634645,52.19357400736308
1673610897.169684,0.616181,52.1779453557827
1673610897.170692,0.609691,52.162301904342854
1673610897.1716988,0.602719,52.14667695272733
1673610897.172706,0.596781,52.13104830114694
1673610897.173713,0.587165,52.115419649566554
1673610897.1747198,0.567019,52.099794697951026
1673610897.175727,0.538843,52.08416604637064
1673610897.176734,0.508768,52.068537394790255
1673610897.1777408,0.475929,52.052912443174726
1673610897.178748,0.450783,52.03728379159434
1673610897.179755,0.414553,52.02165514001395
1673610897.1807618,0.376642,52.00603018839843
1673610897.181769,0.363395,51.990401536818034
1673610897.182777,0.366833,51.9747580853782
1673610897.183784,0.390825,51.959129433797806
1673610897.1847908,0.45547,51.943504482182284
1673610897.185798,0.526029,51.92787583060189
1673610897.186805,0.578606,51.912247179021506
1673610897.1878119,0.647074,51.89662222740598
1673610897.188819,0.717825,51.88099357582559
1673610897.189826,0.763021,51.89370574725799
1673610897.1908329,0.764055,51.881165785458876
1673610897.19184,0.718955,51.83194451931331
1673610897.192847,0.66859,51.87107265665236
1673610897.1938539,0.628947,51.878448
1673610897.194861,0.599569,51.81492428183119
1673610897.195869,0.581804,51.806091
1673610897.1968758,0.577981,51.806091
1673610897.197883,0.584039,51.806091
1673610897.19889,0.581251,51.806091
1673610897.1998968,0.566442,51.806091
1673610897.200904,0.54793,51.806091
1673610897.201911,0.518481,51.806091
1673610897.2029178,0.464486,51.73619434668574
1673610897.203925,0.420059,51.716128599523245
1673610897.204932,0.404985,51.69791029756795
1673610897.2059388,0.413087,51.76896400739152
1673610897.206946,0.445133,51.769913
1673610897.207954,0.480785,51.71562089835968
1673610897.208961,0.504465,51.707119232272284
1673610897.2099679,0.522303,51.698619578889925
1673610897.210975,0.563653,51.69011791280253
1673610897.211982,0.620461,51.68161624671513
1673610897.2129889,0.683062,51.67311659333277
1673610897.213996,0.716142,51.66461492724537
1673610897.215003,0.688039,51.65611326115797
1673610897.2160099,0.639092,51.64761360777561
1673610897.217017,0.608272,51.63911194168821
1673610897.218024,0.594954,51.630610275600816
1673610897.2190309,0.590554,51.62211062221846
1673610897.220038,0.581227,51.61360895613106
1673610897.221046,0.578318,51.6050992392235
1673610897.2220528,0.567764,51.59659958584114
1673610897.22306,0.552186,51.58809791975374
1673610897.224067,0.538651,51.579596253666345
1673610897.2250738,0.533073,51.57109660028399
1673610897.226081,0.534347,51.56259493419658
1673610897.227088,0.529107,51.554093268109185
1673610897.2280948,0.526126,51.545593614726826
1673610897.229102,0.525837,51.53709194863943
1673610897.230109,0.524683,51.52859028255203
1673610897.2311158,0.509057,51.52009062916967
1673610897.232123,0.473405,51.511588963082275
1673610897.233131,0.445494,51.503079246174714
1673610897.234138,0.445854,51.494577580087316
1673610897.2351449,0.455062,51.48607792670496
1673610897.236152,0.46576,51.47757626061756
1673610897.237159,0.487492,51.469074594530156
1673610897.2381659,0.543291,51.4605749411478
1673610897.239173,0.60106,51.4520732750604
1673610897.24018,0.652122,51.443571608973
1673610897.2411869,0.706694,51.435071955590644
1673610897.242194,0.740303,51.426570289503246
1673610897.243201,0.734605,51.41806862341585
1673610897.2442079,0.689096,51.40956897003348
1673610897.245215,0.628538,51.401067303946085
1673610897.246223,0.561393,51.39255758703853
1673610897.2472298,0.53252,51.38405793365617
1673610897.248237,0.557162,51.375556267568776
1673610897.249244,0.580577,51.36705460148137
1673610897.2502508,0.589929,51.35855494809901
1673610897.251258,0.598896,51.350053282011615
1673610897.252265,0.596372,51.34155161592422
1673610897.2532718,0.58452,51.324180478540775
1673610897.254279,0.568725,51.31139336981402
1673610897.255286,0.58452,51.335751
1673610897.2562928,0.558051,51.31724928843862
1673610897.2573,0.54769,51.281475
1673610897.258308,0.536006,51.287914407963754
1673610897.259315,0.528265,51.26672891871275
1673610897.2603219,0.522351,51.22249965236052
1673610897.261329,0.515115,51.2589342925608
1673610897.262336,0.529083,51.27361473817358
1673610897.2633429,0.549565,51.25301021570743
1673610897.26435,0.565913,51.23240081412158
1673610897.265357,0.585001,51.21179141253573
1673610897.2663639,0.606229,51.19118689006958
1673610897.267371,0.618634,51.18341199533203
1673610897.268378,0.628202,51.17574124695076
1673610897.2693849,0.623442,51.16807231456106
1673610897.270392,0.608681,51.16040156617979
1673610897.2714,0.580049,51.15272355383225
1673610897.2724068,0.568293,51.145054621442554
1673610897.273414,0.570504,51.13738387306129
1673610897.274421,0.553339,51.129713124680016
1673610897.2754278,0.51312,51.12204419229032
1673610897.276435,0.487901,51.11437344390905
1673610897.277442,0.46136,51.10670269552778
1673610897.2784488,0.435877,51.09903376313808
1673610897.279456,0.42893,51.091363014756816
1673610897.280463,0.436238,51.08369226637554
1673610897.2814698,0.447201,51.076023333985844
1673610897.282477,0.480232,51.06835258560458
1673610897.283485,0.539973,51.06067457325704
1673610897.284492,0.604931,51.05300382487577
1673610897.2854989,0.662556,51.04533489248607
1673610897.286506,0.700997,51.0376641441048
1673610897.287513,0.707151,51.02999339572354
1673610897.2885199,0.701814,51.02232446333384
1673610897.289527,0.690827,51.014653714952566
1673610897.290534,0.661738,51.0069829665713
1673610897.2915409,0.633755,50.9993140341816
1673610897.292548,0.626976,50.99164328580033
1673610897.293555,0.633322,50.983972537419064
1673610897.2945619,0.625726,50.976303605029365
1673610897.295569,0.614619,50.96863285664809
1673610897.296577,0.60594,50.96095484430056
1673610897.2975838,0.600315,50.953285911910854
1673610897.298591,0.585914,50.94561516352959
1673610897.299598,0.571298,50.93794441514832
1673610897.3006048,0.559662,50.930275482758624
1673610897.301612,0.535117,50.92260473437735
1673610897.302619,0.520596,50.914933985996086
1673610897.3036258,0.515692,50.90726505360639
1673610897.304633,0.517856,50.88742525560324
1673610897.30564,0.522327,50.83761695898903
1673610897.3066468,0.535045,50.82107783480334
1673610897.307654,0.562138,50.85241104434907
1673610897.308662,0.581948,50.85491262279447
1673610897.309669,0.5844,50.84534269558999
1673610897.3106759,0.574014,50.86700715689079
1673610897.311683,0.564951,50.829224
1673610897.31269,0.561633,50.82347005150215
1673610897.3136969,0.565167,50.81407308552867
1673610897.314704,0.576707,50.82318144743116
1673610897.315711,0.591684,50.83228980933365
1673610897.3167179,0.590771,50.84139601490047
1673610897.317725,0.57976,50.82816263280878
1673610897.318732,0.588318,50.80607082021936
1673610897.3197389,0.591925,50.81595117973779
1673610897.320747,0.590698,50.793045
1673610897.321754,0.579399,50.73449918181818
1673610897.3227608,0.565143,50.733020040404035
1673610897.323768,0.545574,50.70199699554836
1673610897.324775,0.529395,50.719791029102666
1673610897.3257818,0.530044,50.75271382832618
1673610897.326789,0.533746,50.72052209848372
1673610897.327796,0.532713,50.72013109104819
1673610897.3288028,0.532881,50.7197401761807
1673610897.32981,0.518913,50.71934916874517
1673610897.330817,0.530285,50.71895816130964
1673610897.3318238,0.554445,50.71856724644215
1673610897.332831,0.575096,50.71817623900662
1673610897.333839,0.577717,50.71778486129889
1673610897.334846,0.578919,50.717393853863356
1673610897.3358529,0.598656,50.71700293899587
1673610897.33686,0.616662,50.71661193156034
1673610897.337867,0.627192,50.716220924124805
1673610897.3388739,0.633539,50.71583000925732
1673610897.339881,0.625413,50.715439001821785
1673610897.340888,0.59154,50.715047994386246
1673610897.3418949,0.551609,50.714657079518766
1673610897.342902,0.536463,50.71426607208323
1673610897.343909,0.527664,50.713875064647695
1673610897.3449159,0.517255,50.71348414978021
1673610897.345924,0.509514,50.713092772072486
1673610897.346931,0.53115,50.71270176463695
1673610897.3479378,0.57173,50.712310849769466
1673610897.348945,0.602046,50.71191984233393
1673610897.349952,0.611806,50.711528834898395
1673610897.3509588,0.621663,50.71113792003091
1673610897.351966,0.6439,50.710746912595376
1673610897.352973,0.663806,50.710355905159844
1673610897.3539798,0.660272,50.709964990292356
1673610897.354987,0.648228,50.709573982856824
1673610897.355994,0.639861,50.709182975421285
1673610897.3570008,0.620677,50.708792060553805
1673610897.358008,0.59606,50.708401053118266
1673610897.359016,0.571971,50.708009675410544
1673610897.360023,0.545574,50.707618667975005
1673610897.3610299,0.524707,50.707227753107524
1673610897.362037,0.500498,50.706836745671986
1673610897.363044,0.480497,50.706445738236454
1673610897.3640509,0.482853,50.706054823368966
1673610897.365058,0.490353,50.705663815933434
1673610897.366065,0.49557,50.7052728084979
1673610897.3670719,0.503335,50.704881893630414
1673610897.368079,0.517495,50.70449088619488
1673610897.369086,0.5324,50.70409987875935
1673610897.3700929,0.548868,50.70370896389186
1673610897.371101,0.555263,50.703317586184134
1673610897.372108,0.572981,50.7029265787486
1673610897.3731148,0.608513,50.699830171673824
1673610897.374122,0.63575,50.684505
1673610897.375129,0.629356,50.69658125178827
1673610897.3761358,0.610364,50.74427044009546
1673610897.377143,0.579496,50.69436603453203
1673610897.37815,0.535742,50.73537430376729
1673610897.3791568,0.508504,50.71715686085919
1673610897.380164,0.519899,50.702595
1673610897.381171,0.558556,50.71015831489869
1673610897.3821778,0.594737,50.73884283398896
1673610897.383185,0.628274,50.73916877738052
1673610897.384193,0.650199,50.73949502943059
1673610897.3852,0.652338,50.739820972822145
1673610897.3862069,0.653781,50.740146839049075
1673610897.387214,0.63325,50.740472782440634
1673610897.388221,0.603079,50.74079872583219
1673610897.3892279,0.581972,50.741124592059116
1673610897.390235,0.578895,50.741450535450674
1673610897.391242,0.582549,50.74177647884223
1673610897.3922489,0.584232,50.74210234506916
1673610897.393256,0.593487,50.74242828846072
1673610897.394263,0.60368,50.742754231852274
1673610897.3952699,0.576707,50.743080098079204
1673610897.396278,0.527424,50.74340635012928
1673610897.397285,0.481554,50.743732293520836
1673610897.3982918,0.445037,50.744058159747766
1673610897.399299,0.426141,50.74438410313932
1673610897.400306,0.443282,50.74471004653088
1673610897.4013128,0.474246,50.74503591275781
1673610897.40232,0.494825,50.745361856149366
1673610897.403327,0.51437,50.745687799540924
1673610897.4043338,0.547618,50.74601366576785
1673610897.405341,0.597694,50.746339609159406
1673610897.406348,0.65068,50.746665552550965
1673610897.4073548,0.68049,50.746991418777895
1673610897.408362,0.690371,50.74731736216945
1673610897.40937,0.665705,50.74764361421952
1673610897.410377,0.624499,50.74796955761108
1673610897.4113839,0.59493,50.74829542383801
1673610897.412391,0.592453,50.74862136722957
1673610897.413398,0.589256,50.74894731062112
1673610897.4144049,0.604378,50.74927317684805
1673610897.415412,0.618898,50.74959912023961
1673610897.416419,0.616903,50.74992506363117
1673610897.4174259,0.60796,50.7502509298581
1673610897.418433,0.577116,50.75057687324965
1673610897.41944,0.543242,50.75090281664121
1673610897.4204469,0.512951,50.75122868286814
1673610897.421455,0.486314,50.75155493491821
1673610897.422462,0.474246,50.75188087830977
1673610897.4234688,0.48742,50.75220674453669
1673610897.424476,0.507855,50.75253268792825
1673610897.425483,0.512543,50.75285863131981
1673610897.4264898,0.50372,50.75318449754674
1673610897.427497,0.504489,50.7535104409383
1673610897.428504,0.538338,50.75383638432985
1673610897.4295108,0.580866,50.75416225055678
1673610897.430518,0.600699,50.75448819394834
1673610897.431525,0.604642,50.7548141373399
1673610897.4325318,0.603224,50.75514000356682
1673610897.433539,0.615556,50.75546594695838
1673610897.434547,0.63176,50.755792199008454
1673610897.435554,0.647699,50.75611814240001
1673610897.4365609,0.655007,50.75644400862694
1673610897.437568,0.642265,50.7567699520185
1673610897.438575,0.618826,50.73037896900334
1673610897.4395819,0.596204,50.73405019241774
1673610897.440589,0.585602,50.75226312967819
1673610897.441596,0.584135,50.793045
1673610897.4426029,0.566778,50.745847872928174
1673610897.44361,0.549613,50.753233123848986
1673610897.444617,0.548988,50.79632075425679
1673610897.4456239,0.560888,50.714485466380545
1673610897.446632,0.581755,50.78823056294707
1673610897.447639,0.586203,50.816695785741196
1673610897.4486458,0.568725,50.82373005384094
1673610897.449653,0.547978,50.83076598764471
1673610897.45066,0.502181,50.83780192144848
1673610897.4516668,0.441479,50.84483618954823
1673610897.452674,0.419602,50.851872123352
1673610897.453681,0.429891,50.85890805715577
1673610897.4546878,0.46439,50.86594232525552
1673610897.455695,0.511677,50.872978259059295
1673610897.456702,0.540887,50.880014192863065
1673610897.4577088,0.59142,50.88704846096281
1673610897.458716,0.651136,50.89408439476658
1673610897.459724,0.705324,50.901126991386455
1673610897.460731,0.747467,50.908162925190226
1673610897.4617379,0.740615,50.91519719328997
1673610897.462745,0.689722,50.92223312709375
1673610897.463752,0.638804,50.92926906089752
1673610897.4647589,0.603272,50.93630332899726
1673610897.465766,0.586179,50.94333926280103
1673610897.466773,0.580794,50.9503751966048
1673610897.4677799,0.587501,50.957409464704554
1673610897.468787,0.593223,50.964445398508325
1673610897.469794,0.598752,50.971481332312095
1673610897.4708009,0.60149300000000006,50.97851560041184
1673610897.471809,0.597141,50.985558197031715
1673610897.472816,0.590218,50.992594130835485
1673610897.4738228,0.577476,50.999628398935236
1673610897.47483,0.571226,51.00666433273901
1673610897.475837,0.587333,51.010124
1673610897.4768438,0.588847,50.97258255221745
1673610897.477851,0.592958,50.90921891940868
1673610897.478858,0.58476,50.89313371728248
1673610897.4798648,0.557811,50.911350100619934
1673610897.480872,0.519226,50.92957217405818
1673610897.481879,0.49057,50.937767
1673610897.4828858,0.462442,50.92762266809728
1673610897.483893,0.475208,50.888851716738195
1673610897.484901,0.521125,50.8627971408732
1673610897.485908,0.561056,50.85824295008196
1673610897.4869149,0.600699,50.85368983746089
1673610897.487922,0.627312,50.84913564666965
1673610897.488929,0.645367,50.84458145587841
1673610897.4899359,0.643011,50.840028343257345
1673610897.490943,0.629284,50.835474152466105
1673610897.49195,0.627913,50.830919961674866
1673610897.4929569,0.629861,50.81779374248927
1673610897.493964,0.617359,50.811134
1673610897.494971,0.579423,50.79944837663886
1673610897.4959779,0.562403,50.78123843586075
1673610897.496986,0.554157,50.75104241201717
1673610897.497993,0.532953,50.714608338259836
1673610897.4989998,0.502854,50.739210908440626
1673610897.500007,0.477347,50.719854937052936
1673610897.501014,0.480617,50.702595
1673610897.5020208,0.510115,50.70531211989914
1673610897.503028,0.54394,50.70924398507693
1673610897.504035,0.576875,50.71317585025472
1673610897.5050418,0.612239,50.71710678459322
1673610897.506049,0.6483,50.72042622630607
1673610897.507056,0.675538,50.71756838881746
1673610897.5080628,0.676619,50.71471122790023
1673610897.50907,0.668734,50.71185339041163
1673610897.510078,0.666114,50.70899284663752
1673610897.511085,0.66633,50.70613500914892
1673610897.5120919,0.666907,50.70327784823169
1673610897.513099,0.657315,50.70042001074309
1673610897.514106,0.649069,50.69756217325448
1673610897.5151129,0.642338,50.69470501233725
1673610897.51612,0.638683,50.69184717484865
1673610897.517127,0.625052,50.68898933736004
1673610897.5181339,0.599353,50.68613217644281
1673610897.519141,0.578318,50.683274338954206
1673610897.520148,0.567596,50.6804165014656
1673610897.5211549,0.56209,50.67755934054837
1673610897.522163,0.561393,50.674698796774265
1673610897.52317,0.560792,50.67184095928566
1673610897.5241768,0.571226,50.66898379836843
1673610897.525184,0.588439,50.666125960879825
1673610897.526191,0.585482,50.66326812339123
1673610897.5271978,0.560816,50.660410962473996
1673610897.528205,0.555599,50.65755312498539
1673610897.529212,0.574736,50.654695287496786
1673610897.5302188,0.593247,50.651838126579555
1673610897.531226,0.59892,50.64898028909095
1673610897.532233,0.591852,50.646122451602345
1673610897.5332398,0.595266,50.643265290685115
1673610897.534247,0.6151,50.64040745319651
1673610897.535255,0.621278,50.637546909422404
1673610897.536262,0.620605,50.6346890719338
1673610897.5372689,0.622023,50.63183191101657
1673610897.538276,0.621927,50.628974073527964
1673610897.539283,0.612527,50.62611623603936
1673610897.5402899,0.597983,50.62325907512213
1673610897.541297,0.57875,50.62040123763352
1673610897.542304,0.555359,50.617543400144925
1673610897.5433109,0.534155,50.614686239227694
1673610897.544318,0.529587,50.61182840173909
1673610897.5453248,0.533554,50.60897124082186
1673610897.546332,0.527183,50.606113403333254
1673610897.54734,0.533674,50.60325285955915
1673610897.548347,0.552258,50.60039502207054
1673610897.5493538,0.545622,50.59753786115331
1673610897.550361,0.502494,50.59468002366471
1673610897.551368,0.482829,50.5918221861761
1673610897.5523748,0.504393,50.58896502525887
1673610897.553382,0.527544,50.58610718777027
1673610897.554389,0.547594,50.58324935028166
1673610897.5553958,0.572692,50.58039218936443
1673610897.556403,0.592886,50.577534351875826
1673610897.55741,0.6295,50.55958751214864
1673610897.5584168,0.672364,50.539783
1673610897.559424,0.697751,50.539783
1673610897.560432,0.709291,50.539783
1673610897.561439,0.702896,50.5484941169326
1673610897.5624459,0.681331,50.52257047496423
1673610897.563453,0.63777,50.4944744372315
1673610897.56446,0.609546,50.52178446653965
1673610897.5654669,0.601517,50.54898759227468
1673610897.566474,0.565071,50.552404610187644
1673610897.5674808,0.533554,50.54173316371001
1673610897.568488,0.520091,50.53105919025003
1673610897.569495,0.509009,50.520385216790054
1673610897.5705018,0.502061,50.50971377031243
1673610897.571509,0.498142,50.49903979685244
1673610897.572517,0.508263,50.48835571546305
1673610897.573524,0.51461,50.47768174200307
1673610897.5745308,0.536391,50.46701029552545
1673610897.575538,0.572235,50.45633632206546
1673610897.576545,0.619211,50.449329
1673610897.5775518,0.660873,50.462096029089174
1673610897.578559,0.676716,50.472485284862934
1673610897.579566,0.676619,50.429415206008585
1673610897.5805728,0.68073,50.415350037672866
1673610897.58158,0.679384,50.4355477261025
1673610897.582587,0.67936,50.42016835884597
1673610897.5835938,0.673927,50.43838243776824
1673610897.584601,0.639092,50.42751830917759
1673610897.585609,0.60796,50.39382533142376
1673610897.586616,0.589376,50.39078899397989
1673610897.587623,0.576154,50.387753375365904
1673610897.58863,0.580313,50.38471703792204
1673610897.5896368,0.584376,50.38168141930805
1673610897.590644,0.584111,50.37864508186418
1673610897.591651,0.578726,50.375608744420305
1673610897.5926578,0.567091,50.37257312580632
1673610897.593665,0.53139,50.36953678836245
1673610897.594672,0.50146,50.36650045091858
1673610897.5956788,0.490978,50.363464832304594
1673610897.596686,0.467106,50.36042849486072
1673610897.597694,0.44107,50.3573892820973
1673610897.598701,0.426213,50.35435294465343
1673610897.5997078,0.439267,50.35131732603944
1673610897.600715,0.473621,50.34828098859557
1673610897.601722,0.501364,50.3452446511517
1673610897.6027288,0.555551,50.34220903253772
1673610897.603736,0.636111,50.33917269509384
1673610897.604743,0.696453,50.33613635764997
1673610897.6057498,0.730254,50.333100739035984
1673610897.606757,0.739221,50.33006440159211
1673610897.607764,0.726047,50.327028064148244
1673610897.6087708,0.711286,50.32399244553426
1673610897.609778,0.694265,50.320956108090385
1673610897.610786,0.655464,50.31791689532697
1673610897.6117928,0.629716,50.31488127671298
1673610897.6128,0.618658,50.31184493926911
1673610897.613807,0.621639,50.308808601825234
1673610897.6148138,0.620773,50.30577298321125
1673610897.615821,0.621903,50.30273664576738
1673610897.616828,0.619523,50.29970030832351
1673610897.6178348,0.606998,50.29666468970952
1673610897.618842,0.590843,50.29362835226565
1673610897.619849,0.579736,50.290592014821776
1673610897.6208558,0.573774,50.2875563962078
1673610897.621863,0.557907,50.31053806078665
1673610897.622871,0.548531,50.31054479494516
1673610897.623878,0.552811,50.280043774439676
1673610897.6248848,0.566057,50.268433
1673610897.625892,0.569903,50.23760454620011
1673610897.626899,0.576467,50.177979
1673610897.6279058,0.577596,50.195754136686716
1673610897.628913,0.580049,50.178551969928925
1673610897.62992,0.594665,50.201114287553644
1673610897.6309268,0.590747,50.18730162995637
1673610897.631934,0.556393,50.17517285594253
1673610897.632941,0.519106,50.16304408192868
1673610897.6339478,0.503864,50.1509181793102
1673610897.634955,0.526967,50.13878940529636
1673610897.635963,0.57375,50.12664914570106
1673610897.6369698,0.602022,50.11452324308257
1673610897.637977,0.635486,50.102394469068734
1673610897.638984,0.662772,50.09026569505489
1673610897.6399908,0.670056,50.0781397924364
1673610897.640998,0.658974,50.06601101842256
1673610897.642005,0.645872,50.05388224440871
1673610897.6430118,0.64366,50.04175634179023
1673610897.644019,0.632914,50.02962756777639
1673610897.645026,0.595867,50.01749879376254
1673610897.6460328,0.5631,50.00537289114406
1673610897.64704,0.553748,49.99324411713022
1673610897.648048,0.568293,49.98110385753492
1673610897.649055,0.580169,49.96897508352107
1673610897.6500618,0.583655,49.95684918090259
1673610897.651069,0.57851,49.94472040688875
1673610897.652076,0.591828,49.9325916328749
1673610897.6530828,0.621807,49.92046573025642
1673610897.65409,0.639669,49.90833695624257
1673610897.655097,0.639188,49.896208182228726
1673610897.6561038,0.627721,49.88408227961025
1673610897.657111,0.618489,49.8719535055964
1673610897.658118,0.588439,49.859824731582556
1673610897.6591249,0.538891,49.84769882896408
1673610897.660132,0.521486,49.83557005495023
1673610897.66114,0.525116,49.82342979535493
1673610897.6621468,0.529179,49.81130389273645
1673610897.663154,0.528025,49.7991751187226
1673610897.664161,0.519803,49.787046344708756
1673610897.6651678,0.514562,49.77492044209028
1673610897.666175,0.517399,49.76279166807643
1673610897.667182,0.543483,49.750662894062586
1673610897.6681888,0.561706,49.73853699144411
1673610897.669196,0.575505,49.72640821743026
1673610897.670203,0.591684,49.714279443416416
1673610897.6712098,0.627096,49.70215354079793
1673610897.672217,0.659887,49.69002476678409
1673610897.673225,0.690178,49.67788450718879
1673610897.674232,0.7266,49.66575573317495
1673610897.6752388,0.740904,49.65362983055646
1673610897.676246,0.721118,49.641501056542616
1673610897.677253,0.671667,49.66186697353362
1673610897.6782598,0.631231,49.68055956986171
1673610897.679267,0.600579,49.662339319904646
1673610897.680274,0.57964,49.64411909895088
1673610897.6812809,0.561609,49.62590502002861
1673610897.682288,0.553219,49.636174215971394
1673610897.683295,0.549108,49.64373954911779
1673610897.6843019,0.553748,49.62552547019552
1673610897.685309,0.561537,49.607306532188844
1673610897.686317,0.550695,49.59399621110201
1673610897.6873238,0.53252,49.584732888160424
1673610897.688331,0.523529,49.575467371678016
1673610897.689338,0.52502,49.5662018551956
1673610897.6903448,0.535069,49.556938532254016
1673610897.691352,0.550791,49.54767301577161
1673610897.692359,0.552931,49.53840749928919
1673610897.6933658,0.570144,49.529144176347614
1673610897.694373,0.599257,49.5198786598652
1673610897.69538,0.620942,49.510613143382784
1673610897.6963868,0.645535,49.501349820441206
1673610897.697394,0.677124,49.49208430395879
1673610897.698402,0.690779,49.48281001331304
1673610897.699409,0.668566,49.47354449683063
1673610897.7004158,0.637049,49.46428117388905
1673610897.701423,0.604955,49.45501565740663
1673610897.70243,0.591035,49.44575014092422
1673610897.7034369,0.59392,49.43648681798264
1673610897.704444,0.597358,49.427221301500225
1673610897.705451,0.598872,49.41795578501781
1673610897.7064579,0.60707,49.40869246207623
1673610897.707465,0.6151,49.39942694559382
1673610897.708472,0.615893,49.3901614291114
1673610897.7094789,0.618129,49.38089810616982
1673610897.710486,0.616662,49.37163258968741
1673610897.711494,0.612191,49.36235829904166
1673610897.7125008,0.606205,49.35309497610008
1673610897.713508,0.608873,49.343829459617666
1673610897.714515,0.614979,49.33456394313525
1673610897.7155218,0.599497,49.32530062019367
1673610897.716529,0.577933,49.31603510371126
1673610897.717536,0.561754,49.30676958722885
1673610897.7185428,0.562643,49.297506264287264
1673610897.71955,0.560191,49.288240747804856
1673610897.720557,0.5512,49.27897523132244
1673610897.7215638,0.577019,49.26971190838086
1673610897.722571,0.591107,49.26044639189845
1673610897.723579,0.604233,49.2511721012527
1673610897.724586,0.610941,49.241906584770284
1673610897.7255929,0.607671,49.232643261828706
1673610897.7266,0.612191,49.22337774534629
1673610897.727607,0.625605,49.214112228863875
1673610897.7286139,0.623514,49.2048489059223
1673610897.729621,0.618586,49.19558338943988
1673610897.730628,0.606878,49.18631787295747
1673610897.7316349,0.588318,49.17705455001589
1673610897.732642,0.560792,49.167789033533474
1673610897.733649,0.542858,49.15852351705106
1673610897.7346559,0.538723,49.14926019410948
1673610897.735663,0.535405,49.139994677627065
1673610897.736671,0.544709,49.13072038698132
1673610897.7376778,0.557787,49.12145706403974
1673610897.738685,0.562571,49.11219154755732
1673610897.739692,0.563533,49.10292603107491
1673610897.7406988,0.570024,49.09366270813333
1673610897.741706,0.568221,49.084397191650915
1673610897.742713,0.58238,49.0751316751685
1673610897.7437198,0.623057,49.04062042966142
1673610897.744727,0.654406,49.07240822169249
1673610897.745734,0.661354,49.04011148783977
1673610897.7467408,0.672797,49.05560833500239
1673610897.747748,0.688375,49.021512582021934
1673610897.748756,0.673278,49.037791151370676
1673610897.749763,0.648636,49.05600945016691
1673610897.7507699,0.643251,48.94937590987124
1673610897.751777,0.644261,49.03765315137068
1673610897.752784,0.642722,49.04241751782904
1673610897.7537909,0.632289,49.046563506811395
1673610897.754798,0.618225,49.050710477557665
1673610897.755805,0.617552,49.054857448303935
1673610897.7568119,0.612143,49.056389
1673610897.757819,0.596468,49.05778230880481
1673610897.758826,0.578606,49.05996854074816
1673610897.7598329,0.568677,49.06215425511766
1673610897.76084,0.551272,49.06434048706102
1673610897.761848,0.524178,49.06652878929977
1673610897.7628548,0.505547,49.06871450366927
1673610897.763862,0.494801,49.07090073561262
1673610897.764869,0.507134,49.07308696755597
1673610897.7658758,0.542377,49.075272681925476
1673610897.766883,0.570504,49.077458913868824
1673610897.76789,0.578342,49.07964514581218
1673610897.7688968,0.597214,49.081830860181675
1673610897.769904,0.632481,49.08401709212503
1673610897.770911,0.648877,49.08620332406838
1673610897.7719178,0.667869,49.08838903843788
1673610897.772925,0.697222,49.09057527038124
1673610897.773933,0.701237,49.09276357261999
1673610897.77494,0.690827,49.094949804563335
1673610897.7759469,0.673518,49.09713551893284
1673610897.776954,0.662339,49.09932175087619
1673610897.777961,0.654166,49.10150798281954
1673610897.7789679,0.636928,49.103693697189044
1673610897.779975,0.60921,49.10587992913239
1673610897.780982,0.59517,49.10806616107575
1673610897.7819889,0.58351,49.11025187544525
1673610897.782996,0.570889,49.1124381073886
1673610897.784003,0.544589,49.114624339331954
1673610897.7850099,0.509105,49.11681005370146
1673610897.786017,0.494681,49.118996285644805
1673610897.787025,0.489464,49.121184587883555
1673610897.7880318,0.49932,49.12337030225306
1673610897.789039,0.520957,49.12555653419641
1673610897.790046,0.563244,49.12774276613976
1673610897.7910528,0.594449,49.129928480509264
1673610897.79206,0.627865,49.13211471245261
1673610897.793067,0.673422,49.13430094439597
1673610897.7940738,0.704627,49.13648665876547
1673610897.795081,0.712704,49.13867289070882
1673610897.796088,0.701429,49.140859122652174
1673610897.7970948,0.675994,49.14304483702168
1673610897.798102,0.648853,49.145231068965025
1673610897.79911,0.617552,49.147419371203775
1673610897.800117,0.5963,49.14960560314713
1673610897.8011239,0.600916,49.15179131751663
1673610897.802131,0.599353,49.15397754945998
1673610897.803138,0.58779,49.156163781403336
1673610897.8041449,0.586419,49.15834949577283
1673610897.805152,0.591372,49.16053572771619
1673610897.806159,0.58791,49.162721959659535
1673610897.8071659,0.583727,49.16490767402904
1673610897.808173,0.581227,49.20096435169289
1673610897.80918,0.571226,49.20124446027241
1673610897.8101869,0.564254,49.2192
1673610897.811194,0.561345,49.2184711015891
1673610897.812202,0.570312,49.281862868898976
1673610897.8132088,0.586708,49.23456404258943
1673610897.814216,0.595627,49.28989066325951
1673610897.815223,0.601781,49.269513146992054
1673610897.8162298,0.610532,49.26435850283769
1673610897.817237,0.631688,49.21500235094411
1673610897.818244,0.656449,49.236864149151245
1673610897.8192508,0.664743,49.25872077174328
1673610897.820258,0.656185,49.28058256995041
1673610897.821265,0.623995,49.302444368157545
1673610897.8222718,0.574159,49.309654
1673610897.823279,0.548027,49.33432542107773
1673610897.824287,0.562932,49.32086828230806
1673610897.825294,0.580193,49.34747989558999
1673610897.8263009,0.582284,49.32572478111588
1673610897.827308,0.588799,49.296792436337626
1673610897.828315,0.603801,49.25260070536353
1673610897.8293219,0.628442,49.250408721506915
1673610897.830329,0.63801,49.308351917978065
1673610897.831336,0.647795,49.32462419216556
1673610897.8323429,0.640559,49.32037420878335
1673610897.83335,0.603296,49.316123219011516
1673610897.834357,0.562235,49.31187222923968
1673610897.8353639,0.531655,49.30762224585747
1673610897.836372,0.510067,49.303367230527144
1673610897.837379,0.520308,49.29911624075531
1673610897.8383858,0.557042,49.2948662573731
1673610897.839393,0.573485,49.29061526760127
1673610897.8404,0.587453,49.286364277829435
1673610897.8414068,0.592718,49.282114294447226
1673610897.842414,0.581924,49.27786330467539
1673610897.843421,0.590602,49.27361231490356
1673610897.8444278,0.612599,49.26936233152135
1673610897.845435,0.635149,49.26511134174952
1673610897.846442,0.67097,49.26086035197768
1673610897.8474488,0.692414,49.256610368595474
1673610897.848456,0.68626,49.25235937882364
1673610897.849464,0.66395,49.24810436349331
1673610897.850471,0.650175,49.24385337372148
1673610897.8514779,0.640414,49.23960339033927
1673610897.852485,0.637698,49.235352400567436
1673610897.853492,0.645319,49.2311014107956
1673610897.8544989,0.645415,49.22685142741339
1673610897.855506,0.625798,49.22260043764156
1673610897.856513,0.598391,49.21834944786973
1673610897.8575199,0.580914,49.21409946448752
1673610897.858527,0.559446,49.209848474715685
1673610897.859534,0.529323,49.20559748494385
1673610897.8605409,0.501556,49.20134750156164
1673610897.861549,0.481218,49.235554551370676
1673610897.862556,0.486387,49.20259502288984
1673610897.8635628,0.5017,49.25353542179304
1673610897.86457,0.529491,49.220183362097735
1673610897.865577,0.576491,49.18374659513591
1673610897.8665838,0.624836,49.20087378135431
1673610897.867591,0.6483,49.18313411299166
1673610897.868598,0.65806,49.2192
1673610897.8696048,0.677437,49.21918444921458
1673610897.870612,0.694986,49.217193948680546
1673610897.871619,0.682822,49.21520344814651
1673610897.8726258,0.653685,49.2132134188484
1673610897.873633,0.643371,49.21122291831436
1673610897.874641,0.640727,49.209230532836635
1673610897.875648,0.641256,49.2072400323026
1673610897.8766549,0.649862,49.20525000300449
1673610897.877662,0.658276,49.20325950247045
1673610897.878669,0.641424,49.20126900193642
1673610897.8796759,0.629139,49.199278972638304
1673610897.880683,0.614042,49.19728847210427
1673610897.88169,0.59731,49.195297971570234
1673610897.8826969,0.579231,49.19330794227212
1673610897.883704,0.557547,49.191317441738086
1673610897.884711,0.542906,49.18932694120405
1673610897.8857179,0.547546,49.18733691190594
1673610897.886726,0.549565,49.18534452642822
1673610897.887733,0.541584,49.18335402589418
1673610897.8887398,0.557763,49.18136399659607
1673610897.889747,0.585386,49.179373496062034
1673610897.890754,0.598896,49.177382995528
1673610897.8917608,0.622576,49.175392966229886
1673610897.892768,0.645343,49.17340246569585
1673610897.893775,0.64616,49.171411965161816
1673610897.8947818,0.627745,49.1694219358637
1673610897.895789,0.616879,49.16743143532967
1673610897.896796,0.622624,49.16544093479563
1673610897.8978028,0.609667,49.16345090549752
1673610897.89881,0.579111,49.161460404963485
1673610897.899818,0.555719,49.159468019485765
1673610897.900825,0.532977,49.15747751895173
1673610897.9018319,0.537809,49.155487489653616
1673610897.902839,0.576418,49.15349698911958
1673610897.903846,0.625245,49.15150648858555
1673610897.9048529,0.642265,49.14951645928743
1673610897.90586,0.628466,49.1475259587534
1673610897.906867,0.633899,49.14553545821936
1673610897.9078739,0.652795,49.14354542892125
1673610897.908881,0.663205,49.141554928387215
1673610897.909888,0.675706,49.13956442785318
1673610897.9108949,0.678879,49.13757439855507
1673610897.911903,0.683976,49.13558201307735
1673610897.91291,0.685082,49.13359151254331
1673610897.9139168,0.670441,49.1316014832452
1673610897.914924,0.629836,49.129610982711164
1673610897.915931,0.56185,49.12762048217713
1673610897.9169378,0.507037,49.125630452879015
1673610897.917945,0.486988,49.12363995234498
1673610897.918952,0.476169,49.121649451810946
1673610897.9199588,0.470953,49.11965942251283
1673610897.920966,0.480761,49.1176689219788
1673610897.921973,0.49797400000000003,49.11567842144476
1673610897.9229798,0.524827,49.11368839214665
1673610897.923987,0.585001,49.111697891612614
1673610897.924995,0.660104,49.128210038626605
1673610897.926002,0.702703,49.13794295327771
1673610897.9270089,0.719676,49.14679986933715
1673610897.928016,0.716431,49.12831813972342
1673610897.929023,0.69804,49.12968964123957
1673610897.9300299,0.669167,49.12731738388174
1673610897.931037,0.657651,49.07350324701955
1673610897.932044,0.655488,49.06605026847878
1673610897.9330509,0.661474,49.103834911561385
1673610897.934058,0.673518,49.128754
1673610897.935065,0.66758,49.128754
1673610897.9360719,0.654911,49.128754
1673610897.93708,0.636977,49.128754
1673610897.938087,0.630486,49.128754
1673610897.9390938,0.625581,49.128754
1673610897.940101,0.622216,49.128754
1673610897.941108,0.62022,49.128754
1673610897.9421148,0.6082,49.128754
1673610897.943122,0.60106,49.128754
1673610897.944129,0.591828,49.128754
1673610897.9451358,0.570553,49.128754
1673610897.946143,0.549806,49.128754
1673610897.94715,0.548171,49.128754
1673610897.9481568,0.550743,49.128754
1673610897.949164,0.537713,49.128754
1673610897.950172,0.522928,49.128754
1673610897.951179,0.509946,49.128754
1673610897.9521859,0.506917,49.128754
1673610897.953193,0.533025,49.128754
1673610897.9542,0.585145,49.128754
1673610897.9552069,0.658252,49.128754
1673610897.956214,0.703641,49.128754
1673610897.957221,0.711382,49.128754
1673610897.9582279,0.720205,49.128754
1673610897.959235,0.724532,49.128754
1673610897.960242,0.696116,49.128754
1673610897.9612489,0.663902,49.128754
1673610897.962257,0.638683,49.128754
1673610897.963264,0.62861,49.128754
1673610897.9642708,0.619259,49.128754
1673610897.965278,0.601661,49.128754
1673610897.966285,0.587068,49.128754
1673610897.9672918,0.584977,49.128754
1673610897.968299,0.590386,49.128754
1673610897.969306,0.601974,49.128754
1673610897.9703128,0.609691,49.128754
1673610897.97132,0.618754,49.128754
1673610897.972327,0.642073,49.128754
1673610897.9733338,0.643107,49.128754
1673610897.974341,0.628514,49.128754
1673610897.975349,0.613777,49.128754
1673610897.976356,0.596757,49.128754
1673610897.9773629,0.582116,49.128754
1673610897.97837,0.566778,49.128754
1673610897.979377,0.569663,49.128754
1673610897.9803839,0.570264,49.128754
1673610897.981391,0.571634,49.128754
1673610897.982398,0.580626,49.128754
1673610897.9834049,0.57976,49.128754
1673610897.984412,0.58339,49.128754
1673610897.985419,0.589496,49.128754
1673610897.9864259,0.58666,49.128754
1673610897.987434,0.610099,49.128754
1673610897.988441,0.649838,49.128754
1673610897.9894478,0.67835,49.13736082812872
1673610897.990455,0.681884,49.15557695922747
1673610897.991462,0.663445,49.173795841201716
1673610897.9924688,0.64378,49.19201043013829
1673610897.993476,0.644357,49.201111
1673610897.994483,0.663902,49.1456484840248
1673610897.9954898,0.677124,49.12067560085837
1673610897.996497,0.674696,49.146843
1673610897.997504,0.652988,49.17571088459704
1673610897.9985108,0.63051,49.20431345050785
1673610897.999518,0.595747,49.210298915527815
1673610898.000526,0.557547,49.21629004860179
1673610898.001533,0.531823,49.22227551362176
1673610898.0025399,0.510018,49.22825956162824
1673610898.003547,0.479535,49.23424502664821
1673610898.004554,0.455326,49.240230491668186
1673610898.0055609,0.453547,49.24621453967466
1673610898.006568,0.48629,49.252200004694636
1673610898.007575,0.544252,49.25818546971461
1673610898.0085819,0.615364,49.264169517721086
1673610898.009589,0.667051,49.27015498274106
1673610898.010596,0.702126,49.27614044776104
1673610898.0116029,0.73499,49.28212449576751
1673610898.012611,0.754535,49.28811562884148
1673610898.013618,0.760641,49.29410109386146
1673610898.0146248,0.750232,49.30008514186793
1673610898.015632,0.718113,49.30607060688791
1673610898.016639,0.707511,49.31205607190788
1673610898.0176458,0.687967,49.31804011991436
1673610898.018653,0.665392,49.32402558493433
1673610898.01966,0.642217,49.33001104995431
1673610898.0206668,0.624163,49.33599509796078
1673610898.021674,0.611926,49.34198056298076
1673610898.022681,0.606277,49.34796602800073
1673610898.0236878,0.599329,49.35395007600721
1673610898.024695,0.586299,49.35993554102718
1673610898.025703,0.568341,49.365926674101154
1673610898.02671,0.56774,49.37191213912112
1673610898.0277169,0.577067,49.377896187127604
1673610898.028724,0.58202,49.38388165214757
1673610898.029731,0.583318,49.38986711716755
1673610898.0307379,0.59255,49.39585116517402
1673610898.031745,0.606758,49.401836630194
1673610898.032752,0.609594,49.40782209521397
1673610898.0337589,0.596853,49.41380614322045
1673610898.034766,0.598512,49.41979160824042
1673610898.035773,0.612239,49.4257770732604
1673610898.0367799,0.631087,49.431761121266874
1673610898.037788,0.649189,49.43775225434084
1673610898.038795,0.652675,49.44373771936082
1673610898.0398018,0.652074,49.44972176736729
1673610898.040809,0.650463,49.45570723238727
1673610898.041816,0.635101,49.461692697407244
1673610898.0428228,0.610003,49.46767674541372
1673610898.04383,0.608897,49.465156271578444
1673610898.044837,0.629476,49.436287
1673610898.0458438,0.626327,49.44409300262279
1673610898.046851,0.60921,49.46439723485932
1673610898.047858,0.603801,49.44876966030989
1673610898.0488648,0.610075,49.477703085836914
1673610898.049872,0.608368,49.43187473319027
1673610898.05088,0.613561,49.42731264076281
1673610898.051887,0.624139,49.454372
1673610898.0528939,0.624283,49.452911372607744
1673610898.053901,0.634164,49.44737801825357
1673610898.054908,0.656642,49.4418446638994
1673610898.0559149,0.670417,49.43631261952496
1673610898.056922,0.671475,49.43077926517079
1673610898.057929,0.660464,49.42524591081663
1673610898.0589359,0.631567,49.41971386644218
1673610898.059943,0.600315,49.414180512088016
1673610898.0609498,0.574784,49.40864846771357
1673610898.061957,0.563292,49.4031151133594
1673610898.062965,0.562307,49.397576519086336
1673610898.063972,0.565504,49.39204316473217
1673610898.0649788,0.579544,49.386511120357724
1673610898.065986,0.605748,49.38097776600356
1673610898.066993,0.623177,49.37544441164939
1673610898.0679998,0.634693,49.36991236727494
1673610898.069007,0.633755,49.36437901292078
1673610898.070014,0.63313,49.35884565856661
1673610898.0710208,0.6345,49.35331361419217
1673610898.072028,0.628923,49.347780259838
1673610898.073035,0.627096,49.342246905483826
1673610898.0740418,0.625221,49.336714861109385
1673610898.075049,0.625221,49.331181506755215
1673610898.076057,0.633827,49.32564291248215
1673610898.077064,0.645992,49.32010955812799
1673610898.0780709,0.651906,49.31457751375354
1673610898.079078,0.626759,49.30904415939937
1673610898.080085,0.603945,49.30351080504521
1673610898.0810919,0.613657,49.29797876067076
1673610898.082099,0.642169,49.292445406316595
1673610898.0831058,0.65443,49.28691336194215
1673610898.084113,0.655247,49.281380007587984
1673610898.08512,0.641737,49.27584665323381
1673610898.0861268,0.631688,49.27031460885937
1673610898.087134,0.637938,49.2647812545052
1673610898.088142,0.645511,49.25924266023214
1673610898.089149,0.654743,49.25370930587797
1673610898.0901558,0.66508,49.24817726150353
1673610898.091163,0.671956,49.24264390714936
1673610898.09217,0.654166,49.23711055279519
1673610898.0931768,0.631399,49.231578508420746
1673610898.094184,0.618057,49.226045154066576
1673610898.095191,0.61909,49.22051179971241
1673610898.0961978,0.619788,49.214979755337964
1673610898.097205,0.6082,49.2094464009838
1673610898.098212,0.599473,49.20391304662963
1673610898.0992188,0.597839,49.17417732245772
1673610898.100226,0.587838,49.174132273247494
1673610898.101234,0.580914,49.18260703890215
1673610898.102241,0.576491,49.174322064377684
1673610898.1032479,0.581611,49.19252529459395
1673610898.104255,0.593728,49.22037853365155
1673610898.1052618,0.606685,49.27635666809728
1673610898.106269,0.612119,49.27012388378185
1673610898.107276,0.606397,49.2172885751073
1673610898.1082828,0.614186,49.22138897804296
1673610898.10929,0.62736,49.22703097142177
1673610898.110297,0.651353,49.2192
1673610898.1113038,0.677485,49.229721310739855
1673610898.112311,0.697198,49.226639014783025
1673610898.113319,0.693592,49.27314065634675
1673610898.114326,0.676932,49.25505777899762
1673610898.1153328,0.669672,49.241305038626614
1673610898.11634,0.671571,49.28888508454394
1673610898.117347,0.658709,49.34351650739151
1673610898.1183538,0.635318,49.34781701238224
1673610898.119361,0.618033,49.32210746298789
1673610898.120368,0.614859,49.296397913593545
1673610898.1213748,0.605556,49.27432625585995
1673610898.122382,0.588944,49.28218507588706
1673610898.123389,0.575216,49.290043895914174
1673610898.1243958,0.58113,49.29790085542518
1673610898.125403,0.5963,49.30575967545229
1673610898.126411,0.581395,49.313625937543826
1673610898.1274178,0.566033,49.321482897054835
1673610898.128425,0.549445,49.32934171708195
1673610898.129432,0.541007,49.33720053710907
1673610898.1304388,0.553123,49.34505749662008
1673610898.131446,0.576346,49.35291631664719
1673610898.132453,0.605964,49.360775136674306
1673610898.1334598,0.641472,49.368632096185316
1673610898.134467,0.661017,49.376490916212425
1673610898.135474,0.671595,49.38434973623954
1673610898.1364808,0.687293,49.39220669575055
1673610898.137488,0.711526,49.40006551577766
1673610898.138496,0.721719,49.4079317778692
1673610898.139503,0.714219,49.41579059789631
1673610898.1405098,0.697318,49.42364755740732
1673610898.141517,0.670778,49.43150637743444
1673610898.142524,0.63991,49.43936519746155
1673610898.1435308,0.616181,49.44722215697256
1673610898.144538,0.618105,49.455080976999675
1673610898.145545,0.619114,49.462939797026785
1673610898.1465518,0.612215,49.470796756537794
1673610898.147559,0.595338,49.47865557656491
1673610898.148566,0.590723,49.48651439659203
1673610898.1495728,0.605628,49.49437135610303
1673610898.15058,0.607166,49.50223017613015
1673610898.151588,0.617888,49.51009643822168
1673610898.1525948,0.637385,49.51795339773269
1673610898.153602,0.657772,49.52581221775981
1673610898.154609,0.65693,49.53367103778692
1673610898.1556158,0.64842,49.541527997297926
1673610898.156623,0.643588,49.54938681732504
1673610898.15763,0.641256,49.55724563735216
1673610898.1586368,0.628033,49.56510259686316
1673610898.159644,0.615797,49.57296141689028
1673610898.160651,0.615989,49.5808202369174
1673610898.1616578,0.607118,49.58867719642841
1673610898.162665,0.609282,49.59653601645552
1673610898.163673,0.621422,49.60440227854705
1673610898.16468,0.629356,49.612261098574166
1673610898.1656868,0.636015,49.620118058085176
1673610898.166694,0.637602,49.62797687811229
1673610898.167701,0.645198,49.6358356981394
1673610898.1687078,0.656353,49.64369265765041
1673610898.169715,0.663998,49.65155147767753
1673610898.170722,0.66621,49.65941029770464
1673610898.1717288,0.673061,49.66726725721565
1673610898.172736,0.673398,49.66295418669528
1673610898.173743,0.661618,49.67925145792611
1673610898.1747499,0.622745,49.68138001144492
1673610898.175757,0.542497,49.68888883237959
1673610898.176765,0.477011,49.74378199451598
1673610898.1777718,0.448739,49.707000071990464
1673610898.178779,0.450494,49.67192091416309
1673610898.179786,0.467755,49.670730244635195
1673610898.1807928,0.51836,49.67242542312277
1673610898.1818,0.589617,49.688579539296434
1673610898.182807,0.651761,49.68675248346263
1673610898.1838138,0.704579,49.68492586017046
1673610898.184821,0.749294,49.68309880433665
1673610898.185828,0.793432,49.68127174850285
1673610898.1868348,0.811896,49.67944512521068
1673610898.187842,0.72583,49.67761806937688
1673610898.18885,0.675778,49.67578928337657
1673610898.189857,0.664503,49.673962227542766
1673610898.1908638,0.678278,49.67213560425059
1673610898.191871,0.682894,49.67030854841679
1673610898.192878,0.672941,49.668481492582984
1673610898.1938848,0.649742,49.66665486929082
1673610898.194892,0.636977,49.66482781345701
1673610898.195899,0.638732,49.66300075762321
1673610898.1969059,0.64084700000000006,49.661174134331034
1673610898.197913,0.635534,49.659347078497234
1673610898.19892,0.643516,49.657520022663434
1673610898.1999269,0.649021,49.65569339937126
1673610898.200934,0.648131,49.65386634353746
1673610898.201942,0.62736,49.653362
1673610898.2029488,0.61296,49.64003462517883
1673610898.203956,0.597502,49.64872976680973
1673610898.204963,0.591901,49.62619615971395
1673610898.2059698,0.597238,49.672017760610395
1673610898.206977,0.617456,49.6480329308536
1673610898.207984,0.644213,49.64923870863138
1673610898.2089908,0.651088,49.69563129487485
1673610898.209998,0.648492,49.693421347639486
1673610898.211005,0.650511,49.687340955067306
1673610898.2120118,0.653829,49.684538684847595
1673610898.213019,0.651593,49.681735751054546
1673610898.214027,0.646064,49.67893016296813
1673610898.215034,0.650511,49.67612722917507
1673610898.2160408,0.645295,49.67332495895536
1673610898.217048,0.63926,49.67052202516231
1673610898.218055,0.637794,49.66771909136926
1673610898.2190619,0.634428,49.664916821149546
1673610898.220069,0.619355,49.66211388735649
1673610898.221076,0.595939,49.65931095356344
1673610898.2220829,0.595074,49.65650868334373
1673610898.22309,0.599642,49.653705749550674
1673610898.224097,0.598271,49.650902815757625
1673610898.2251039,0.600868,49.64810054553791
1673610898.226111,0.604402,49.64529761174486
1673610898.227119,0.603296,49.64249202365844
1673610898.2281258,0.620893,49.63968975343873
1673610898.229133,0.636832,49.636886819645675
1673610898.23014,0.647915,49.634083885852625
1673610898.2311468,0.650415,49.63128161563291
1673610898.232154,0.662652,49.62847868183986
1673610898.233161,0.671379,49.6256757480468
1673610898.2341678,0.667652,49.62287347782709
1673610898.235175,0.667171,49.62007054403404
1673610898.236182,0.674336,49.61726761024099
1673610898.2371888,0.667628,49.67020371268479
1673610898.238196,0.652074,49.600267020262216
1673610898.239204,0.631519,49.581151644253694
1673610898.240211,0.624668,49.581005
1673610898.2412179,0.634693,49.616968392133494
1673610898.242225,0.637409,49.5812379055794
1673610898.243232,0.633443,49.59873170243205
1673610898.2442389,0.627384,49.581005
1673610898.245246,0.619427,49.58101805003302
1673610898.246253,0.610604,49.58140624256465
1673610898.2472599,0.608657,49.58179434319463
1673610898.248267,0.611638,49.58218253572626
1673610898.249274,0.616133,49.582570728257885
1673610898.2502809,0.612022,49.58295882888787
1673610898.251288,0.612095,49.5833470214195
1673610898.252296,0.625052,49.58373558155769
1673610898.2533028,0.617768,49.58412368218767
1673610898.25431,0.611205,49.5845118747193
1673610898.255317,0.620653,49.58490006725093
1673610898.2563238,0.610893,49.58528816788091
1673610898.257331,0.583631,49.585676360412535
1673610898.258338,0.582404,49.586064552944165
1673610898.2593448,0.584568,49.58645265357415
1673610898.260352,0.580313,49.58684084610577
1673610898.261359,0.582597,49.5872290386374
1673610898.2623658,0.570985,49.58761713926739
1673610898.263373,0.552017,49.58800533179901
1673610898.264381,0.52978,49.5883938919372
1673610898.265388,0.528097,49.58878208446883
1673610898.2663949,0.568052,49.589170185098816
1673610898.267402,0.640054,49.58955837763044
1673610898.268409,0.696597,49.58994657016207
1673610898.2694159,0.72898,49.59033467079205
1673610898.270423,0.720421,49.59072286332368
1673610898.27143,0.702415,49.59111105585531
1673610898.2724369,0.690106,49.59149915648529
1673610898.273444,0.682317,49.591887349016915
1673610898.274451,0.671355,49.592275541548545
1673610898.2754579,0.658517,49.59266364217853
1673610898.276465,0.637337,49.59305183471015
1673610898.277473,0.626303,49.593440394848344
1673610898.2784798,0.633803,49.593828495478334
1673610898.279487,0.63188,49.59421668800996
1673610898.280494,0.643708,49.59460488054158
1673610898.2815008,0.650415,49.59499298117157
1673610898.282508,0.64866,49.595381173703196
1673610898.283515,0.643419,49.59576936623482
1673610898.2845218,0.629211,49.59615746686481
1673610898.285529,0.610123,49.59654565939643
1673610898.286536,0.599834,49.59693385192806
1673610898.2875428,0.601469,49.59732195255805
1673610898.28855,0.614835,49.59771014508967
1673610898.289558,0.651184,49.59809870522786
1673610898.290565,0.677244,49.598486897759486
1673610898.2915719,0.681596,49.598874998389476
1673610898.292579,0.682365,49.591161210814676
1673610898.293586,0.6627,49.564903849582834
1673610898.2945929,0.654478,49.569346781831186
1673610898.2956,0.63652,49.56585122553699
1673610898.296607,0.603512,49.526737
1673610898.2976139,0.587597,49.509627596566524
1673610898.298621,0.60683,49.50995494725626
1673610898.299628,0.638371,49.50040416205429
1673610898.3006349,0.6721,49.52485810125233
1673610898.301642,0.699097,49.5064847927544
1673610898.30265,0.70768,49.490551
1673610898.3036568,0.686163,49.490551
1673610898.304664,0.674432,49.479193091537546
1673610898.305671,0.660152,49.49543339103481
1673610898.3066778,0.626735,49.497029225560325
1673610898.307685,0.610556,49.490551
1673610898.308692,0.610292,49.48430627159735
1673610898.3096988,0.617744,49.47472012545253
1673610898.310706,0.628659,49.46513170932283
1673610898.311713,0.642217,49.45554329319313
1673610898.3127198,0.646569,49.44595714704831
1673610898.313727,0.633779,49.43636873091861
1673610898.314735,0.618778,49.42677123484939
1673610898.315742,0.606998,49.41718281871969
1673610898.3167489,0.60207,49.40759667257487
1673610898.317756,0.607575,49.398008256445166
1673610898.318763,0.608969,49.38841984031547
1673610898.3197699,0.604354,49.378833694170645
1673610898.320777,0.611037,49.36924527804095
1673610898.321784,0.634933,49.35965686191125
1673610898.3227909,0.650944,49.35007071576643
1673610898.323798,0.652074,49.340482299636726
1673610898.324805,0.640054,49.330893883507024
1673610898.3258119,0.629043,49.321307737362204
1673610898.326819,0.633707,49.3117193212325
1673610898.327827,0.642241,49.30212182516329
1673610898.3288338,0.640895,49.292535679018464
1673610898.329841,0.632096,49.28294726288877
1673610898.330848,0.63313,49.273358846759066
1673610898.3318548,0.629981,49.26377270061425
1673610898.332862,0.632938,49.254184284484545
1673610898.333869,0.638563,49.24459586835484
1673610898.3348758,0.642891,49.23500972221002
1673610898.335883,0.647122,49.22542130608032
1673610898.33689,0.649189,49.215832889950626
1673610898.3378968,0.630245,49.2062467438058
1673610898.338904,0.596492,49.196658327676104
1673610898.339912,0.573894,49.187060831606885
1673610898.340919,0.560768,49.17747241547718
1673610898.3419259,0.538555,49.167886269332364
1673610898.342933,0.497397,49.15829785320266
1673610898.34394,0.51312,49.14870943707297
1673610898.3449469,0.555359,49.13912329092814
1673610898.345954,0.592862,49.129534874798445
1673610898.346961,0.629957,49.14548869718645
1673610898.3479679,0.658517,49.16369875709177
1673610898.348975,0.692799,49.19890264902241
1673610898.349982,0.721744,49.201111
1673610898.3509889,0.73749,49.14940439785459
1673610898.351997,0.742442,49.16422465712923
1673610898.353004,0.741625,49.14742095088221
1673610898.3540108,0.7341,49.146843
1673610898.355018,0.712368,49.111319604196474
1673610898.356025,0.690779,49.11413300391432
1673610898.3570318,0.674937,49.11766473089844
1673610898.358039,0.659887,49.12119729419017
1673610898.359046,0.639549,49.124729857481896
1673610898.3600528,0.611734,49.12826158446602
1673610898.36106,0.5562,49.131794147757745
1673610898.362067,0.516365,49.135326711049466
1673610898.3630738,0.526991,49.138858438033594
1673610898.364081,0.56185,49.14239100132532
1673610898.365089,0.601108,49.14592690984743
1673610898.366096,0.636688,49.14945947313916
1673610898.3671029,0.676115,49.15299120012329
1673610898.36811,0.71619,49.15652376341501
1673610898.369117,0.729485,49.16005632670674
1673610898.3701239,0.717849,49.16358805369086
1673610898.371131,0.69453,49.14235741106342
1673610898.372138,0.668109,49.10592039117998
1673610898.3731449,0.642578,49.115647644969
1673610898.374152,0.631952,49.12656652476084
1673610898.375159,0.62724,49.1231506669382
1673610898.3761659,0.634957,49.11973561779403
1673610898.377174,0.650175,49.116316525257545
1673610898.378181,0.661017,49.11290066743491
1673610898.3791878,0.654791,49.109485618290734
1673610898.380195,0.634957,49.106069760468095
1673610898.381202,0.615941,49.102653902645464
1673610898.3822088,0.592333,49.09923885350129
1673610898.383216,0.56798,49.09582299567865
1673610898.384223,0.580481,49.092407137856014
1673610898.3852298,0.614979,49.08899208871184
1673610898.386237,0.639885,49.0855762308892
1673610898.387244,0.660608,49.08216037306657
1673610898.3882508,0.677869,49.0787453239224
1673610898.389258,0.673686,49.07532946609976
1673610898.390266,0.670345,49.07191037356328
1673610898.391273,0.683038,49.06849451574064
1673610898.3922799,0.705516,49.065079466596465
1673610898.393287,0.710973,49.061663608773834
1673610898.394294,0.711214,49.058247750951196
1673610898.3953009,0.703881,49.05483270180702
1673610898.396308,0.682894,49.051416843984384
1673610898.397315,0.670297,49.048000986161746
1673610898.3983219,0.661402,49.04458593701757
1673610898.399329,0.648059,49.04117007919494
1673610898.400336,0.639284,49.0377542213723
1673610898.4013429,0.62099,49.03433917222813
1673610898.402351,0.599377,49.03092007969165
1673610898.403358,0.584688,49.02750422186901
1673610898.4043648,0.591564,49.024089172724835
1673610898.405372,0.594329,49.0206733149022
1673610898.406379,0.587333,49.017257457079566
1673610898.4073858,0.587573,49.01384240793539
1673610898.408393,0.599834,49.010426550112754
1673610898.4094,0.602983,49.007010692290116
1673610898.4104068,0.609931,49.00359564314594
1673610898.411414,0.619547,49.00017978532331
1673610898.412421,0.630245,48.99676392750067
1673610898.4134278,0.630486,48.9933488783565
1673610898.414435,0.647218,48.98993302053386
1673610898.415443,0.661209,48.98651392799738
1673610898.41645,0.664311,48.98309807017474
1673610898.4174569,0.668542,48.97968302103057
1673610898.418464,0.667604,48.976267163207936
1673610898.419471,0.662243,48.9728513053853
1673610898.4204779,0.670417,48.969436256241124
1673610898.421485,0.681476,48.966020398418486
1673610898.422492,0.679504,48.965946
1673610898.4234989,0.658637,48.94799584916468
1673610898.424506,0.635342,48.965928740104914
1673610898.425513,0.611133,48.965157366608544
1673610898.4265199,0.579255,48.94742319093287
1673610898.427528,0.544084,48.96040640191388
1673610898.428535,0.498816,48.90982577637315
1673610898.4295418,0.485786,48.942092628596335
1673610898.430549,0.505379,48.926990315789475
1673610898.431556,0.546608,48.88451924773486
1673610898.4325628,0.609883,48.847904687350834
1673610898.43357,0.690058,48.839891466857416
1673610898.434577,0.753092,48.81959189973803
1673610898.4355838,0.795284,48.78153806095533
1673610898.436591,0.795909,48.77487271265745
1673610898.437598,0.778912,48.76820736435957
1673610898.4386048,0.763694,48.7615435940324
1673610898.439612,0.731672,48.754878245734524
1673610898.44062,0.686981,48.74820658555379
1673610898.441627,0.637746,48.7415412372559
1673610898.4426339,0.612143,48.73487746692874
1673610898.443641,0.605628,48.72821211863086
1673610898.444648,0.602142,48.72154677033298
1673610898.4456549,0.601445,48.71488300000581
1673610898.446662,0.605676,48.70821765170793
1673610898.447669,0.622576,48.701552303410054
1673610898.4486759,0.638635,48.69488853308289
1673610898.449683,0.64503,48.68822318478501
1673610898.45069,0.648179,48.68155783648713
1673610898.4516969,0.641664,48.674894066159965
1673610898.452705,0.637313,48.66822240597923
1673610898.453712,0.634092,48.66155705768135
1673610898.4547188,0.630534,48.654893287354184
1673610898.455726,0.629572,48.648227939056305
1673610898.456733,0.638443,48.64156259075842
1673610898.4577398,0.62224,48.63489882043125
1673610898.458747,0.585554,48.628233472133374
1673610898.459754,0.56788400000000006,48.621568123835495
1673610898.4607608,0.580794,48.61490435350833
1673610898.461768,0.619619,48.60823900521045
1673610898.462775,0.66734,48.60157365691257
1673610898.4637818,0.707319,48.594909886585405
1673610898.464789,0.718474,48.588244538287526
1673610898.465797,0.712969,48.58157287810679
1673610898.466804,0.715253,48.57490752980891
1673610898.4678109,0.718378,48.568243759481746
1673610898.468818,0.714195,48.561578411183866
1673610898.469825,0.7147,48.55491306288599
1673610898.4708319,0.708954,48.54824929255882
1673610898.471839,0.698544,48.54158394426094
1673610898.472846,0.685923,48.534918595963056
1673610898.4738529,0.669143,48.52825482563589
1673610898.47486,0.65693,48.52158947733801
1673610898.475867,0.650992,48.51492412904013
1673610898.4768739,0.640535,48.498872027149325
1673610898.477882,0.622769,48.495598
1673610898.478889,0.606637,48.44884197438424
1673610898.4798958,0.594809,48.41457892660098
1673610898.480903,0.589232,48.43688336921182
1673610898.48191,0.587934,48.44344186847291
1673610898.4829168,0.585313,48.40908078793103
1673610898.483924,0.599978,48.4570496382472
1673610898.484931,0.62236,48.443557666825775
1673610898.4859378,0.643179,48.432796798859016
1673610898.486945,0.646376,48.42307350735119
1673610898.487952,0.637529,48.41335021584336
1673610898.4889588,0.638419,48.403629226251134
1673610898.489966,0.643876,48.39390593474331
1673610898.490974,0.658325,48.38417343557307
1673610898.491981,0.670754,48.374450144065236
1673610898.4929879,0.669263,48.36472915447301
1673610898.493995,0.663301,48.355005862965186
1673610898.495002,0.667652,48.34528257145735
1673610898.4960089,0.674432,48.33556158186513
1673610898.497016,0.672196,48.325838290357304
1673610898.498023,0.663493,48.31611499884947
1673610898.4990299,0.651954,48.30639400925725
1673610898.500037,0.658252,48.29667071774942
1673610898.501044,0.656642,48.28694742624159
1673610898.5020509,0.643251,48.277226436649364
1673610898.503059,0.635726,48.267493937479124
1673610898.504066,0.630269,48.2577706459713
1673610898.5050728,0.621543,48.248049656379074
1673610898.50608,0.620893,48.23832636487124
1673610898.507087,0.630149,48.228603073363416
1673610898.5080938,0.646953,48.21888208377119
1673610898.509101,0.650223,48.20915879226336
1673610898.510108,0.659166,48.199435500755534
1673610898.5111148,0.677124,48.18971451116331
1673610898.512122,0.67198,48.17999121965548
1673610898.513129,0.652314,48.17026792814765
1673610898.5141358,0.643059,48.16054693855543
1673610898.515143,0.634356,48.150823647047595
1673610898.516151,0.612215,48.141091147877354
1673610898.517158,0.581299,48.13136785636953
1673610898.5181649,0.552811,48.121646866777304
1673610898.519172,0.543531,48.11192357526947
1673610898.520179,0.55834,48.10220028376165
1673610898.5211859,0.566129,48.09247929416942
1673610898.522193,0.591083,48.08275600266159
1673610898.5232,0.614667,48.073032711153765
1673610898.5242069,0.637722,48.06331172156154
1673610898.525214,0.651761,48.05358843005371
1673610898.526221,0.675682,48.04386513854588
1673610898.5272279,0.712873,48.03414414895366
1673610898.528236,0.737827,48.02441164978342
1673610898.529243,0.755208,48.014688358275585
1673610898.5302498,0.745616,48.015404763038816
1673610898.531257,0.731672,48.03911084272077
1673610898.532264,0.732129,48.01650147544111
1673610898.5332708,0.72773,47.998082535637664
1673610898.534278,0.71595,48.01600115975203
1673610898.535285,0.690419,47.99383631211254
1673610898.5362918,0.667292,48.007168
1673610898.537299,0.658613,48.00216530133397
1673610898.538306,0.658204,47.989079
1673610898.5393128,0.654406,47.98917543251037
1673610898.54032,0.648492,47.9895093103168
1673610898.541328,0.640799,47.989843504295386
1673610898.542335,0.628202,47.99017738210181
1673610898.5433419,0.616927,47.99051118086519
1673610898.544349,0.614306,47.99084505867162
1673610898.545356,0.618898,47.991178936478036
1673610898.5463629,0.62385,47.99151273524142
1673610898.54737,0.619475,47.99184661304785
1673610898.548377,0.616566,47.99218049085427
1673610898.5493839,0.603488,47.99251428961765
1673610898.550391,0.597911,47.99284816742407
1673610898.551398,0.607912,47.9931820452305
1673610898.5524049,0.63075,47.99351584399388
1673610898.553413,0.656666,47.99385003797247
1673610898.55442,0.686404,47.99418391577889
1673610898.5554268,0.712656,47.994517714542276
1673610898.556434,0.717633,47.994851592348695
1673610898.557441,0.712464,47.99518547015512
1673610898.5584478,0.702631,47.99551926891851
1673610898.559455,0.693376,47.995853146724926
1673610898.560462,0.679528,47.99618702453135
1673610898.5614688,0.653949,47.99652082329473
1673610898.562476,0.642963,47.99685470110116
1673610898.563483,0.617576,47.99718857890758
1673610898.5644898,0.589208,47.99752237767096
1673610898.565497,0.571394,47.99785625547739
1673610898.566505,0.5606,47.998190449455976
1673610898.567512,0.577981,47.998524327262395
1673610898.5685189,0.62498,47.99885812602578
1673610898.569526,0.648829,47.999192003832206
1673610898.570533,0.665368,47.999525881638625
1673610898.5715399,0.68662,47.99985968040201
1673610898.572547,0.709771,48.00019355820843
1673610898.573554,0.713762,48.000527436014856
1673610898.5745609,0.723931,48.000861234778235
1673610898.575568,0.727657,48.00119511258466
1673610898.5765748,0.722272,48.001528911348046
1673610898.577582,0.703232,48.001862789154465
1673610898.57859,0.684096,48.002196983133054
1673610898.579597,0.664455,48.00253086093948
1673610898.5806038,0.638323,48.00286465970286
1673610898.581611,0.623826,48.003198537509284
1673610898.582618,0.616133,48.00353241531571
1673610898.5836248,0.607767,48.00386621407909
1673610898.584632,0.615388,48.004200091885515
1673610898.585639,0.627312,48.004533969691934
1673610898.5866458,0.632144,48.00486776845532
1673610898.587653,0.634621,48.005201646261746
1673610898.58866,0.642217,48.005535524068165
1673610898.5896668,0.655247,48.00586932283155
1673610898.590674,0.66383,48.00620320063797
1673610898.591682,0.657243,48.00653739461656
1673610898.592689,0.64491,48.006871272422984
1673610898.5936959,0.661883,48.001098509299
1673610898.594703,0.681572,47.961501951120646
1673610898.59571,0.689048,48.011569456019075
1673610898.5967169,0.678663,47.92392126657129
1673610898.597724,0.652627,47.968450090128755
1673610898.5987308,0.618249,47.95554836233611
1673610898.599738,0.590867,47.970982
1673610898.600745,0.592333,47.970982
1673610898.6017518,0.601781,47.970982
1673610898.602759,0.618369,47.97052732791741
1673610898.603767,0.631471,47.9679083176106
1673610898.604774,0.652074,47.96529178508081
1673610898.6057808,0.688495,47.96267587199527
1673610898.606788,0.71946,47.96005933946548
1673610898.607795,0.733812,47.957442806935696
1673610898.6088018,0.747515,47.954826893850154
1673610898.609809,0.748693,47.95221036132037
1673610898.610816,0.735663,47.949593828790576
1673610898.6118228,0.708161,47.94697791570504
1673610898.61283,0.688952,47.94436138317525
1673610898.613837,0.681548,47.941744850645456
1673610898.6148438,0.665465,47.93912893755992
1673610898.615851,0.6439,47.93651240503013
1673610898.616859,0.617047,47.93389339472333
1673610898.617866,0.609642,47.931276862193535
1673610898.618873,0.626759,47.928660949108
1673610898.61988,0.64378,47.92604441657821
1673610898.6208868,0.649814,47.92342850349267
1673610898.621894,0.655945,47.92081197096288
1673610898.622901,0.656089,47.91819543843309
1673610898.6239078,0.668494,47.91557952534755
1673610898.624915,0.695587,47.91296299281776
1673610898.625922,0.696285,47.910346460287975
1673610898.6269288,0.684889,47.90773054720243
1673610898.627936,0.681644,47.90511401467265
1673610898.628944,0.678735,47.90249500436584
1673610898.629951,0.684889,47.89987847183605
1673610898.6309578,0.69578,47.89726255875051
1673610898.631965,0.703978,47.89464602622072
1673610898.632972,0.700516,47.892029493690934
1673610898.6339788,0.673134,47.88941358060539
1673610898.634986,0.654166,47.88679704807561
1673610898.635993,0.655392,47.884180515545815
1673610898.6369998,0.666186,47.88156460246028
1673610898.638007,0.673735,47.87894806993049
1673610898.639014,0.677845,47.876331537400695
1673610898.6400208,0.680466,47.87371562431516
1673610898.641028,0.689024,47.87109909178537
1673610898.642036,0.68638,47.868480081478566
1673610898.6430428,0.668902,47.865864168393024
1673610898.64405,0.652723,47.86324763586324
1673610898.645057,0.644309,47.860631103333446
1673610898.6460638,0.641977,47.85801519024791
1673610898.647071,0.641184,47.85539865771812
1673610898.648078,0.644597,47.85278212518833
1673610898.6490848,0.645391,47.85016621210279
1673610898.650092,0.638419,47.847549679573
1673610898.651099,0.621278,47.844933147043214
1673610898.6521058,0.620052,47.84231723395767
1673610898.653113,0.63337,47.83970070142789
1673610898.654121,0.63777,47.83708169112108
1673610898.655128,0.658421,47.834465158591286
1673610898.6561348,0.671835,47.83184924550575
1673610898.657142,0.672725,47.82923271297596
1673610898.658149,0.675754,47.826616180446166
1673610898.6591558,0.664311,47.84200102432046
1673610898.660163,0.656353,47.844357
1673610898.66117,0.645799,47.796381932538736
1673610898.6621768,0.632769,47.886770711015735
1673610898.663184,0.625726,47.88238099237005
1673610898.664191,0.623899,47.8641626003815
