measure_time,emg_ch_1,grip_force_inter
1673611170.583156,20.45624,1.370824
1673611170.5841632,20.453331,1.388913
1673611170.5851712,20.461241,1.3883609275154984
1673611170.5861783,20.479223,1.351924336829559
1673611170.5871851,20.483358,1.3063392175925925
1673611170.5881922,20.486868,1.3017050987654322
1673611170.5891993,20.495787,1.2781445262345679
1673611170.5902061,20.503504,1.3024012777777778
1673611170.5912132,20.49682,1.2602719259259259
1673611170.5922203,20.479416,1.2321317916666665
1673611170.5932271,20.462347,1.117561
1673611170.5942342,20.450279,1.117561
1673611170.5952413,20.436239,1.0754309685264665
1673611170.5962481,20.416262,1.063294
1673611170.5972562,20.402367,1.066156104284386
1673611170.5982633,20.407583,1.0697997234818681
1673611170.59927,20.428858,1.0734424800801088
1673611170.6002772,20.410372,1.077086099277591
1673611170.6012843,20.386402,1.0807297184750733
1673611170.602291,20.38258,1.0843724750733137
1673611170.6032982,20.41441,1.088016094270796
1673611170.6043053,20.46475,1.0916597134682784
1673611170.605312,20.469776,1.0953024700665188
1673611170.6063192,20.457514,1.098946089264001
1673611170.6073263,20.472324,1.1025897084614833
1673611170.608333,20.493959,1.106232465059724
1673611170.6093402,20.501774,1.1098760842572062
1673611170.6103482,20.501221,1.1135231538516557
1673611170.6113553,20.509684,1.1171667730491381
1673611170.6123621,20.518145,1.1208095296473786
1673611170.6133692,20.497133,1.1244531488448608
1673611170.6143763,20.474079,1.128096768042343
1673611170.6153831,20.452587,1.1317395246405837
1673611170.6163902,20.442898,1.135383143838066
1673611170.6173973,20.447971,1.1390267630355482
1673611170.6184042,20.450855,1.1426695196337886
1673611170.6194112,20.444485,1.1463131388312708
1673611170.6204183,20.428354,1.1499567580287533
1673611170.6214252,20.421719,1.1535995146269937
1673611170.6224332,20.411669,1.1572465842214432
1673611170.6234403,20.403208,1.1608902034189257
1673611170.624447,20.41304,1.164532960017166
1673611170.6254542,20.440325,1.1681765792146483
1673611170.6264613,20.477781,1.1718201984121306
1673611170.627468,20.489489,1.1754629550103712
1673611170.6284752,20.473381,1.1791065742078535
1673611170.6294823,20.459558,1.1827501934053357
1673611170.630489,20.444485,1.1863929500035761
1673611170.6314962,20.430349,1.1900365692010584
1673611170.6325033,20.409386,1.1936801883985408
1673611170.63351,20.386667,1.1973229449967813
1673611170.6345172,20.380898,1.2009665641942635
1673611170.6355252,20.405371,1.2046136337887132
1673611170.6365323,20.430372,1.2092302846924177
1673611170.6375391,20.431263,1.2247616363853122
1673611170.6385462,20.430517,1.2050731899880809
1673611170.6395533,20.455471,1.171836
1673611170.6405602,20.439724,1.1735569134477826
1673611170.6415672,20.403736,1.189925
1673611170.6425743,20.383278,1.1879496156413925
1673611170.6435812,20.376114,1.1781373898426324
1673611170.6445882,20.37734,1.2216432894611349
1673611170.6455953,20.408497,1.1902587161214164
1673611170.6466022,20.456722,1.1928351021922428
1673611170.6476102,20.49461,1.1954145386846542
1673611170.6486173,20.517881,1.1979915348397976
1673611170.649624,20.521872,1.200567920910624
1673611170.6506312,20.501148,1.203144917065767
1673611170.6516383,20.492157,1.2057219132209105
1673611170.652645,20.483526,1.2082982992917368
1673611170.6536522,20.473526,1.2108752954468802
1673611170.6546593,20.454702,1.2134522916020236
1673611170.655666,20.433138,1.21602867767285
1673611170.6566732,20.419651000000002,1.2186056738279931
1673611170.6576803,20.418112,1.2211826699831365
1673611170.658687,20.413328,1.2237590560539628
1673611170.6596942,20.402222,1.2277505913209346
1673611170.6607022,20.396837,1.2449096798435935
1673611170.6617093,20.398134,1.2521968905631586
1673611170.6627162,20.402174,1.259482376090792
1673611170.6637232,20.414555,1.266769586810357
1673611170.6647303,20.43059,1.2740567975299222
1673611170.6657372,20.447371,1.2755155108462455
1673611170.6667442,20.451073,1.244192
1673611170.6677513,20.449821,1.249557602765856
1673611170.6687582,20.470257,1.288793651966627
1673611170.6697652,20.492735,1.3317131149260848
1673611170.6707723,20.483887,1.316557
1673611170.6717792,20.454966,1.316557
1673611170.6727872,20.424988,1.3132237945172824
1673611170.6737943,20.405106,1.298468
1673611170.674801,20.393135,1.30026004204775
1673611170.6758082,20.394096,1.3093690500016557
1673611170.6768153,20.411476,1.3184780579555615
1673611170.677822,20.431311,1.3275849094208416
1673611170.6788292,20.439243,1.3366939173747474
1673611170.6798363,20.434677,1.3458029253286532
1673611170.680843,20.419699,1.3549097767939335
1673611170.6818502,20.40662,1.3640187847478393
1673611170.6828573,20.386955,1.3731277927017451
1673611170.683864,20.383398,1.3822346441670255
1673611170.6848712,20.392582,1.391343652120931
1673611170.6858792,20.410395,1.4004612860293386
1673611170.6868863,20.438089,1.4095702939832444
1673611170.6878932,20.471674,1.4186771454485247
1673611170.6889002,20.47468,1.4277861534024305
1673611170.6899073,20.461819,1.4368951613563363
1673611170.6909142,20.461168,1.4460020128216167
1673611170.6919212,20.462852,1.4551110207755225
1673611170.6929283,20.46302,1.4642200287294282
1673611170.6939352,20.45326,1.4733268801947084
1673611170.6949422,20.438354,1.4824358881486142
1673611170.6959493,20.43119,1.49154489610252
1673611170.6969562,20.423208,1.5006517475678003
1673611170.6979642,20.417559,1.5097693814762079
1673611170.6989713,20.407846,1.5188783894301137
1673611170.699978,20.390104,1.527985240895394
1673611170.7009852,20.376427,1.5370942488492996
1673611170.7019923,20.373686,1.5462032568032054
1673611170.702999,20.371641,1.5553101082684857
1673611170.7040062,20.371138,1.5644191162223915
1673611170.7050133,20.375896,1.5735281241762973
1673611170.70602,20.380945,1.5826349756415776
1673611170.7070272,20.390104,1.5917439835954834
1673611170.7080343,20.408304,1.6008529915493892
1673611170.709041,20.436359,1.6099598430146693
1673611170.7100482,20.446985,1.6190688509685751
1673611170.7110562,20.441936,1.632286592274678
1673611170.7120633,20.449173,1.6338499940405244
1673611170.7130702,20.458958,1.6325367639484978
1673611170.7140772,20.462635,1.6764955493562232
1673611170.7150843,20.461313,1.714541
1673611170.7160912,20.459126,1.6968794020028612
1673611170.7170982,20.453476,1.678355
1673611170.7181053,20.435253,1.7056219110634239
1673611170.7191122,20.423306,1.73263
1673611170.7201192,20.426214,1.7338222032634174
1673611170.721126,20.428137,1.736147687966148
1673611170.7221332,20.428137,1.738473723340132
1673611170.7231412,20.416502,1.7408019613991292
1673611170.7241483,20.412439,1.7431279967731133
1673611170.725155,20.427824,1.745453481475844
1673611170.7261622,20.453669,1.747779516849828
1673611170.7271693,20.469271,1.7501055522238118
1673611170.728176,20.468645,1.7524310369265426
1673611170.7291832,20.46641,1.7547570723005266
1673611170.7301903,20.470881,1.7570831076745106
1673611170.731197,20.475306,1.7594085923772413
1673611170.7322042,20.478357,1.7617346277512251
1673611170.7332113,20.474487,1.7640606631252091
1673611170.7342181,20.468285,1.76638614782794
1673611170.7352252,20.45713,1.768712183201924
1673611170.7362332,20.438379,1.7710404212609212
1673611170.7372403,20.426983,1.7733664566349052
1673611170.7382472,20.419651000000002,1.7756919413376357
1673611170.7392542,20.411333,1.7780179767116198
1673611170.7402613,20.407413,1.7803440120856038
1673611170.7412682,20.403351,1.7826694967883345
1673611170.7422752,20.406860000000002,1.7849955321623185
1673611170.743282,20.421165,1.787321016865049
1673611170.7442892,20.421358,1.789647052239033
1673611170.7452962,20.42119,1.791973087613017
1673611170.746303,20.430157,1.7942985723157479
1673611170.7473102,20.440758,1.7966246076897319
1673611170.7483182,20.457539,1.798952845748729
1673611170.7493253,20.469511,1.801278881122713
1673611170.750332,20.470978,1.8036043658254437
1673611170.7513392,20.463093,1.8059304011994277
1673611170.7523463,20.448332,1.8082564365734117
1673611170.7533531,20.438883,1.8105819212761423
1673611170.7543602,20.43047,1.8129079566501263
1673611170.7553673,20.424507,1.8152339920241103
1673611170.7563741,20.418064,1.817559476726841
1673611170.7573812,20.427536,1.819885512100825
1673611170.7583883,20.446672,1.822211547474809
1673611170.7593951,20.439243,1.8245370321775396
1673611170.7604022,20.428354,1.8268630675515236
1673611170.7614102,20.428425,1.829191305610521
1673611170.7624173,20.433426,1.831517340984505
1673611170.7634242,20.436768,1.8338428256872357
1673611170.7644312,20.449173,1.8361688610612195
1673611170.765438,20.457083,1.8384943457639502
1673611170.7664452,20.460833,1.8408203811379342
1673611170.7674522,20.468765,1.8566950607866508
1673611170.768459,20.470978,1.859262
1673611170.7694662,20.476387,1.8750391964711492
1673611170.7704732,20.482157,1.8932575884597043
1673611170.77148,20.477781,1.9274956915375447
1673611170.7724872,20.463573,1.8831477610872676
1673611170.7734952,20.449293,1.89365439055794
1673611170.7745023,20.442369,1.8790111346841478
1673611170.7755091,20.445253,1.9104580968049596
1673611170.7765162,20.444292,1.915369033553929
1673611170.7775233,20.433643,1.9173784186965859
1673611170.7785301,20.412439,1.9193873281325329
1673611170.7795372,20.391548,1.9213967132751897
1673611170.7805443,20.381403,1.9234060984178463
1673611170.7815511,20.387846,1.9254150078537933
1673611170.7825582,20.400179,1.92742439299645
1673611170.7835653,20.407223,1.9294337781391069
1673611170.7845721,20.426407,1.9314426875750537
1673611170.7855792,20.472059,1.9334520727177105
1673611170.7865872,20.486748,1.935463360687207
1673611170.787594,20.471266,1.9374722701231537
1673611170.7886012,20.460833,1.9394816552658105
1673611170.7896082,20.470207,1.9414910404084673
1673611170.790615,20.481796,1.9434999498444143
1673611170.7916222,20.474703,1.9455093349870711
1673611170.7926292,20.460447,1.947518720129728
1673611170.793636,20.446024,1.9495276295656747
1673611170.7946432,20.447418,1.9515370147083315
1673611170.7956502,20.461962,1.9535463998509883
1673611170.796657,20.459221,1.955555309286935
1673611170.7976642,20.446264,1.957564694429592
1673611170.7986722,20.439051,1.9595759823990884
1673611170.7996793,20.426575,1.9615853675417452
1673611170.8006861,20.423738,1.963594276977692
1673611170.8016932,20.427391,1.9656036621203488
1673611170.8027003,20.425421,1.9676130472630056
1673611170.8037071,20.423761,1.9696219566989526
1673611170.8047142,20.423016,1.9716313418416094
1673611170.8057213,20.430109,1.9736407269842662
1673611170.8067281,20.440878,1.975649636420213
1673611170.8077352,20.458427,1.9776590215628698
1673611170.8087423,20.47444,1.9796684067055266
1673611170.8097491,20.485088,1.9816773161414734
1673611170.8107562,20.484848,1.9836867012841302
1673611170.8117642,20.484465,1.9856979892536266
1673611170.812771,20.485401,1.9877068986895736
1673611170.8137782,20.478357,1.9897162838322304
1673611170.8147852,20.463596,1.9917256689748872
1673611170.815792,20.450615,1.993734578410834
1673611170.8167992,20.435951,1.9957439635534908
1673611170.8178062,20.428907,1.9977533486961476
1673611170.818813,20.423929,1.9997622581320944
1673611170.8198202,20.419218,2.0017716432747514
1673611170.8208272,20.414457,2.003781028417408
1673611170.821834,20.417223,2.005789937853355
1673611170.8228412,20.421333,2.0077993229960116
1673611170.8238492,20.430542,2.0098106109655083
1673611170.8248563,20.446264,2.011819996108165
1673611170.8258631,20.459246,2.013828905544112
1673611170.8268702,20.468838,2.0158382906867685
1673611170.8278773,20.471724,2.0178476758294255
1673611170.8288841,20.475473,2.019856585265372
1673611170.8298912,20.476362,2.021865970408029
1673611170.8308983,20.474703,2.022071
1673611170.8319051,20.469967,2.1043867801621365
1673611170.8329122,20.465471,2.112517
1673611170.8339193,20.462154,2.112517
1673611170.8349261,20.454823,2.1462124655870443
1673611170.8359332,20.443235,2.131714881861575
1673611170.8369412,20.428858,2.130614
1673611170.837948,20.415564,2.147854337699452
1673611170.8389552,20.407198,2.148703
1673611170.8399622,20.396452,2.1629980566706593
1673611170.840969,20.388157,2.1778780232272767
1673611170.8419762,20.387941,2.1927615133374236
1673611170.8429832,20.397268,2.2076450034475705
1673611170.84399,20.405996,2.2225249700041876
1673611170.8449972,20.409121,2.2374084601143345
1673611170.8460042,20.415588,2.2522919502244814
1673611170.847011,20.426407,2.2671719167810984
1673611170.8480182,20.438931,2.2820554068912458
1673611170.8490262,20.445423,2.296952991215512
1673611170.8500333,20.440783,2.311836481325659
1673611170.8510401,20.431936,2.326716447882276
1673611170.8520472,20.431959,2.341599937992423
1673611170.8530543,20.448019,2.35648342810257
1673611170.8540611,20.4485,2.371363394659187
1673611170.8550682,20.439604,2.386246884769334
1673611170.8560753,20.435999,2.401130374879481
1673611170.8570821,20.434195,2.416010341436098
1673611170.8580892,20.429676,2.430893831546245
1673611170.8590963,20.423906,2.445777321656392
1673611170.8601031,20.423473,2.4606572882130093
1673611170.8611102,20.435831,2.4755407783231562
1673611170.8621182,20.450953,2.4904383626474225
1673611170.863125,20.462492,2.5053183292040395
1673611170.8641322,20.467516,2.5202018193141864
1673611170.8651392,20.472757,2.5350853094243337
1673611170.866146,20.481747,2.549965275980951
1673611170.8671532,20.488695,2.5648487660910977
1673611170.8681602,20.490978,2.5797322562012446
1673611170.869167,20.493406,2.5946122227578616
1673611170.8701742,20.492397,2.609495712868009
1673611170.8711812,20.487013,2.624379202978156
1673611170.872188,20.473093,2.639259169534773
1673611170.8731952,20.452347,2.65414265964492
1673611170.8742032,20.426527,2.669040243969186
1673611170.8752103,20.407824,2.6839237340793334
1673611170.8762171,20.404289,2.69880370063595
1673611170.8772242,20.425877,2.7136871907460973
1673611170.8782313,20.442682,2.728570680856244
1673611170.8792381,20.443306,2.7434506474128613
1673611170.8802452,20.448212,2.758334137523008
1673611170.8812523,20.432177,2.773217627633155
1673611170.8822591,20.420324,2.7880975941897725
1673611170.8832662,20.413954,2.8029810842999194
1673611170.8842733,20.418858,2.8178645744100663
1673611170.8852801,20.437754,2.8327445409666834
1673611170.8862872,20.458307,2.8476280310768303
1673611170.8872952,20.479008,2.862525615401097
1673611170.888302,20.485186,2.87854800691464
1673611170.8893092,20.477083,2.9031367978063902
1673611170.8903162,20.475136,2.9070792755661503
1673611170.891323,20.480064,2.872307
1673611170.8923302,20.482037,2.8429329664868233
1673611170.8933372,20.475065,2.7636512300269764
1673611170.894344,20.461218,2.691408
1673611170.8953512,20.449148,2.691408
1673611170.8963583,20.443283,2.698878230805913
1673611170.897365,20.432825,2.757787515137068
1673611170.8983722,20.414698,2.7200754885659837
1673611170.8993802,20.401573,2.8044415002386636
1673611170.9003873,20.39537,2.833733189556509
1673611170.9013941,20.395658,2.8205479440342938
1673611170.9024012,20.395081,2.8387573102625296
1673611170.9034083,20.39513,2.858024227647
1673611170.9044151,20.407343,2.883022204868276
1673611170.9054222,20.418713,2.9080261015726734
1673611170.9064293,20.433643,2.933029998277071
1673611170.9074361,20.44672,2.958027975498347
1673611170.9084432,20.454149,2.9830318722027447
1673611170.9094503,20.460928,3.008035768907142
1673611170.9104571,20.473188,3.0330337461284183
1673611170.9114642,20.473814,3.0580376428328155
1673611170.9124722,20.466242,3.0830652174696986
1673611170.913479,20.459846,3.1080631946909745
1673611170.9144862,20.450542,3.133067091395372
1673611170.9154932,20.443283,3.1580709880997695
1673611170.9165,20.427391,3.1830689653210458
1673611170.9175072,20.41828,3.208072862025443
1673611170.9185143,20.411909,3.233076758729841
1673611170.919521,20.399145,3.258074735951117
1673611170.9205282,20.392942,3.2830786326555144
1673611170.9215353,20.38496,3.3080825293599116
1673611170.922542,20.381474,3.333080506581188
1673611170.9235492,20.389721,3.358084403285585
1673611170.9245572,20.404457,3.3831119779224683
1673611170.9255643,20.417944,3.4081158746268656
1673611170.9265711,20.438715,3.433113851848142
1673611170.9275782,20.456745,3.458117748552539
1673611170.9285853,20.469416,3.483121645256937
1673611170.9295921,20.482252,3.5081196224782127
1673611170.9305992,20.498312,3.5331235191826105
1673611170.9316063,20.499369,3.558127415887008
1673611170.9326131,20.486242,3.583125393108284
1673611170.9336202,20.470425,3.6081292898126813
1673611170.9346273,20.450855,3.633133186517079
1673611170.9356341,20.437033,3.6581311637383553
1673611170.9366412,20.432465,3.6831350604427526
1673611170.9376493,20.425734,3.7081626350796353
1673611170.938656,20.414915,3.7331606123009116
1673611170.9396632,20.410107,3.740631
1673611170.9406703,20.421093,3.7535326181168056
1673611170.941677,20.437849,3.7978021411540293
1673611170.9426842,20.440758,3.812995
1673611170.9436913,20.440517,3.8262760774731825
1673611170.944698,20.449148,3.8847040400572244
1673611170.9457052,20.453524,3.8763711959942775
1673611170.9467123,20.453669,3.880922536829559
1673611170.947719,20.451096,3.8991355598474007
1673611170.9487262,20.44672,3.906132985072905
1673611170.9497342,20.445063,3.9096624149824657
1673611170.9507413,20.449173,3.913188505790882
1673611170.9517481,20.449846,3.9167137618240124
1673611170.9527552,20.446697,3.9202398526324287
1673611170.9537623,20.448475,3.923765943440845
1673611170.9547691,20.457106,3.9272911994739754
1673611170.9557762,20.448692,3.9308172902823917
1673611170.9567833,20.425661,3.9343433810908084
1673611170.9577901,20.406982,3.9378686371239384
1673611170.9587972,20.402294,3.941394727932355
1673611170.9598043,20.406069,3.9449208187407714
1673611170.9608111,20.415636,3.9484460747739014
1673611170.9618182,20.414675,3.951972165582318
1673611170.9628263,20.416765,3.955501595491879
1673611170.963833,20.42893,3.959026851525009
1673611170.9648402,20.423929,3.9625529423334256
1673611170.9658473,20.405586,3.966079033141842
1673611170.966854,20.398111,3.9696042891749723
1673611170.9678612,20.395081,3.9731303799833886
1673611170.9688683,20.394167,3.9802043276108727
1673611170.969875,20.398159,4.002942813066285
1673611170.9708822,20.408688,4.044032382359952
1673611170.9718893,20.416454,4.079566744873629
1673611170.972896,20.428545,4.085868265379113
1673611170.9739032,20.446625,4.148679297020262
1673611170.9749112,20.461241,4.159265961373391
1673611170.9759183,20.454172,4.141746286123033
1673611170.9769251,20.448402,4.192882
1673611170.9779322,20.44482,4.196588313573297
1673611170.9789393,20.440037,4.208733750759959
1673611170.9799461,20.437248,4.220876312606378
1673611170.9809532,20.429939,4.233021749793039
1673611170.9819603,20.43047,4.245167186979701
1673611170.9829671,20.433113,4.2573097488261205
1673611170.9839742,20.431286,4.269455186012782
1673611170.9849813,20.430902,4.281600623199443
1673611170.9859881,20.430613,4.293743185045862
1673611170.9869952,20.440687,4.3058886222325246
1673611170.9880033,20.454197,4.318045560780158
1673611170.98901,20.458981,4.330188122626577
1673611170.9900172,20.467972,4.342333559813238
1673611170.9910243,20.481867,4.354478996999901
1673611170.992031,20.488047,4.366621558846319
1673611170.9930382,20.479078,4.378766996032981
1673611170.9940453,20.469872,4.3909124332196425
1673611170.995052,20.463814,4.403054995066062
1673611170.9960592,20.449894,4.415200432252724
1673611170.9970663,20.437201,4.427345869439385
1673611170.998073,20.427921,4.439488431285804
1673611170.9990802,20.422104,4.451633868472466
1673611171.0000882,20.416477,4.4637908070201
1673611171.0010953,20.410395,4.475936244206761
1673611171.0021021,20.40888,4.48807880605318
1673611171.0031092,20.412102,4.500224243239842
1673611171.0041163,20.418159,4.512369680426504
1673611171.0051231,20.428497,4.524512242272923
1673611171.0061302,20.440783,4.5366576794595845
1673611171.0071373,20.445326,4.548803116646246
1673611171.0081441,20.448885,4.560945678492665
1673611171.0091512,20.456289,4.573091115679327
1673611171.0101583,20.466963,4.585236552865989
1673611171.0111651,20.469656,4.597379114712408
1673611171.0121732,20.471241,4.609536053260041
1673611171.0131803,20.470905,4.621681490446703
1673611171.014187,20.459871,4.667720202622169
1673611171.0151942,20.441408,4.678817852408202
1673611171.0162013,20.435158,4.6319513459704345
1673611171.017208,20.435518,4.783165528274875
1673611171.0182152,20.434435,4.753228093447905
1673611171.0192223,20.430902,4.809251858216971
1673611171.020229,20.419531,4.728424704648391
1673611171.0212362,20.415972,4.757695777777778
1673611171.0222433,20.414387,4.760581219122556
1673611171.02325,20.407511,4.7811641594574414
1673611171.0242572,20.406860000000002,4.825447144029613
1673611171.0252652,20.415083,4.869772063246265
1673611171.0262723,20.425949,4.914055047818437
1673611171.0272791,20.448187,4.958327548729488
1673611171.0282862,20.460592,5.0026105333016595
1673611171.0292933,20.466457,5.046893517873831
1673611171.0303001,20.471939,5.091166018784882
1673611171.0313072,20.475737,5.135449003357054
1673611171.0323143,20.474415,5.179731987929225
1673611171.0333211,20.471771,5.224004488840276
1673611171.0343282,20.463453,5.268287473412448
1673611171.0353353,20.440975,5.312570457984619
1673611171.0363421,20.421141,5.35684295889567
1673611171.0373502,20.407583,5.4011678781123225
1673611171.0383573,20.413761,5.445450862684494
1673611171.039364,20.421886,5.489723363595545
1673611171.0403712,20.39465,5.534006348167717
1673611171.0413783,20.364574,5.578289332739888
1673611171.042385,20.366737,5.6225618336509395
1673611171.0433922,20.375536,5.666844818223111
1673611171.0443993,20.383661,5.711127802795282
1673611171.045406,20.402727,5.755400303706333
1673611171.0464132,20.422895,5.799683288278505
1673611171.0474203,20.438835,5.843966272850676
1673611171.048427,20.460905,5.888238773761728
1673611171.0494342,20.487734,5.932521758333898
1673611171.0504422,20.503143,5.976846677550551
1673611171.0514493,20.484608,6.021129662122723
1673611171.0524561,20.480042,6.065402163033774
1673611171.0534632,20.495594,6.109685147605945
1673611171.0544703,20.488455,6.153968132178117
1673611171.0554771,20.46076,6.198240633089168
1673611171.0564842,20.435349,6.242523617661339
1673611171.0574913,20.418665,6.286806602233511
1673611171.0584981,20.412294,6.331079103144562
1673611171.0595052,20.405996,6.375362087716733
1673611171.0605123,20.400803,6.419645072288905
1673611171.0615191,20.396645,6.463917573199955
1673611171.0625272,20.395058,6.508242492416609
1673611171.0635343,20.404675,6.55252547698878
1673611171.064541,20.411741,6.596797977899831
1673611171.0655482,20.423185,6.641080962472003
1673611171.0665553,20.441721,6.685363947044174
1673611171.067562,20.461554,6.729636447955225
1673611171.0685692,20.476339,6.781813594040524
1673611171.0695763,20.476507,6.86499413018598
1673611171.070583,20.461601,6.937300201716738
1673611171.0715902,20.452995,6.951561184072485
1673611171.0725973,20.449846,7.037111876042909
1673611171.073604,20.445303,7.132611265855984
1673611171.0746112,20.436552,7.2609898018598
1673611171.0756192,20.426502,7.346229034326579
1673611171.0766263,20.421501,7.400899171196948
1673611171.0776331,20.414867,7.415260740428469
1673611171.0786402,20.417536,7.422139062079933
1673611171.0796473,20.422152,7.429017383731397
1673611171.0806541,20.417175,7.435894076992319
1673611171.0816612,20.415516,7.4427723986437835
1673611171.0826683,20.424339,7.4496507202952476
1673611171.0836751,20.431456,7.456527413556169
1673611171.0846822,20.437441,7.463405735207633
1673611171.0856893,20.438522,7.470284056859097
1673611171.0866961,20.435349,7.477160750120019
1673611171.0877042,20.438835,7.484045585333654
1673611171.0887113,20.449148,7.490923906985118
1673611171.089718,20.451143,7.497800600246039
1673611171.0907252,20.445038,7.504678921897503
1673611171.0917323,20.441288,7.511557243548968
1673611171.092739,20.435759,7.51843393680989
1673611171.0937462,20.421671,7.572408381497377
1673611171.0947533,20.403015,7.6531874182165
1673611171.09576,20.387966,7.684276
1673611171.0967672,20.385178,7.798090697306855
1673611171.0977743,20.389311,7.994316526459572
1673611171.098781,20.40097,8.190495900633797
1673611171.0997882,20.413473,8.386721729786515
1673611171.1007962,20.422945,8.583133378853203
1673611171.1018033,20.431118,8.779359208005921
1673611171.1028101,20.427849,8.975538582180146
1673611171.1038172,20.431503,9.171764411332862
1673611171.1048243,20.438931,9.36799024048558
1673611171.1058311,20.448692,9.564169614659805
1673611171.1068382,20.45326,9.760395443812524
1673611171.1078453,20.452635,9.95662127296524
1673611171.1088521,20.459871,10.152800647139465
1673611171.1098592,20.469559,10.349026476292183
1673611171.1108663,20.476049,10.545252305444901
1673611171.1118731,20.477516,10.741431679619126
1673611171.1128812,20.477421,10.937843328685814
1673611171.1138883,20.468645,11.13406915783853
1673611171.114895,20.459846,11.330248532012755
1673611171.1159022,20.45463,11.526474361165473
1673611171.1169093,20.441792,11.72270019031819
1673611171.117916,20.429869,11.918879564492414
1673611171.1189232,20.419651000000002,12.115105393645132
1673611171.1199303,20.405323,12.31133122279785
1673611171.120937,20.369959,12.507510596972075
1673611171.1219442,20.342602,12.703736426124792
1673611171.1229513,20.33135,12.899962255277512
1673611171.123958,20.322599,13.096141629451736
1673611171.1249652,20.330893,13.292367458604453
1673611171.1259732,20.346159,13.48877910767114
1673611171.1269803,20.355824,13.685004936823859
1673611171.1279871,20.362915,13.881184310998083
1673611171.1289942,20.368589,14.0774101401508
1673611171.1300013,20.380537,14.273635969303518
1673611171.1310081,20.391716,14.469815343477743
1673611171.1320152,20.397751,14.666041172630461
1673611171.1330223,20.411356,14.862267001783177
1673611171.1340292,20.422295,15.058446375957402
1673611171.1350362,20.427944,15.25467220511012
1673611171.1360433,20.432417,15.450898034262838
1673611171.1370502,20.410875,15.647077408437063
1673611171.1380582,20.412775,15.84348905750375
1673611171.1390653,20.43261,16.03971488665647
1673611171.140072,20.432104,16.235894260830694
1673611171.1410792,20.415997,16.43212008998341
1673611171.1420863,20.412006,16.628345919136127
1673611171.143093,20.416765,16.82452529331035
1673611171.1441002,20.428738,17.02075112246307
1673611171.1451073,20.452875,17.30437198545888
1673611171.146114,20.489754,17.646344230329042
1673611171.1471212,20.506365,18.009483266809728
1673611171.1481283,20.507303,19.661051971698114
1673611171.149135,20.51841,19.909276396226417
1673611171.1501422,20.517183,20.11873325531915
1673611171.1511502,20.482685,20.313066208037824
1673611171.1521573,20.450542,20.50796023584906
1673611171.1531641,20.432247,20.76621365330189
1673611171.1541712,20.415371,23.16980806098769
1673611171.1551783,20.405586,23.582755573319275
1673611171.1561852,20.406693,23.995605323455703
1673611171.1571922,20.407944,24.408552835787287
1673611171.1581993,20.411068,24.82150034811887
1673611171.1592062,20.402342,25.234350098255298
1673611171.1602132,20.404482,25.647297610586882
1673611171.1612203,20.447994,26.060245122918467
1673611171.1622272,20.445759,26.473094873054894
1673611171.1632352,20.387293,26.886433434167095
1673611171.1642423,20.325964,27.299380946498676
1673611171.165249,20.280096,27.712230696635107
1673611171.1662562,20.250814,28.125178208966688
1673611171.1672633,20.208815,28.53812572129827
1673611171.16827,20.160927,28.950975471434703
1673611171.1692772,20.138256,29.363922983766287
1673611171.1702843,20.164221,29.776870496097867
1673611171.171291,20.207085,30.189720246234295
1673611171.1722982,20.246367,30.60266775856588
1673611171.1733053,20.276056,31.015615270897463
1673611171.174312,20.309881,31.428465021033894
1673611171.1753192,20.357338,31.841412533365475
1673611171.1763272,20.41869,32.254751094477676
1673611171.1773343,20.482325,32.66769860680926
1673611171.1783412,20.479078,33.080548356945684
1673611171.1793482,20.396019,33.49349586927727
1673611171.1803553,20.369934,33.90644338160885
1673611171.1813622,20.404697,34.31929313174528
1673611171.1823692,20.401501,34.73224064407687
1673611171.1833763,20.35652,35.14518815640845
1673611171.1843832,20.322527,35.558037906544875
1673611171.1853902,20.333538,35.97098541887646
1673611171.1863973,20.348227,36.383932931208044
1673611171.1874042,20.33486,36.796782681344474
1673611171.1884122,20.305651,37.21012124245667
1673611171.1894193,20.297525,37.62306875478826
1673611171.190426,20.278341,38.03591850492468
1673611171.1914332,20.223288,38.44886601725627
1673611171.1924403,20.151791,38.86181352958785
1673611171.193447,20.079885,39.27466327972428
1673611171.1944542,20.078468,39.687610792055864
1673611171.1954613,20.120394,40.10055830438745
1673611171.196468,20.18338,40.51340805452388
1673611171.1974752,20.204199,40.92635556685546
1673611171.1984823,20.18737,41.33930307918705
1673611171.199489,20.192371,41.76930798593564
1673611171.2004962,20.198141,42.202253939914165
1673611171.2015042,20.244732,42.62638029971387
1673611171.2025113,20.320267,43.08181810893921
1673611171.2035182,20.390635,43.53714009155937
1673611171.2045252,20.465929,43.96857343371483
1673611171.2055323,20.540888,44.39379666221692
1673611171.2065392,20.60813,44.83258528969957
1673611171.2075462,20.60195,45.23483569742489
1673611171.2085533,20.548485,45.661070745273115
1673611171.2095602,20.480162,46.13678250009778
1673611171.2105672,20.448933,46.61260690274504
1673611171.2115743,20.436407,47.088431305392305
1673611171.2125812,20.423954,47.56414306021697
1673611171.2135892,20.430637,48.040418054154614
1673611171.2145963,20.431358,48.516242456801876
1673611171.215603,20.435638,48.99195421162654
1673611171.2166102,20.442152,49.467778614273804
1673611171.2176173,20.467636,49.94360301692107
1673611171.218624,20.528963,50.41931477174573
1673611171.2196312,20.613659,50.895139174392995
1673611171.2206383,20.649141,51.37096357704026
1673611171.221645,20.625439,51.84667533186492
1673611171.2226522,20.404144,52.322499734512185
1673611171.2236593,20.26281,52.79832413715945
1673611171.224666,20.184582,53.27403589198411
1673611171.2256732,20.220234,53.749860294631375
1673611171.2266812,20.310747,54.22613528856902
1673611171.2276883,20.371473,54.70195969121628
1673611171.2286952,20.415083,55.17767144604095
1673611171.2297022,20.434484,55.65349584868821
1673611171.2307093,20.447321,56.12932025133547
1673611171.2317162,20.459822,56.60503200616013
1673611171.2327232,20.439341,57.0808564088074
1673611171.2337303,20.419844,57.556680811454655
1673611171.2347372,20.394384,58.03239256627933
1673611171.2357442,20.40049,58.50821696892658
1673611171.236751,20.418304,58.98392872375125
1673611171.2377582,20.354622,59.45975312639851
1673611171.2387662,20.28923,59.93602812033616
1673611171.2397733,20.246367,60.41185252298342
1673611171.24078,20.222326,60.88756427780809
1673611171.2417872,20.242496,61.363388680455344
1673611171.2427943,20.270359,61.83921308310261
1673611171.243801,20.252256,62.31492483792727
1673611171.2448082,20.239515,62.79074924057454
1673611171.2458153,20.267233,63.2665736432218
1673611171.2468221,20.286682,63.74228539804646
1673611171.2478292,20.311949,64.21810980069372
1673611171.2488363,20.340052,64.69393420334099
1673611171.2498431,20.414242,65.16964595816566
1673611171.2508502,20.487709,65.64547036081291
1673611171.2518582,20.496172,66.12174535475056
1673611171.2528653,20.459438,66.59756975739782
1673611171.2538722,20.398832,67.07328151222248
1673611171.2548792,20.361641,67.5056757267525
1673611171.2558863,20.312069,67.91414044635194
1673611171.2568932,20.23086,68.2988106874851
1673611171.2579002,20.180447,68.65332573485932
1673611171.258907,20.153955,69.03584702432046
1673611171.2599142,20.126596,69.4548936126341
1673611171.2609212,20.088661,69.85484238197425
1673611171.261928,20.013918,70.2103067412971
1673611171.2629352,19.979179,70.57464675256257
1673611171.2639432,20.031757,70.78585933058105
1673611171.2649503,20.156574,70.8603164559721
1673611171.265957,20.269951,70.93475595420279
1673611171.2669642,20.190351,71.00921307959383
1673611171.2679713,20.004831,71.08367020498487
1673611171.2689781,19.972496,71.43935437124463
1673611171.2699852,19.998846,71.82187259713946
1673611171.2709923,19.997763,72.1610410780654
1673611171.2719991,19.992258,72.49669737282017
1673611171.2730062,20.106884,72.83243315047685
1673611171.2740133,20.280529,73.16816892813353
1673611171.2750201,20.370777,73.5038252228883
1673611171.2760272,20.468357,73.83956100054496
1673611171.2770352,20.593103,74.17561470980927
1673611171.2780423,20.656017,74.46819078159275
1673611171.2790492,20.705564,74.81337391607057
1673611171.2800562,20.828268,75.08731277592372
1673611171.281063,20.9133,75.43281959084406
1673611171.2820702,20.861444,75.68891071387696
1673611171.2830772,20.705132,76.03407579809297
1673611171.284084,20.597383,76.3254534520744
1673611171.2850912,20.58041,76.61696760944207
1673611171.2860982,20.576996,76.90694226908793
1673611171.287105,20.56274,77.15917742883565
1673611171.2881122,20.532377,77.41147231748693
1673611171.2891202,20.48468,77.66400612175245
1673611171.2901273,20.416525,77.91630101040371
1673611171.2911341,20.38924,78.16853617015143
1673611171.2921412,20.399145,78.4208310588027
1673611171.2931483,20.398014,78.67312594745398
1673611171.2941551,20.396212,78.92536110720168
1673611171.2951622,20.400299,79.17765599585296
1673611171.2961693,20.420107,79.42995088450424
1673611171.2971761,20.432369,79.68218604425194
1673611171.2981832,20.439774,79.93448093290321
1673611171.2991903,20.436239,80.18677582155449
1673611171.3001971,20.369743,80.4390109813022
1673611171.3012042,20.325581,80.69130586995347
1673611171.3022122,20.250477,80.94383967421899
1673611171.303219,20.182058,81.1960748339667
1673611171.3042262,20.151358,81.44836972261798
1673611171.3052332,20.141382,81.70066461126925
1673611171.30624,20.141695,81.95289977101696
1673611171.3072472,20.143713,82.20519465966824
1673611171.3082542,20.222855,82.4574895483195
1673611171.309261,20.315027,82.70972470806721
1673611171.3102682,20.389023,82.96201959671849
1673611171.3112752,20.46665,83.21431448536975
1673611171.312282,20.540623,83.46654964511747
1673611171.3132892,20.633299,83.71884453376875
1673611171.3142972,20.694315,83.97137833803427
1673611171.3153043,20.652122,84.22367322668555
1673611171.3163111,20.536175,84.47590838643325
1673611171.3173182,20.435879,84.72820327508452
1673611171.3183253,20.374863,84.9804981637358
1673611171.3193321,20.271057,85.22358833897496
1673611171.3203392,20.082579,85.43711598092513
1673611171.3213463,19.939297,85.67390144134477
1673611171.3223531,19.899124,85.95386279046484
1673611171.3233602,19.895134,87.26238380937882
1673611171.3243673,19.868521,87.51604466869672
1673611171.3253741,19.867945,87.79588247579909
1673611171.3263812,19.932686,87.92374540834349
1673611171.3273892,20.011274,88.13425901979294
1673611171.328396,20.088734,88.53703556710369
1673611171.3294032,20.234467,88.75791465092989
1673611171.3304102,20.429268,88.98505878350024
1673611171.331417,20.642651,89.14519453298772
1673611171.3324242,20.82358,89.28204309268386
1673611171.3334312,20.881062,89.41889165238003
1673611171.334438,20.777903,89.5557078142164
1673611171.3354452,20.661692,89.69255637391255
1673611171.3364522,20.643229,89.82940493360871
1673611171.337459,20.634478,89.96622109544509
1673611171.3384662,20.580435,90.10306965514124
1673611171.3394742,20.476843,90.24004780627651
1673611171.3404813,20.404675,90.37689636597267
1673611171.3414881,20.354933,90.51371252780905
1673611171.3424952,20.342337,90.6505610875052
1673611171.3435023,20.299353,90.78740964720136
1673611171.3445091,20.267403,90.92422580903774
1673611171.3455162,20.259588,91.06107436873388
1673611171.3465233,20.274446,91.19792292843005
1673611171.3475301,20.297045,91.33473909026642
1673611171.3485372,20.327551,91.47158764996257
1673611171.3495443,20.339188,91.60843620965873
1673611171.3505511,20.352674,91.74525237149511
1673611171.3515582,20.342049,91.88210093119126
1673611171.3525662,20.334114,92.01907908232653
1673611171.353573,20.326204,92.1558952441629
1673611171.3545802,20.35676,92.29274380385905
1673611171.3555872,20.435806,92.42959236355522
1673611171.356594,20.518385,92.5664085253916
1673611171.3576012,20.53507,92.70325708508774
1673611171.3586082,20.521391,92.8401056447839
1673611171.359615,20.470087,92.97692180662028
1673611171.3606222,20.41251,93.11377036631643
1673611171.3616292,20.365271,93.25061892601259
1673611171.362636,20.310555,93.38743508784897
1673611171.3636432,20.207973,93.52428364754512
1673611171.3646512,20.101402,93.66126179868039
1673611171.3656583,20.022213,93.79811035837653
1673611171.3666651,19.978146,93.93492652021291
1673611171.3676722,20.010336,94.07177507990907
1673611171.3686793,20.099623,94.20862363960522
1673611171.3696861,20.202925,94.3454398014416
1673611171.3706932,20.324282,94.48228836113776
1673611171.3717003,20.414577,94.61913692083391
1673611171.3727071,20.463596,94.75595308267029
1673611171.3737142,20.456289,94.89280164236645
1673611171.3747213,20.404024,95.0255165466031
1673611171.3757281,20.332792,95.1202865565093
1673611171.3767352,20.218697,95.17494891845493
1673611171.3777432,20.075871,95.24656270321812
1673611171.37875,19.940235,95.32904445112065
1673611171.3797572,19.878283,95.3932153032904
1673611171.3807642,19.811304,95.43904513257034
1673611171.381771,19.801641,95.4933899079857
1673611171.3827782,19.877729,95.55717245493562
1673611171.3837852,20.029472,95.61937461088101
1673611171.384792,20.242136,95.68893669503385
1673611171.3857992,20.425228,95.75851525138279
1673611171.3868062,20.602911,95.82809380773173
1673611171.387813,20.76206,95.89765589188457
1673611171.3888202,20.855434,95.96723444823351
1673611171.3898282,20.906689,96.03687889336688
1673611171.3908353,20.900991,96.10645744971583
1673611171.3918421,20.848534,96.17601953386867
1673611171.3928492,20.868849,96.24559809021761
1673611171.3938563,20.869257,96.31517664656656
1673611171.3948631,20.759777,96.38473873071939
1673611171.3958702,20.664913,96.45431728706833
1673611171.3968773,20.65395,96.52389584341728
1673611171.3978841,20.653204,96.59345792757011
1673611171.3988912,20.626713,96.66303648391906
1673611171.3998983,20.58202,96.732615040268
1673611171.4009051,20.533772,96.80217712442085
1673611171.4019122,20.469078,96.8717556807698
1673611171.4029202,20.314041,96.94140012590316
1673611171.403927,20.144939,97.010962210056
1673611171.4049342,20.015745,97.08054076640494
1673611171.4059412,19.975983,97.15011932275388
1673611171.406948,19.991753,97.21968140690672
1673611171.4079552,19.999662,97.28925996325566
1673611171.4089622,20.030844,97.3588385196046
1673611171.409969,20.127991,97.42840060375745
1673611171.4109762,20.270454,97.4979791601064
1673611171.4119833,20.347218,97.56755771645534
1673611171.41299,20.38871,97.63711980060818
1673611171.4139972,20.473911,97.70669835695712
1673611171.4150052,20.595699,97.77634280209048
1673611171.4160123,20.624235,97.84592135843943
1673611171.4170191,20.494585,97.91548344259226
1673611171.4180262,20.41703,97.98506199894122
1673611171.4190333,20.443018,98.05464055529016
1673611171.4200401,20.480738,98.124202639443
1673611171.4210472,20.530766,98.19378119579194
1673611171.4220543,20.526295,98.26335975214089
1673611171.4230611,20.480642,98.33292183629372
1673611171.4240682,20.439917,98.40250039264266
1673611171.4250753,20.416334,98.47207894899161
1673611171.4260821,20.43292,98.54164103314444
1673611171.4270892,20.46314,98.61121958949339
1673611171.4280972,20.42881,98.68086403462677
1673611171.429104,20.335388,98.7504261187796
1673611171.4301112,20.184727,98.82000467512854
1673611171.4311182,20.049883,98.88958323147749
1673611171.432125,20.026901,98.95914531563032
1673611171.4331322,20.095705,99.02872387197927
1673611171.4341393,20.234467,99.09830242832821
1673611171.435146,20.405155,99.16786451248105
1673611171.4361532,20.506798,99.23744306882999
1673611171.4371603,20.538963,99.30702162517895
1673611171.438167,20.580074,99.37658370933178
1673611171.4391742,20.653133,99.44616226568073
1673611171.4401822,20.719076,99.40729757656585
1673611171.4411893,20.765522,99.40974537303103
1673611171.4421961,20.720999,99.47132020457796
1673611171.4432032,20.654743,99.51453268247914
1673611171.4442103,20.603464,99.5393982167382
1673611171.4452171,20.540888,99.5692984654268
1673611171.4462242,20.458958,99.61756062932062
1673611171.4472313,20.362267,99.64831722415435
1673611171.4482381,20.256056,99.63033757470167
1673611171.4492452,20.087723,99.6253132320594
1673611171.4502523,19.91254,99.63581980780863
1673611171.4512591,19.890806,99.64632389620567
1673611171.4522662,19.961535,99.6568304719549
1673611171.4532743,20.076664,99.667346997113
1673611171.454281,20.191265,99.67785108551004
1673611171.4552882,20.242712,99.68835766125929
1673611171.4562953,20.271633,99.690651
1673611171.457302,20.266441,99.70501439904649
1673611171.4583092,20.307766,99.69424809728183
1673611171.4593163,20.279495,99.690651
1673611171.460323,20.140709,99.690651
1673611171.4613302,20.082651,99.73526617978064
1673611171.4623373,20.106714,99.744919
1673611171.463344,20.021492,99.72979307653792
1673611171.4643512,19.96764,99.67670859331383
1673611171.4653592,20.035748,99.61679530310485
1673611171.4663663,20.197708,99.55693869528965
1673611171.4673731,20.350847,99.49709625807287
1673611171.4683802,20.475616,99.43723965025767
1673611171.4693873,20.620991,99.37738304244246
1673611171.4703941,20.734293,99.31754060522569
1673611171.4714012,20.784273,99.25768399741047
1673611171.4724083,20.835672,99.19782738959526
1673611171.4734151,20.885557,99.13798495237849
1673611171.4744222,20.813051,99.07812834456328
1673611171.4754293,20.672293,99.01827173674806
1673611171.4764361,20.52466,98.9584292995313
1673611171.4774432,20.348467,98.89857269171608
1673611171.4784513,20.247761,98.83865940150712
1673611171.479458,20.154917,98.77881696429034
1673611171.4804652,20.106451,98.71896035647514
1673611171.4814723,20.144171,98.65910374865992
1673611171.482479,20.218817,98.59926131144314
1673611171.4834862,20.298439,98.53940470362794
1673611171.4844933,20.399794,98.47954809581273
1673611171.4855,20.462515,98.41970565859596
1673611171.4865072,20.43285,98.35984905078075
1673611171.4875143,20.329811,98.29999244296553
1673611171.488521,20.241823,98.24015000574876
1673611171.4895282,20.179438,98.18029339793355
1673611171.4905362,20.135059,98.12038010772457
1673611171.4915433,20.118063,98.06052349990937
1673611171.4925501,20.078035,98.00068106269259
1673611171.4935572,20.109047,97.94082445487739
1673611171.4945643,20.21319,97.88096784706218
1673611171.4955711,20.328442,97.82112540984541
1673611171.4965782,20.430157,97.76126880203019
1673611171.4975853,20.505812,97.70141219421498
1673611171.4985921,20.637289,97.64156975699821
1673611171.4995992,20.842524,97.581713149183
1673611171.5006063,20.868536,97.52325617592372
1673611171.5016131,20.710373,97.43353518264188
1673611171.5026202,20.622433,97.33874305674773
1673611171.5036283,20.59409,97.41881220643623
1673611171.504635,20.536945,97.393196
1673611171.5056422,20.50259,97.55857081204232
1673611171.5066493,20.505211,98.02380652360515
1673611171.507656,20.517063,97.98951858369098
1673611171.5086632,20.502783,97.87320642632332
1673611171.5096703,20.49699,97.81855364243145
1673611171.510677,20.485426,97.773102
1673611171.5116842,20.425636,97.7571648676681
1673611171.5126913,20.357651,97.67933629296782
1673611171.513698,20.284111,97.64736305078684
1673611171.5147052,20.207685,97.56697018836434
1673611171.5157132,20.113783,97.54735797041404
1673611171.5167203,19.977545,97.59363049425716
1673611171.5177271,19.870998,97.63989206343079
1673611171.5187342,19.728773,97.68616458727391
1673611171.5197413,19.596142,97.73243711111702
1673611171.5207481,19.523563,97.77869868029067
1673611171.5217552,19.615831,97.82497120413377
1673611171.5227623,19.802771,97.87124372797689
1673611171.5237691,20.056158,97.91750529715054
1673611171.5247762,20.309233,97.96377782099366
1673611171.5257833,20.59856,98.01005034483677
1673611171.5267901,20.847692,98.05631191401041
1673611171.5277982,20.973257,98.1026282565314
1673611171.5288053,21.053263,98.14890078037452
1673611171.529812,20.962126,98.19516234954816
1673611171.5308192,20.752373,98.24143487339127
1673611171.5318263,20.629211,98.28770739723439
1673611171.532833,20.565001,98.33396896640802
1673611171.5338402,20.510668,98.38024149025114
1673611171.5348473,20.47278,98.42651401409425
1673611171.535854,20.476267,98.4727755832679
1673611171.5368612,20.475401,98.519048107111
1673611171.5378683,20.453115,98.56532063095412
1673611171.538875,20.433546,98.61158220012777
1673611171.5398822,20.364117,98.65785472397089
1673611171.5408902,20.353251,98.70417106649188
1673611171.5418973,20.360727,98.75044359033498
1673611171.5429041,20.392725,98.79670515950863
1673611171.5439112,20.423328,98.84297768335175
1673611171.5449183,20.435469,98.88925020719486
1673611171.5459251,20.47052,98.9355117763685
1673611171.5469322,20.493216,98.98178430021161
1673611171.5479393,20.518578,99.02805682405473
1673611171.5489461,20.529877,99.07431839322837
1673611171.5499532,20.494585,99.12059091707148
1673611171.5509603,20.466625,99.1668634409146
1673611171.5519671,20.457586,99.17271131354316
1673611171.5529752,20.430349,99.20072899213162
1673611171.5539823,20.394264,99.19692612920143
1673611171.554989,20.359526,99.21956911874105
1673611171.5559962,20.282284,99.2025666981402
1673611171.5570033,20.196362,99.20826678951131
1673611171.55801,20.172033,99.17153317238912
1673611171.5590172,20.157465,99.16027211158799
1673611171.5600243,20.168524,99.19093670822407
1673611171.561031,20.232904,99.202217
1673611171.5620382,20.24877,99.202217
1673611171.5630453,20.197468,99.202217
1673611171.564052,20.195833,99.202217
1673611171.5650592,20.279446,99.202217
1673611171.5660672,20.328297,99.202217
1673611171.5670743,20.374407,99.202217
1673611171.5680811,20.423138,99.202217
1673611171.5690882,20.420059,99.202217
1673611171.5700953,20.388735,99.202217
1673611171.5711021,20.330725,99.202217
1673611171.5721092,20.292645,99.202217
1673611171.5731163,20.307718,99.202217
1673611171.5741231,20.341808,99.202217
1673611171.5751302,20.334404,99.2003263320618
1673611171.5761373,20.313704,99.19303967022697
1673611171.5771441,20.239996,99.18575473345413
1673611171.5781522,20.1071,99.17846117137135
1673611171.5791593,20.039257,99.17117450953653
1673611171.580166,20.026852,99.17141308059132
1673611171.5811732,19.984999,99.17862452742013
1673611171.5821803,19.902298,99.166039
1673611171.583187,19.836931,99.17179263042442
1673611171.5841942,19.87994,99.17236162994755
1673611171.5852013,20.051182,99.147949
1673611171.586208,20.230692,99.14181581974249
1673611171.5872152,20.391644,99.09227868097281
1673611171.5882223,20.638493,99.04687641454112
1673611171.589229,20.865194,99.08875249520906
1673611171.5902362,20.952919,99.07496573743629
1673611171.5912442,20.951019,99.06116592402168
1673611171.5922513,20.950394,99.0473791662489
1673611171.5932581,20.878536,99.03359567238658
1673611171.5942652,20.744125,99.01980891461379
1673611171.5952723,20.566898,99.00602215684101
1673611171.5962791,20.279976,98.99223866297869
1673611171.5972862,20.084381,98.97845190520592
1673611171.5982933,20.068659,98.96466514743314
1673611171.5993001,20.107918,98.9508816535708
1673611171.6003072,20.076231,98.93709489579803
1673611171.6013143,20.132679,98.92330813802525
1673611171.6023211,20.288822,98.90952464416293
1673611171.6033292,20.399506,98.89572483074832
1673611171.6043363,20.463428,98.88193807297553
1673611171.605343,20.51228,98.86815457911321
1673611171.6063502,20.577694,98.85436782134043
1673611171.6073573,20.715229,98.84058106356765
1673611171.608364,20.862646,98.82679756970533
1673611171.6093712,20.905367,98.81301081193254
1673611171.6103783,20.764681,98.79922405415977
1673611171.611385,20.61587,98.78544056029745
1673611171.6123922,20.488791,98.77165380252467
1673611171.6133993,20.414675,98.75786704475189
1673611171.614406,20.374382,98.74408355088957
1673611171.6154132,20.335148,98.73029679311678
1673611171.6164212,20.32296,98.71649697970217
1673611171.6174283,20.368229,98.7027102219294
1673611171.6184351,20.425396,98.68892672806707
1673611171.6194422,20.442657,98.67513997029428
1673611171.6204493,20.448402,98.6613532125215
1673611171.6214561,20.486795,98.64756971865918
1673611171.6224632,20.514803,98.6337829608864
1673611171.6234703,20.509106,98.61999620311363
1673611171.6244771,20.492445,98.60621270925131
1673611171.6254842,20.460207,98.59242595147852
1673611171.6264913,20.43261,98.56464379399141
1673611171.6274981,20.407246,98.56236218192656
1673611171.6285062,20.393496,98.53448057115614
1673611171.6295133,20.399456,98.49147754554124
1673611171.63052,20.426382,98.45504903195041
1673611171.6315272,20.414194,98.49005180738975
1673611171.6325343,20.410755,98.47868496995707
1673611171.633541,20.464174,98.42995817397845
1673611171.6345482,20.500019,98.34565572750063
1673611171.6355553,20.501436000000002,98.21540986051502
1673611171.636562,20.477829,98.22412668676996
1673611171.6375692,20.422224,98.20809862923224
1673611171.6385763,20.358131,98.189163
1673611171.639583,20.29524,98.11697815137069
1673611171.6405902,20.297718,98.05630993228422
1673611171.6415982,20.308704,98.00753278540773
1673611171.6426053,20.289591,97.9624425808055
1673611171.6436121,20.256657,97.92181152140265
1673611171.6446192,20.199873,97.8811708406265
1673611171.6456263,20.028944,97.84053015985036
1673611171.6466331,19.841427,97.7998991004475
1673611171.6476402,19.770245,97.75925841967135
1673611171.6486473,19.757479,97.71861773889522
1673611171.6496542,19.743919000000002,97.67798667949236
1673611171.6506612,19.76832,97.63734599871621
1673611171.6516683,19.813589,97.59670531794006
1673611171.6526752,19.970358,97.55607425853722
1673611171.6536832,20.206532,97.51539509226791
1673611171.6546903,20.397053,97.47475441149177
1673611171.655697,20.576803,97.43412335208892
1673611171.6567042,20.785788,97.39348267131277
1673611171.6577113,20.934792,97.35284199053663
1673611171.658718,20.93335,97.31221093113378
1673611171.6597252,20.856155,97.27157025035763
1673611171.6607323,20.808796,97.23092956958149
1673611171.661739,20.807329,97.19029851017864
1673611171.6627462,20.791222,97.14965782940249
1673611171.6637533,20.705421,97.10901714862635
1673611171.66476,20.571659,97.0683860892235
1673611171.6657672,20.475328,97.02774540844734
1673611171.6667752,20.422825,96.98706624217805
1673611171.6677823,20.384647,96.94642556140191
1673611171.6687891,20.355055,96.90579450199905
1673611171.6697962,20.327528,96.8651538212229
1673611171.6708033,20.302622,96.82451314044677
1673611171.6718102,20.284975,96.78388208104391
1673611171.6728172,20.269541,96.74324140026776
1673611171.6738243,20.235332,96.70260071949163
1673611171.6748312,20.189775,96.66196966008877
1673611171.6758382,20.163258,96.62132897931262
1673611171.6768453,20.142151,96.58068829853649
1673611171.6778522,20.130756,96.54005723913363
1673611171.6788602,20.141405,96.49937807286432
1673611171.6798673,20.208599,96.45873739208818
1673611171.680874,20.35099,96.41810633268533
1673611171.6818812,20.514322,96.43376078779208
1673611171.6828883,20.651089,96.41687500476758
1673611171.683895,20.71595,96.39866105436337
1673611171.6849022,20.725567,96.398247
1673611171.6859093,20.711382,96.34445764505364
1673611171.686916,20.74011,96.30786901096805
1673611171.6879232,20.705542,96.3440738648391
1673611171.6889303,20.617865,96.36118812231759
1673611171.689937,20.554808,96.28986128878523
1673611171.6909442,20.508312,96.29779653664552
1673611171.6919522,20.433186,96.30573929894507
1673611171.6929593,20.3351,96.31367454680536
1673611171.6939662,20.216219,96.32160791605584
1673611171.6949732,20.156864,96.32954316391613
1673611171.6959803,20.153234,96.33747841177642
1673611171.6969872,20.186049,96.34541178102688
1673611171.6979942,20.219465,96.35334702888717
1673611171.6990013,20.325773,96.36128227674746
1673611171.7000082,20.409626,96.36921564599794
1673611171.7010152,20.49473,96.37715089385823
1673611171.7020223,20.542162,96.38508614171852
1673611171.7030292,20.557716,96.39301951096898
1673611171.7040372,20.544422,96.40096227326853
1673611171.7050443,20.534733,96.40889752112884
1673611171.706051,20.48843,96.4168308903793
1673611171.7070582,20.433233,96.42476613823959
1673611171.7110863,20.167513,96.45650525107094
1673611171.712093,20.203983,96.4644386203214
1673611171.7131002,20.210522,96.47237386818169
1673611171.7141073,20.179365,96.48030911604198
1673611171.715114,20.169991,96.48824248529246
1673611171.7161212,20.258099,96.49617773315275
1673611171.7171292,20.40489,96.5041204954523
1673611171.7181363,20.509706,96.51205574331259
1673611171.7191432,20.566828,96.51998911256307
1673611171.7201502,20.652628,96.52792436042336
1673611171.7211573,20.669912,96.53585960828364
1673611171.7221642,20.541391,96.54379297753411
1673611171.7231712,20.405899,96.5517282253944
1673611171.7241783,20.378494,96.55966347325469
1673611171.7251852,20.392412,96.56759684250517
1673611171.7261922,20.408737,96.57553209036546
1673611171.7271993,20.41316,96.58346733822574
1673611171.7282062,20.397486,96.59140070747621
1673611171.7292142,20.315628,96.59934346977577
1673611171.7302213,20.231173,96.60727871763606
1673611171.731228,20.237736,96.61521208688653
1673611171.7322352,20.260695,96.62314733474682
1673611171.7332423,20.323753,96.6310825826071
1673611171.734249,20.388519,96.63901595185759
1673611171.7352562,20.411598,96.64695119971788
1673611171.7362633,20.48872,96.65488644757816
1673611171.73727,20.547066,96.66281981682863
1673611171.7382772,20.557524,96.67075506468892
1673611171.7392843,20.545576,96.67869031254921
1673611171.740291,20.51413,96.68662368179969
1673611171.7412982,20.485594,96.69455892965998
1673611171.7423062,20.505692,96.70250169195953
1673611171.7433133,20.50271,96.71043693981981
1673611171.7443202,20.491964,96.7183703090703
1673611171.7453272,20.506029,96.71268090605626
1673611171.7463343,20.520237,96.69913514922527
1673611171.7473412,20.48444,96.72971352789699
1673611171.7483482,20.43095,96.7300114761564
1673611171.7493553,20.417776,96.7301922925608
1673611171.7503622,20.396259,96.778137
1673611171.7513692,20.390995,96.778137
1673611171.752376,20.428064,96.80405599046257
1673611171.7533832,20.472492,96.830686029559
1673611171.7543912,20.455519,96.80410608865762
1673611171.7553983,20.416357,96.82537207619102
1673611171.756405,20.389721,96.84663302916296
1673611171.7574122,20.363781,96.86789901669636
1673611171.7584193,20.269278,96.886688
1673611171.759426,20.186867,96.89118126793802
1673611171.7604332,20.131645,96.91812249594659
1673611171.7614403,20.03344,96.89669348402481
1673611171.7624471,19.862776,96.96429125791725
1673611171.7634542,19.745193,97.00072764780631
1673611171.7644613,19.743101,97.03716403769538
1673611171.7654681,19.85364,97.07359180154515
1673611171.7664752,19.996418,97.11002819143421
1673611171.7674832,20.187731,97.14649908548037
1673611171.7684903,20.448212,97.18293547536943
1673611171.7694972,20.730062,97.2193632392192
1673611171.7705042,20.925993,97.25579962910827
1673611171.7715113,20.977943,97.29223601899733
1673611171.7725182,20.888754,97.32866378284712
1673611171.7735252,20.844736,97.36510017273618
1673611171.774532,20.804108,97.40152793658596
1673611171.7755392,20.658445,97.43796432647503
1673611171.7765462,20.518866,97.47440071636409
1673611171.777553,20.458933,97.51082848021387
1673611171.7785602,20.418665,97.54726487010294
1673611171.7795682,20.385225,97.58373576414908
1673611171.7805753,20.39472,97.62017215403814
1673611171.781582,20.413593,97.65659991788793
1673611171.7825892,20.401091,97.69303630777699
1673611171.7835963,20.390923,97.72947269766604
1673611171.7846031,20.41679,97.76590046151583
1673611171.7856102,20.464222,97.80233685140489
1673611171.7866173,20.505571,97.83877324129395
1673611171.7876241,20.537739,97.87520100514374
1673611171.7886312,20.541801,97.9116373950328
1673611171.7896383,20.55661,97.94807378492186
1673611171.7906451,20.536993,97.98450154877165
1673611171.7916522,20.484247,98.02093793866071
1673611171.7926602,20.425877,98.05740883270686
1673611171.7936673,20.359526,98.09384522259592
1673611171.7946742,20.220211,98.1302729864457
1673611171.7956812,20.140949,98.16670937633477
1673611171.796688,20.208046,98.20313714018455
1673611171.7976952,20.23687,98.2395735300736
1673611171.7987022,20.220234,98.27600991996266
1673611171.799709,20.21509,98.31243768381245
1673611171.8007162,20.194487,98.34887407370151
1673611171.8017232,20.146599,98.38531046359057
1673611171.80273,20.088251,98.42173822744036
1673611171.8037372,20.008629,98.45817461732942
1673611171.8047452,20.000095,98.49464551137557
1673611171.8057523,20.066784,98.53108190126463
1673611171.8067591,20.086208,98.56750966511441
1673611171.8077662,20.098373,98.60394605500348
1673611171.8087733,20.210546,98.64038244489254
1673611171.8097801,20.377941,98.66816317596566
1673611171.8107872,20.538773,98.71270996304244
1673611171.8117943,20.666956,98.75885885101312
1673611171.8128011,20.80406,98.768044
1673611171.8138082,20.918421,98.79552201835956
1673611171.8148153,20.924862,98.83161303171197
1673611171.8158221,20.772951,98.89687024362337
1673611171.8168292,20.551947,98.9584881895565
1673611171.8178372,20.333994,98.9767238338102
1673611171.818844,20.16362,99.00779019829446
1673611171.8198512,20.004904,99.0498819650472
1673611171.8208582,19.88398,99.09197373179997
1673611171.821865,19.857199,99.13405553364582
1673611171.8228722,19.908646,99.17614730039858
1673611171.8238792,19.988388,99.21823906715134
1673611171.824886,20.105417,99.2603208689972
1673611171.8258932,20.238264,99.30241263574996
1673611171.8269002,20.370127,99.34450440250271
1673611171.827907,20.528843,99.38658620434857
1673611171.8289142,20.681259,99.42867797110132
1673611171.8299222,20.755377,99.47080959748169
1673611171.8309293,20.799082,99.51290136423445
1673611171.8319361,20.821297,99.5549831660803
1673611171.8329432,20.817041,99.59707493283307
1673611171.8339503,20.759296,99.63916669958583
1673611171.8349571,20.646641,99.68124850143168
1673611171.8359642,20.534733,99.72334026818444
1673611171.8369713,20.47057,99.76543203493719
1673611171.8379781,20.401981,99.80751383678306
1673611171.8389852,20.322311,99.8496056035358
1673611171.8399923,20.32284,99.89169737028857
1673611171.8409991,20.373734,99.93377917213442
1673611171.8420062,20.403761,99.97587093888718
1673611171.8430142,20.380512,100.01800256526755
1673611171.844021,20.344765,100.0600843671134
1673611171.8450282,20.351976,100.10217613386617
1673611171.8460352,20.37895,100.14426790061893
1673611171.847042,20.418039,100.18634970246478
1673611171.8480492,20.394817,100.22844146921754
1673611171.8490562,20.345966,100.27053323597029
1673611171.850063,20.30695,100.31261503781616
1673611171.8510702,20.280264,100.3547068045689
1673611171.8520772,20.243313,100.39679857132167
1673611171.853084,20.192299,100.43888037316752
1673611171.8540912,20.172802,100.48097213992028
1673611171.8550992,20.199488,100.52310376630065
1673611171.8561063,20.235525,100.56519553305341
1673611171.8571131,20.286226,100.60727733489927
1673611171.8581202,20.420036,100.64936910165203
1673611171.8591273,20.472252,100.69146086840477
1673611171.8601341,20.511005,100.73354267025064
1673611171.8611412,20.52877,100.77563443700339
1673611171.8621483,20.513409,100.81772620375615
1673611171.8631551,20.508865,100.859808005602
1673611171.8641622,20.539204,100.90189977235477
1673611171.8651693,20.524107,100.88480934024797
1673611171.8661761,20.464655,101.02862189985694
1673611171.8671832,20.417992,100.99321163519313
1673611171.8681912,20.442802,101.0296830877444
1673611171.869198,20.477011,101.06612695065554
1673611171.8702052,20.500835,101.1021206196948
1673611171.8712122,20.453621,101.12146906628517
1673611171.872219,20.357746,101.17335203575685
1673611171.8732262,20.288149,101.15711342155613
1673611171.8742332,20.316181,101.1830702715727
1673611171.87524,20.402269,101.20902097650166
1673611171.8762472,20.490137,101.23497782651822
1673611171.8772542,20.508217,101.26093467653477
1673611171.878261,20.474342,101.28688538146375
1673611171.8792682,20.433426,101.3128422314803
1673611171.8802762,20.336109,101.33882366184726
1673611171.8812833,20.280384,101.36478051186381
1673611171.8822901,20.271729,101.39073121679277
1673611171.8832972,20.205954,101.41668806680934
1673611171.8843043,20.084646,101.4426449168259
1673611171.8853111,19.997187,101.46859562175486
1673611171.8863182,20.014208,101.49455247177141
1673611171.8873253,20.057552,101.52050932178798
1673611171.8883321,20.09758,101.54646002671694
1673611171.8893392,20.120298,101.5724168767335
1673611171.8903463,20.214994,101.59837372675005
1673611171.8913531,20.342192,101.62432443167903
1673611171.8923602,20.418209,101.65028128169558
1673611171.8933682,20.47444,101.67626271206254
1673611171.894375,20.51442,101.7022134169915
1673611171.8953822,20.521992,101.72817026700805
1673611171.8963892,20.523699,101.75412711702462
1673611171.897396,20.510332,101.78007782195358
1673611171.8984032,20.540648,101.80603467197014
1673611171.8994102,20.598537,101.8319915219867
1673611171.900417,20.609619,101.85794222691565
1673611171.9014242,20.553556,101.88389907693222
1673611171.9024312,20.458525,101.90985592694878
1673611171.903438,20.364887,101.93580663187774
1673611171.9044452,20.349741,101.9617634818943
1673611171.9054532,20.39888,101.98774491226126
1673611171.9064603,20.407871,102.01370176227782
1673611171.9074671,20.397871,102.03965246720678
1673611171.9084742,20.394672,102.06560931722333
1673611171.9094813,20.358347,102.0915661672399
1673611171.9104881,20.391644,102.11751687216886
1673611171.9114952,20.469318,102.14347372218542
1673611171.9125023,20.535213,102.16943057220197
1673611171.9135091,20.624645,102.19538127713093
1673611171.9145162,20.689074,102.2213381271475
1673611171.9155233,20.713306,102.24729497716406
1673611171.9165301,20.671114,102.27324568209302
1673611171.9175372,20.595026,102.29920253210958
1673611171.9185452,20.538002,102.32518396247653
1673611171.919552,20.519371,102.3511346674055
1673611171.9205592,20.522688,102.37709151742206
1673611171.9215662,20.529684,102.40304836743861
1673611171.922573,20.503,102.42899907236757
1673611171.9235802,20.45927,102.45495592238414
1673611171.9245872,20.38287,102.4809127724007
1673611171.925594,20.287668,102.50686347732966
1673611171.9266012,20.229851,102.53282032734622
1673611171.9276083,20.186216,102.55877717736278
1673611171.928615,20.136045,102.58472788229174
1673611171.9296222,20.06724,102.62427117937114
1673611171.9306302,19.97418,102.6863504307876
1673611171.9316373,19.894798,102.79519796657713
1673611171.9326441,19.874941,102.73953411992841
1673611171.9336512,19.915569,102.84596070725156
1673611171.9346583,20.060316,102.85096476365264
1673611171.9356651,20.293125,102.89321195584725
1673611171.9366722,20.51829,102.89771430140257
1673611171.9376793,20.667894,102.9128781348851
1673611171.9386861,20.70607,102.89504613783322
1673611171.9396932,20.685059,102.9019592986147
1673611171.9407003,20.619186,102.90887245939616
1673611171.9417071,20.566347,102.9157839835392
1673611171.9427142,20.552258,102.92269714432068
1673611171.9437222,20.510838,102.92961685165592
1673611171.944729,20.429796,102.93652837579896
1673611171.9457362,20.27709,102.94344153658044
1673611171.9467432,20.137871,102.9503546973619
1673611171.94775,20.108782,102.95726622150494
1673611171.9487572,20.044161,102.96417938228642
1673611171.9497643,19.936989,102.9710925430679
1673611171.950771,19.847246,102.97800406721092
1673611171.9517782,19.838976,102.9849172279924
1673611171.9527853,19.932205,102.99183038877388
1673611171.953792,20.090055,102.99874191291691
1673611171.9547992,20.320677,103.00565507369838
1673611171.9558072,20.549999,103.01257478103362
1673611171.9568143,20.698881,103.0194879418151
1673611171.9578211,20.731842,103.02639946595814
1673611171.9588282,20.731529,103.03331262673962
1673611171.9598353,20.689049,103.04022578752108
1673611171.9608421,20.668182,103.04713731166412
1673611171.9618492,20.738548,103.0540504724456
1673611171.9628563,20.790356,103.06096363322708
1673611171.9638631,20.737467,103.0678751573701
1673611171.9648702,20.673567,103.07478831815158
1673611171.9658773,20.651522,103.08170147893306
1673611171.9668841,20.624548,103.08861300307609
1673611171.9678912,20.53644,103.09552616385756
1673611171.9688993,20.45314,103.1024458711928
1673611171.969906,20.417631,103.10935739533583
1673611171.9709132,20.415035,103.11627055611731
1673611171.9719203,20.396379,103.1231837168988
1673611171.972927,20.318464,103.13009524104181
1673611171.9739342,20.236486,103.1370084018233
1673611171.9749413,20.214754,103.14392156260477
1673611171.975948,20.174726,103.15083308674781
1673611171.9769552,20.147152,103.15774624752927
1673611171.9779623,20.160566,103.16465940831075
1673611171.978969,20.199415,103.17157093245379
1673611171.9799762,20.243843,103.17848409323527
1673611171.9809842,20.267185,103.18540380057051
1673611171.9819913,20.245068,103.19231696135198
1673611171.9829981,20.246752,103.19922848549501
1673611171.9840052,20.273581,103.231828037196
1673611171.9850123,20.365103,103.25228198450536
1673611171.9860191,20.405779,103.254395
1673611171.9870262,20.433161,103.30309956103959
1673611171.9880333,20.465904,103.34139692083929
1673611171.9890401,20.452057,103.32837539022647
1673611171.9900472,20.420637,103.29354684525512
1673611171.9910543,20.319643,103.30732793562231
1673611171.9920611,20.215643,103.34239813825982
1673611171.9930682,20.129963,103.344856
1673611171.9940763,20.056807,103.344856
1673611171.995083,20.044859,103.344856
1673611171.9960902,20.075823,103.344856
1673611171.9970973,20.225428,103.35912061644815
1673611171.998104,20.407894,103.35927086647592
1673611171.9991112,20.557907,103.36368725560325
1673611172.0001183,20.630175,103.42472498569727
1673611172.001125,20.676355,103.41240019599428
1673611172.0021322,20.741482,103.42761697424892
1673611172.0031393,20.775908,103.48992177003772
1673611172.004146,20.782423,103.49073122461111
1673611172.0051532,20.724533,103.49154087086212
1673611172.0061612,20.682343,103.4923512838236
1673611172.0071683,20.682583,103.4931609300746
1673611172.0081751,20.645872,103.493970384648
1673611172.0091822,20.552067,103.494780030899
1673611172.0101893,20.485451,103.49558967715001
1673611172.0111961,20.396091,103.4963991317234
1673611172.0122032,20.27096,103.4972087779744
1673611172.0132103,20.180592,103.4980184242254
1673611172.0142171,20.148401,103.49882787879879
1673611172.0152242,20.160975,103.4996375250498
1673611172.0162313,20.18951,103.5004471713008
1673611172.0172381,20.325293,103.5012566258742
1673611172.0182452,20.473862,103.5020662721252
1673611172.0192533,20.559832,103.50287668508668
1673611172.02026,20.590748,103.50368613966008
1673611172.0212672,20.616375,103.50449578591108
1673611172.0222743,20.607023,103.50530543216209
1673611172.023281,20.497301,103.50611488673547
1673611172.0242882,20.271368,103.50692453298647
1673611172.0252953,20.04171,103.50773417923749
1673611172.026302,19.889124,103.50854363381087
1673611172.0273092,19.798515,103.50935328006189
1673611172.0283163,19.797434,103.51016292631289
1673611172.029323,19.86869,103.51097238088629
1673611172.0303302,19.983147,103.51178202713729
1673611172.0313382,20.188742,103.51259244009876
1673611172.0323453,20.409048,103.51340208634977
1673611172.0333521,20.569326,103.51421154092316
1673611172.0343592,20.687632,103.51502118717417
1673611172.0353663,20.786821,103.51583083342517
1673611172.0363731,20.863127,103.51664028799856
1673611172.0373802,20.891542,103.51744993424957
1673611172.0383873,20.774561,103.51825958050057
1673611172.0393941,20.615461,103.51906903507397
1673611172.0404012,20.551153,103.51987868132497
1673611172.0414083,20.534492,103.52068832757598
1673611172.0424151,20.471579,103.52149778214937
1673611172.0434232,20.360222,103.52230819511084
1673611172.0444303,20.202349,103.52311784136185
1673611172.045437,19.997234,103.52392729593524
1673611172.0464442,19.850636,103.52473694218625
1673611172.0474513,19.920786,103.52554658843725
1673611172.048458,20.072674,103.56673952479733
1673611172.0494652,20.191818,103.580032
1673611172.0504723,20.236509,103.5521905671037
1673611172.051479,20.284494,103.52978578997615
1673611172.0524862,20.32308,103.51157684159124
1673611172.0534933,20.242184,103.50766
1673611172.0545,20.179558,103.50766
1673611172.0555072,20.202421,103.47856325059608
1673611172.0565152,20.281826,103.471481
1673611172.0575223,20.343563,103.47301394420634
1673611172.0585291,20.348034,103.47489800223411
1673611172.0595362,20.396547,103.47678250640396
1673611172.0605433,20.50276,103.47866701057382
1673611172.0615501,20.635607,103.48055106860159
1673611172.0625572,20.762445,103.48243557277144
1673611172.0635643,20.824278,103.48432007694129
1673611172.0645711,20.778263,103.48620413496906
1673611172.0655782,20.694363,103.48808863913891
1673611172.0665853,20.608994,103.48997314330876
1673611172.0675921,20.533411,103.49185720133652
1673611172.0686002,20.437849,103.49374349007472
1673611172.0696073,20.339282999999998,103.49562799424457
1673611172.070614,20.214176,103.49751205227233
1673611172.0716212,20.178717,103.49939655644218
1673611172.0726283,20.25882,103.50128106061203
1673611172.073635,20.313248,103.5031651186398
1673611172.0746422,20.374695,103.50504962280965
1673611172.0756493,20.410467,103.5069341269795
1673611172.076656,20.480064,103.50881818500727
1673611172.0776632,20.529636,103.51070268917712
1673611172.0786703,20.573221,103.51258719334697
1673611172.079677,20.64056,103.51447125137474
1673611172.0806842,20.669865,103.5163557555446
1673611172.0816922,20.622673,103.51824204428279
1673611172.0826993,20.58077,103.52012654845264
1673611172.0837061,20.522953,103.52201060648041
1673611172.0847132,20.446552,103.52389511065026
1673611172.0857203,20.348972,103.52577961482011
1673611172.0867271,20.191265,103.52766367284788
1673611172.0877342,20.113134,103.52954817701773
1673611172.0887413,20.110296,103.53143268118758
1673611172.0897481,20.163115,103.53331673921535
1673611172.0907552,20.210425999999998,103.5352012433852
1673611172.0917623,20.221628,103.53708574755505
1673611172.0927691,20.217278,103.53896980558282
1673611172.0937772,20.28899,103.54085609432101
1673611172.0947843,20.36693,103.54274059849087
1673611172.095791,20.365295,103.54462465651864
1673611172.0967982,20.390682,103.54650916068849
1673611172.0978053,20.505116,103.54839366485834
1673611172.098812,20.557259,103.5502777228861
1673611172.0998192,20.512976,103.55216222705594
1673611172.1008263,20.499033,103.5540467312258
1673611172.101833,20.526295,103.55593078925357
1673611172.1028402,20.543819,103.55781529342342
1673611172.1038473,20.54846,103.55969979759327
1673611172.104854,20.521534,103.56158385562104
1673611172.1058612,20.50889,103.561943
1673611172.1068692,20.49057,103.60667463471627
1673611172.1078763,20.451433,103.57110193778307
1673611172.1088831,20.425133,103.59223580252501
1673611172.1098902,20.350414,103.62869629546539
1673611172.1108973,20.224369,103.6343
1673611172.1119041,20.094624,103.5566573603239
1673611172.1129112,19.967327,103.59085403747017
1673611172.1139183,19.914391,103.51911334334764
1673611172.1149251,19.904894,103.58719934365325
1673611172.1159322,19.92831,103.56602716873509
1673611172.1169393,19.996368,103.57812131163567
1673611172.1179461,20.120514,103.53111907032182
1673611172.1189542,20.332119,103.43752423714506
1673611172.1199613,20.512856,103.40126195088258
1673611172.120968,20.644382,103.43598788334613
1673611172.1219752,20.761845,103.32710018802763
1673611172.1229823,20.787399,103.43643841933175
1673611172.123989,20.691935,103.41892649581148
1673611172.1249962,20.596853,103.40145822467704
1673611172.1260033,20.607937,103.38398995354261
1673611172.12701,20.615749,103.36652581788903
1673611172.1280172,20.578247,103.3490575467546
1673611172.1290243,20.515404,103.33158927562016
1673611172.130031,20.45886,103.31412513996658
1673611172.1310382,20.438715,103.29665686883214
1673611172.1320462,20.383471,103.27917205577428
1673611172.1330533,20.268677,103.26170378463985
1673611172.1340601,20.07378,103.24423964898627
1673611172.1350672,19.91795,103.22677137785183
1673611172.1360743,19.775629,103.2093031067174
1673611172.1370811,19.699156,103.19183897106383
1673611172.1380882,19.703363,103.17437069992938
1673611172.1390953,19.785221,103.15690242879495
1673611172.1401021,19.877802,103.13943829314138
1673611172.1411092,19.994999,103.12197002200695
1673611172.1421163,20.142416,103.1045017508725
1673611172.1431231,20.296659,103.08703761521893
1673611172.1441312,20.499826,103.06955280216107
1673611172.1451383,20.707008,103.05208453102664
1673611172.146145,20.858679,103.03462039537305
1673611172.1471522,20.853535,103.01715212423862
1673611172.1481593,20.804588,102.99968385310419
1673611172.149166,20.755569,102.9822197174506
1673611172.1501732,20.644358,102.96475144631617
1673611172.1511803,20.599714,102.94728317518174
1673611172.152187,20.548267,102.92981903952817
1673611172.1531942,20.391571,102.91235076839372
1673611172.1542013,20.264877,102.89488249725929
1673611172.155208,20.247328,102.87741836160572
1673611172.1562152,20.308727,102.85995009047129
1673611172.1572232,20.439676,102.84246527741342
1673611172.1582303,20.616831,102.82499700627899
1673611172.1592371,20.675249,102.80753287062541
1673611172.1602442,20.674648,102.79006459949098
1673611172.1612513,20.711695,102.77259632835654
1673611172.1622581,20.702488,102.75513219270296
1673611172.1632652,20.637001,102.73766392156853
1673611172.1642723,20.583126,102.72019565043409
1673611172.1652792,20.563293,102.70273151478051
1673611172.1662862,20.56649,102.68526324364608
1673611172.1672933,20.59041,102.66779497251164
1673611172.1683002,20.595772,102.65033083685806
1673611172.1693082,20.563486,102.63284602380021
1673611172.1703153,20.537594,102.60288931537545
1673611172.171322,20.497231,102.566978
1673611172.1723292,20.41917,102.57971914997616
1673611172.1733363,20.318127,102.59665720910824
1673611172.174343,20.253819,102.5784443432658
1673611172.1753502,20.18749,102.58047827062471
1673611172.1763573,20.166359,102.59627765927516
1673611172.177364,20.204679,102.56405936305126
1673611172.1783712,20.251608,102.5308
1673611172.1793783,20.301491,102.52559828378972
1673611172.180385,20.393013,102.51254608678674
1673611172.1813922,20.475714,102.4994907990433
1673611172.1824002,20.568172,102.48642314833798
1673611172.1834073,20.663975,102.47336786059452
1673611172.1844141,20.674648,102.46031566359154
1673611172.1854212,20.604523,102.4472603758481
1673611172.1864283,20.511822,102.43420508810466
1673611172.1874352,20.429218,102.42115289110168
1673611172.1884422,20.38085,102.40809760335823
1673611172.1894493,20.347025,102.40416
1673611172.1904562,20.310722,102.37846816662694
1673611172.1914632,20.31344,102.3809547033858
1673611172.1924703,20.329115,102.37296690462566
1673611172.1934772,20.296251,102.32830520595948
1673611172.1944852,20.236221,102.32708350548403
1673611172.1954923,20.216291,102.30480220505484
1673611172.196499,20.237255,102.32286745697259
1673611172.1975062,20.241678,102.276801018598
1673611172.1985133,20.211843,102.24744134097777
1673611172.19952,20.207901,102.23168886986191
1673611172.2005272,20.246967,102.21593266858476
1673611172.2015343,20.218985,102.2001764673076
1673611172.202541,20.158211,102.18442399619174
1673611172.2035482,20.124001,102.16866779491458
1673611172.2045553,20.088444,102.15291159363744
1673611172.205562,20.106691,102.13715912252157
1673611172.2065692,20.241438,102.12140292124442
1673611172.2075772,20.40037,102.10563179932211
1673611172.2085843,20.612553,102.08987559804497
1673611172.2095912,20.777639,102.0741231269291
1673611172.2105982,20.764946,102.05836692565195
1673611172.2116053,20.620943,102.0426107243748
1673611172.2126122,20.497231,102.02685825325894
1673611172.2136192,20.45463,102.01110205198178
1673611172.2146263,20.387869,101.99534585070462
1673611172.2156332,20.337721,101.97959337958876
1673611172.2166402,20.28149,101.96383717831161
1673611172.2176473,20.214657,101.94808097703445
1673611172.2186542,20.200209,101.93232850591859
1673611172.2196622,20.235476,101.91655738399629
1673611172.2206693,20.221821,101.90080118271914
1673611172.221676,20.194271,101.88504871160328
1673611172.2226832,20.240717,101.86929251032612
1673611172.2236903,20.340221,101.85353630904896
1673611172.224697,20.425301,101.8377838379331
1673611172.2257042,20.490162,101.82202763665595
1673611172.2267113,20.563366,101.8062714353788
1673611172.227718,20.634573,101.79051896426293
1673611172.2287252,20.680058,101.77476276298577
1673611172.2297323,20.648926,101.75900656170863
1673611172.230739,20.53091,101.74325409059276
1673611172.2317462,20.434315,101.72749788931561
1673611172.2327542,20.35277,101.71172676739332
1673611172.2337613,20.251295,101.69597056611616
1673611172.2347682,20.14941,101.68096611516452
1673611172.2357752,20.148787,101.69706282860548
1673611172.2367823,20.189991,101.644386
1673611172.2377892,20.223455,101.62319250107875
1673611172.2387962,20.25918,101.56745725997843
1673611172.2398033,20.311901,101.5619880296816
1673611172.2408102,20.367651,101.5250553802589
1673611172.2418172,20.425686,101.51600102696872
1673611172.2428243,20.576683,101.45595255423638
1673611172.2438312,20.682173,101.3959486618123
1673611172.2448392,20.637722,101.2527090159752
1673611172.2458463,20.562452,101.22258158965188
1673611172.246853,20.53632,101.19818941358761
1673611172.2478602,20.532883000000002,101.15565472627563
1673611172.2488673,20.533386,101.12048013380551
1673611172.249874,20.521343,101.09471395481664
1673611172.2508812,20.467684,101.06894167443564
1673611172.2518883,20.422464,101.04316939405463
1673611172.252895,20.33885,101.01740321506577
1673611172.2539022,20.224394,100.99163093468476
1673611172.2549093,20.107868,100.96585865430376
1673611172.255916,20.083876,100.94009247531488
1673611172.2569232,20.172394,100.91432019493388
1673611172.2579312,20.275936,100.88852350898433
1673611172.2589383,20.33676,100.86275122860333
1673611172.2599452,20.367651,100.83698504961446
1673611172.2609522,20.485641,100.81121276923345
1673611172.2619593,20.680683,100.78544048885244
1673611172.2629662,20.786148,100.75967430986358
1673611172.2639732,20.725639,100.73390202948258
1673611172.2649803,20.635967,100.70812974910157
1673611172.2659872,20.595051,100.6823635701127
1673611172.2669942,20.576996,100.6565912897317
1673611172.268001,20.56661,100.63082511074282
1673611172.2690082,20.501148,100.60505283036181
1673611172.2700162,20.392965,100.57925614441227
1673611172.2710233,20.263748,100.55348386403126
1673611172.27203,20.144987,100.52771768504239
1673611172.2730372,20.032621,100.50194540466138
1673611172.2740443,19.931652,100.47617312428038
1673611172.275051,19.905424,100.45040694529152
1673611172.2760582,19.969299,100.42463466491051
1673611172.2770653,20.020338,100.39886238452951
1673611172.278072,20.089382,100.37309620554063
1673611172.2790792,20.236319,100.34732392515963
1673611172.2800863,20.353996,100.32155164477862
1673611172.2810931,20.473862,100.29578546578975
1673611172.2821002,20.600941,100.27001318540874
1673611172.2831082,20.684338,100.2442164994592
1673611172.2841153,20.726889,100.2184442190782
1673611172.2851222,20.766651,100.19267804008932
1673611172.2861292,20.747204,100.16690575970831
1673611172.2871363,20.664,100.14113347932731
1673611172.2881432,20.662941,100.11536730033845
1673611172.2891502,20.653084,100.08959501995744
1673611172.290157,20.534012,100.10615943504172
1673611172.2911642,20.382507,99.9654565007153
1673611172.2921712,20.296755,99.97979308536004
1673611172.293178,20.21331,99.96218710560191
1673611172.2941852,20.095993,99.9078773190272
1673611172.2951932,20.05361,99.87125940023837
1673611172.2962003,20.066278,99.817276
1673611172.297207,20.10549,99.8162408450167
1673611172.2982142,20.156767,99.76254870460755
1673611172.2992213,20.180759,99.7449117615376
1673611172.3002281,20.280479,99.7272789938803
1673611172.3012352,20.42083,99.70964205081034
1673611172.3022423,20.51687,99.69200510774039
1673611172.3032491,20.551802,99.6743723400831
1673611172.3042562,20.562765,99.65673539701314
1673611172.3052633,20.539709,99.63909845394318
1673611172.3062701,20.499922,99.62146568628589
1673611172.3072772,20.459534,99.60382874321593
1673611172.3082852,20.457226,99.58617509849535
1673611172.3092923,20.442657,99.56853815542539
1673611172.3102992,20.406164,99.55090538776808
1673611172.3113062,20.35878,99.53326844469814
1673611172.312313,20.33712,99.51563567704083
1673611172.3133202,20.324379,99.49799873397087
1673611172.3143272,20.327335,99.48036179090093
1673611172.315334,20.37645,99.46272902324363
1673611172.3163412,20.374983,99.44509208017368
1673611172.3173482,20.313608,99.42745513710372
1673611172.318355,20.264036,99.40982236944642
1673611172.3193622,20.214537,99.39218542637647
1673611172.3203702,20.244204,99.37453178165588
1673611172.3213773,20.3445,99.35689483858592
1673611172.3223841,20.399433,99.33926207092863
1673611172.3233912,20.3946,99.32162512785867
1673611172.3243983,20.408978,99.30398818478871
1673611172.3254051,20.452347,99.28635541713142
1673611172.3264122,20.452297,99.26871847406146
1673611172.3274193,20.381859,99.25108153099151
1673611172.3284261,20.311108,99.23344876333421
1673611172.3294332,20.360126,99.21581182026425
1673611172.3304403,20.436888,99.1981748771943
1673611172.3314471,20.510572,99.180542109537
1673611172.3324542,20.534998,99.16290516646704
1673611172.3334622,20.521391,99.14525152174646
1673611172.334469,20.480402,99.12761875408916
1673611172.3354762,20.396908,99.10998181101921
1673611172.3364832,20.302574,99.0895402228844
1673611172.33749,20.310099,99.039398
1673611172.3384972,20.328705,99.03613732188842
1673611172.3395042,20.338514,99.00322
1673611172.340511,20.355824,98.99945117449344
1673611172.3415182,20.385393,98.96905088888889
1673611172.3425252,20.431166,98.98299071912255
1673611172.343532,20.484392,98.96930482002384
1673611172.3445392,20.530382,98.98035112255603
1673611172.3455472,20.549927,98.9466694362349
1673611172.3465543,20.585579,98.9302722434733
1673611172.3475611,20.616398,98.91387893262285
1673611172.3485682,20.621759,98.89748173986125
1673611172.3495753,20.581348,98.88108454709965
1673611172.3505821,20.558893,98.8646912362492
1673611172.3515892,20.548725,98.8482940434876
1673611172.3525963,20.519756,98.831896850726
1673611172.3536031,20.444004,98.81550353987555
1673611172.3546102,20.373493,98.79910634711395
1673611172.3556173,20.341038,98.789940278969965
1673611172.3566241,20.28161,98.79244872514899
1673611172.3576312,20.209728,98.74589971769194
1673611172.3586392,20.175951,98.72346291463997
1673611172.359646,20.174126,98.68271275089391
1673611172.3606532,20.173763,98.6369749155937
1673611172.3616602,20.190809,98.623337
1673611172.362667,20.274614,98.61392562923224
1673611172.3636742,20.405466,98.5678185454112
1673611172.3646812,20.508745,98.50647694241833
1673611172.365688,20.578655,98.47596463792497
1673611172.3666952,20.596325,98.44544510816414
1673611172.3677022,20.573006,98.41492557840331
1673611172.368709,20.541056,98.38441327390994
1673611172.3697162,20.516678,98.35389374414912
1673611172.3707242,20.471121,98.32334531331844
1673611172.3717313,20.37859,98.2928257835576
1673611172.3727381,20.229946,98.26231347906425
1673611172.3737452,20.098999,98.23179394930341
1673611172.3747523,20.004133,98.20127441954259
1673611172.3757591,19.963963,98.17076211504921
1673611172.3767662,19.957424,98.14024258528839
1673611172.3777733,19.961823,98.10972305552755
1673611172.3787801,20.046541,98.0792107510342
1673611172.3797872,20.196314,98.04869122127336
1673611172.3807943,20.365103,98.01817169151253
1673611172.3818011,20.540047,97.98765938701916
1673611172.3828082,20.74189,97.95713985725834
1673611172.3838162,20.932917,97.92659142642766
1673611172.384823,20.993258,97.89607912193429
1673611172.3858302,20.856155,97.86555959217347
1673611172.3868372,20.615797,97.83504006241263
1673611172.387844,20.447371,97.80452775791926
1673611172.3888512,20.333153,97.77400822815844
1673611172.3898582,20.186699,97.76877168144969
1673611172.390865,20.115562,97.77718550011919
1673611172.3918722,20.147079,97.74788310729615
1673611172.3928792,20.203215,97.72240521888412
1673611172.393886,20.267763,97.700745
1673611172.3948932,20.325701,97.67821079780639
1673611172.3959012,20.378902,97.646461
1673611172.3969083,20.453091,97.5997611966627
1673611172.3979151,20.497854,97.54583185050072
1673611172.3989222,20.521944,97.54983388266149
1673611172.3999293,20.510092,97.53581936863148
1673611172.4009361,20.486652,97.5218081724315
1673611172.4019432,20.448139,97.5077936584015
1673611172.4029503,20.355583,97.49377914437149
1673611172.4039571,20.279758,97.47976794817151
1673611172.4049642,20.29327,97.4657534341415
1673611172.4059713,20.345678,97.45173892011151
1673611172.4069781,20.374815,97.43772772391154
1673611172.4079852,20.418617,97.42371320988153
1673611172.4089932,20.474993,97.40968542453142
1673611172.41,20.504105,97.39567422833144
1673611172.4110072,20.541031,97.38165971430143
1673611172.4120142,20.592165,97.40421583810205
1673611172.413021,20.609812,97.40973097949451
1673611172.4140282,20.568413,97.393196
1673611172.4150352,20.472733,97.36295653505007
1673611172.416042,20.387148,97.40016587935145
1673611172.4170492,20.302814,97.37514778665079
1673611172.4180562,20.26882,97.35221713543157
1673611172.419063,20.29517,97.3645227353362
1673611172.4200702,20.353539,97.36772910274135
1673611172.4210782,20.405155,97.37028870589421
1673611172.4220853,20.447418,97.36220270100631
1673611172.4230921,20.487516,97.3541186104188
1673611172.4240992,20.500114,97.3460326055309
1673611172.4251063,20.532209,97.33794660064298
1673611172.4261131,20.557451,97.32986251005548
1673611172.4271202,20.560913,97.32177650516758
1673611172.4281273,20.567932,97.31369050027966
1673611172.4291341,20.561466,97.30560640969216
1673611172.4301412,20.530405,97.29752040480426
1673611172.4311483,20.510475,97.28943439991635
1673611172.4321551,20.479729,97.28135030932884
1673611172.4331622,20.41441,97.27326430444094
1673611172.4341702,20.33659,97.26517064235144
1673611172.435177,20.273653,97.25708655176393
1673611172.4361842,20.217157,97.24900054687602
1673611172.4371912,20.138136,97.24091454198812
1673611172.438198,20.090271,97.23283045140062
1673611172.4392052,20.12162,97.2247444465127
1673611172.4402122,20.181625,97.2166584416248
1673611172.441219,20.16374,97.2085743510373
1673611172.4422262,20.10544,97.20048834614938
1673611172.4432333,20.043104,97.19240234126148
1673611172.44424,20.02952,97.18431825067398
1673611172.4452472,20.046373,97.17623224578607
1673611172.4462552,20.093758,97.16813858369656
1673611172.4472623,20.197515,97.16005257880866
1673611172.4482691,20.355896,97.15196848822116
1673611172.4492762,20.481724,97.14388248333324
1673611172.4502833,20.534828,97.13579647844534
1673611172.4512901,20.580843,97.12771238785784
1673611172.4522972,20.671427,97.11962638296993
1673611172.4533043,20.680178,97.11154037808203
1673611172.4543111,20.598345,97.10345628749452
1673611172.4553182,20.591372,97.09537028260661
1673611172.4563253,20.615797,97.08728427771871
1673611172.4573321,20.596518,97.0792001871312
1673611172.4583392,20.523409,97.07111418224329
1673611172.4593472,20.462227,97.0630205201538
1673611172.460354,20.408064,97.05493642956628
1673611172.4613612,20.35116,97.04685042467838
1673611172.4623682,20.287596,97.03876441979047
1673611172.463375,20.244179,97.03068032920297
1673611172.4643822,20.228962,97.02259432431507
1673611172.4653893,20.270744,97.01450831942715
1673611172.466396,20.334066,97.00642422883965
1673611172.4674032,20.39686,96.99833822395175
1673611172.4684103,20.466265,96.995216
1673611172.469417,20.528603,97.00652548497854
1673611172.4704242,20.539564,97.03617705029798
1673611172.4714322,20.481916,97.049484
1673611172.4724393,20.418016,97.02606405007154
1673611172.4734461,20.348131,96.98964088057211
1673611172.4744532,20.217783,96.96516686719123
1673611172.4754603,20.148689,97.00739676752504
1673611172.4764671,20.142511,97.006970940882
1673611172.4774742,20.146334,97.00044962596913
1673611172.4784813,20.136333,97.0081765872042
1673611172.4794881,20.098949,97.01590171913976
1673611172.4804952,20.14381,97.02362868037484
1673611172.4815023,20.227135,97.03135564160993
1673611172.4825091,20.272739,97.03908077354548
1673611172.4835162,20.274446,97.04680773478056
1673611172.4845243,20.307621,97.0405399919683
1673611172.485531,20.434725,97.02687975836326
1673611172.4865382,20.587959,97.01321629003561
1673611172.4875453,20.673111,96.99955282170797
1673611172.488552,20.70833,96.98589258810294
1673611172.4895592,20.766531,96.97222911977529
1673611172.4905663,20.774801,96.95856565144764
1673611172.491573,20.747637,96.94490541784262
1673611172.4925802,20.677967,96.93124194951497
1673611172.4935873,20.573992,96.91757848118732
1673611172.494594,20.464029,96.9039182475823
1673611172.4956012,20.448692,96.89025477925465
1673611172.4966092,20.445133,96.87657837203653
1673611172.4976163,20.440687,96.86291490370888
1673611172.4986231,20.436985,96.84925467010386
1673611172.4996302,20.445639,96.83559120177621
1673611172.5006373,20.437922,96.80446495660468
1673611172.5016441,20.412006,96.796227
1673611172.5026512,20.396332,96.78200511203814
1673611172.5036583,20.291491,96.82118650786838
1673611172.5046651,20.147032,96.77450559799713
1673611172.5056722,20.099815,96.80385049058403
1673611172.5066793,20.15934,96.79958687863615
1673611172.5076861,20.232615,96.85565693991417
1673611172.5086932,20.291203,96.8536189794994
1673611172.5097013,20.37044,96.85632712863706
1673611172.510708,20.452129,96.86333190030352
1673611172.5117152,20.525717,96.87033833068931
1673611172.5127223,20.562788,96.8773447610751
1673611172.513729,20.536896,96.88434953274157
1673611172.5147362,20.524755,96.89135596312734
1673611172.5157433,20.537281,96.89836239351312
1673611172.51675,20.571178,96.9053671651796
1673611172.5177572,20.550335,96.91237359556538
1673611172.5187643,20.534613,96.91938002595116
1673611172.519771,20.546537,96.92638479761763
1673611172.5207782,20.543171,96.93339122800342
1673611172.5217862,20.484079,96.94040429326645
1673611172.5227933,20.426767,96.94741072365224
1673611172.5238001,20.397125,96.9544154953187
1673611172.5248072,20.372387,96.96142192570449
1673611172.5258143,20.255718,96.96842835609027
1673611172.5268211,20.070461,96.97543312775674
1673611172.5278282,19.920593,96.98243955814252
1673611172.5288353,19.867319,96.9894459885283
1673611172.5298421,19.873354,96.99645076019478
1673611172.5308492,19.896721,97.00345719058056
1673611172.5318563,19.977064,97.01046362096633
1673611172.5328631,20.067385,97.01746839263281
1673611172.5338702,20.220451,97.0244748230186
1673611172.5348783,20.354021,97.03211943575685
1673611172.535885,20.509634,97.08602529756796
1673611172.5368922,20.664673,97.10326031044349
1673611172.5378993,20.741074,97.08690541620977
1673611172.538906,20.754463,97.12037264902241
1673611172.5399132,20.750786,97.08827748879351
1673611172.5409203,20.731096,97.1379443294398
1673611172.541927,20.697704,97.10599578636148
1673611172.5429342,20.700996,97.1349417367668
1673611172.5439413,20.678761,97.06859398281019
1673611172.544948,20.631737,97.08205456845842
1673611172.5459552,20.57839,97.09551834155292
1673611172.5469632,20.521391,97.10899486443256
1673611172.5479703,20.464197,97.12245863752707
1673611172.5489771,20.42292,97.13591922317529
1673611172.5499842,20.363924,97.14938299626981
1673611172.5509913,20.30101,97.16284676936432
1673611172.5519981,20.234371,97.17630735501254
1673611172.5530052,20.259588,97.18977112810705
1673611172.5540123,20.278702,97.20323490120157
1673611172.5550191,20.288942,97.21669548684979
1673611172.5560262,20.312262,97.2301592599443
1673611172.5570333,20.328224,97.24362303303882
1673611172.5580401,20.297718,97.25708361868703
1673611172.5590482,20.199127,97.27056014156668
1673611172.5600553,20.105249,97.28402391466119
1673611172.561062,20.098156,97.29748450030941
1673611172.5620692,20.149435,97.31094827340392
1673611172.5630763,20.2117,97.32441204649844
1673611172.564083,20.288462,97.33787263214666
1673611172.5650902,20.414314,97.35133640524117
1673611172.5660973,20.492662,97.36480017833568
1673611172.567104,20.489536,97.3782607639839
1673611172.5681112,20.45636,97.39172453707842
1673611172.5691183,20.468597,97.40518831017293
1673611172.570125,20.518505,97.41864889582115
1673611172.5711322,20.551537,97.43211266891566
1673611172.5721402,20.527376,97.4455891917953
1673611172.5731473,20.447418,97.4590529648898
1673611172.5741541,20.358011,97.47251355053804
1673611172.5751612,20.252497,97.48597732363255
1673611172.5761683,20.172201,97.49944109672705
1673611172.5771751,20.142704,97.51290168237529
1673611172.5781822,20.145948,97.5263654554698
1673611172.5791893,20.127848,97.5398292285643
1673611172.5801961,20.137222,97.55328981421253
1673611172.5812032,20.192589,97.56675358730705
1673611172.5822103,20.267185,97.58021736040155
1673611172.5832171,20.330557,97.59367794604978
1673611172.5842252,20.40674,97.60715446892942
1673611172.5852323,20.531992,97.62061824202392
1673611172.586239,20.579832,97.63407882767216
1673611172.5872462,20.557379,97.64754260076667
1673611172.5882533,20.50473,97.66100637386117
1673611172.58926,20.427536,97.6744669595094
1673611172.5902672,20.464222,97.68793073260392
1673611172.5912743,20.547091000000002,97.70139450569842
1673611172.592281,20.599138,97.71485509134665
1673611172.5932882,20.62664,97.72831886444116
1673611172.5942953,20.621832,97.74178263753566
1673611172.595302,20.590122,97.7552432231839
1673611172.5963092,20.565697,97.76870699627841
1673611172.5973172,20.534733,97.78218351915804
1673611172.5983243,20.496725,97.79564729225255
1673611172.5993311,20.428017,97.80910787790079
1673611172.6003382,20.369814,97.73733706008584
1673611172.6013453,20.340509,97.755013
1673611172.6023521,20.381546,97.755013
1673611172.6033592,20.435831,97.75473694849786
1673611172.6043663,20.450039,97.73732835399285
1673611172.6053731,20.429844,97.75343438865046
1673611172.6063802,20.345486,97.70205617215069
1673611172.6073873,20.250286,97.736923
1673611172.6083941,20.236629,97.73671085610587
1673611172.6094022,20.311733,97.73243969237069
1673611172.6104093,20.41465,97.7281725694716
1673611172.611416,20.466578,97.7239064567815
1673611172.6124232,20.495644,97.71963933388241
1673611172.6134303,20.517591,97.7153722109833
1673611172.614437,20.521343,97.71110609829323
1673611172.6154442,20.492975,97.70683897539412
1673611172.6164513,20.448019,97.70257185249503
1673611172.617458,20.420444,97.69830573980494
1673611172.6184652,20.389984,97.69403861690584
1673611172.6194723,20.339643,97.68977149400673
1673611172.620479,20.255646,97.68550538131666
1673611172.6214862,20.192564,97.68123825841755
1673611172.6224942,20.130276,97.67696709468238
1673611172.6235013,20.058393,97.67269997178327
1673611172.6245081,19.987162,97.6684338590932
1673611172.6255152,19.926771,97.66416673619409
1673611172.6265223,19.887344,97.659899613295
1673611172.6275291,19.882488,97.6556335006049
1673611172.6285362,19.890806,97.65136637770581
1673611172.6295433,19.973988,97.6470992548067
1673611172.6305501,20.126236,97.64283314211663
1673611172.6315572,20.295193,97.63856601921752
1673611172.6325643,20.419291,97.63429889631843
1673611172.6335711,20.518024,97.63003278362834
1673611172.6345792,20.622648,97.66181674773486
1673611172.6355863,20.746578,97.67137129566046
1673611172.636593,20.837379,97.664551
1673611172.6376002,20.861685,97.69913942884386
1673611172.6386073,20.80579,97.718834
1673611172.639614,20.686693000000002,97.74239261921794
1673611172.6406212,20.625126,97.7431068045292
1673611172.6416283,20.608345,97.68877853648068
1673611172.642635,20.580746,97.71319588984264
1673611172.6436422,20.58017,97.73867831081618
1673611172.6446493,20.550961,97.74128077936219
1673611172.645656,20.516703,97.74388263179347
1673611172.6466632,20.525309,97.74648510033947
1673611172.6476712,20.556683,97.74909003334432
1673611172.6486783,20.539637,97.7516925018903
1673611172.6496851,20.473309,97.75429435432159
1673611172.6506922,20.438402,97.75689682286759
1673611172.6516993,20.413473,97.75949929141359
1673611172.6527061,20.276875,97.76210114384487
1673611172.6537132,19.969564,97.76470361239087
1673611172.6547203,19.833952,97.76730608093686
1673611172.6557271,19.779306,97.76990793336815
1673611172.6567342,19.846886,97.77251040191415
1673611172.6577413,19.968506,97.77511287046015
1673611172.6587481,20.165855,97.77771472289143
1673611172.6597562,20.418089,97.78031965589628
1673611172.6607633,20.606758,97.78292212444228
1673611172.66177,20.741867,97.78552397687356
1673611172.6627772,20.865891,97.78812644541955
1673611172.6637843,20.885004,97.79072891396555
1673611172.664791,20.782278,97.76123244158322
1673611172.6657982,20.685204,97.7852303423939
1673611172.6668053,20.634645,97.7968802241781
1673611172.667812,20.575602,97.80038768547762
1673611172.6688192,20.498264,97.791191
1673611172.6698263,20.443859,97.74696132625583
1673611172.670833,20.371641,97.81205064612995
1673611172.6718402,20.257137,97.81150036957558
1673611172.6728482,20.190376,97.7612367546495
1673611172.6738553,20.138496,97.76380256436843
1673611172.6748621,20.078564,97.77371929702349
1673611172.6758692,20.051735,97.78363837794582
1673611172.6768763,20.072746,97.79355745886814
1673611172.6778831,20.15547,97.8034741915232
1673611172.6788902,20.286346,97.81339327244552
1673611172.6798973,20.404722,97.82331235336784
1673611172.6809042,20.551706,97.83322908602291
1673611172.6819112,20.689457,97.84314816694523
1673611172.6829183,20.755785,97.85306724786756
1673611172.6839252,20.74564,97.86298398052261
1673611172.6849332,20.671404,97.87291245451398
1673611172.6859403,20.59058,97.88283153543631
1673611172.686947,20.547619,97.89274826809137
1673611172.6879542,20.523794,97.9026673490137
1673611172.6889613,20.501822,97.91258642993601
1673611172.689968,20.452948,97.92250316259107
1673611172.6909752,20.423378,97.9324222435134
1673611172.6919823,20.405058,97.94234132443572
1673611172.692989,20.335989,97.95225805709077
1673611172.6939962,20.250982,97.9621771380131
1673611172.6950033,20.18701,97.97209621893542
1673611172.69601,20.163187,97.98201295159048
1673611172.6970172,20.164749,97.9919320325128
1673611172.6980252,20.125851,98.00186050650419
1673611172.6990323,20.06188,98.0117795874265
1673611172.7000391,20.043753,98.02169632008156
1673611172.7010462,19.983002,98.03161540100389
1673611172.7020533,19.952471,98.0415344819262
1673611172.7030602,20.007452,98.05145121458126
1673611172.7040672,20.184847,98.0613702955036
1673611172.7050743,20.431311,98.07128937642591
1673611172.7060812,20.633732,98.08120610908097
1673611172.7070882,20.69453,98.0911251900033
1673611172.7080953,20.679121,98.10104427092561
1673611172.7091022,20.667076,98.11096100358068
1673611172.7101102,20.650921,98.12088947757205
1673611172.7111173,20.573246,98.13080855849438
1673611172.712124,20.464487,98.14072529114944
1673611172.7131312,20.380177,98.15064437207175
1673611172.7141383,20.326902,98.16056345299408
1673611172.715145,20.304449,98.17048018564914
1673611172.7161522,20.277378,98.18039926657147
1673611172.7171593,20.253916,98.18491894277538
1673611172.7191732,20.268557,98.152985
1673611172.7201803,20.349621,98.1554865784454
1673611172.721187,20.417295,98.16319576114422
1673611172.7221942,20.405756,98.12230962470196
1673611172.7232022,20.414698,98.152985
1673611172.7242093,20.459221,98.15601205077473
1673611172.7252162,20.556633,98.171074
1673611172.7262232,20.648973,98.171074
1673611172.7272303,20.697584,98.171074
1673611172.7282372,20.660177,98.171074
1673611172.7292442,20.605389,98.171074
1673611172.7302513,20.593969,98.171074
1673611172.7312582,20.557499,98.171074
1673611172.7322652,20.515284,98.171074
1673611172.7332723,20.478575,98.14389230495946
1673611172.7342792,20.416164,98.14861130901288
1673611172.7352872,20.36669,98.18070278116805
1673611172.7362943,20.341278,98.189163
1673611172.737301,20.302982,98.21738848593228
1673611172.7383082,20.251488,98.15414867604291
1673611172.7393153,20.245165,98.1205281762041
1673611172.740322,20.243505,98.13129790271817
1673611172.7413292,20.234972,98.09103030758227
1673611172.7423363,20.241823,98.08615848659201
1673611172.743343,20.248795,98.09298874035751
1673611172.7443502,20.269445,98.09982061151676
1673611172.7453573,20.285095,98.106652482676
1673611172.746364,20.225548,98.11348273644151
1673611172.7473712,20.195208,98.12031460760075
1673611172.7483792,20.262306,98.12715294833495
1673611172.7493863,20.327528,98.1339848194942
1673611172.7503932,20.435589,98.1408150732597
1673611172.7514002,20.552788,98.14764694441895
1673611172.7524073,20.630365,98.1544788155782
1673611172.7534142,20.617985,98.1613090693437
1673611172.7544212,20.541969,98.16814094050295
1673611172.7554283,20.432537,98.17497281166219
1673611172.7564352,20.332527,98.1818030654277
1673611172.7574422,20.229177,98.18863493658694
1673611172.7584493,20.171745,98.19546680774619
1673611172.7594562,20.111139,98.20229706151169
1673611172.7604642,20.022453,98.20913540224589
1673611172.7614713,19.970381,98.21596727340514
1673611172.762478,19.954033,98.22279752717064
1673611172.7634852,20.061422,98.22962939832989
1673611172.7644923,20.278461,98.23646126948914
1673611172.765499,20.460928,98.24329152325464
1673611172.7665062,20.60207,98.25012339441389
1673611172.7675133,20.732323,98.25695526557313
1673611172.76852,20.838366,98.26378551933864
1673611172.7695272,20.877815,98.27061739049788
1673611172.7705343,20.864616,98.27744926165713
1673611172.771541,20.829494,98.28427951542263
1673611172.7725482,20.778383,98.29111138658187
1673611172.7735562,20.680443,98.29794972731608
1673611172.7745633,20.58202,98.30478159847533
1673611172.7755702,20.525549,98.31161185224083
1673611172.7765772,20.484873,98.31844372340008
1673611172.7775843,20.448307,98.32527559455932
1673611172.7785912,20.438114,98.33210584832483
1673611172.7795982,20.459871,98.33893771948406
1673611172.7806053,20.453236,98.34576959064331
1673611172.7816122,20.419458,98.34539154363377
1673611172.7826192,20.360825,98.27784801669051
1673611172.783626,20.278822,98.26533921764005
1673611172.7846332,20.275768,98.29163246447305
1673611172.7856412,20.292091,98.24996747639486
1673611172.7866483,20.25733,98.29541082260371
1673611172.787655,20.218143,98.27719732252682
1673611172.7886622,20.226484,98.25642707105389
1673611172.7896693,20.233,98.22802695183596
1673611172.790676,20.263268,98.24219464321494
1673611172.7916832,20.33938,98.23407524066485
1673611172.7926903,20.4109,98.22595583811476
1673611172.7936971,20.470137,98.21783835777171
1673611172.7947042,20.485811000000002,98.20971895522162
1673611172.7957113,20.469439,98.20159955267152
1673611172.7967181,20.479128,98.19348207232848
1673611172.7977252,20.472588,98.18536266977839
1673611172.7987332,20.382099,98.17723557840013
1673611172.7997403,20.273172,98.16911617585004
1673611172.8007472,20.128038,98.16099869550699
1673611172.8017542,20.013029,98.1528792929569
1673611172.8027613,19.938358,98.1447598904068
1673611172.8037682,19.901457,98.13664241006376
1673611172.8047752,19.937517,98.12852300751366
1673611172.805782,20.006874,98.12040552717062
1673611172.8067892,20.107557,98.11228612462052
1673611172.8077962,20.228096,98.10416672207043
1673611172.808803,20.374647,98.09604924172739
1673611172.8098102,20.507711,98.08792983917729
1673611172.8108182,20.639935,98.07980274779904
1673611172.8118253,20.777447,98.07168334524894
1673611172.812832,20.862478,98.0635658649059
1673611172.8138392,20.724052,98.0554464623558
1673611172.8148463,20.531296,98.04732705980571
1673611172.8158531,20.38722,98.03920957946266
1673611172.8168602,20.322094,98.03109017691257
1673611172.8178673,20.193069,98.02297077436248
1673611172.8188741,19.987114,98.01485329401943
1673611172.8198812,19.890951,98.00673389146934
1673611172.8208883,19.893114,97.99861448891924
1673611172.8218951,19.995527,97.9904970085762
1673611172.8229022,20.167658,97.9823776060261
1673611172.8239102,20.37104,97.97425051464785
1673611172.8249173,20.539324,97.96613111209776
1673611172.8259242,20.693449,97.95801363175471
1673611172.8269312,20.816994,97.94989422920462
1673611172.827938,20.85214,97.94177674886157
1673611172.8289452,20.838606,97.93365734631148
1673611172.8299522,20.839327,97.92553794376138
1673611172.830959,20.783697,97.91742046341834
1673611172.8319662,20.648998,97.90930106086824
1673611172.8329732,20.569592,97.90118165831815
1673611172.83398,20.541296,97.8930641779751
1673611172.8349872,20.519346,97.88494477542501
1673611172.8359952,20.485691,97.87681768404676
1673611172.8370023,20.453716,97.86869828149666
1673611172.8380091,20.440542,97.85689851072961
1673611172.8390162,20.432777,97.82514392014302
1673611172.8400233,20.402967,97.81187811015737
1673611172.8410301,20.379456,97.845451
1673611172.8420372,20.367146,97.83830164076281
1673611172.8430443,20.387796,97.84919083071054
1673611172.8440511,20.40263,97.88163
1673611172.8450582,20.410395,97.8665719466031
1673611172.8460653,20.424868,97.83779530734382
1673611172.8470721,20.421045,97.8252004515274
1673611172.8480792,20.402895,97.82013926485985
1673611172.8490872,20.417631,97.8150732854019
1673611172.850094,20.426622,97.81001329693194
1673611172.8511012,20.445639,97.79370120457797
1673611172.8521082,20.447706,97.79075469324812
1673611172.853115,20.443163,97.79024878346965
1673611172.8541222,20.472853,97.78974275389251
1673611172.8551292,20.467684,97.78923672431537
1673611172.856136,20.443283,97.7887308145369
1673611172.8571432,20.37657,97.78822478495977
1673611172.8581502,20.211555,97.78771875538263
1673611172.859157,20.023054,97.78721284560416
1673611172.8601642,19.930979,97.78670681602702
1673611172.8611722,19.910881,97.7862003072552
1673611172.8621793,19.932806,97.78569427767806
1673611172.8631861,19.973267,97.7851883678996
1673611172.8641932,20.070751,97.78468233832245
1673611172.8652003,20.179918,97.78417630874532
1673611172.8662071,20.267475,97.78367039896685
1673611172.8672142,20.408472,97.78316436938971
1673611172.8682213,20.635534,97.78265833981257
1673611172.8692281,20.799324,97.7821524300341
1673611172.8702352,20.759752,97.78164640045696
1673611172.8712423,20.551706,97.78114037087983
1673611172.8722491,20.351088,97.78063446110136
1673611172.8732562,20.263435,97.78012843152422
1673611172.8742642,20.221075,97.7796219227524
1673611172.875271,20.197805,97.77911601297393
1673611172.8762782,20.167538,97.77860998339679
1673611172.8772852,20.071976,97.77810395381965
1673611172.878292,20.009615,97.77759804404118
1673611172.8792992,20.024977,97.77709201446405
1673611172.8803062,20.119072,97.7765859848869
1673611172.881313,20.263243,97.77608007510844
1673611172.8823202,20.413593,97.7755740455313
1673611172.8833272,20.561106,97.77506801595416
1673611172.884334,20.665874,97.7745621061757
1673611172.8853412,20.693592,97.77405607659855
1673611172.8863492,20.698833,97.77354956782675
1673611172.8873563,20.670826,97.773102
1673611172.8883631,20.594305,97.773102
1673611172.8893702,20.543459,97.7754569341917
1673611172.8903773,20.484224,97.791191
1673611172.8913841,20.381426,97.79379978307509
1673611172.8923912,20.340414,97.81748254506438
1673611172.8933983,20.392437,97.85208644587506
1673611172.8944051,20.41655,97.79716632848628
1673611172.8954122,20.393446,97.83359023986647
1673611172.8964193,20.423185,97.86678415239366
1673611172.8974261,20.474752,97.8849966956895
1673611172.8984332,20.504465,97.90321355168797
1673611172.8994412,20.531078,97.92144765849704
1673611172.900448,20.506292,97.93966020179286
1673611172.9014552,20.412149,97.95788082689556
1673611172.9024622,20.358372,97.98013155555556
1673611172.903469,20.369358,98.00827
1673611172.9044762,20.400755,98.00827
1673611172.9054832,20.376186,98.00387067238913
1673611172.90649,20.27935,98.01280328278494
1673611172.9074972,20.309258,98.080627
1673611172.9085042,20.412127,98.09018501907487
1673611172.909511,20.499249,98.12170995636623
1673611172.9145472,20.594545,98.1809991941218
1673611172.9155543,20.483694,98.17148339928485
1673611172.9165611,20.353756,98.11226434120171
1673611172.9175682,20.258867,98.11273041058655
1673611172.9185753,20.21973,98.15188487545635
1673611172.9195821,20.190111,98.1477107281537
1673611172.9205892,20.224802,98.1435355924193
1673611172.9215963,20.302214,98.1393604566849
1673611172.9226031,20.364958,98.13518630938225
1673611172.9236102,20.445831,98.13101117364785
1673611172.9246182,20.495956,98.12683208418642
1673611172.925625,20.491869,98.12265793688378
1673611172.9266322,20.499346,98.11848280114937
1673611172.9276392,20.51651,98.11430766541497
1673611172.928646,20.483984,98.11013351811232
1673611172.9296532,20.38698,98.10595838237792
1673611172.9306602,20.255142,98.10178324664352
1673611172.931667,20.250767,98.09760909934087
1673611172.9326742,20.343513,98.09343396360647
1673611172.9336812,20.407438,98.08925882787207
1673611172.934688,20.431887,98.08508468056942
1673611172.9356952,20.436239,98.08090954483502
1673611172.9367032,20.441721,98.07673045537359
1673611172.9377103,20.438139,98.07255531963919
1673611172.9387171,20.386932,98.06838117233654
1673611172.9397242,20.325027,98.06420603660214
1673611172.9407313,20.300867,98.06003090086774
1673611172.9417381,20.27096,98.0558567535651
1673611172.9427452,20.187468,98.0516816178307
1673611172.9437523,20.138449,98.0475064820963
1673611172.9447591,20.144506,98.04333233479365
1673611172.9457662,20.168837,98.03915719905925
1673611172.9467733,20.157537,98.03498206332483
1673611172.9477801,20.16136,98.0308079160222
1673611172.9487872,20.191145,98.02663278028778
1673611172.9497952,20.195953,98.02245369082637
1673611172.950802,20.268892,98.01827954352372
1673611172.9518092,20.379576,98.01410440778932
1673611172.9528162,20.470713,98.00992927205492
1673611172.953823,20.521101,98.00575512475227
1673611172.9548302,20.501461,98.00157998901787
1673611172.9558372,20.456505,97.99740485328346
1673611172.956844,20.427896,97.99323070598082
1673611172.9578512,20.419531,97.9890555702464
1673611172.9588583,20.316517,97.98488043451201
1673611172.959865,20.284039,97.98070628720936
1673611172.9608722,20.305531,97.97653115147496
1673611172.9618802,20.330292,97.97235206201354
1673611172.9628873,20.363564,97.96817692627914
1673611172.9638941,20.380297,97.964002778976493
1673611172.9649012,20.454342,97.9598276432421
1673611172.9659083,20.553989,97.95565250750768
1673611172.9669151,20.585531,97.98683636909871
1673611172.9679222,20.528675,98.00827
1673611172.9689293,20.48896,97.98586793371483
1673611172.9699361,20.489513,97.94942975774916
1673611172.9709432,20.48896,97.97027464473057
1673611172.9719503,20.410685,97.96700648653159
1673611172.9729571,20.404938,97.91886936719123
1673611172.9739642,20.373589,97.92338976204101
1673611172.9749722,20.385874,97.91193965387366
1673611172.975979,20.424843,97.90036305564368
1673611172.9769862,20.427874,97.90133258202958
1673611172.9779932,20.46689,97.9023021084155
1673611172.979,20.512808,97.90327140527339
1673611172.9800072,20.485594,97.90424093165929
1673611172.9810143,20.401501,97.9052104580452
1673611172.982021,20.360294,97.90617975490308
1673611172.9830282,20.369478,97.907149281289
1673611172.9840353,20.408159,97.90811880767491
1673611172.985042,20.424482,97.90908810453278
1673611172.9860492,20.439556,97.9100576309187
1673611172.9870572,20.471579,97.91102807541672
1673611172.9880643,20.509226,97.91199760180263
1673611172.9890711,20.491411,97.91296689866051
1673611172.9900782,20.464367,97.91393642504642
1673611172.9910853,20.485571,97.91490595143233
1673611172.9920921,20.508432,97.91587524829022
1673611172.9930992,20.483671,97.91684477467612
1673611172.9941063,20.420372,97.91781430106204
1673611172.9951131,20.439774,97.91878359791993
1673611172.9961202,20.468332,97.91975312430583
1673611172.9971273,20.437321,97.92072265069174
1673611172.9981341,20.371281,97.92169194754962
1673611172.9991412,20.366905,97.92266147393553
1673611173.0001493,20.409313,97.92363191843356
1673611173.001156,20.416214,97.92460121529143
1673611173.0021632,20.424723,97.92557074167735
1673611173.0031703,20.46225,97.92654026806326
1673611173.004177,20.463814,97.92750956492114
1673611173.0051842,20.42107,97.92847909130705
1673611173.0061913,20.392172,97.92944861769297
1673611173.007198,20.37068,97.93041791455084
1673611173.0082052,20.341639,97.93138744093676
1673611173.0092123,20.319353,97.93235696732266
1673611173.010219,20.3307,97.93332626418055
1673611173.0112262,20.331831,97.93429579056647
1673611173.0122342,20.372364,97.93526623506447
1673611173.0132413,20.423809,97.93623576145039
1673611173.0142481,20.424122,97.93720505830828
1673611173.0152552,20.384071,97.93817458469418
1673611173.0162623,20.336399,97.9391441110801
1673611173.0172691,20.249275,97.94011340793797
1673611173.0182762,20.170374,97.94108293432389
1673611173.0192833,20.110922,97.9420524607098
1673611173.0202901,20.085823,97.94302175756768
1673611173.0212972,20.085247,97.9439912839536
1673611173.0223043,20.063467,97.94496081033951
1673611173.0233111,20.062769,97.94593010719738
1673611173.0243182,20.134819,97.9468996335833
1673611173.0253263,20.330893,97.94787007808131
1673611173.026333,20.515694,97.9488393749392
1673611173.0273402,20.579424,97.94980890132511
1673611173.0283473,20.584593,97.95077842771101
1673611173.029354,20.548918,97.9517477245689
1673611173.0303612,20.464247,97.95271725095482
1673611173.0313683,20.422247,97.95368677734072
1673611173.032375,20.412752,97.90369595207439
1673611173.0333822,20.406958,97.89433198020983
1673611173.0343893,20.441841,97.91255108154508
1673611173.035396,20.47718,97.87894819618593
1673611173.0364032,20.497013,97.89445946356123
1673611173.0374112,20.525717,97.8663131865765
1673611173.0384183,20.557692,97.917809
1673611173.0394251,20.596781,97.84417156599048
1673611173.0404322,20.566082,97.84942199699474
1673611173.0414393,20.408617,97.76452444072861
1673611173.0424461,20.210449,97.75238128524653
1673611173.0434532,20.08765,97.74023525428362
1673611173.0444603,20.062817,97.72808922332072
1673611173.0454671,20.101763,97.71594606783863
1673611173.0464742,20.155205,97.70380003687573
1673611173.0474813,20.244444,97.69165400591284
1673611173.0484881,20.336712,97.679510850430745
1673611173.0494952,20.379311,97.66736481946785
1673611173.0505033,20.398111,97.65520728658169
1673611173.05151,20.439821,97.64306413109959
1673611173.0525172,20.588873,97.6309181001367
1673611173.0535243,20.725519,97.6187720691738
1673611173.054531,20.683567,97.60662891369171
1673611173.0555382,20.566778,97.59448288272881
1673611173.0565453,20.491892,97.57740799141631
1673611173.057552,20.462492,97.574104
1673611173.0585592,20.453356,97.5590686509299
1673611173.0595663,20.462009,97.51051993848354
1673611173.060573,20.479464,97.47117464958284
1673611173.0615802,20.466122,97.465569
1673611173.0625882,20.42482,97.52781603290414
1673611173.0635953,20.350775,97.4281139022646
1673611173.0646021,20.31892,97.411301
1673611173.0656092,20.320244,97.4040548372907
1673611173.0666163,20.324114,97.39577350848008
1673611173.0676231,20.331182,97.38749414021132
1673611173.0736651,20.489777,97.33781008843131
1673611173.0746732,20.462395,97.32952091745327
1673611173.0756803,20.4848,97.32123958864264
1673611173.076687,20.475954,97.31296022037388
1673611173.0776942,20.453789,97.30467889156326
1673611173.0787013,20.474993,97.29639756275263
1673611173.079708,20.460279,97.28811819448387
1673611173.0807152,20.416285,97.27983686567326
1673611173.0817223,20.363829,97.27155553686264
1673611173.082729,20.304039,97.26327616859388
1673611173.0837362,20.270359,97.25499483978325
1673611173.0847433,20.256897,97.24671351097263
1673611173.08575,20.190592,97.23843414270387
1673611173.0867572,20.122967,97.23091822317596
1673611173.0877652,20.100321,97.24579060944205
1673611173.0887723,20.147993,97.17772907818832
1673611173.0897791,20.26495,97.20953396041965
1673611173.0907862,20.388327,97.15382451645208
1673611173.0917933,20.489296,97.09157301144492
1673611173.0928001,20.575554,97.17481838021455
1673611173.0938072,20.66008,97.15517112398665
1673611173.0948143,20.75182,97.12654107629947
1673611173.0958211,20.779177,97.1756244696412
1673611173.0968282,20.716311,97.17021720561178
1673611173.0978353,20.636208,97.16480994158233
1673611173.0988421,20.569231,97.15940395768169
1673611173.0998502,20.534132,97.15399157313708
1673611173.1008573,20.513193,97.14858430910763
1673611173.101864,20.48045,97.14317832520699
1673611173.1028712,20.456985,97.1472738996185
1673611173.1038783,20.414289,97.17294999546972
1673611173.104885,20.342672,97.194214
1673611173.1058922,20.28726,97.194214
1673611173.1068993,20.23098,97.17853988388174
1673611173.107906,20.161743,97.15007307963758
1673611173.1089132,20.056759,97.139946
1673611173.1099203,19.940163,97.14816239127325
1673611173.110927,19.89398,97.14135205960896
1673611173.1119342,19.957664,97.1229157937439
1673611173.1129422,20.057577,97.12519511143695
1673611173.1139493,20.120321,97.12747227272727
1673611173.1149561,20.203623,97.129748894916915
1673611173.1159632,20.333971,97.13202605620724
1673611173.1169703,20.472612,97.13430321749756
1673611173.1179771,20.545143,97.1365798396872
1673611173.1189842,20.547642,97.13885700097752
1673611173.1199913,20.558678,97.14113416226785
1673611173.1209981,20.587429,97.14341078445749
1673611173.1220052,20.595146,97.14568794574781
1673611173.1230123,20.519323,97.14796510703813
1673611173.1240191,20.480835,97.15024172922777
1673611173.1250272,20.501556,97.15252104692082
1673611173.1260343,20.503672,97.15479820821115
1673611173.127041,20.485451,97.15707483040079
1673611173.1280482,20.474152,97.15935199169111
1673611173.1290553,20.485401,97.16162915298143
1673611173.130062,20.472084,97.16390577517107
1673611173.1310692,20.424747,97.1661829364614
1673611173.1320763,20.345991,97.16846009775172
1673611173.133083,20.227568,97.17073671994136
1673611173.1340902,20.121428,97.17301388123168
1673611173.1350973,20.054932,97.175291042522
1673611173.136104,20.11537,97.17756766471163
1673611173.1371112,20.208261,97.17984482600195
1673611173.1381192,20.278725,97.18212414369502
1673611173.1391263,20.359741,97.18440130498534
1673611173.1401331,20.465063,97.18667792717498
1673611173.1411402,20.562162,97.1889550884653
1673611173.1421473,20.582092,97.19123224975563
1673611173.1431541,20.528795,97.19350887194527
1673611173.1441612,20.51437,97.19578603323559
1673611173.1451683,20.553076,97.19806319452591
1673611173.1461751,20.558125,97.20033981671556
1673611173.1471822,20.553604,97.20261697800586
1673611173.1481893,20.539541,97.20489413929619
1673611173.1491961,20.476627,97.20717076148583
1673611173.1502042,20.431744,97.2094500791789
1673611173.1512113,20.373878,97.21172724046922
1673611173.152218,20.321421,97.19869851966627
1673611173.1532252,20.268003,97.23541316833571
1673611173.1542323,20.235693,97.22623227925949
1673611173.155239,20.224369,97.1888122659975
1673611173.1562462,20.259108,97.212303
1673611173.1572533,20.33087,97.18118787668654
1673611173.15826,20.375368,97.1727425131744
1673611173.1592672,20.409145,97.23430295488721
1673611173.1602743,20.470665,97.14467425258864
1673611173.161281,20.58452,97.22765532983294
1673611173.1622882,20.68364,97.212303
1673611173.1632962,20.659697,97.20161933246011
1673611173.1643033,20.512928,97.19553154242216
1673611173.1653101,20.353228,97.19775269278097
1673611173.1663172,20.191458,97.19997436910481
1673611173.1673243,20.117678,97.20219604542865
1673611173.1683311,20.100273,97.20441719578744
1673611173.1693382,20.092676,97.20663887211128
1673611173.1703453,20.098949,97.20886054843513
1673611173.1713521,20.155806,97.21108169879392
1673611173.1723592,20.221268,97.21330337511776
1673611173.1733663,20.297453,97.2155250514416
1673611173.1743731,20.427994,97.2177462018004
1673611173.1753812,20.609379,97.21996998198439
1673611173.1763883,20.736145,97.22219165830823
1673611173.177395,20.705854,97.22441280866704
1673611173.1784022,20.639261,97.22663448499087
1673611173.1794093,20.605099,97.22885616131471
1673611173.180416,20.593679,97.23107731167352
1673611173.1814232,20.576563,97.23329898799734
1673611173.1824303,20.545984,97.23552066432119
1673611173.183437,20.511053,97.23774181467999
1673611173.1844442,20.459461,97.23996349100383
1673611173.1854513,20.394217,97.24218516732766
1673611173.186458,20.346615,97.24440631768647
1673611173.1874652,20.359068,97.24662799401031
1673611173.1884732,20.370657,97.2488517741943
1673611173.1894803,20.347649,97.25107345051813
