measure_time,emg_ch_1,grip_force_inter
1673611219.745382,18.075554,-0.492456
1673611219.7463892,18.067596,-0.5281164320457797
1673611219.747396,18.060553,-0.4570412307508939
1673611219.748403,18.058197,-0.5109245498330949
1673611219.7494102,18.050743,-0.5291431669051025
1673611219.750417,18.048412,-0.5460968500595947
1673611219.751424,18.052402,-0.5278749003338102
1673611219.7524312,18.058605,-0.510545
1673611219.753438,18.066515,-0.510844592289802
1673611219.754445,18.079088,-0.5162296043413912
1673611219.755453,18.089329,-0.5216197158362111
1673611219.7564602,18.099018,-0.5270047278878005
1673611219.757467,18.103416,-0.5159350476758046
1673611219.758474,18.111782,-0.5233720591320935
1673611219.7594812,18.117769,-0.5265186838814525
1673611219.760488,18.118731,-0.523544988818661
1673611219.761495,18.116087,-0.5205705895893851
1673611219.7625022,18.114235,-0.5175961903601092
1673611219.763509,18.103584,-0.5146224952973176
1673611219.764516,18.09029,-0.5116480960680417
1673611219.7655232,18.080145,-0.508673696838766
1673611219.76653,18.071634,-0.5057000017759743
1673611219.767537,18.063246,-0.5027256025466984
1673611219.7685452,18.05887,-0.4997483866514858
1673611219.769552,18.054255,-0.49677469158869414
1673611219.770559,18.060265,-0.4938002923594183
1673611219.7715662,18.067812,-0.49082589313014247
1673611219.772573,18.073967,-0.4878521980673508
1673611219.77358,18.082983,-0.48487779883807497
1673611219.7745872,18.09207,-0.48190339960879913
1673611219.775594,18.100964,-0.4789297045460075
1673611219.776601,18.109354,-0.47595530531673164
1673611219.7776082,18.117722,-0.4729809060874558
1673611219.778615,18.128395,-0.4700072110246642
1673611219.779622,18.133492,-0.46703281179538836
1673611219.78063,18.132603,-0.46405559590017564
1673611219.7816372,18.127817,-0.46108119667089986
1673611219.782644,18.123852,-0.4581075016081082
1673611219.783651,18.114019,-0.45513310237883237
1673611219.7846582,18.105219,-0.45215870314955653
1673611219.785665,18.093777,-0.44918500808676487
1673611219.786672,18.08416,-0.44621060885748903
1673611219.7876792,18.074785,-0.4432362096282132
1673611219.788686,18.062403,-0.44026251456542154
1673611219.789693,18.055431,-0.4372881153361457
1673611219.7907002,18.049854,-0.43431371610686986
1673611219.791707,18.054445,-0.43134002104407826
1673611219.7927141,18.068413,-0.4283656218148024
1673611219.7937222,18.084497,-0.4253884059195897
1673611219.794729,18.098104,-0.4224147108567981
1673611219.795736,18.103825,-0.41944031162752227
1673611219.7967432,18.108273,-0.41646591239824643
1673611219.79775,18.116447,-0.41349221733545477
1673611219.798757,18.127867,-0.41051781810617893
1673611219.7997642,18.131063,-0.4075434188769031
1673611219.800771,18.127073,-0.4045697238141115
1673611219.801778,18.119789,-0.4015953245848356
1673611219.8027852,18.117384,-0.39862092535555976
1673611219.803792,18.107697,-0.39564723029276816
1673611219.804799,18.094137,-0.3926728310634923
1673611219.805807,18.08238,-0.38969561516827966
1673611219.8068142,18.072285,-0.38672121593900377
1673611219.807821,18.065865,-0.383913
1673611219.808828,18.061562,-0.3804849296781883
1673611219.8098352,18.05637,-0.3334501244635193
1673611219.810842,18.057114,-0.38112409928400953
1673611219.811849,18.06012,-0.3492732975226298
1673611219.8128562,18.066803,-0.3641724893921335
1673611219.813863,18.077116,-0.3530589704057279
1673611219.819906,18.134501,-0.29140812839595814
1673611219.820913,18.128948,-0.29074766857696066
1673611219.8219202,18.124115,-0.2900872087579632
1673611219.822927,18.120823,-0.28942690529782433
1673611219.823934,18.112936,-0.28876644547882685
1673611219.8249412,18.101036,-0.28810598565982937
1673611219.825948,18.089569,-0.2874456821996906
1673611219.826955,18.080675,-0.2867852223806931
1673611219.8279622,18.073294,-0.2861247625616956
1673611219.828969,18.065962,-0.28546445910155677
1673611219.829976,18.05798,-0.2848039992825593
1673611219.830984,18.059855,-0.28414291402812714
1673611219.8319912,18.066851,-0.28348245420912965
1673611219.832998,18.076347,-0.28282215074899086
1673611219.834005,18.086708,-0.2821616909299934
1673611219.8350122,18.096926,-0.2815012311109959
1673611219.836019,18.108297,-0.28084092765085705
1673611219.8370261,18.115654,-0.28018046783185957
1673611219.8380332,18.120943,-0.2795200080128621
1673611219.83904,18.129957,-0.27885970455272324
1673611219.8400471,18.134428,-0.27819924473372576
1673611219.8410542,18.131496,-0.2775387849147283
1673611219.842061,18.125389,-0.2768784814545895
1673611219.8430681,18.118177,-0.276218021635592
1673611219.8440762,18.108513,-0.27555693638115986
1673611219.845083,18.097239,-0.274896632921021
1673611219.84609,18.081636,-0.27423617310202353
1673611219.8470972,18.07678,-0.27357571328302605
1673611219.848104,18.069038,-0.27291540982288726
1673611219.849111,18.063869,-0.2722549500038898
1673611219.8501182,18.059832,-0.2715944901848923
1673611219.851125,18.059927,-0.27093418672475345
1673611219.852132,18.063461,-0.27027372690575596
1673611219.8531392,18.069567,-0.2696132670867585
1673611219.854146,18.081036,-0.26895296362661963
1673611219.855153,18.093056,-0.26829250380762215
1673611219.856161,18.099859,-0.26763141855319006
1673611219.8571682,18.105965,-0.2669709587341925
1673611219.858175,18.109932,-0.26631065527405373
1673611219.8591821,18.117336,-0.26565019545505625
1673611219.8601892,18.122025,-0.26498973563605877
1673611219.861196,18.123827,-0.2643294321759199
1673611219.8622031,18.117962,-0.26366897235692244
1673611219.8632102,18.110004,-0.26300851253792495
1673611219.864217,18.10058,-0.26234820907778617
1673611219.8652241,18.09041,-0.2616877492587887
1673611219.8662312,18.079304,-0.2610272894397912
1673611219.867238,18.071371,-0.26036698597965235
1673611219.8682451,18.063196,-0.25970652616065487
1673611219.8692532,18.057356,-0.2590454409062227
1673611219.87026,18.056826,-0.25838513744608393
1673611219.871267,18.060385,-0.25772467762708645
1673611219.8722742,18.060913,-0.2635165830750894
1673611219.873281,18.061274,-0.2626785250357654
1673611219.874288,18.065842,-0.2456740906056271
1673611219.8752952,18.078342,-0.2374685859356377
1673611219.876302,18.09606,-0.21647113876967095
1673611219.877309,18.106062,-0.2529115836909871
1673611219.8783162,18.114643,-0.26140490703218117
1673611219.879323,18.121231,-0.24630407677634716
1673611219.88033,18.123322,-0.25729
1673611219.8813381,18.123732,-0.2564989043573022
1673611219.8823452,18.123299,-0.25454704221083285
1673611219.883352,18.118177,-0.2525956421529398
1673611219.8843591,18.108706,-0.2506437800064704
1673611219.8853662,18.096973,-0.24869191786000103
1673611219.886373,18.085361,-0.246740517802108
1673611219.8873801,18.076107,-0.24478865565563862
1673611219.8883872,18.065649,-0.24283679350916926
1673611219.889394,18.060024,-0.24088539345127621
1673611219.8904011,18.05875,-0.23893353130480682
1673611219.8914082,18.062595,-0.23698166915833746
1673611219.892415,18.074135,-0.23503026910044442
1673611219.8934221,18.081059,-0.23307840695397505
1673611219.8944302,18.091661,-0.2311246964532003
1673611219.895437,18.101854,-0.22917329639530726
1673611219.896444,18.109114,-0.2272214342488379
1673611219.8974512,18.117119,-0.22526957210236853
1673611219.898458,18.124908,-0.2233181720444755
1673611219.899465,18.128035,-0.2213663098980061
1673611219.9004722,18.13212,-0.21941444775153673
1673611219.901479,18.131039,-0.2174630476936437
1673611219.902486,18.128418,-0.2155111855471743
1673611219.9034932,18.118465,-0.21355932340070494
1673611219.9045,18.106903,-0.2116079233428119
1673611219.905507,18.089424,-0.20965606119634253
1673611219.9065151,18.07589,-0.20770235069556778
1673611219.9075222,18.071539,-0.2057504885490984
1673611219.908529,18.065121,-0.20379908849120537
1673611219.9095361,18.063581,-0.15945203051979018
1673611219.9105432,18.064375,-0.15269776871721508
1673611219.91155,18.068245,-0.21141646924177396
1673611219.9125571,18.077141,-0.21664904147794994
1673611219.9135642,18.095003,-0.19161456580829758
1673611219.914571,18.107384,-0.17340048688602766
1673611219.9155781,18.111349,-0.166836
1673611219.9165852,18.117624,-0.166836
1673611219.917592,18.125942,-0.166836
1673611219.9185991,18.131063,-0.16442921507760533
1673611219.9196072,18.132746,-0.16078194387621297
1673611219.920614,18.129742,-0.15713898590944855
1673611219.921621,18.12616,-0.15349516529575855
1673611219.9226282,18.123394,-0.14985134468206854
1673611219.923635,18.114691,-0.14620838671530412
1673611219.924642,18.103514,-0.1425645661016141
1673611219.9256492,18.095364,-0.1389207454879241
1673611219.926656,18.082573,-0.13527778752115968
1673611219.927663,18.06661,-0.13163396690746967
1673611219.9286702,18.065649,-0.12799014629377964
1673611219.929677,18.067139,-0.12434718832701525
1673611219.930684,18.065601,-0.12070336771332524
1673611219.9316921,18.067862,-0.11705609651193287
1673611219.9326992,18.068846,-0.11341227589824285
1673611219.933706,18.075314,-0.10976931793147844
1673611219.9347131,18.091564,-0.10612549731778842
1673611219.9357202,18.1082,-0.10248167670409843
1673611219.936727,18.112986,-0.098838718737334
1673611219.9377341,18.115845,-0.095194898123644
1673611219.9387412,18.127817,-0.0798714388557807
1673611219.939748,18.134693,-0.046933383404864096
1673611219.9407551,18.133179,-0.05505920028612303
1673611219.9417622,18.128588,-0.11822070703218117
1673611219.942769,18.121832,-0.10044260371959943
1673611219.943777,18.113514,-0.094472
1673611219.9447842,18.102575,-0.06371121125417263
1673611219.945791,18.089954,-0.058294
1673611219.946798,18.075434,-0.04266344778254649
1673611219.9478052,18.061802,-0.033467047092400996
1673611219.948812,18.048027,-0.025679861780745116
1673611219.949819,18.04245,-0.017890832475408996
1673611219.9508262,18.051128,-0.010101803170072875
1673611219.951833,18.068678,-0.002314617858416995
1673611219.95284,18.083439,0.005474411446919118
1673611219.9538472,18.092045,0.013263440752255239
1673611219.954854,18.100027,0.021050626063911115
1673611219.955861,18.116568,0.02883965536924723
1673611219.9568691,18.121351,0.036636060649304324
1673611219.9578762,18.121687,0.044425089954640444
1673611219.958883,18.123922,0.05221227526629633
1673611219.9598901,18.129982,0.06000130457163245
1673611219.9608972,18.131256,0.06779033387696856
1673611219.961904,18.127409,0.08527109823557463
1673611219.9629111,18.122938,0.06936857711561382
1673611219.9639182,18.110868,0.1542758457319981
1673611219.964925,18.09642,0.14147035193133048
1673611219.9659321,18.084713,0.140694
1673611219.9669392,18.073391,0.12312675661501789
1673611219.967946,18.067356,0.122605
1673611219.968954,18.063509,0.15828268431092038
1673611219.9699612,18.062523,0.17675489558998808
1673611219.970968,18.063581,0.17194659353664088
1673611219.971975,18.067211,0.16697789804278562
1673611219.9729822,18.069016,0.16200920254893036
1673611219.973989,18.074375,0.15704168335609164
1673611219.974996,18.083847,0.1520729878622364
1673611219.9760032,18.098465,0.14710429236838113
1673611219.97701,18.1082,0.1421367731755424
1673611219.978017,18.116831,0.13716807768168715
1673611219.9790242,18.122746,0.1321993821878319
1673611219.980031,18.125101,0.12723186299499317
1673611219.981038,18.121424,0.12226316750113791
1673611219.9820461,18.11813,0.11728976680321651
1673611219.9830532,18.113033,0.11232107130936124
1673611219.98406,18.108152,0.10735355211652253
1673611219.9850671,18.095026,0.10238485662266728
1673611219.9860742,18.082117,0.09741616112881202
1673611219.987081,18.075146,0.0924486419359733
1673611219.9880881,18.069063,0.08747994644211804
1673611219.9890952,18.062115,0.08251125094826278
1673611219.990102,18.057499,0.07754373175542406
1673611219.9911091,18.055912,0.0725750362615688
1673611219.9921162,18.059639,0.08443171251489869
1673611219.993123,18.062908,0.17127177396280402
1673611219.994131,18.070793,0.14954587982832618
1673611219.9951382,18.078054,0.1764956967818832
1673611219.996145,18.092358,0.10563036337625178
1673611219.997152,18.110628,0.18497928183118742
1673611219.9981592,18.11849,0.13723492083929426
1673611219.999166,18.125196,0.12977160738974972
1673611220.000173,18.126976,0.158783
1673611220.0011802,18.118032,0.15905459227960092
1673611220.002187,18.102816,0.160343282388314
1673611220.003194,18.096348,0.16163227765689178
1673611220.0042012,18.085266,0.16292127292546957
1673611220.005208,18.074423,0.16420996303418264
1673611220.006215,18.064831,0.16549895830276043
1673611220.0072231,18.05858,0.1667891742107971
1673611220.0082302,18.056417,0.16807816947937487
1673611220.009237,18.056513,0.16936685958808795
1673611220.0102441,18.058821,0.17065585485666573
1673611220.0112512,18.065289,0.17194485012524352
1673611220.012258,18.077093,0.1732335402339566
1673611220.0132651,18.08017,0.17452253550253438
1673611220.0142722,18.083967,0.17581153077111217
1673611220.015279,18.086805,0.17710022087982524
1673611220.0162861,18.089161,0.17838921614840303
1673611220.0172932,18.104668,0.17967821141698084
1673611220.0183,18.121519,0.1809669015256939
1673611220.019308,18.127626,0.18225711743373058
1673611220.0203152,18.127144,0.18354611270230836
1673611220.021322,18.11825,0.18483480281102144
1673611220.022329,18.109404,0.18612379807959922
1673611220.0233362,18.105051,0.187412793348177
1673611220.024343,18.098295,0.18870148345689008
1673611220.02535,18.08856,0.18999047872546787
1673611220.0263572,18.075939,0.19127947399404566
1673611220.027364,18.068005,0.19256816410275873
1673611220.028371,18.06024,0.19385715937133652
1673611220.0293782,18.054951,0.1951461546399143
1673611220.030385,18.048628,0.19643484474862738
1673611220.031392,18.051344,0.19772384001720517
1673611220.0324001,18.05863,0.19901405592524185
1673611220.0334072,18.065216,0.20030305119381964
1673611220.034414,18.074736,0.2015917413025327
1673611220.0354211,18.086155,0.2028807365711105
1673611220.0364282,18.096853,0.20416973183968828
1673611220.037435,18.105797,0.20545842194840136
1673611220.0384421,18.108418,0.20674741721697915
1673611220.0394492,18.111279,0.20803641248555693
1673611220.040456,18.116255,0.20932510259427
1673611220.0414631,18.116518,0.2106140978628478
1673611220.0424702,18.113129,0.21190309313142558
1673611220.043477,18.109571,0.21319178324013865
1673611220.044485,18.101036,0.2144819991481753
1673611220.0454922,18.090675,0.2157709944167531
1673611220.046499,18.074327,0.21705968452546617
1673611220.047506,18.068485,0.21834867979404396
1673611220.0485132,18.06286,0.21963767506262177
1673611220.04952,18.056152,0.22092636517133485
1673611220.050527,18.055096,0.22221536043991263
1673611220.0515342,18.053724,0.22350435570849042
1673611220.052541,18.054663,0.2247930458172035
1673611220.053548,18.062403,0.22608204108578128
1673611220.0545552,18.067116,0.22737103635435907
1673611220.055562,18.07029,0.22865972646307214
1673611220.056569,18.086685,0.22994872173164993
1673611220.0575771,18.101013,0.2337185875059609
1673611220.0585842,18.112167,0.2616672570338579
1673611220.059591,18.115965,0.20266698808104888
1673611220.0605981,18.111206,0.28375015641392465
1673611220.0616052,18.108633,0.267326
1673611220.062612,18.116447,0.17029984191702432
1673611220.0636191,18.099018,0.267326
1673611220.0646262,18.087214,0.2716735708154506
1673611220.065633,18.07642,0.2966074070100143
1673611220.0666401,18.067644,0.249237
1673611220.0676472,18.063126,0.249237
1673611220.068654,18.055552,0.249237
1673611220.069662,18.056322,0.249237
1673611220.0706692,18.055096,0.249237
1673611220.071676,18.050335,0.249237
1673611220.072683,18.05262,0.249237
1673611220.0736902,18.065554,0.249237
1673611220.074697,18.080795,0.249237
1673611220.075704,18.090435,0.249237
1673611220.0767112,18.095146,0.249237
1673611220.077718,18.098127,0.249237
1673611220.078725,18.110027,0.249237
1673611220.0797322,18.11801,0.249237
1673611220.080739,18.119236,0.249237
1673611220.081746,18.112793,0.249237
1673611220.0827541,18.104715,0.249237
1673611220.0837612,18.090195,0.249237
1673611220.084768,18.072981,0.249237
1673611220.0857751,18.057524,0.249237
1673611220.0867822,18.056826,0.249237
1673611220.087789,18.063028,0.249237
1673611220.0887961,18.058197,0.249237
1673611220.0898032,18.052187,0.249237
1673611220.09081,18.055719,0.249237
1673611220.0918171,18.059351,0.249237
1673611220.0928242,18.065191,0.249237
1673611220.093831,18.077213,0.249237
1673611220.094839,18.088007,0.249237
1673611220.0958462,18.097624,0.249237
1673611220.096853,18.106062,0.249237
1673611220.09786,18.108105,0.249237
1673611220.0988672,18.112408,0.249237
1673611220.099874,18.115797,0.249237
1673611220.100881,18.112888,0.249237
1673611220.1018882,18.111061,0.249237
1673611220.102895,18.109186,0.249237
1673611220.103902,18.099329,0.249237
1673611220.1049092,18.087189,0.249237
1673611220.105916,18.075193,0.249237
1673611220.106923,18.06613,0.249237
1673611220.1079311,18.05661,0.249237
1673611220.1089382,18.043917,0.249237
1673611220.109945,18.033243,0.249237
1673611220.1109521,18.030983,0.249237
1673611220.1119592,18.035118,0.249237
1673611220.112966,18.037594,0.2612833941344778
1673611220.1139731,18.044205,0.303504
1673611220.1149802,18.057138,0.303504
1673611220.115987,18.079521,0.3079009582737244
1673611220.1169941,18.101421,0.3261254065331426
1673611220.1180012,18.111975,0.33969
1673611220.119008,18.113802,0.33491226174016686
1673611220.120016,18.113707,0.32652220863137815
1673611220.1210232,18.110846,0.33969
1673611220.12203,18.108873,0.34060227978752017
1673611220.123037,18.098415,0.34381350463959115
1673611220.1240442,18.086828,0.3470247294916622
1673611220.125051,18.071539,0.3502351941105769
1673611220.126058,18.058846,0.35344641896264795
1673611220.1270652,18.057547,0.35665764381471893
1673611220.128072,18.055672,0.35986810843363365
1673611220.129079,18.046753,0.3630793332857047
1673611220.1300862,18.046057,0.36629055813777567
1673611220.131093,18.048292,0.3695010227566904
1673611220.1321,18.047546,0.3727122476087614
1673611220.1331081,18.051849,0.3759265133934575
1673611220.1341152,18.069807,0.3791377382455285
1673611220.135122,18.081709,0.38234820286444327
1673611220.1361291,18.086926,0.38555942771651425
1673611220.1371362,18.094425,0.38877065256858523
1673611220.138143,18.100964,0.3919811171875
1673611220.1391501,18.108994,0.395192342039571
1673611220.1401572,18.112432,0.398403566891642
1673611220.141164,18.110365,0.40161403151055675
1673611220.1421711,18.11022,0.40482525636262773
1673611220.1431782,18.106998,0.4080364812146987
1673611220.144185,18.092886,0.4112469458336135
1673611220.145193,18.08226,0.41446121161830957
1673611220.1462002,18.075048,0.41767243647038055
1673611220.147207,18.065168,0.42088290108929527
1673611220.148214,18.05459,0.4240941259413663
1673611220.1492212,18.046465,0.42730535079343734
1673611220.150228,18.050863,0.43051581541235207
1673611220.151235,18.060961,0.43372704026442305
1673611220.1522422,18.067284,0.4369382651164941
1673611220.153249,18.072668,0.4401487297354088
1673611220.154256,18.080505,0.4433599545874798
1673611220.1552632,18.092358,0.4465711794395508
1673611220.15627,18.102383,0.44978164405846555
1673611220.157277,18.110365,0.4529928689105366
1673611220.1582851,18.118322,0.4562071346952326
1673611220.1592922,18.122889,0.45941835954730365
1673611220.160299,18.124285,0.46262882416621837
1673611220.1613061,18.118057,0.46584004901828935
1673611220.1623132,18.113489,0.4690512738703604
1673611220.16332,18.109547,0.4722617384892751
1673611220.1643271,18.099787,0.47547296334134614
1673611220.1653342,18.087261,0.4786841881934171
1673611220.166341,18.074665,0.4818946528123319
1673611220.1673481,18.068245,0.4851058776644029
1673611220.168355,18.059471,0.4883163422833176
1673611220.169362,18.051321,0.4915275671353886
1673611220.17037,18.047691,0.49474183292008467
1673611220.1713772,18.053629,0.4979530577721557
1673611220.172384,18.059664,0.5011635223910704
1673611220.173391,18.064423,0.5043747472431415
1673611220.1743982,18.076323,0.5075859720952125
1673611220.175405,18.093248,0.5107964367141272
1673611220.176412,18.107143,0.5140076615661981
1673611220.1774192,18.114981,0.5172188864182692
1673611220.178426,18.121326,0.5204293510371839
1673611220.179433,18.12628,0.5032763519313305
1673611220.1804402,18.129261,0.5548261201716739
1673611220.181447,18.120173,0.5743299313468415
1673611220.182454,18.115604,0.574856
1673611220.1834621,18.110004,0.574856
1673611220.1844692,18.100460000000002,0.6287696423462089
1673611220.185476,18.085794,0.574856
1673611220.1864831,18.077213,0.6473503919885552
1673611220.1874902,18.070505,0.6652246006766858
1673611220.188497,18.058197,0.6592139116374223
1673611220.1895041,18.045696,0.6532017992761036
1673611220.190511,18.038748,0.6471304256080115
1673611220.191518,18.040382,0.6297917418355184
1673611220.1925251,18.042257,0.683399
1673611220.193532,18.051922,0.683399
1673611220.194539,18.067163,0.6851973849821216
1673611220.195547,18.07649,0.737674
1673611220.1965542,18.085722,0.7350598965188365
1673611220.197561,18.095171,0.6873837637663885
1673611220.198568,18.109379,0.755763
1673611220.1995752,18.121784,0.757013789222699
1673611220.200582,18.129261,0.775227868144969
1673611220.201589,18.135414,0.7934459013110846
1673611220.2025962,18.135199,0.8132907682403434
1673611220.203603,18.133274,0.8497206123032904
1673611220.210653,18.061489,0.9966026085765836
1673611220.2116601,18.060312,1.015313113119402
1673611220.212667,18.061153,1.0340191880920162
1673611220.213674,18.059061,1.0527296926348346
1673611220.2146811,18.065336,1.0714401971776533
1673611220.215688,18.073486,1.0901462721502675
1673611220.216695,18.082357,1.108856776693086
1673611220.2177022,18.090796,1.1275672812359043
1673611220.218709,18.093128,1.1462733562085186
1673611220.219716,18.096565,1.1649838607513372
1673611220.220724,18.107264,1.1837120835749726
1673611220.2217312,18.114042,1.2024225881177912
1673611220.222738,18.105724,1.2211286630904055
1673611220.223745,18.098801,1.2398391676332239
1673611220.2247522,18.087549,1.2585496721760423
1673611220.225759,18.074327,1.2772557471486565
1673611220.226766,18.062716000000002,1.295966251691475
1673611220.2277732,18.055769,1.3146767562342934
1673611220.22878,18.05286,1.3333828312069076
1673611220.229787,18.0581,1.3520933357497262
1673611220.2307942,18.060938,1.3708038402925447
1673611220.231801,18.062643,1.3895099152651589
1673611220.232808,18.069376,1.4082204198079773
1673611220.2338161,18.080843,1.426948642631613
1673611220.234823,18.093056,1.445654717604227
1673611220.23583,18.10058,1.4643652221470456
1673611220.2368371,18.101276,1.4830757266898642
1673611220.237844,18.107071,1.5017818016624782
1673611220.238851,18.114355,1.5204923062052966
1673611220.2398582,18.112888,1.5392028107481153
1673611220.240865,18.089304,1.5579088857207295
1673611220.2428792,18.046368,1.7476471792695474
1673611220.243886,18.031103,1.7747715010288065
1673611220.244893,18.017519,1.79922210825405
1673611220.245901,18.006269,1.88949275
1673611220.2469082,18.004274,1.7762868569384835
1673611220.247915,18.004585,1.841164
1673611220.248922,18.011654,1.8486940453028136
1673611220.2499292,18.023458,1.905196155937053
1673611220.250936,18.033171,2.013849042378585
1673611220.251943,18.043339,2.1216805562406376
1673611220.2529502,18.059301,2.22951207010269
1673611220.253957,18.074232,2.337318055670741
1673611220.254964,18.089136,2.4451495695327936
1673611220.2559712,18.102983,2.552981083394846
1673611220.256978,18.113321,2.660787068962897
1673611220.257985,18.120461,2.7686185828249497
1673611220.2589931,18.123587,2.876552209863008
1673611220.26,18.120773,2.984358195431059
1673611220.261007,18.111687,3.0921897092931117
1673611220.2620142,18.109787,3.200021223155164
1673611220.263021,18.105436,3.3078272087232152
1673611220.264028,18.093248,3.4156587225852677
1673611220.2650352,18.07839,3.52349023644732
1673611220.266042,18.053221,3.6312962220153713
1673611220.267049,18.018843,3.7391277358774238
1673611220.2680562,17.995811,3.8469592497394762
1673611220.269063,17.967636,3.9547652353075273
1673611220.27007,17.927248,4.06259674916958
1673611220.271078,17.856207,4.170530376207638
1673611220.2720852,17.771898,4.27836189006969
1673611220.273092,17.692852,4.386167875637741
1673611220.274099,17.643978,4.493999389499794
1673611220.2751062,17.606859,4.601830903361846
1673611220.276113,17.611956,4.709636888929897
1673611220.27712,17.652704,4.81746840279195
1673611220.2781272,17.713791,4.925299916654002
1673611220.279134,17.796227,5.0331059022220535
1673611220.280141,17.899506,5.140937416084106
1673611220.2811482,18.012903,5.248768929946158
1673611220.282155,18.114643,5.3565749155142095
1673611220.283162,18.213234,5.464406429376262
1673611220.2841702,18.279394,5.57234005641432
1673611220.285177,18.294395,5.680146041982371
1673611220.286184,18.287592,5.7879775558444235
1673611220.2871912,18.274273,5.895809069706476
1673611220.288198,18.238956,6.003615055274527
1673611220.289205,18.154598,6.11144656913658
1673611220.2902122,18.100027,6.219278082998632
1673611220.291219,18.085241,6.327084068566683
1673611220.292226,18.079063,6.434915582428736
1673611220.2932332,18.061562,6.542747096290788
1673611220.29424,18.031969,6.650553081858839
1673611220.295247,18.021559,6.818346099094807
1673611220.296255,18.025982,7.030564544152744
1673611220.2972622,18.022184,7.264240076776347
1673611220.298269,18.024132,7.485864337067938
1673611220.299276,18.050047,7.7654972141154035
1673611220.3002832,18.063797,7.995487186933715
1673611220.30129,18.074785,8.29153863647199
1673611220.302297,18.078583,8.538735868383405
1673611220.3033042,18.068052,8.759824300429186
1673611220.304311,18.035982,9.141472314714413
1673611220.305318,17.970713,9.547125771503355
1673611220.3063252,17.8627,9.952779228292298
1673611220.307332,17.775961,10.358336649698478
1673611220.3083391,17.745358,10.76399010648742
1673611220.3093472,17.71973,11.170027704807413
1673611220.310354,17.690401,11.575585126213593
1673611220.311361,17.694775,11.981238583002536
1673611220.3123682,17.738361,12.386892039791478
1673611220.313375,17.810219,12.79244946119766
1673611220.314382,17.910852,13.198102917986601
1673611220.3153892,18.008265,13.603756374775543
1673611220.316396,18.071131,14.009313796181724
1673611220.317403,18.098345,14.414967252970666
1673611220.3184102,18.145584,14.82062070975961
1673611220.319417,18.222586,15.226178131165788
1673611220.320424,18.243645,15.631831587954732
1673611220.321432,18.187054,16.037869186274726
1673611220.3224392,18.109404,16.443522643063666
1673611220.323446,18.059301,16.849080064469845
1673611220.324453,18.025934,17.25473352125879
1673611220.3254602,17.971146,17.660386978047732
1673611220.326467,17.919844,18.06594439945391
1673611220.327474,17.881907000000002,18.471597856242855
1673611220.3284812,17.857025,18.8772513130318
1673611220.329488,17.850967,19.282808734437978
1673611220.3304951,17.875994,19.688462191226918
1673611220.3315022,17.878878,20.094115648015865
1673611220.332509,17.845078,20.49967306942204
1673611220.3335161,17.819786,20.905326526210985
1673611220.3345242,17.842049,21.311364124530975
1673611220.335531,17.920347,21.716921545937158
1673611220.336538,18.011822,22.1225750027261
1673611220.3375452,18.059614,22.52822845951504
1673611220.338552,18.080145,22.93378588092122
1673611220.339559,18.115484,23.339439337710164
1673611220.3405662,18.163036,23.745092794499108
1673611220.341573,18.241289,24.150650215905287
1673611220.34258,18.277327,24.55630367269423
1673611220.3435872,18.263094,24.961957129483174
1673611220.344594,18.221144,25.367514550889354
1673611220.345601,18.183472,25.773168007678294
1673611220.346609,18.089209,26.17920560599829
1673611220.3476162,18.011101,26.58485906278723
1673611220.348623,18.024082,26.99041648419341
1673611220.34963,17.98093,27.396069940982358
1673611220.3506372,17.920828,27.801723397771298
1673611220.351644,17.878878,28.207280819177477
1673611220.3526511,17.865896,28.612934275966417
1673611220.3536582,17.852074000000002,29.018587732755364
1673611220.354665,17.845221,29.424145154161543
1673611220.3556721,17.871954,29.829798610950483
1673611220.3566792,17.900322,30.235452067739423
1673611220.357686,17.930252,30.64100948914561
1673611220.3586931,17.982349,31.098346673104434
1673611220.3597012,18.032618,31.611522383551847
1673611220.360708,18.072044000000002,32.063560662613256
1673611220.361715,18.122,32.52088427753934
1673611220.3627222,18.15383,33.032800029559
1673611220.363729,18.13592,33.49958567525035
1673611220.364736,18.099113,33.96220162660944
1673611220.3657432,18.062956,34.436916898212154
1673611220.36675,18.062019,34.9444404089175
1673611220.367757,18.108873,35.28242863656164
1673611220.3687642,18.161572,35.37919401068787
1673611220.369771,18.19566,35.47593647634485
1673611220.370778,18.197006,35.57270185047108
1673611220.371786,18.158445,35.66955885847432
1673611220.3727932,18.152388,35.99822289344458
1673611220.3738,18.196718,36.48507563948498
1673611220.3748071,18.19227,36.91970944150233
1673611220.3758142,18.100676,37.33835611760842
1673611220.376821,17.990282,37.75690368228551
1673611220.3778281,17.745428,38.175550358391604
1673611220.3788352,17.484829,38.59419703449769
1673611220.379842,17.360493,39.01274459917478
1673611220.3808491,17.326906,39.43139127528087
1673611220.3818562,17.360493,39.850037951386966
1673611220.382863,17.257669,40.26858551606405
1673611220.3838701,17.365179,40.68723219217014
1673611220.3848782,17.535435,41.10627531399224
1673611220.385885,17.687851,41.52482287866933
1673611220.386892,17.837143,41.943469554775426
1673611220.3878992,18.012039,42.36211623088152
1673611220.388906,18.196959,42.7806637955586
1673611220.389913,18.33161,43.199310471664695
1673611220.3909202,18.426762,43.61795714777079
1673611220.391927,18.462006,44.03650471244788
1673611220.392934,18.424839,44.455151388553965
1673611220.3939412,18.389908,44.87379806466006
1673611220.394948,18.324398,45.29234562933715
1673611220.395955,18.106012,45.71099230544324
1673611220.3969631,17.925709,46.13003542726534
1673611220.3979702,17.952682,46.54868210337143
1673611220.398977,18.002375,46.96722966804852
1673611220.3999841,18.031006,47.38587634415461
1673611220.4009912,18.047834,47.8045230202607
1673611220.401998,18.057306,48.22307058493779
1673611220.4030051,18.074135,48.64171726104388
1673611220.4040122,18.110437,49.06036393714997
1673611220.405019,18.125629,49.478911501827064
1673611220.4060261,18.130991,49.897558177933156
1673611220.4070332,18.148275,50.31620485403924
1673611220.40804,18.146618,50.73475241871633
1673611220.4090471,18.105124,51.153399094822426
1673611220.4100552,18.080435,51.572442216644525
1673611220.411062,18.076876,51.990989781321616
1673611220.412069,18.072886,52.40963645742771
1673611220.4130762,18.084881,52.8282831335338
1673611220.414083,18.084137,53.246830698210886
1673611220.41509,18.091564,53.66547737431698
1673611220.4160972,18.093657,54.08412405042307
1673611220.417104,18.045214,54.502671615100155
1673611220.418111,18.027449,54.92131829120625
1673611220.4191182,18.045191,55.33996496731234
1673611220.420125,18.034132,55.758512531989425
1673611220.421132,18.005909,56.17715920809552
1673611220.4221401,17.941263,56.596202329917624
1673611220.4231472,17.825653,56.996335882212684
1673611220.424154,17.746199,57.31242478450537
1673611220.4251611,17.712109,57.6518299308536
1673611220.4261682,17.730307,59.026931080976865
1673611220.427175,17.800049,59.36653693316195
1673611220.4281821,17.87282,59.77579577777778
1673611220.4291892,17.980137,60.092691807197944
1673611220.430196,18.084448,59.206421844062945
1673611220.4312031,18.103777,59.47792233706794
1673611220.4322102,18.022375,59.80070102737271
1673611220.433217,17.984055,60.106602019831946
1673611220.4342241,17.954702,60.412575449182604
1673611220.4352322,17.914242,60.71883862609893
1673611220.436239,17.890825,61.024739618558165
1673611220.437246,17.85301,61.330713047908816
1673611220.4382532,17.867964,61.636686477259474
1673611220.43926,17.936672,61.9425874697187
1673611220.440267,18.014275,62.24856089906936
1673611220.4412742,18.113562,62.55453432842001
1673611220.442281,18.217056,62.86043532087925
1673611220.443288,18.264584,63.1664087502299
1673611220.4442952,18.261724,63.472382179580556
1673611220.445302,18.284393,63.77828317203979
1673611220.446309,18.364256,64.08425660139044
1673611220.4473171,18.381062,64.39051977830677
1673611220.4483242,18.240688,64.69649320765743
1673611220.449331,18.048845,65.00239420011665
1673611220.4503381,17.943596,65.30836762946731
1673611220.4513452,17.88133,65.61434105881797
1673611220.452352,17.855776,65.9202420512772
1673611220.4533591,17.866882,66.22621548062786
1673611220.4543662,17.943907,66.5321889099785
1673611220.455373,17.987902,66.83808990243774
1673611220.4563801,18.004009,67.14406333178839
1673611220.4573872,17.997278,67.45003676113905
1673611220.458394,17.993046,67.75593775359829
1673611220.459402,18.007832,68.0622009305146
1673611220.4604092,18.045214,68.36817435986526
1673611220.461416,18.091757,68.6740753523245
1673611220.462423,18.159214,68.98004878167515
1673611220.4634302,18.184866,69.28602221102581
1673611220.464437,18.180563,69.59192320348504
1673611220.465444,18.196093,69.8978966328357
1673611220.4664512,18.170706,70.20387006218635
1673611220.467458,18.111927,70.50977105464558
1673611220.468465,18.065481,70.81574448399624
1673611220.4694722,18.035118,71.12171791334688
1673611220.470479,17.997879,71.42761890580613
1673611220.471486,17.951601,71.73359233515677
1673611220.4724941,17.908064,72.0398555120731
1673611220.4735012,17.871281,72.34582894142376
1673611220.474508,17.767138,72.65172993388299
1673611220.4755151,17.611523,72.95770336323365
1673611220.4765222,17.508749,73.2636767925843
1673611220.477529,17.481897,73.55706680524433
1673611220.4785361,17.493965,73.78703928063901
1673611220.4795432,17.538897,73.99455471125417
1673611220.48055,17.617798,74.2313269933254
1673611220.4815571,17.740356,74.47574037219839
1673611220.4825642,17.93107,74.74510697448737
1673611220.483571,18.114403,74.99200147914183
1673611220.484579,18.259657,75.2108025379113
1673611220.4855862,18.355024,75.43809385979972
1673611220.486593,18.360867,75.67530105942306
1673611220.4876,18.27807,75.8574817677593
1673611220.4886072,18.075842,76.03966247609554
1673611220.489614,17.848948,76.22180005452924
1673611220.490621,17.692492,76.40398076286547
1673611220.4916282,17.616764,76.5861614712017
1673611220.492635,17.604527,76.7682990496354
1673611220.493642,17.637751,76.95047975797165
1673611220.4946492,17.726004,77.13266046630788
1673611220.495656,17.847673,77.31479804474158
1673611220.496663,17.986195,77.49697875307781
1673611220.4976711,18.125895,77.67933198102422
1673611220.4986782,18.257757,77.86151268936047
1673611220.499685,18.362669,78.04365026779416
1673611220.5006921,18.392672,78.2258309761304
1673611220.5016992,18.43181,78.40801168446663
1673611220.502706,18.509317,78.59014926290033
1673611220.5037131,18.52915,78.77714526609442
1673611220.5047202,18.47352,78.97261265808298
1673611220.505727,18.326033,79.18515991895113
1673611220.5067341,18.144863,79.43507832522651
1673611220.5077412,18.016991,79.61277212350977
1673611220.508748,17.907894,79.87321206793801
1673611220.509756,17.841951,80.14111867381975
1673611220.5107632,17.73086,80.37331326609441
1673611220.51177,17.588804,80.59635925864123
1673611220.512777,17.564909,80.8833934545604
1673611220.5137842,17.605778,81.12400108466383
1673611220.514791,17.69117,81.36455175273362
1673611220.515798,17.807911,81.60515938283703
1673611220.5168052,17.924843,81.84576701294046
1673611220.517812,18.051682,82.08631768101024
1673611220.518819,18.212561,82.32692531111367
1673611220.5198262,18.24415,82.5675329412171
1673611220.520833,18.169937,82.80808360928688
1673611220.52184,18.19042,83.04869123939031
1673611220.5228481,18.252516,83.28952671762829
1673611220.5238552,18.224749,83.53013434773172
1673611220.524862,18.083174,83.7706850158015
1673611220.5258691,18.008432,84.01129264590493
1673611220.5268762,18.061586,84.25190027600836
1673611220.527883,18.101469,84.49245094407814
1673611220.5288901,18.115965,84.73305857418157
1673611220.5298972,18.141449,84.973666204285
1673611220.530904,18.175058,85.21421687235477
1673611220.5319111,18.207993,85.4548245024582
1673611220.5329182,18.198761,85.69543213256162
1673611220.533925,18.056465,85.93598280063141
1673611220.534933,17.915035,86.1768182788694
1673611220.5359402,17.842096,86.41742590897283
1673611220.536947,17.800314,86.6579765770426
1673611220.537954,17.794256,86.89858420714603
1673611220.5389612,17.821157,87.13919183724946
1673611220.539968,17.82486,87.37974250531924
1673611220.540975,17.86318,87.62035013542267
1673611220.5419822,18.065241,87.82989288915375
1673611220.542989,18.185707,88.05123476943253
1673611220.543996,18.336971,88.33610907725323
1673611220.5450032,18.458183,88.60555902932062
1673611220.54601,18.452341,88.88307180758225
1673611220.547017,18.368631,89.15154775894135
1673611220.5480251,18.167604,89.40953877205531
1673611220.5490322,17.986195,89.68279650893922
1673611220.550039,17.853851,89.95599625822604
1673611220.5510461,17.733625,90.25425462470749
1673611220.5520532,17.661961,90.56951432656359
1673611220.55306,17.66184,90.88469939307363
1673611220.5540671,17.685112,91.19995909492974
1673611220.5550742,17.697901,91.51521879678586
1673611220.556081,17.687395,91.830403863295885
1673611220.5570881,17.711796,92.145663565152
1673611220.5580952,17.812429,92.46092326700813
1673611220.559102,17.944197,92.77610833351815
1673611220.56011,18.084185,93.0916665767586
1673611220.5611172,18.189867,93.40692627861472
1673611220.562124,18.231289,93.72211134512476
1673611220.563131,18.200325,94.03737104698087
1673611220.5641382,18.140078,94.35263074883699
1673611220.565145,18.068918,94.66781581534701
1673611220.566152,17.996267,94.98307551720313
1673611220.5671592,17.951841,95.29833521905925
1673611220.568166,17.980738,95.61352028556928
1673611220.569173,17.987326,95.9287799874254
1673611220.5701802,17.952827,96.24403968928152
1673611220.571187,17.936022,96.55922475579155
1673611220.572194,17.988239,96.87448445764767
1673611220.5732021,18.092215,97.19004270088811
1673611220.5742092,18.124788,97.50530240274423
1673611220.575216,18.093729,97.82048746925426
1673611220.5762231,18.035694,98.10393101643248
1673611220.5772302,17.938137,98.32574612863962
1673611220.578237,17.86669,98.54145637625179
1673611220.5792441,17.713263,98.77819126530126
1673611220.5802512,17.652319,98.99917628040058
1673611220.581258,17.651335,99.1836529928401
1673611220.5822651,17.67535,99.37197621671827
1673611220.5832722,17.696772,99.5904697293753
1673611220.584279,17.618927,99.80077511121719
1673611220.585287,17.564837,99.98783454168753
1673611220.5862942,17.6196,100.1590872623799
1673611220.587301,17.731606,100.33029944028802
1673611220.588308,17.841904,100.50155216098038
1673611220.5893152,18.023098,100.67280488167275
1673611220.590322,18.264824,100.84401705958086
1673611220.591329,18.431377,101.01526978027323
1673611220.5923362,18.364616,101.1865225009656
1673611220.593343,18.197079,101.35773467887371
1673611220.59435,17.97694,101.52898739956608
1673611220.5953572,17.81683,101.68644109835675
1673611220.596364,17.778725,101.80239396423461
1673611220.597371,17.740622,101.9236435097852
1673611220.5983791,17.710114,102.03903643919885
1673611220.5993862,17.779037,102.18159639318885
1673611220.600393,17.903881,102.33245836515513
1673611220.6014001,18.075146,102.43891499284693
1673611220.6024072,18.286581,102.48721566753989
1673611220.603414,18.504316,102.55942170195517
1673611220.6044211,18.668274,102.61736125690531
1673611220.6054282,18.661278,102.64103875539311
1673611220.606435,18.513285,102.66471064841251
1673611220.6074421,18.425175,102.6883881469003
1673611220.6084492,18.389908,102.71206564538808
1673611220.609456,18.343149,102.73573753840749
1673611220.610464,18.261002,102.75943745876884
1673611220.6114712,18.069399,102.78311495725664
1673611220.612478,17.887701,102.80678685027604
1673611220.613485,17.817478,102.83046434876383
1673611220.6144922,17.808704,102.85414184725161
1673611220.615499,17.820004,102.87781374027102
1673611220.616506,17.786659,102.90149123875881
1673611220.6175132,17.748146,102.9251687372466
1673611220.61852,17.762329,102.948840630266
1673611220.619527,17.826494,102.97251812875379
1673611220.6205342,17.923208,102.99619562724158
1673611220.621541,18.059664,103.01986752026099
1673611220.622548,18.172773,103.04354501874877
1673611220.6235561,18.214701,103.06724493911013
1673611220.6245632,18.165081,103.09092243759792
1673611220.62557,18.11462,103.11459433061732
1673611220.6265771,18.177197,103.13827182910511
1673611220.6275842,18.237852,103.16194932759291
1673611220.628591,18.245857,103.1856212206123
1673611220.6295981,18.233572,103.20929871910009
1673611220.6306052,18.262613,103.23297621758789
1673611220.631612,18.23802,103.25664811060729
1673611220.6326191,18.20167,103.28032560909507
1673611220.6336262,18.201599,103.30400310758287
1673611220.634633,18.19381,103.32767500060227
1673611220.635641,18.137169,103.35137492096362
1673611220.6366482,18.103031,103.37505241945142
1673611220.637655,18.119211,103.39872431247082
1673611220.638662,18.153181,103.4224018109586
1673611220.6396692,18.179962,103.4460793094464
1673611220.640676,18.144165,103.4697512024658
1673611220.641683,18.056177,103.49342870095359
1673611220.6426902,18.049326,103.51710619944139
1673611220.643697,18.124092,103.54077809246078
1673611220.644704,18.128756,103.56445559094857
1673611220.6457112,18.0644,103.58813308943637
1673611220.646718,17.998695,103.61180498245577
1673611220.647725,17.955256,103.63548248094355
1673611220.6487331,17.908712,103.65918240130492
1673611220.6497402,17.837168,103.6828598997927
1673611220.650747,17.784687,103.7065317928121
1673611220.6517541,17.785673,103.7302092912999
1673611220.6527612,17.849789,103.75388678978769
1673611220.653768,17.903519,103.77755868280708
1673611220.6547751,17.977854,103.80123618129488
1673611220.6557822,18.145006,103.82491367978267
1673611220.656789,18.249439,103.84858557280207
1673611220.6577961,18.231096,103.87226307128985
1673611220.6588032,18.12034,103.90045344206008
1673611220.65981,18.087767,103.923744
1673611220.660818,18.094643,103.937169088677
1673611220.6618252,18.044565,103.959915
1673611220.662832,17.901451,103.96688060205055
1673611220.663839,17.793823,103.97091069725865
1673611220.6648462,17.739275,103.98879569098712
1673611220.665853,17.675928,104.0102361382928
1673611220.66686,17.661167,103.97053123790226
1673611220.6678672,17.568033,103.9625892793806
1673611220.668874,17.352726,103.96899874693125
1673611220.669881,17.204878,103.97540973223411
1673611220.6708882,17.180668,103.98182071753698
1673611220.671895,17.24036,103.98823018508763
1673611220.672902,17.423189,103.9946411703905
1673611220.6739101,17.743097,104.00105822670217
1673611220.6749172,18.097214,104.00746921200503
1673611220.675924,18.377815,104.01387867955569
1673611220.6769311,18.592978,104.02028966485855
1673611220.6779382,18.693108,104.02670065016142
1673611220.678945,18.624304,104.03311011771207
1673611220.6799521,18.49934,104.03952110301493
1673611220.6809592,18.292496,104.0459320883178
1673611220.681966,18.115725,104.05234155586845
1673611220.6829731,18.053484,104.05875254117132
1673611220.68398,18.080986,104.06516200872198
1673611220.684987,18.121904,104.07157299402483
1673611220.685995,18.179745,104.07799005033651
1673611220.6870022,18.260691,104.08440103563937
1673611220.688009,18.347092,104.09081050319003
1673611220.689016,18.45162,104.09722148849289
1673611220.6900232,18.517515,104.10363247379576
1673611220.69103,18.470106,104.11004194134641
1673611220.692037,18.38938,104.11645292664927
1673611220.6930442,18.304203,104.12286391195214
1673611220.694051,18.168758,104.12927337950279
1673611220.695058,18.103945,104.13568436480566
1673611220.6960652,18.102407,104.14209535010852
1673611220.697072,18.105701,104.14850481765919
1673611220.698079,18.088463,104.15491580296204
1673611220.6990871,18.091684,104.16133285927371
1673611220.7000942,18.105389,104.16774384457658
1673611220.701101,18.136375,104.17415331212723
1673611220.7021081,18.154575,104.1805642974301
1673611220.7031152,18.200541,104.18697528273296
1673611220.704122,18.152508,104.19338475028361
1673611220.7051291,18.02103,104.19979573558648
1673611220.706136,17.851761,104.20620520313715
1673611220.707143,17.693886,104.21261618844
1673611220.7081501,17.606907,104.21902717374286
1673611220.709157,17.64506,104.22543664129353
1673611220.710164,17.767738,104.23184762659639
1673611220.711172,17.903568,104.23826468290805
1673611220.7121792,18.040911,104.24467566821092
1673611220.713186,18.188328,104.25108513576157
1673611220.714193,18.245279,104.25749612106443
1673611220.7152002,18.307257,104.2639071063673
1673611220.716207,18.422771,104.27031657391797
1673611220.717214,18.460732,104.27672755922082
1673611220.7182212,18.363102,104.28313854452368
1673611220.719228,18.20994,104.28954801207435
1673611220.720235,18.060144,104.29595899737721
1673611220.7212422,17.914457,104.30236998268006
1673611220.722249,17.778532,104.30877945023073
1673611220.723256,17.677996,104.3151904355336
1673611220.7242641,17.612917,104.32160749184526
1673611220.7252712,17.529329,104.32801847714812
1673611220.726278,17.531397,104.33442794469879
1673611220.7272851,17.683187,104.34083893000164
1673611220.728292,17.890705,104.3472483975523
1673611220.729299,18.050623,104.35365938285517
1673611220.7303061,18.096733,104.36007036815802
1673611220.731313,18.084352,104.36647983570869
1673611220.73232,18.179602,104.37289082101155
1673611220.7333272,18.23624,104.40427742823081
1673611220.734334,18.192535,104.46847271394518
1673611220.735341,18.234894,104.52198204148783
1673611220.736349,18.326994,104.57810420314735
1673611220.7373562,18.277277,104.66093027318236
1673611220.738363,18.043219,104.73184852551263
1673611220.73937,17.819571,104.78650470863137
1673611220.7403772,17.651936,104.84114893206198
1673611220.741384,17.463722,104.89578319599427
1673611220.742391,17.325777,104.97386103208711
1673611220.7433982,17.325609,105.068832236462
1673611220.744405,17.445715,105.16378095712373
1673611220.745412,17.618326,105.25875216149862
1673611220.7464192,17.768099,105.35372336587352
1673611220.747426,17.906139,105.44867208653525
1673611220.748433,18.088392,105.54364329091014
1673611220.7494411,18.283287,105.63870443013766
1673611220.750448,18.450731,105.7336531507994
1673611220.751455,18.514727,105.82862435517428
1673611220.7524621,18.564369,105.92359555954918
1673611220.753469,18.563721,106.01854428021092
1673611220.754476,18.465179,106.1135154845858
1673611220.7554832,18.231913,106.20848668896069
1673611220.75649,18.002615,106.30343540962242
1673611220.757497,17.896547,106.39840661399732
1673611220.7585042,17.858372,106.49337781837221
1673611220.759511,17.781033,106.58832653903394
1673611220.760518,17.566135,106.68329774340883
1673611220.761526,17.347607,106.77835888263635
1673611220.7625332,17.276782999999998,106.87333008701124
1673611220.76354,17.292385,106.96827880767297
1673611220.764547,17.339865,107.06325001204787
1673611220.7655542,17.524496,107.15822121642276
1673611220.766561,17.777042,107.2531699370845
1673611220.767568,18.060841,107.34814114145938
1673611220.7685752,18.298361,107.44311234583428
1673611220.769582,18.49571,107.53806106649601
1673611220.770589,18.737726,107.6330322708709
1673611220.7715962,18.929449,107.7280034752458
1673611220.772603,18.843601,107.82295219590753
1673611220.77361,18.595118,107.91792340028242
1673611220.7746181,18.440514,108.01298453950993
1673611220.775625,18.406569,108.10793326017168
1673611220.776632,18.335985,108.20290446454656
1673611220.7776392,18.290333,108.29787566892145
1673611220.778646,18.277855,108.39282438958318
1673611220.779653,18.245256,108.48779559395808
1673611220.7806602,18.245592,108.58276679833297
1673611220.781667,18.322786,108.6777155189947
1673611220.782674,18.361059,108.77268672336959
1673611220.7836812,18.326656,108.86765792774449
1673611220.784688,18.312016,108.96260664840622
1673611220.785695,18.329998,109.05757785278111
1673611220.786703,18.237129,109.15263899200863
1673611220.7877102,18.046658,109.2742509453982
1673611220.788717,17.840822,109.25140487413587
1673611220.789724,17.654171,109.31803681616594
1673611220.7907312,17.543753,109.3785503051979
1673611220.791738,17.508678,109.44860652872468
1673611220.792745,17.523077,109.5059407925608
1673611220.7937522,17.622005,109.57626634549356
1673611220.794759,17.742977,109.61752724028605
1673611220.795766,17.931213,109.701735719361
1673611220.7967732,18.208883,109.73275976595045
1673611220.79778,18.454264,109.75565630897886
1673611220.798787,18.571125,109.77855827387395
1673611220.7997952,18.54307,109.80148192623581
1673611220.800802,18.499868,109.82437846926422
1673611220.801809,18.407457,109.84728043415932
1673611220.8028162,18.249414,109.87018239905441
1673611220.803823,18.196741,109.89307894208282
1673611220.80483,18.166883,109.91598090697792
1673611220.8058372,18.119379,109.93888287187302
1673611220.806844,18.075314,109.96177941490143
1673611220.807851,18.034035,109.98468137979653
1673611220.8088582,17.969727,110.00758334469164
1673611220.809865,17.867699000000002,110.03047988772005
1673611220.810872,17.71896,110.05338185261515
1673611220.81188,17.641573,110.076305504977
1673611220.8128872,17.670351,110.0992074698721
1673611220.813894,17.676289,110.12210401290051
1673611220.814901,17.643785,110.1450059777956
1673611220.8159082,17.634674,110.1679079426907
1673611220.816915,17.640324,110.19080448571911
1673611220.817922,17.652872,110.21370645061421
1673611220.8189292,17.662128,110.23660841550931
1673611220.819936,17.544186,110.25950495853772
1673611220.820943,17.4242,110.28240692343282
1673611220.8219502,17.448769,110.30530888832791
1673611220.822957,17.58378,110.32820543135632
1673611220.8239641,17.704391,110.35110739625142
1673611220.8249722,17.779158,110.37403104861329
1673611220.825979,17.868059,110.3969275916417
1673611220.826986,18.030069,110.4198295565368
1673611220.8279932,18.231337,110.4427315214319
1673611220.829,18.390726,110.4656280644603
1673611220.830007,18.624134,110.4885300293554
1673611220.8310142,18.812107,110.5114319942505
1673611220.832021,18.682001,110.53432853727891
1673611220.833028,18.253958,110.55723050217401
1673611220.8340352,18.001244,110.5801324670691
1673611220.835042,17.982107,110.60302901009752
1673611220.836049,17.929724,110.62593097499261
1673611220.837057,17.806805,110.64885462735447
1673611220.8380642,17.74478,110.67175659224957
1673611220.839071,17.758604,110.69465313527797
1673611220.840078,17.881594,110.71755510017307
1673611220.8410852,18.000933,110.74045706506817
1673611220.842092,18.175875,110.7633536080966
1673611220.843099,18.414934,110.78625557299169
1673611220.8441062,18.605022,110.80915753788679
1673611220.845113,18.622019,110.8320540809152
1673611220.8461201,18.467558,110.8549560458103
1673611220.8471272,18.348198,110.8778580107054
1673611220.848134,18.291702,110.9007545537338
1673611220.8491411,18.232513,110.9236565186289
1673611220.8501492,18.195107,110.94658017099076
1673611220.851156,18.176933,110.96947671401917
1673611220.852163,18.174986,110.99237867891426
1673611220.8531702,18.119019,110.996971
1673611220.854177,18.045624,110.996971
1673611220.855184,18.01865,110.93778420481641
1673611220.8561912,18.044853,110.924622
1673611220.857198,18.091516,110.8644126996904
1673611220.858205,18.102167,110.86744251931331
1673611220.8592122,18.057499,110.90099737040573
1673611220.860219,18.006124,110.89110099309359
1673611220.861226,18.000355,110.81064222889842
1673611220.862234,18.044758,110.76005042699668
1673611220.8632412,18.116495,110.7160463785578
1673611220.864248,18.144142,110.67205274774402
1673611220.865255,18.093897,110.62804869930514
1673611220.8662622,18.044758,110.58404465086625
1673611220.867269,18.070913,110.54005102005247
1673611220.8682761,18.136688,110.4960469716136
1673611220.8692832,18.19203,110.4520429231747
1673611220.87029,18.243284,110.40804929236093
1673611220.8712971,18.303074,110.36404524392205
1673611220.8723042,18.319036,110.32004119548316
1673611220.873311,18.290356,110.27604756466938
1673611220.8743181,18.249582,110.23204351623049
1673611220.8753262,18.166883,110.1879977972912
1673611220.876333,18.024973,110.14400416647742
1673611220.87734,17.911261,110.10000011803854
1673611220.8783472,17.821398,110.05599606959964
1673611220.879354,17.689175,110.01200243878587
1673611220.880361,17.554764,109.96799839034699
1673611220.8813682,17.489613,109.9239943419081
1673611220.882375,17.496609,109.88000071109433
1673611220.883382,17.582554,109.83599666265543
1673611220.8843892,17.669004,109.79199261421655
1673611220.885396,17.775503,109.74799898340278
1673611220.886403,17.960833,109.70399493496389
1673611220.887411,18.173542,109.65994921602459
1673611220.8884182,18.301535,109.6159451675857
1673611220.889425,18.410944,109.57195153677193
1673611220.8904321,18.488642,109.52794748833304
1673611220.8914392,18.496191,109.48394343989416
1673611220.892446,18.475084,109.43994980908039
1673611220.8934531,18.408371,109.3959457606415
1673611220.8944602,18.312426,109.35194171220262
1673611220.895467,18.201742,109.30794808138883
1673611220.8964741,18.023338,109.26394403294995
1673611220.8974812,17.858515,109.21993998451107
1673611220.898488,17.753555,109.17594635369728
1673611220.8994951,17.744947,109.1319423052584
1673611220.9005032,17.775408,109.0878965863191
1673611220.90151,17.837503,109.04390295550533
1673611220.902517,17.917006,108.99989890706644
1673611220.9035242,18.001484,108.95589485862756
1673611220.904531,18.079376,108.91190122781377
1673611220.905538,18.162485,108.84927752885073
1673611220.9065452,18.141737,108.771889
1673611220.907552,18.03466,108.74465787699643
1673611220.908559,17.887053,108.67029703671912
1673611220.9095662,17.712397,108.62245114687649
1673611220.910573,17.604406,108.53793697473182
1673611220.91158,17.567841,108.45245093705293
1673611220.9125881,17.614529,108.40988063567
1673611220.9135952,17.751295,108.3427702328963
1673611220.914602,17.909433,108.26169195610909
1673611220.9156091,18.120581,108.19926443885691
1673611220.9166162,18.410173,108.13683692160475
1673611220.917623,18.623703,108.07442418359436
1673611220.9186301,18.696257,108.01199666634218
1673611220.9196372,18.688107,107.94956914909002
1673611220.920644,18.683683,107.88715641107963
1673611220.9216511,18.59329,107.82472889382746
1673611220.9226582,18.446306,107.7623013765753
1673611220.923665,18.326248,107.6998886385649
1673611220.9246721,18.259392,107.63746112131273
1673611220.9256802,18.196718,107.57497448709346
1673611220.926687,18.11861,107.51256174908306
1673611220.927694,18.083632,107.4501342318309
1673611220.9287012,18.039036,107.38770671457873
1673611220.929708,17.945278,107.32529397656833
1673611220.930715,17.822622,107.26286645931617
1673611220.9317222,17.690329,107.200438942064
1673611220.932729,17.688213,107.1380262040536
1673611220.933736,17.735405,107.07559868680144
1673611220.9347432,17.761681,107.01317116954927
1673611220.93575,17.78161,106.95075843153887
1673611220.936757,17.785769,106.88833091428671
1673611220.9377651,17.804569,106.82584428006744
1673611220.9387722,17.835846,106.76341676281527
1673611220.939779,17.879864,106.70100402480487
1673611220.9407861,17.938763,106.63857650755271
1673611220.9417932,18.07262,106.57614899030054
1673611220.9428,18.246819,106.51373625229014
1673611220.9438071,18.381325,106.45130873503798
1673611220.9448142,18.487345,106.38888121778581
1673611220.945821,18.579275,106.32646847977541
1673611220.9468281,18.559753,106.26404096252325
1673611220.9478352,18.40539,106.20161344527108
1673611220.948842,18.283432,106.13920070726068
1673611220.9498491,18.240183,106.07677319000852
1673611220.9508572,18.220974,106.01428655578925
1673611220.951864,18.190083,105.95187381777886
1673611220.952871,18.156738,105.88944630052669
1673611220.9538782,18.139261,105.82701878327453
1673611220.954885,18.131905,105.76460604526413
1673611220.955892,18.137602,105.70217852801196
1673611220.9568992,18.138323,105.6397510107598
1673611220.957906,18.102671,105.5773382727494
1673611220.958913,18.047018,105.51491075549723
1673611220.9599202,17.987541,105.45248323824507
1673611220.960927,17.974415,105.39007050023467
1673611220.961934,17.967491,105.3276429829825
1673611220.9629421,17.918184,105.26515634876324
1673611220.9639492,17.834932,105.20272883151107
1673611220.964956,17.791899,105.14031609350067
1673611220.9659631,17.702396,105.0778885762485
1673611220.9669702,17.570559,105.01546105899634
1673611220.967977,17.490191,104.95304832098594
1673611220.9689841,17.49132,104.89062080373377
1673611220.9699912,17.55986,104.898343291091
1673611220.970998,17.633448,104.8208295864124
1673611220.9720051,17.709776,104.77799026251787
1673611220.9730122,17.801661,104.7415224124105
1673611220.974019,17.909986,104.70512875232198
1673611220.975027,17.980545,104.68514177372437
1673611220.9760342,18.007471,104.73341034319809
1673611220.977041,18.039373,104.72106807311265
1673611220.978048,18.163782,104.70285122389127
1673611220.9790552,18.282133,104.69095845671188
1673611220.980062,18.266195,104.67952607709631
1673611220.981069,18.237442,104.66809099031059
1673611220.9820762,18.282904,104.65665590352485
1673611220.983083,18.326849,104.64522352390928
1673611220.98409,18.28985,104.63378843712356
1673611220.9850972,18.216022,104.62235335033782
1673611220.986104,18.175995,104.61092097072225
1673611220.987111,18.052114,104.59948588393652
1673611220.9881191,17.587843,104.58803996847011
1673611220.9891262,17.243414,104.57660488168439
1673611220.990133,17.141363,104.56517250206882
1673611220.9911401,17.0734,104.55373741528308
1673611220.9921472,17.069818,104.54230232849736
1673611220.993154,17.258728,104.53086994888179
1673611220.9941611,17.578659,104.51943486209605
1673611220.9951682,17.966002,104.50799977531032
1673611220.996175,18.349327,104.49656739569475
1673611220.9971821,18.672337,104.48513230890902
1673611220.9981892,18.975319,104.47369722212329
1673611220.999196,19.200483,104.46226484250772
1673611221.000204,19.107157,104.45081892704133
1673611221.0012112,18.745155,104.43938384025559
1673611221.002218,18.531963,104.42795146064002
1673611221.003225,18.474892,104.4165163738543
1673611221.0042322,18.435057,104.40508128706855
1673611221.005239,18.364449,104.39364890745298
1673611221.006246,18.315983,104.38221382066726
1673611221.0072532,18.291054,104.37077873388152
1673611221.00826,18.219652,104.35934635426595
1673611221.009267,18.178688,104.34791126748023
1673611221.0102742,18.157099,104.32389428605482
1673611221.011281,18.10659,104.28011186266095
1673611221.012288,18.080145,104.27855876585599
1673611221.0132961,18.063246,104.29222565601907
1673611221.0143032,18.047619,104.26162104744874
1673611221.01531,18.053148,104.2315025765379
1673611221.0163171,18.067692,104.20117275965666
1673611221.0173242,18.094738,104.20076198688916
1673611221.018331,18.12616,104.15800690605627
1673611221.0193381,18.159504,104.11368828571428
1673611221.0203452,18.210373,104.08818154529848
1673611221.021352,18.206022,104.06268084341026
1673611221.0223591,18.114763,104.03717410299447
1673611221.0233662,17.933619,104.01166736257868
1673611221.024373,17.771441,103.98900292703863
1673611221.025381,17.674582,103.97076667477349
1673611221.0263882,17.615273,103.959915
1673611221.027395,17.603975,103.94494293133047
1673611221.028402,17.643497,103.923744
1673611221.0294092,17.731125,103.9005047706247
1673611221.030416,17.872482,103.869476
1673611221.031423,17.955135,103.84547965236051
1673611221.0324302,17.980618,103.85582972103003
1673611221.033437,18.128658,103.8983521119025
1673611221.034444,18.380148,103.88222696850269
1673611221.0354512,18.505783,103.86610182510287
1673611221.036458,18.50112,103.84998049920861
1673611221.037465,18.485493,103.8338553558088
1673611221.0384731,18.445129,103.82652630891684
1673611221.0394802,18.385868,103.81951905190185
1673611221.040487,18.317184,103.81251345380186
1673611221.0414941,18.262253,103.80550619678685
1673611221.0425012,18.191357,103.79849893977185
1673611221.043508,18.083006,103.79149334167187
1673611221.0445151,17.980425,103.78448608465686
1673611221.0455222,17.844788,103.77747882764186
1673611221.046529,17.698719,103.77047322954186
1673611221.0475361,17.594358,103.76346597252687
1673611221.0485432,17.477232,103.75645871551187
1673611221.04955,17.315296,103.74945311741187
1673611221.050558,17.15456,103.74243922473683
1673611221.0515652,17.097849,103.73543196772182
1673611221.052572,17.191053,103.72842636962183
1673611221.053579,17.424488,103.72141911260682
1673611221.0545862,17.697107,103.71441185559182
1673611221.055593,17.971722,103.70740625749184
1673611221.0566,18.266411,103.70039900047684
1673611221.0576072,18.55896,103.69339174346183
1673611221.058614,18.66707,103.68638614536184
1673611221.059621,18.63916,103.67937888834685
1673611221.0606282,18.703348,103.67237163133184
1673611221.061635,18.752319,103.66536603323185
1673611221.062642,18.630314,103.65835877621684
1673611221.0636501,18.398754,103.6578231680572
1673611221.0646572,18.135607,103.68572568931808
1673611221.065664,17.944918,103.67641377920839
1673611221.0666711,17.842216,103.70046491323004
1673611221.0676782,17.813103,103.67370086051503
1673611221.068685,17.808775,103.6919149394373
1673611221.0696921,17.791658,103.706657
1673611221.0706992,17.792429,103.69944727222885
1673611221.071706,17.821228,103.66675251072961
1673611221.0727131,17.869526,103.6482931516488
1673611221.0737202,17.957899,103.6289362305801
1673611221.074727,18.069399,103.60958389211581
1673611221.075735,18.249487,103.59020864062941
1673611221.0767422,18.440994,103.57085171956071
1673611221.077749,18.556316,103.55149938109642
1673611221.078756,18.56901,103.53214246002771
1673611221.0797632,18.508379,103.51278553895901
1673611221.08077,18.46542,103.4934332004947
1673611221.081777,18.424622,103.474076279426
1673611221.0827842,18.354256,103.4547193583573
1673611221.083791,18.239006,103.43536701989301
1673611221.084798,18.207417,103.4160100988243
1673611221.0858052,18.221647,103.39665317775558
1673611221.086812,18.193377,103.3773008392913
1673611221.087819,18.159792,103.35794391822259
1673611221.0888271,18.139814,103.33893847305674
1673611221.0898342,18.122145,103.30257974278904
1673611221.090841,18.121857,103.254395
1673611221.0918481,18.123755,103.2166118431092
1673611221.0928552,18.092815,103.16513876156414
1673611221.093862,17.986002,103.19357665196662
1673611221.0948691,17.834908,103.17536037339056
1673611221.0958762,17.721869,103.14352956795422
1673611221.096883,17.631598,103.0958237909416
1673611221.0978901,17.635876,103.0676473485021
1673611221.0988972,17.681433,103.05251310893786
1673611221.099904,17.769012,103.03738245229017
1673611221.100912,17.891788,103.02223388105968
1673611221.1019192,18.037809,103.00709964149543
1673611221.102926,18.151136,102.99009047079858
1673611221.103933,18.176643,102.93832851072962
1673611221.1049402,18.207104,102.91069
1673611221.105947,18.200876,102.8649536130186
1673611221.106954,18.15811,102.84989357425506
1673611221.1079612,18.114042,102.83304518073439
1673611221.108968,18.080482,102.74935196638054
1673611221.109975,18.016342,102.68319350074235
1673611221.1109822,17.961626,102.6397186416364
1673611221.111989,17.903639,102.59625407487401
1673611221.112996,17.896957,102.55277921576808
1673611221.1140041,17.893446,102.509263187288
1673611221.1150112,17.835293,102.46578832818206
1673611221.116018,17.813608,102.42232376141966
1673611221.1170251,17.88061,102.37884890231373
1673611221.1180322,17.94451,102.3353740432078
1673611221.119039,17.969151,102.29190947644541
1673611221.1200461,18.018049,102.24843461733947
1673611221.1210532,18.041008,102.20495975823354
1673611221.12206,18.024252,102.16149519147115
1673611221.1230671,17.956697,102.1180203323652
1673611221.1240742,17.891956,102.07454547325928
1673611221.125081,17.836567,102.03108090649688
1673611221.126089,17.860968,101.9875648780168
1673611221.1270962,17.906404,101.94409001891086
1673611221.128103,17.931864,101.90062545214846
1673611221.12911,18.00235,101.85715059304253
1673611221.1301172,18.037209,101.8136757339366
1673611221.131124,18.081997,101.77021116717421
1673611221.132131,18.17061,101.72673630806827
1673611221.1331382,18.319036,101.68326144896234
1673611221.134145,18.440176,101.63979688219995
1673611221.135152,18.466164,101.59632202309402
1673611221.1361592,18.452557,101.55284716398808
1673611221.137166,18.422003,101.50938259722568
1673611221.138173,18.371277,101.46590773811975
1673611221.1391811,18.275427,101.42239170963967
1673611221.1401882,18.143084,101.37891685053373
1673611221.141195,17.969486,101.33545228377133
1673611221.1422021,17.884575,101.2919774246654
1673611221.1432092,17.801083,101.24850256555946
1673611221.144216,17.760094,101.20503799879707
1673611221.1452231,17.707973,101.16156313969114
1673611221.1462302,17.627222,101.11808828058521
1673611221.147237,17.703886,101.07462371382282
1673611221.1482441,17.837503,101.03114885471688
1673611221.1492512,17.952394,100.98767399561095
1673611221.150258,18.08029,100.94420942884855
1673611221.151266,18.264801,100.90069340036847
1673611221.1522732,18.425415,100.85721854126253
1673611221.15328,18.519342,100.81375397450013
1673611221.154287,18.537901,100.75948691416309
1673611221.1552942,18.460997,100.757973
1673611221.156301,18.412458,100.68661788009534
1673611221.157308,18.403971,100.64967215784453
1673611221.1583152,18.253214,100.66750237568534
1673611221.159322,18.026175,100.63108184215547
1673611221.160329,17.85717,100.59413610228899
1673611221.1613362,17.721558,100.52126118764902
1673611221.162343,17.59407,100.44976509575827
1673611221.16335,17.550844,100.42617855747811
1673611221.1643581,17.545364,100.40256968346095
1673611221.1653652,17.627342,100.37898314518078
1673611221.166372,17.765095,100.35540219083488
1673611221.1673791,17.929699,100.33181565255472
1673611221.1683862,18.116879,100.30822911427457
1673611221.169393,18.337067,100.28464815992866
1673611221.1704001,18.543768,100.26106162164851
1673611221.1714072,18.585453,100.23747508336834
1673611221.172414,18.47941,100.21389412902244
1673611221.1734211,18.363873,100.19030759074228
1673611221.1744282,18.306631,100.16672105246212
1673611221.175435,18.27985,100.14314009811622
1673611221.176443,18.23778,100.11953122409905
1673611221.1774502,18.20405,100.09594468581889
1673611221.178457,18.17614,100.07236373147299
1673611221.179464,18.151234,100.04877719319282
1673611221.1804712,18.112335,100.02519065491266
1673611221.181478,18.116182,100.00160970056676
1673611221.182485,18.122528,99.9780231622866
1673611221.1834922,18.115677,99.95443662400645
1673611221.184499,18.101301,99.930855669660545
1673611221.185506,18.041321,99.90726913138037
1673611221.1865132,17.984585,99.88368259310022
1673611221.18752,17.983118,99.86010163875432
1673611221.188527,17.967876,99.83651510047416
1673611221.1895351,17.94095,99.81290622645699
1673611221.1905422,17.883181,99.78931968817683
1673611221.191549,17.840149,99.76573873383093
1673611221.1925561,17.836494,99.74215219555077
1673611221.1935632,17.872675,99.71856565727062
1673611221.19457,17.934364,99.6949847029247
1673611221.1955771,17.993526,99.67139816464454
1673611221.1965842,18.011148,99.64781162636439
1673611221.197591,18.007927,99.62423067201848
1673611221.1985981,17.995283,99.60064413373833
1673611221.199605,18.019876,99.57706317939243
1673611221.200612,18.060961,99.55347664111225
1673611221.20162,18.017399,99.5298677670951
1673611221.2026272,17.872267,99.50628122881494
1673611221.203634,17.691002,99.48270027446902
1673611221.204641,17.514952,99.45911373618887
1673611221.2056482,17.445692,99.43552719790871
1673611221.206655,17.486248,99.41194624356281
1673611221.207662,17.627678,99.38835970528265
1673611221.2086692,17.80113,99.3647731670025
1673611221.209676,17.925323,99.34119221265658
1673611221.210683,18.064302,99.31760567437642
1673611221.2116902,18.215326,99.29401913609627
1673611221.212697,18.347958,99.27043818175036
1673611221.213704,18.421906,99.24685164347021
1673611221.2147121,18.387264,99.22324276945304
1673611221.2157192,18.237562,99.19965623117288
1673611221.216726,18.135679,99.17607527682698
1673611221.2177331,18.078342,99.15248873854682
1673611221.2187402,18.003311,99.11852526180257
1673611221.219747,18.078415,99.09693676877235
1673611221.2207541,18.148613,99.052205274265
1673611221.221761,18.105316,99.00102689287154
1673611221.222768,18.056753,99.021309
1673611221.2237751,18.037619,99.00596742322365
1673611221.224782,18.071659,99.01868665569862
1673611221.225789,18.153397,99.00571667008343
1673611221.226797,18.200708,98.98748075107297
1673611221.2278042,18.208618,98.95940356638569
1673611221.228811,18.246578,98.9298730610437
1673611221.229818,18.299322,98.90033556292279
1673611221.2308252,18.287302,98.87079806480189
1673611221.231832,18.229702,98.8412675594599
1673611221.232839,18.224195,98.81173006133899
1673611221.237874,18.255232,98.66405655629228
1673611221.238881,18.15621,98.63451905817138
1673611221.2398891,18.076347,98.60495358893482
1673611221.2408962,18.023458,98.57541609081392
1673611221.241903,17.967684,98.54588558547192
1673611221.2429101,17.958187,98.516348087351
1673611221.243917,17.997181,98.48681758200902
1673611221.244924,18.060192,98.45728008388811
1673611221.2459311,18.077188,98.4277425857672
1673611221.246938,18.026295,98.39821208042521
1673611221.247945,17.955952,98.36867458230431
1673611221.2489522,17.931311,98.33913708418339
1673611221.249959,17.985353,98.3096065788414
1673611221.250966,18.05637,98.2800690807205
1673611221.251974,18.0581,98.25050361148395
1673611221.2529812,18.062307,98.22096611336303
1673611221.253988,18.092455,98.19143560802104
1673611221.254995,18.126953,98.16189810990014
1673611221.2560022,18.162893,98.13236061177923
1673611221.257009,18.19595,98.10283010643724
1673611221.258016,18.235567,98.07329260831634
1673611221.2590232,18.238308,98.04375511019542
1673611221.26003,18.19417,98.01422460485342
1673611221.261037,18.128851,97.98468710673252
1673611221.2620442,18.041151,97.95514960861162
1673611221.263051,17.959414,97.92561910326963
1673611221.264058,17.921598,97.89608160514871
1673611221.2650661,17.910925,97.86651613591216
1673611221.266073,17.880224,97.83698563057017
1673611221.26708,17.860126,97.80744813244927
1673611221.2680871,17.831013,97.77791063432835
1673611221.269094,17.780119,97.74838012898635
1673611221.270101,17.732567,97.71884263086545
1673611221.2711082,17.749516,97.68930513274455
1673611221.272115,17.83647,97.682655
1673611221.273122,17.951817,97.69689321888411
1673611221.2741292,18.063606,97.67199864473056
1673611221.275136,18.101902,97.63557330274136
1673611221.276143,18.067932,97.58452024701955
1673611221.277151,18.023169,97.54457674821172
1673611221.2781582,17.979296,97.56770493539929
1673611221.279165,18.013121,97.58911861373392
1673611221.280172,18.083897,97.592194
1673611221.2811792,18.120798,97.58541352690237
1673611221.282186,18.149382,97.57732712817567
1673611221.283193,18.186213,97.56923881460199
1673611221.2842002,18.18251,97.56115050102831
1673611221.285207,18.111879,97.5530641023016
1673611221.286214,17.954269,97.54497578872792
1673611221.2872212,17.810026,97.53688747515424
1673611221.288228,17.782284,97.52880107642754
1673611221.289235,17.840582,97.52071276285386
1673611221.2902431,17.883038,97.51261678989233
1673611221.29125,17.953379,97.50453039116562
1673611221.292257,18.008097,97.49644207759195
1673611221.2932642,18.067236,97.48835376401827
1673611221.294271,18.128588,97.48026736529155
1673611221.295278,18.198666,97.47217905171789
1673611221.2962852,18.204483,97.45890944158322
1673611221.297292,18.158878,97.42593523390558
1673611221.298299,18.077141,97.40771452681764
1673611221.2993062,17.979944,97.40432699189319
1673611221.300313,17.749828,97.42830402885075
1673611221.30132,17.506514,97.36494541583214
1673611221.302328,17.426363,97.39730900715138
1673611221.3033352,17.485022,97.40282639151168
1673611221.304342,17.63102,97.37946751001431
1673611221.305349,17.768387,97.3894545585199
1673611221.3063562,17.886066,97.3742731475574
1673611221.307363,18.072645,97.35909533067894
1673611221.30837,18.319469,97.34391391971644
1673611221.3093772,18.50915,97.32873250875394
1673611221.310384,18.578699,97.31355469187548
1673611221.311391,18.643801,97.29837328091298
1673611221.3123982,18.683105,97.28319186995049
1673611221.313405,18.554175999999998,97.26801405307202
1673611221.314412,18.351179,97.25283264210954
1673611221.3154202,18.257685,97.2376368548109
1673611221.316427,18.139549,97.22245903793244
1673611221.317434,18.009033,97.20727762696994
1673611221.3184412,17.962683,97.19209621600744
1673611221.319448,17.951313,97.17691839912898
1673611221.320455,17.956697,97.16173698816648
1673611221.3214622,17.936913,97.14655557720398
1673611221.322469,17.889984,97.13137776032552
1673611221.323476,17.908232,97.11619634936302
1673611221.3244832,17.969439,97.10101493840052
1673611221.32549,18.040117,97.08583712152206
1673611221.326497,18.194073,97.07065571055956
1673611221.327505,18.350889,97.05545992326094
1673611221.3285122,18.408731,97.04027851229844
1673611221.329519,18.36558,97.02510069541998
1673611221.330526,18.283047,97.00991928445748
1673611221.3315332,18.195564,96.99473787349498
1673611221.33254,18.15847,96.97956005661652
1673611221.333547,18.157965,96.96437864565402
1673611221.3345542,18.162533,96.94919723469152
1673611221.335561,18.152771,96.96591948033372
1673611221.336568,18.118153,97.01211506080115
1673611221.3375752,18.090555,97.01423714806867
1673611221.338582,18.052162,96.995216
1673611221.3395891,17.997711,96.98638715331425
1673611221.3405972,17.949413,97.01302945994277
1673611221.341604,17.935373,97.01308989511323
1673611221.342611,17.937513,96.98635264878398
1673611221.3436182,17.933666,96.995216
1673611221.344625,17.92691,96.99333850923172
1673611221.345632,17.863901,96.98973044689994
1673611221.3466392,17.773436,96.98612238456816
1673611221.347646,17.727303,96.9825151764178
1673611221.348653,17.718407,96.97890711408603
1673611221.3496602,17.687323,96.977127
1673611221.350667,17.655781,96.97824902774241
1673611221.351674,17.584188,96.98043511869442
1673611221.352682,17.530218,96.98262327980831
1673611221.3536892,17.518438,96.98480937076032
1673611221.354696,17.506346,96.98699494417185
1673611221.355703,17.566639,96.98918103512385
1673611221.3567102,17.759493,96.99136712607586
1673611221.357717,17.981411,96.9935526994874
1673611221.358724,18.137266,96.9957387904394
1673611221.3597312,18.23576,96.99792488139141
1673611221.360738,18.375605,97.00011045480294
1673611221.3617451,18.600214,97.00229654575494
1673611221.3627522,18.769075,97.00448263670695
1673611221.363759,18.73311,97.00666821011849
1673611221.3647661,18.565573,97.0088543010705
1673611221.3657742,18.44585,97.01104246218439
1673611221.366781,18.379257,97.01322803559593
1673611221.367788,18.314686,97.01541412654792
1673611221.3687952,18.2078,97.01760021749993
1673611221.369802,18.118153,97.01978579091147
1673611221.370809,18.015837,97.02197188186348
1673611221.3718162,17.891499,97.02415797281549
1673611221.372823,17.855536,97.02634354622703
1673611221.37383,17.829763,97.02852963717902
1673611221.3748372,17.800049,97.03071572813103
1673611221.375844,17.814089,97.03290130154257
1673611221.376851,17.84087,97.03508739249457
1673611221.377859,17.818729,97.03727555360847
1673611221.3788662,17.823753,97.03946164456048
1673611221.379873,17.920998,97.04164721797201
1673611221.38088,18.034708,97.04383330892401
1673611221.3818872,18.097261,97.04601939987602
1673611221.382894,18.134308,97.04820497328755
1673611221.3839011,18.168015,97.05039106423956
1673611221.3849082,18.194098,97.05257715519157
1673611221.385915,18.252396,97.0547627286031
1673611221.3869221,18.330215,97.0569488195551
1673611221.3879292,18.365723,97.05913491050711
1673611221.388936,18.305525,97.06132048391865
1673611221.3899431,18.220951,97.06350657487066
1673611221.3909512,18.105677,97.06569473598455
1673611221.391958,18.008217,97.06788030939609
1673611221.392965,17.970905,97.07006640034808
1673611221.3939722,17.951096,97.07225249130009
1673611221.394979,17.923473,97.07443806471163
1673611221.395986,17.955063,97.07662415566364
1673611221.3969932,17.996965,97.07881024661565
1673611221.398,17.97456,97.08099582002717
1673611221.399007,17.95713,97.08318191097918
1673611221.4000142,17.952442,97.08536800193119
1673611221.401021,17.904842,97.10141863113972
1673611221.402028,17.790865,97.0560960524559
1673611221.403036,17.708431,97.09756842336114
1673611221.4040432,17.668907,97.05528086790653
1673611221.40505,17.616331,97.06576672532188
1673611221.4060571,17.64328,97.03475848271752
1673611221.4070642,17.803919,97.04793129613735
1673611221.408071,18.014082,97.0328226249404
1673611221.4090781,18.182486,97.01460423295184
1673611221.4100852,18.283529,96.99202964236844
1673611221.411092,18.344496,96.96912623725039
1673611221.4120991,18.396616,96.94621740864072
1673611221.4131062,18.417025,96.92330858003105
1673611221.414113,18.377262,96.900405174913
1673611221.4151201,18.315214,96.87749634630333
1673611221.4161282,18.254078,96.85456582372719
1673611221.417135,18.230158,96.83166241860913
1673611221.418142,18.198593,96.80875358999947
1673611221.4191492,18.152508,96.7858447613898
1673611221.420156,18.099907,96.76294135627175
1673611221.421163,18.01865,96.74003252766208
1673611221.4221702,17.972635,96.71712369905241
1673611221.423177,17.979416,96.69422029393436
1673611221.424184,17.983286,96.67131146532469
1673611221.4251912,17.961266,96.64840263671503
1673611221.426198,17.942705,96.62549923159698
1673611221.427205,17.989393,96.60259040298732
1673611221.4282131,18.037907,96.57965988041116
1673611221.4292202,18.071972,96.55675105180148
1673611221.430227,18.08404,96.53384764668344
1673611221.4312341,18.076708,96.51093881807377
1673611221.4322412,18.121735,96.48802998946411
1673611221.433248,18.165802,96.46512658434605
1673611221.4342551,18.159094,96.4422177557364
1673611221.4352622,18.080746,96.41930892712672
1673611221.436269,17.958427,96.39640552200868
1673611221.4372761,17.829691,96.373496693399
1673611221.4382832,17.758484,96.35058786478933
1673611221.43929,17.745741,96.32768445967129
1673611221.4402971,17.766705,96.30477563106162
1673611221.4413052,17.783485,96.28184510848547
1673611221.442312,17.827168,96.25894170336743
1673611221.443319,17.911308,96.23603287475775
1673611221.4443262,17.975641,96.21312404614808
1673611221.445333,18.006798,96.19022064103004
1673611221.44634,18.060072,96.16731181242037
1673611221.4473472,18.167965,96.14440298381069
1673611221.448354,18.260378,96.12149957869265
1673611221.449361,18.293985,96.09859075008298
1673611221.4503682,18.28764,96.07568192147332
1673611221.451375,18.264488,96.05277851635527
1673611221.452382,18.261459,96.0298696877456
1673611221.4533901,18.259417,96.00693916516944
1673611221.4543972,18.225399,96.01316878397712
1673611221.455404,18.178856,96.0313894601812
1673611221.4564111,18.150753,96.01013284505363
1673611221.4574182,18.111301,95.94713668049594
1673611221.458425,18.04668,95.927902
1673611221.4594321,17.96879,95.95497155221744
1673611221.4604392,17.891235000000002,95.99139678736591
1673611221.461446,17.788918,95.97268821459227
1673611221.4624531,17.697348,95.99190351931331
1673611221.4634602,17.66958,95.99691402439642
1673611221.464467,17.696074,95.99258470284421
1673611221.4654741,17.775984,95.98825435611523
1673611221.4664822,17.841015,95.98391990867913
1673611221.467489,17.953379,95.97959058712694
1673611221.468496,18.087189,95.97526024039794
1673611221.4695032,18.206598,95.97092989366897
1673611221.47051,18.28348,95.96660057211677
1673611221.471517,18.324686,95.9622702253878
1673611221.4725242,18.342091,95.9579398786588
1673611221.473531,18.268215,95.95361055710661
1673611221.474538,18.113899,95.94928021037764
1673611221.4755452,17.912174,95.94494986364866
1673611221.476552,17.736317,95.94062054209645
1673611221.477559,17.666649,95.93629019536748
1673611221.4785671,17.586594,95.93195574793137
1673611221.4795742,17.532694,95.92762540120239
1673611221.480581,17.604336,95.92329607965019
1673611221.4815881,17.783028,95.91896573292121
1673611221.4825952,17.906189,95.91463538619223
1673611221.483602,17.968477,95.91030606464003
1673611221.4846091,18.07827,95.90597571791105
1673611221.4856162,18.21946,95.90164537118207
1673611221.486623,18.377094,95.89731604962988
1673611221.4876301,18.537445,95.89298570290089
1673611221.4886372,18.587666,95.88865535617191
1673611221.489644,18.524054,95.88432603461972
1673611221.490652,18.415823,95.87999158718361
1673611221.4916592,18.29574,95.87566124045462
1673611221.492666,18.147339,95.87133191890243
1673611221.493673,18.061441,95.86700157217345
1673611221.4946802,18.030718,95.86267122544447
1673611221.495687,18.016029,95.85834190389227
1673611221.496694,17.977444,95.85401155716329
1673611221.4977012,17.914482,95.84968121043431
1673611221.498708,17.892582,95.8453518888821
1673611221.499715,18.037426,95.84102154215313
1673611221.5007222,18.068293,95.83669119542415
1673611221.501729,18.078678,95.83236187387196
1673611221.502736,18.053291,95.82803152714297
1673611221.5037441,18.061274,95.82369707970686
1673611221.5047512,18.119884,95.81936673297788
1673611221.505758,18.154598,95.81503741142569
1673611221.5067651,18.179962,95.8107070646967
1673611221.5077722,18.199026,95.80637671796772
1673611221.508779,18.187389,95.80204739641553
1673611221.5097861,18.174335,95.79771704968655
1673611221.5107932,18.139767,95.79338670295758
1673611221.5118,18.113153,95.78905738140537
1673611221.5128071,18.156137,95.7847270346764
1673611221.5138142,18.193544,95.78039668794742
1673611221.514821,18.162075,95.77606736639521
1673611221.515829,18.065289,95.7717329189591
1673611221.5168362,17.974895,95.76740257223013
1673611221.517843,17.912535,95.72248805554231
1673611221.51885,17.896114,95.68328469790177
1673611221.5198572,17.91316,95.67517182021936
1673611221.520864,17.93434,95.68324814016687
1673611221.521871,17.958067,95.69276050453028
1673611221.5228782,17.990908,95.674637
1673611221.523885,18.047401,95.68391650607866
1673611221.524892,18.084305,95.692726
1673611221.5258992,18.116278,95.7022621895565
1673611221.526906,18.143419,95.70588503771748
1673611221.527913,18.124308,95.6965885374133
1673611221.5289211,18.113899,95.68728323360506
1673611221.5299282,18.129189,95.6779867333009
1673611221.530935,18.138636,95.65133717191226
1673611221.5319421,18.097214,95.638458
1673611221.5329492,18.021751,95.66226973277712
1673611221.533956,17.969534,95.65057805126371
1673611221.5349631,17.838778,95.56550545255126
1673611221.5359702,17.597628,95.55449853099667
1673611221.536977,17.465069,95.55369095423123
1673611221.5379841,17.410784,95.52293513948497
1673611221.5389912,17.374411,95.50358450092318
1673611221.539998,17.368881,95.49172429949266
1673611221.541006,17.432133,95.47985005567352
1673611221.5420132,17.621092,95.4679870457653
1673611221.54302,17.840389,95.45612684433478
1673611221.544027,18.016968,95.44426383442654
1673611221.5450342,18.196741,95.43240082451831
1673611221.546041,18.429502,95.42054062308779
1673611221.547048,18.645868,95.40867761317956
1673611221.5480552,18.675798,95.39681460327132
1673611221.549062,18.498379,95.38495440184082
1673611221.550069,18.392792,95.37309139193258
1673611221.5510762,18.336802,95.36122838202434
1673611221.552083,18.238476,95.34936818059383
1673611221.55309,18.132603,95.33750517068559
1673611221.5540981,17.987829,95.32563092686645
1673611221.5551052,17.867458,95.31376791695821
1673611221.556112,17.805531,95.3019077155277
1673611221.5571191,17.737736,95.29004470561947
1673611221.5581262,17.688501,95.27818169571123
1673611221.559133,17.654436,95.26632149428072
1673611221.5601401,17.651791,95.25445848437248
1673611221.5611472,17.74526,95.24259547446425
1673611221.562154,17.888422,95.23073527303373
1673611221.5631611,18.009947,95.21887226312549
1673611221.5641682,18.13027,95.20700925321727
1673611221.565175,18.245712,95.19514905178674
1673611221.566183,18.355169,95.18327480796762
1673611221.5671902,18.402697,95.17141179805938
1673611221.568197,18.356108,95.15955159662886
1673611221.569204,18.279009,95.14768858672063
1673611221.5702112,18.231482,95.1358255768124
1673611221.571218,18.227009,95.12396537538189
1673611221.572225,18.165129,95.11210236547365
1673611221.5732322,18.049494,95.1002393555654
1673611221.574239,17.997471,95.0883791541349
1673611221.575246,17.981218,95.07651614422666
1673611221.5762532,17.965569,95.06465313431842
1673611221.57726,17.960135,95.05279293288791
1673611221.578267,17.969343,95.04092992297967
1673611221.5792751,17.999634,95.02905567916054
1673611221.5802822,18.033554,95.0171926692523
1673611221.581289,18.070217,95.00533246782179
1673611221.5822961,18.112263,94.987221
1673611221.5833032,18.199532,94.9863411223176
1673611221.58431,18.301439,94.914864
1673611221.5853171,18.323387,94.91391493206197
1673611221.5863242,18.263214,94.87807045064378
1673611221.587331,18.186453,94.86130463519314
1673611221.5883381,18.088776,94.87696238569725
1673611221.5893452,18.000139,94.83955374773485
1673611221.590352,17.985233,94.78726192259725
1673611221.59136,17.993839,94.77138912861753
1673611221.5923672,17.965784,94.75553135147221
1673611221.593374,17.88871,94.7396773285355
1673611221.594381,17.836615,94.72381955139019
1673611221.5953882,17.810987,94.70796177424488
1673611221.596395,17.818777,94.69210775130817
1673611221.597402,17.859886,94.67624997416286
1673611221.5984092,17.92292,94.66039219701754
1673611221.599416,18.009081,94.64453817408084
1673611221.600423,18.099379,94.62868039693552
1673611221.6014302,18.135632,94.61282261979021
1673611221.602437,18.136425,94.59696859685349
1673611221.603444,18.153301,94.58111081970817
1673611221.6044521,18.18417,94.56523802572845
1673611221.6054592,18.185226,94.54938024858313
1673611221.606466,18.17186,94.53352622564643
1673611221.6074731,18.170898,94.51766844850111
1673611221.6084802,18.173374,94.5018106713558
1673611221.609487,18.15799,94.48595664841909
1673611221.6104941,18.125029,94.47009887127378
1673611221.6115012,18.100941,94.45424109412846
1673611221.612508,18.095699,94.43838707119176
1673611221.6135151,18.093199,94.42252929404644
1673611221.6145222,18.091612,94.40667151690113
1673611221.615529,18.056202,94.39081749396442
1673611221.616537,17.981531,94.37494469998468
1673611221.6175442,17.932753,94.35908692283937
1673611221.618551,17.891308,94.34323289990266
1673611221.619558,17.815556,94.32737512275735
1673611221.6205652,17.763531,94.31151734561203
1673611221.621572,17.754805,94.29566332267532
1673611221.622579,17.733408,94.27980554553001
1673611221.6235862,17.698116,94.2639477683847
1673611221.624593,17.665686,94.24809374544799
1673611221.6256,17.717758,94.23223596830267
1673611221.6266072,17.827047,94.21637819115736
1673611221.627614,17.961433,94.20052416822065
1673611221.628621,18.118153,94.18466639107534
1673611221.6296291,18.220591,94.16879359709561
1673611221.6306362,18.25968,94.1529358199503
1673611221.631643,18.245064,94.13708179701358
1673611221.6326501,18.210806,94.12122401986827
1673611221.6336572,18.154718,94.10536624272295
1673611221.634664,18.03418,94.08951221978624
1673611221.6356711,17.907246,94.07365444264093
1673611221.6366782,17.771225,94.05779666549562
1673611221.637685,17.64542,94.04194264255891
1673611221.6386921,17.555147,94.04193406698451
1673611221.6396992,17.525698,94.11607094158322
1673611221.640706,17.579285,94.09785686266095
1673611221.641714,17.773436,94.082718
1673611221.6427212,17.954678,94.07627410085837
1673611221.643728,18.051826,94.04988612446351
1673611221.644735,18.158638,94.07505550822407
1673611221.6457422,18.346153,94.1152945896519
1673611221.646749,18.455347,94.10826018454935
1673611221.647756,18.413059,94.13515546321797
1673611221.6487632,18.346033,94.12650648405995
1673611221.64977,18.284683,94.11785955248222
1673611221.650777,18.204628,94.1092105733242
1673611221.6517842,18.131136,94.10056159416618
1673611221.652791,18.156595,94.09191466258845
1673611221.653798,18.18215,94.08326568343043
1673611221.6548061,18.135679,94.07460851395123
1673611221.6558132,18.055048,94.06595953479322
1673611221.65682,18.01865,94.0573126032155
1673611221.6578271,18.065889,94.04866362405747
1673611221.6588342,18.107071,94.04001464489946
1673611221.659841,18.001917,94.03136771332173
1673611221.6608481,17.851761,94.0227187341637
1673611221.6618552,17.710402,94.01406975500568
1673611221.662862,17.642679,94.00542282342795
1673611221.6638691,17.686529,93.99677384426994
1673611221.6648762,17.781393,93.98812486511191
1673611221.665883,17.849789,93.97947793353418
1673611221.666891,17.937273,93.97082076405499
1673611221.6678982,18.058798,93.96217178489697
1673611221.668905,18.135391,93.95352485331925
1673611221.669912,18.184265,93.94487587416123
1673611221.6709192,18.279995,93.9362268950032
1673611221.671926,18.39748,93.92757996342547
1673611221.672933,18.401447,93.91893098426746
1673611221.6739402,18.314444,93.91028200510944
1673611221.674947,18.274466,93.90163507353171
1673611221.675954,18.263815,93.89298609437368
1673611221.6769612,18.227009,93.88433711521567
1673611221.677968,18.131231,93.87569018363794
1673611221.678975,17.987036,93.86704120447992
1673611221.6799831,17.891115,93.85838403500073
1673611221.6809902,17.86265,93.8497350558427
1673611221.681997,17.837744,93.84108812426499
1673611221.6830041,17.806852,93.83243914510696
1673611221.6840112,17.783052,93.82379016594894
1673611221.685018,17.820004,93.8151432343712
1673611221.6860251,17.880922,93.8064942552132
1673611221.6870322,17.899048,93.79784527605517
1673611221.688039,17.91715,93.78919834447744
1673611221.6890461,17.996197,93.78054936531942
1673611221.6900532,18.114523,93.7719003861614
1673611221.69106,18.211142,93.76325345458368
1673611221.692068,18.209074,93.77277613325387
1673611221.6930752,18.166883,93.78993094849785
1673611221.694082,18.13063,93.75544157057702
1673611221.695089,18.100555,93.79888396162097
1673611221.6960962,18.091757,93.79989024368145
1673611221.697103,18.07815,93.76345690128755
1673611221.69811,18.087069,93.738991
1673611221.6991172,18.097454,93.75122826561754
1673611221.700124,18.065121,93.74397410014306
1673611221.701131,18.000643,93.6825997024557
1673611221.7021382,17.936335,93.67652738774538
1673611221.703145,17.90727,93.67045651060955
1673611221.704152,17.955326,93.68013389747257
1673611221.7051601,17.992157,93.72349722812872
1673611221.7061672,17.948187,93.7430362680019
1673611221.707174,17.880417,93.78962424412607
1673611221.7081811,17.876547,93.77277947908308
1673611221.7091882,17.834932,93.84638030504587
1673611221.710195,17.752329,93.811363
1673611221.7112021,17.697493,93.86430180408162
1673611221.7122092,17.619047,93.84621298775511
1673611221.713216,17.52791,93.79588515511213
1673611221.7142231,17.47377,93.80190235052602
1673611221.71523,17.498653,93.80791812141447
1673611221.716237,17.610874,93.81393531682835
1673611221.717245,17.766249,93.81995821034396
1673611221.7182522,17.886162,93.82597540575784
1673611221.719259,18.023241,93.8319911766463
1673611221.720266,18.175587,93.83800837206017
1673611221.7212732,18.344688,93.84402556747406
1673611221.72228,18.476381,93.85004133836252
1673611221.723287,18.506577,93.8560585337764
1673611221.7242942,18.502489,93.86207572919028
1673611221.725301,18.486574,93.86809150007875
1673611221.726308,18.355505,93.87410869549262
1673611221.7273152,18.164864,93.88012589090651
1673611221.728322,18.098415,93.88614166179497
1673611221.729329,18.093151,93.89215885720886
1673611221.7303371,18.101734,93.89818175072445
1673611221.7313442,18.046728,93.90419894613834
1673611221.732351,17.927969,93.91021471702679
1673611221.7333581,17.848707,93.91623191244068
1673611221.7343652,17.824474,93.92224910785455
1673611221.735372,17.882292,93.92826487874301
1673611221.7363791,17.923738,93.9342820741569
1673611221.737386,17.922848,93.94029784504535
1673611221.738393,17.892124,93.94631504045924
1673611221.7394001,17.911093,93.95233223587313
1673611221.740407,17.976362,93.95834800676158
1673611221.741414,18.07036,93.96436520217546
1673611221.742422,18.170322,93.97038809569106
1673611221.7434292,18.25581,93.97640529110495
1673611221.744436,18.299925000000002,93.9824210619934
1673611221.745443,18.286894,93.98843825740728
1673611221.7464502,18.2579,93.99445545282117
1673611221.747457,18.173542,94.00047122370962
1673611221.748464,18.104595,94.00648841912351
1673611221.7494712,18.06447,94.01250561453739
1673611221.750478,18.029684,94.01852138542586
1673611221.751485,18.049902,94.02453858083973
1673611221.7524922,18.08993,94.03055577625362
1673611221.753499,18.087767,94.03657154714207
1673611221.754506,18.061779,94.04258874255596
1673611221.7555141,18.060768,94.04861163607156
1673611221.7565212,18.056993,94.05462883148545
1673611221.757528,18.04656,94.0606446023739
1673611221.7585351,18.047211,94.0769355568534
1673611221.759542,18.084425,94.11335836981402
1673611221.760549,18.137987,94.14339090343347
1673611221.7615561,18.147387,94.13547642550655
1673611221.762563,18.125654,94.08749687744397
1673611221.76357,18.120293,94.064629
1673611221.7645772,18.106783,94.08537053576538
1673611221.765584,18.066875,94.09778426126341
1673611221.766591,18.017208,94.08612100929899
1673611221.767599,17.983671,94.11576941508184
1673611221.7686062,17.952274,94.10797785479019
1673611221.769613,17.890442,94.100188139091415
1673611221.77062,17.772907,94.09239657879978
1673611221.7716272,17.632318,94.08460501850813
1673611221.772634,17.487617,94.09651981211255
1673611221.773641,17.40398,94.0868757958989
1673611221.7746482,17.456871,94.0686607556615
1673611221.775655,17.579573,94.12135523175965
1673611221.776662,17.725811,94.12267445493562
1673611221.7776692,17.872482,94.17665818025752
1673611221.778676,17.997927,94.16212968939213
1673611221.779683,18.130798,94.12569358035289
1673611221.7806911,18.266701,94.12476159529817
1673611221.781698,18.343149,94.13196229557262
1673611221.782705,18.313482,94.139164700962
1673611221.7837121,18.201357,94.14636710635136
1673611221.784719,18.144958,94.15356780662583
1673611221.785726,18.154478,94.1607702120152
1673611221.7867332,18.165224,94.16797261740457
1673611221.78774,18.116808,94.17517331767903
1673611221.788747,18.00812,94.1823757230684
1673611221.7897542,17.902702,94.18957812845777
1673611221.790761,17.764229,94.19677882873223
1673611221.791768,17.655973,94.2039812341216
1673611221.792776,17.580439,94.21119045997062
1673611221.7937832,17.569115,94.21839286535999
1673611221.79479,17.616116,94.22559356563445
1673611221.795797,17.717062,94.23279597102382
1673611221.7968042,17.820194,94.23999837641318
1673611221.797811,17.975761,94.24719907668765
1673611221.798818,18.179001,94.25440148207701
1673611221.7998252,18.32781,94.26160388746639
1673611221.800832,18.457582,94.26880458774085
1673611221.801839,18.56901,94.27600699313022
1673611221.8028462,18.568577,94.28320939851959
1673611221.803853,18.441187,94.29041009879406
1673611221.80486,18.324013,94.29761250418342
1673611221.8058681,18.23838,94.30482173003244
1673611221.806875,18.153877,94.3120224303069
1673611221.807882,18.106422,94.31922483569628
1673611221.8088892,18.071419,94.32642724108564
1673611221.809896,18.021246,94.33362794136009
1673611221.810903,17.962395,94.34083034674947
1673611221.8119102,17.871834,94.34803275213883
1673611221.812917,17.758795,94.3552334524133
1673611221.813924,17.720547,94.36243585780267
1673611221.8149312,17.735861,94.36963826319204
1673611221.815938,17.799784,94.3768389634665
1673611221.816945,17.881403,94.38404136885588
1673611221.817953,17.975809,94.39125059470489
1673611221.8189602,18.111902,94.39845300009426
1673611221.819967,18.144718,94.40565370036872
1673611221.820974,18.184771,94.4128561057581
1673611221.8219812,18.264343,94.42005851114746
1673611221.822988,18.296751,94.43065754816405
1673611221.823995,18.265402,94.45586116019071
1673611221.8250022,18.192751,94.40354971875
1673611221.826009,18.130823,94.3776562811824
1673611221.827016,18.109547,94.43921602235041
1673611221.8280232,18.087334,94.4515039408654
1673611221.82903,18.044878,94.40543336938237
1673611221.830037,18.011559,94.37518421629416
1673611221.8310452,17.989704,94.31248189423076
1673611221.832052,17.969486,94.41163257966835
1673611221.833059,17.924362,94.4157857825465
1673611221.8340662,17.854958,94.37352133823848
1673611221.835073,17.787956,94.38029864971861
1673611221.83608,17.803631,94.38707756605582
1673611221.8370872,17.864309,94.39385648239305
1673611221.838094,17.926189,94.40063379387318
1673611221.839101,17.93309,94.40741271021041
1673611221.8401082,17.957586,94.41419162654763
1673611221.841115,17.996387,94.42096893802777
1673611221.842122,18.023626,94.427747854365
1673611221.84313,18.048485,94.43453319013057
1673611221.8441372,18.056345,94.44131210646779
1673611221.845144,18.049902,94.44808941794793
1673611221.846151,18.046825,94.45486833428515
1673611221.8471582,18.017736,94.46164725062238
1673611221.848165,17.96242,94.46842456210251
1673611221.849172,17.906981,94.47520347843974
1673611221.8501792,17.840101,94.48198239477696
1673611221.851186,17.810532,94.4887597062571
1673611221.852193,17.853035,94.49553862259432
1673611221.8532002,17.870367,94.50231753893155
1673611221.854207,17.866112,94.50909485041169
1673611221.8552141,17.950975,94.51587376674891
1673611221.8562222,18.045334,94.52265910251448
1673611221.857229,18.075577,94.52943641399462
1673611221.858236,18.043146,94.53621533033184
1673611221.8592432,18.048052,94.54299424666907
1673611221.86025,18.09642,94.5497715581492
1673611221.861257,18.150801,94.55655047448643
1673611221.8622642,18.187847,94.56332939082365
1673611221.863271,18.199171,94.57010670230379
1673611221.864278,18.147747,94.57688561864101
1673611221.8652852,18.06411,94.58366453497824
1673611221.866292,17.990355,94.59044184645838
1673611221.867299,17.914915,94.5972207627956
1673611221.868307,17.802574,94.60400609856117
1673611221.8693142,17.713863,94.6107850148984
1673611221.870321,17.673355,94.61756232637853
1673611221.871328,17.67374,94.62434124271576
1673611221.8723352,17.729345,94.63112015905298
1673611221.873342,17.827791,94.63789747053312
1673611221.874349,17.955135,94.64467638687033
1673611221.8753562,18.106445,94.65145530320756
1673611221.876363,18.128876,94.65823261468769
1673611221.8773701,18.043531,94.67077239914163
1673611221.8783772,18.033098,94.69829013253874
1673611221.879384,18.089497,94.715866
1673611221.8803911,18.104907999999998,94.72541944182164
1673611221.8813992,18.079111,94.75335108367103
1673611221.882406,18.009514,94.74067090128756
1673611221.883413,18.027304,94.75566752575108
1673611221.8844202,18.097286,94.77814336409156
1673611221.885427,18.154287,94.81094369296781
1673611221.886434,18.187174,94.84742102531806
1673611221.8874412,18.180971,94.85611598437589
1673611221.888448,18.136593,94.86480888496803
1673611221.889455,18.113729,94.87350384402585
1673611221.8904622,18.112167,94.88219880308368
1673611221.891469,18.15246,94.89089170367582
1673611221.892476,18.216167,94.89958666273365
1673611221.893484,18.25569,94.90828985565422
1673611221.8944912,18.195156,94.91698481471205
1673611221.895498,18.129597,94.92567771530419
1673611221.896505,18.041945,94.93437267436201
1673611221.8975122,17.944269,94.94306763341984
1673611221.898519,17.87258,94.95176053401198
1673611221.8995261,17.859573,94.9604554930698
1673611221.9005332,17.835726,94.96915045212764
1673611221.90154,17.842817,94.97784335271977
1673611221.9025471,17.844837,94.98653831177761
1673611221.9035542,17.873949,94.99523327083543
1673611221.904561,17.96266,95.00392617142757
1673611221.9055681,18.093319,95.0126211304854
1673611221.9065762,18.192896,95.02132432340596
1673611221.907583,18.207224,95.03001722399812
1673611221.90859,18.195036,95.03871218305594
1673611221.9095972,18.208666,95.04740714211376
1673611221.910604,18.249031,95.056100042705907
1673611221.911611,18.267254,95.06479500176373
1673611221.9126182,18.199411,95.07348996082156
1673611221.913625,18.056129,95.0821828614137
1673611221.914632,17.856279,95.09087782047152
1673611221.9156392,17.658834,95.09957277952935
1673611221.916646,17.516804,95.10826568012149
1673611221.917653,17.415016,95.11696063917933
1673611221.918661,17.373907,95.12566383209989
1673611221.9196682,17.367031,95.13435879115772
1673611221.920675,17.405785,95.14305169174986
1673611221.9216821,17.525723,95.15174665080768
1673611221.9226892,17.686121,95.16044160986552
1673611221.923696,17.884504,95.16913451045765
1673611221.9247031,18.12034,95.17782946951547
1673611221.9257102,18.319853,95.1865244285733
1673611221.926717,18.440849,95.19521732916544
1673611221.9277241,18.552036,95.20391228822328
1673611221.9287312,18.618822,95.2126072472811
1673611221.929738,18.520159,95.22130014787324
1673611221.9307451,18.355625,95.22999510693107
1673611221.9317532,18.251434,95.23869829985163
1673611221.93276,18.17835,95.24739120044379
1673611221.933767,18.077381,95.2560861595016
1673611221.9347742,17.944798,95.26478111855944
1673611221.935781,17.858444,95.27347401915158
1673611221.936788,17.786779,95.2821689782094
1673611221.9377952,17.733986,95.29086393726723
1673611221.938802,17.713768,95.29955683785937
1673611221.939809,17.725836,95.30825179691719
1673611221.9408162,17.756104,95.35590244301383
1673611221.941823,17.770935,95.3858054554125
1673611221.94283,17.84866,95.367104
1673611221.9438381,17.988768,95.39413398640914
1673611221.9448452,18.132793,95.421371
1673611221.945852,18.21357,95.421371
1673611221.9468591,18.261362,95.43076106437768
1673611221.9478662,18.317978,95.42994153648068
1673611221.948873,18.343102,95.45994693039333
1673611221.9498801,18.320023,95.49238781897323
1673611221.9508872,18.25218,95.48985867607826
1673611221.951894,18.206526,95.4873301319387
1673611221.9529011,18.202633,95.48480098904373
1673611221.9539082,18.181429,95.48227184614876
1673611221.954915,18.123131,95.47974330200921
1673611221.9559221,18.093969,95.47721415911424
1673611221.9569302,18.054375,95.46163996518837
1673611221.957937,18.012592,95.48223449296782
1673611221.958944,18.014202,95.53350244396758
1673611221.9599512,17.989584,95.54875366380543
1673611221.960958,17.957371,95.60978725840286
1673611221.961965,18.000788,95.63563767668097
1673611221.9629722,18.070553,95.63325701287553
1673611221.963979,18.098898,95.61016671775923
1673611221.964986,18.048508000000002,95.62838267715784
1673611221.9659932,17.963789,95.6547445884597
1673611221.967,17.905058,95.67867033937326
1673611221.968007,17.843033,95.68755757229584
1673611221.9690151,17.756031,95.69645322115872
1673611221.9700222,17.668186,95.70534045408131
1673611221.971029,17.607412,95.71422558301884
1673611221.9720361,17.622702,95.72311281594143
1673611221.9730432,17.70557,95.73200004886402
1673611221.97405,17.799713,95.74088517780156
1673611221.9750571,17.864742,95.74977241072415
1673611221.9760642,17.814064,95.75865964364675
1673611221.977071,17.662369,95.76754477258427
1673611221.9780781,17.801588,95.77643200550688
1673611221.9790852,18.018049,95.78531923842947
1673611221.980092,18.235495,95.794204367367
1673611221.9810991,18.384907,95.80309160028959
1673611221.9821072,18.343775,95.81198724915245
1673611221.983114,18.200275,95.82087237808999
1673611221.984121,18.137121,95.82975961101258
1673611221.9851282,18.125799,95.83864684393518
1673611221.986135,18.106012,95.8475319728727
1673611221.987142,18.04697,95.85641920579529
1673611221.9881492,17.996485,95.8653064387179
1673611221.989156,17.976049,95.87419156765542
1673611221.990163,17.963886,95.88307880057802
1673611221.9911702,17.919987,95.89196603350061
1673611221.992177,17.8871,95.90085116243814
1673611221.993184,17.948332,95.90973839536073
1673611221.9941921,18.04067,95.9186340442236
1673611221.9951992,18.1264,95.9275212771462
1673611221.996206,18.160273,95.93640640608372
1673611221.9972131,18.1959,95.94529363900632
1673611221.9982202,18.222538,95.95418087192891
1673611221.999227,18.224749,95.96306600086645
1673611222.0002341,18.218691,95.97195323378904
1673611222.0012412,18.210613,95.98084046671163
1673611222.002248,18.179794,95.98972559564916
1673611222.0032551,18.122768,95.99861282857175
1673611222.0042622,18.067812,96.00750006149435
1673611222.005269,18.018843,96.01638519043188
1673611222.006277,17.975666,96.02528083929474
1673611222.0072842,17.981026,96.03416807221734
1673611222.008291,17.952467,96.04998383690986
1673611222.009298,17.8426,96.01354643419171
1673611222.0103052,17.744637,96.0554126340882
1673611222.011312,17.711893,95.9891610951359
1673611222.012319,17.689728,95.97812003075822
1673611222.0133262,17.693525,95.98217
1673611222.014333,17.72913,95.95358981120381
1673611222.01534,17.809738,95.945992
1673611222.0163472,17.909771,95.91689525059608
1673611222.017354,17.988022,95.90678555539569
1673611222.018361,18.056898,95.90302661183054
1673611222.0193691,18.126593,95.89926410865974
1673611222.0203762,18.244631,95.89550516509459
1673611222.021383,18.327282,95.89174711143086
1673611222.0223901,18.306799,95.8879881678657
1673611222.0233972,18.230808,95.88422922430055
1673611222.024404,18.196238,95.88047117063682
1673611222.0254111,18.191404,95.87671222707168
1673611222.0264182,18.178663,95.87295328350653
1673611222.027425,18.147892,95.86919522984279
1673611222.0284321,18.081299,95.86543628627764
1673611222.0294392,18.014828,95.8616773427125
1673611222.030446,17.979584,95.85791928904877
1673611222.031454,17.914747,95.85415678587796
1673611222.0324612,17.787355,95.85039784231282
1673611222.033468,17.662321,95.84663978864909
1673611222.034475,17.579573,95.84288084508393
1673611222.0354822,17.546373,95.83912190151878
1673611222.036489,17.54147,95.83536384785505
1673611222.037496,17.56563,95.8316049042899
1673611222.0385032,17.657753,95.82784596072474
1673611222.03951,17.799063,95.82408790706101
1673611222.040517,17.948042,95.82032896349587
1673611222.0415242,18.064447,95.81657001993072
1673611222.042531,18.122601,95.81281196626698
1673611222.043538,18.174986,95.80905302270183
1673611222.0445461,18.2197,95.80529051953104
1673611222.0455532,18.25617,95.8015315759659
1673611222.04656,18.280859,95.79777352230215
1673611222.0475671,18.303289,95.794014578737
1673611222.0485742,18.288794,95.79025563517186
1673611222.049581,18.257805,95.78649758150813
1673611222.0505881,18.228764,95.78273863794297
1673611222.0515952,18.128708,95.77897969437782
1673611222.052602,17.993118,95.7752216407141
1673611222.0536091,17.85063,95.77146269714895
1673611222.0546162,17.803583,95.76770375358379
1673611222.055623,17.827816,95.76394569992006
1673611222.056631,17.833946,95.76018319674927
1673611222.0576382,17.845631,95.75642425318412
1673611222.058645,17.842865,95.75266619952038
1673611222.059652,17.880632,95.74890725595523
1673611222.0606592,17.905899,95.74514831239009
1673611222.061666,17.961073,95.74139025872634
1673611222.062673,18.052402,95.7376313151612
1673611222.0636802,18.134958,95.73387237159605
1673611222.064687,18.189074,95.73011431793232
1673611222.065694,18.190851,95.72635537436717
1673611222.0667012,18.177029,95.72259643080201
1673611222.067708,18.128178,95.71883837713828
1673611222.068715,17.974054,95.71507943357314
1673611222.0697231,17.817093,95.71131693040233
1673611222.0707302,17.718817,95.70755798683719
1673611222.071737,17.654869,95.70379993317346
1673611222.0727441,17.583755,95.70004098960831
1673611222.0737512,17.572554,95.69628204604317
1673611222.074758,17.614431,95.692726
1673611222.0757651,17.725861,95.6894135040534
1673611222.0767722,17.830772,95.63397744341802
1673611222.077779,17.905611,95.63352454545455
1673611222.0787861,18.001053,95.60599786374134
1673611222.0797932,18.139694,95.60474456697459
1673611222.0808,18.216431,95.60564176334776
1673611222.081808,18.20809,95.5592568106782
1673611222.0828152,18.260401,95.56958915993073
1673611222.083822,18.332043,95.58265229316207
1673611222.084829,18.324278,95.56953052814508
1673611222.0858362,18.294083,95.55640876312808
1673611222.086843,18.250713,95.54329010458953
1673611222.08785,18.193544,95.53016833957254
1673611222.0888572,18.174746,95.51704657455554
1673611222.092885,18.095772,95.46456572744445
1673611222.093892,18.059351,95.45144396242745
1673611222.0949001,18.030165,95.4383097714966
1673611222.0959072,17.989754,95.42518800647962
1673611222.096914,17.930662,95.41206934794107
1673611222.0979211,17.874815,95.39894758292407
1673611222.0989282,17.850557,95.38582581790708
1673611222.099935,17.800121,95.37270715936853
1673611222.1009421,17.735092,95.35958539435153
1673611222.1019492,17.66184,95.34646362933452
1673611222.102956,17.605297,95.33334497079599
1673611222.1039631,17.629025,95.32022320577899
1673611222.1049702,17.677635,95.312836
1673611222.105977,17.729345,95.32092299928469
1673611222.106985,17.818272,95.32269331918951
1673611222.1079922,17.972012,95.30447681545064
1673611222.108999,18.131424,95.27777839723414
1673611222.110006,18.193377,95.258568
1673611222.1110132,18.24766,95.258568
1673611222.11202,18.29591,95.24970464878398
1673611222.113027,18.26759,95.240479
1673611222.1140342,18.16799,95.24169518803147
1673611222.115041,18.035551,95.24412353888579
1673611222.116048,17.908304,95.24655246476992
1673611222.1170552,17.78726,95.24898139065405
1673611222.118062,17.755358,95.25140974150838
1673611222.119069,17.783773,95.25383866739251
1673611222.1200771,17.823032,95.25626989339585
1673611222.1210842,17.831758,95.25869881927997
1673611222.122091,17.827238,95.2611271701343
1673611222.1230981,17.856857,95.26355609601843
1673611222.1241052,17.909866,95.26598502190257
1673611222.125112,18.065264,95.2684133727569
1673611222.1261191,18.232323,95.27084229864103
1673611222.1271262,18.367838,95.27327122452515
1673611222.128133,18.402649,95.27569957537948
1673611222.1291401,18.338821,95.26561986337624
1673611222.1301472,18.184553,95.26973186674613
1673611222.131154,18.108273,95.26536970553171
1673611222.132162,18.082478,95.258568
1673611222.1331692,18.042522,95.23544581330472
1673611222.134176,17.952707,95.24576372467223
1673611222.135183,17.874142,95.29400911874106
1673611222.1361902,17.858973,95.30089245922747
1673611222.137197,17.965063,95.294746
1673611222.138204,18.012615,95.29161083949482
1673611222.1392112,18.041151,95.28692639733922
1673611222.140218,18.037882,95.28224306418981
1673611222.141225,18.053196,95.2775586220342
1673611222.1422322,18.085266,95.276657
1673611222.143239,18.134092,95.276657
1673611222.144246,18.174528,95.2467329461135
1673611222.1452541,18.150032,95.25558767119695
1673611222.1462612,18.097694,95.28903686150178
1673611222.147268,18.044853,95.27938717095851
1673611222.1482751,18.004442,95.276657
1673611222.1492822,17.986315,95.28162623633162
1673611222.150289,17.956169,95.28742162021132
1673611222.1512961,17.921238,95.29321837642915
1673611222.1523032,17.901283,95.29901513264699
1673611222.15331,17.873348,95.30481051652669
1673611222.1543171,17.836662,95.31060727274452
1673611222.1553242,17.849596,95.31640402896234
1673611222.156331,17.899023,95.32219941284205
1673611222.157339,17.924049,95.32800165841235
1673611222.1583462,17.969631,95.33379841463018
1673611222.159353,18.037376,95.3395937985099
1673611222.16036,18.066467,95.34539055472771
1673611222.1613672,18.069857,95.35118731094555
1673611222.162374,18.061201,95.35698269482525
1673611222.163381,18.044445,95.36277945104308
1673611222.1643882,18.009682,95.3685762072609
1673611222.165395,17.982012,95.37437159114062
1673611222.166402,17.947033,95.38016834735843
1673611222.1674092,17.928377,95.38596510357627
1673611222.168416,17.897078,95.39176048745597
1673611222.169423,17.842264,95.3975572436738
1673611222.1704311,17.832167,95.40335948924411
1673611222.1714382,17.855679,95.40915624546193
1673611222.172445,17.887774,95.41495162934164
1673611222.1734521,17.901716,95.42074838555946
1673611222.1744592,17.922487,95.4265451417773
1673611222.175466,17.978645,95.432340525657
1673611222.1764731,18.041922,95.43813728187483
1673611222.1774802,18.052427,95.44393403809266
1673611222.178487,18.046127,95.44972942197236
1673611222.1794941,18.042835,95.4555261781902
1673611222.1805012,17.989561,95.46132293440802
1673611222.181508,17.846567,95.46711831828773
1673611222.182516,17.669485,95.47292056385803
1673611222.1835232,17.555893,95.47871732007586
1673611222.18453,17.536421,95.48451270395557
1673611222.185537,17.558994,95.49030946017339
1673611222.1865442,17.573587,95.49610621639123
1673611222.187551,17.634266,95.50190160027093
1673611222.188558,17.760839,95.50769835648876
1673611222.1895652,17.907293,95.51349511270658
1673611222.190572,18.013817,95.5192904965863
1673611222.191579,18.093056,95.52508725280411
1673611222.1925862,18.176668,95.53596908607534
1673611222.193593,18.304443,95.56295246161183
1673611222.1946,18.391951,95.55456629797378
1673611222.1956081,18.365362,95.57734947687173
1673611222.1966152,18.30966,95.55866115689079
1673611222.197622,18.242588,95.59493208390941
1673611222.1986291,18.168375,95.56990081139723
1673611222.1996362,18.149672,95.58026079661421
1673611222.200643,18.137146,95.5742078557807
1673611222.2016501,18.077021,95.6006157313835
1673611222.2026572,18.010284,95.59336096292526
1673611222.203664,18.001989,95.58610791197847
1673611222.2046711,17.99449,95.57885314352022
1673611222.2056782,17.990858,95.57159837506197
1673611222.206685,18.038002,95.5643453241152
1673611222.207693,18.114042,95.55708368561105
1673611222.2087002,18.153637,95.5498289171528
1673611222.209707,18.142363,95.54257586620602
1673611222.210714,18.085339,95.53532109774777
1673611222.2117212,18.052187,95.52806632928952
1673611222.212728,18.06411,95.52081327834273
1673611222.213735,18.085171,95.51355850988448
1673611222.2147422,18.092598,95.50630374142624
1673611222.215749,18.091251,95.49905069047945
1673611222.216756,18.073174,95.4917959220212
1673611222.2177632,18.058918,95.48454115356294
1673611222.21877,18.04685,95.47728810261617
1673611222.219777,18.020765,95.47003333415792
1673611222.2207851,17.977083,95.46277169565377
1673611222.2217922,17.91864,95.45551692719552
1673611222.222799,17.891548,95.44826387624875
1673611222.2238061,17.875513,95.44100910779049
1673611222.2248132,17.876209,95.43375433933224
1673611222.22582,17.892389,95.42650128838547
1673611222.2268271,17.919073,95.41924651992721
1673611222.2278342,17.935301,95.41199175146896
1673611222.228841,17.939556,95.40473870052217
1673611222.2298481,17.918497,95.39748393206392
1673611222.230855,17.88645,95.39023088111715
1673611222.231862,17.886042,95.3829761126589
1673611222.23287,17.93886,95.37571447415475
1673611222.2338772,17.991268,95.3684597056965
1673611222.234884,18.029058,95.36120665474972
1673611222.235891,18.067379,95.35395188629147
1673611222.2368982,18.104931,95.34669711783322
1673611222.237905,18.105171,95.33944406688644
1673611222.238912,18.035311,95.33218929842819
1673611222.2399192,17.915949,95.32493452996994
1673611222.240926,17.879023,95.31768147902315
1673611222.241933,17.86919,95.3104267105649
1673611222.2429402,17.80541,95.30317194210664
1673611222.243947,17.67326,95.29591889115987
1673611222.244954,17.572794,95.28866412270162
1673611222.2459621,17.491512,95.28140248419749
1673611222.2469692,17.469154,95.27035711227651
1673611222.247976,17.551662,95.26499015569861
1673611222.2489831,17.678068,95.28320854768717
1673611222.2499902,17.784159,95.28138730584028
1673611222.250997,17.818296,95.27897349260849
1673611222.2520041,17.841591,95.3059045193133
1673611222.253011,17.90667,95.27358251680572
1673611222.254018,18.062883,95.2476602553648
1673611222.2550251,18.237347,95.258568
1673611222.256032,18.304949,95.2602823332417
1673611222.257039,18.304371,95.26448264856248
1673611222.258047,18.284178,95.26868694145456
1673611222.2590542,18.260954,95.27288725677533
1673611222.260061,18.244751,95.27852202338902
1673611222.261068,18.22011,95.294746
1673611222.2620752,18.200396,95.28833579947607
1673611222.263082,18.196501,95.233751360515015
1673611222.264089,18.119499,95.19334056563245
1673611222.2650962,17.972853,95.24299483138842
1673611222.266103,17.834644,95.25070198187888
1673611222.26711,17.758121,95.20706236324583
1673611222.2681172,17.749708,95.2137016981402
1673611222.269124,17.741005,95.16510530102404
1673611222.270131,17.733313,95.150017
1673611222.2711391,17.719946,95.14836946277092
1673611222.2721462,17.663858,95.13926056583936
1673611222.273153,17.633833,95.13015382537014
1673611222.2741601,17.752304,95.12104492843861
1673611222.275167,17.956049,95.11193818796939
1673611222.276174,18.163422,95.10282929103784
1673611222.2771811,18.334927,95.0937203941063
1673611222.278188,18.386374,95.08461365363708
1673611222.279195,18.305334,95.07550475670553
1673611222.2802022,18.25629,95.06639585977399
1673611222.281209,18.276196,95.05728911930477
1673611222.282216,18.281652,95.04818022237322
1673611222.283224,18.241795,95.03906269959231
1673611222.2842312,18.169624,95.02995380266076
1673611222.285238,18.102791,95.02084706219155
1673611222.286245,18.044037,95.01173816526
1673611222.2872522,17.988359,95.00262926832845
1673611222.288259,17.960255,94.99352252785924
1673611222.289266,17.930492,94.98441363092769
1673611222.2902732,17.888517,94.97530473399614
1673611222.29128,17.8708,94.96619799352693
1673611222.292287,17.874527,94.95708909659538
1673611222.2932942,17.890945,94.94798019966383
1673611222.294301,17.903616,94.93887345919462
1673611222.295308,17.913713,94.92976456226307
1673611222.2963161,17.936552,94.92064703948216
1673611222.297323,17.955423,94.91154029901296
1673611222.29833,18.007231,94.9024314020814
1673611222.2993371,18.048676,94.89332250514985
1673611222.300344,18.066515,94.88421576468065
1673611222.301351,18.091421,94.8751068677491
1673611222.3023582,18.107479,94.86599797081755
1673611222.303365,18.093391,94.85689123034834
1673611222.304372,18.039204,94.84778233341679
1673611222.3053792,17.951241,94.83867343648524
1673611222.306386,17.867771,94.82956669601603
1673611222.307393,17.787813,94.82045779908448
1673611222.308401,17.70742,94.81134027630355
1673611222.3094082,17.64934,94.802231379372
1673611222.310415,17.606499,94.7931246389028
1673611222.311422,17.558058,94.7714134553465
1673611222.3124292,17.55195,94.76909023795899
1673611222.313436,17.551062,94.77091109307875
1673611222.314443,17.613207,94.752045
1673611222.3154502,17.736341,94.752045
1673611222.316457,17.880512,94.74300863484487
1673611222.317464,18.015188,94.75230329113019
1673611222.3184712,18.128227,94.74225686830198
1673611222.319478,18.203545,94.6970344443914
1673611222.320485,18.180346,94.67441336541714
1673611222.3214931,18.145536,94.66434512387477
1673611222.3225,18.189817,94.65428878895673
1673611222.323507,18.216888,94.64423007271384
1673611222.3245142,18.280235,94.63417135647093
1673611222.325521,18.364594,94.6241150215529
1673611222.326528,18.340937,94.61405630531
1673611222.3275352,18.252563,94.6039975890671
1673611222.328542,18.144863,94.59394125414907
1673611222.329549,18.010668,94.58388253790618
1673611222.3305562,17.949989,94.57382382166327
1673611222.331563,17.916525,94.56376748674525
1673611222.33257,17.853971,94.55370877050234
1673611222.333578,17.805002000000002,94.54364052895997
1673611222.3345852,17.777355,94.53358181271707
1673611222.335592,17.763891,94.52352547779904
1673611222.336599,17.770672,94.51346676155615
1673611222.3376062,17.819979,94.50340804531325
1673611222.338613,17.896885,94.49335171039522
1673611222.33962,17.984705,94.48329299415231
1673611222.3406272,18.081299,94.47323427790941
1673611222.341634,18.158398,94.46317794299138
1673611222.342641,18.206839,94.45311922674848
1673611222.3436482,18.226601,94.44306051050559
1673611222.344655,18.210854,94.43300417558756
1673611222.345662,18.128756,94.42294545934466
1673611222.3466702,18.056898,94.41287721780229
1673611222.347677,18.001509,94.40282088288426
1673611222.348684,17.893566,94.39276216664135
1673611222.3496912,17.793894,94.38270345039845
1673611222.350698,17.729826,94.37264711548042
1673611222.351705,17.758194,94.36258839923752
1673611222.3527122,17.778605,94.35252968299463
1673611222.353719,17.792259,94.3424733480766
1673611222.354726,17.790937,94.3324146318337
1673611222.3557332,17.793343,94.32235591559079
1673611222.35674,17.820339,94.31229958067277
1673611222.357747,17.854765,94.30224086442986
1673611222.358755,17.899673,94.29217262288749
1673611222.3597622,17.936069,94.2821139066446
1673611222.360769,17.962395,94.27205757172656
1673611222.361776,17.962179,94.26199885548367
1673611222.3627832,17.954702,94.25194013924077
1673611222.36379,17.939581,94.24188380432274
1673611222.364797,17.904505,94.23182508807983
1673611222.3658042,17.944605,94.22176637183694
1673611222.366811,17.974943,94.2117100369189
1673611222.367818,17.959942,94.1954117958989
1673611222.3688252,17.956505,94.17719597854588
