measure_time,emg_ch_1,grip_force_inter
1673611580.012125,9.400428,-0.365824
1673611580.013132,9.377517,-0.4018815744934446
1673611580.014139,9.371627,-0.38441344015259893
1673611580.015146,9.390571,-0.4193407114926085
1673611580.016153,9.399538,-0.38378306124830064
1673611580.01716,9.400476,-0.37913279558366986
1673611580.018167,9.415597,-0.37448142874317714
1673611580.019174,9.380691,-0.3698300619026845
1673611580.020181,9.3529,-0.3651797962380537
1673611580.021188,9.360881,-0.360528429397561
1673611580.022195,9.390523,-0.35587706255706836
1673611580.023202,9.39235,-0.3512267968924376
1673611580.024209,9.400596,-0.3465754300519449
1673611580.025217,9.427593,-0.34191965850800476
1673611580.0262241,9.447042,-0.33726829166751215
1673611580.027231,9.444205,-0.3326180260028813
1673611580.028238,9.429156,-0.32796665916238865
1673611580.0292451,9.418818,-0.323315292321896
1673611580.030252,9.410789,-0.31866502665726515
1673611580.031259,9.379104,-0.31401365981677254
1673611580.032266,9.338572,-0.3093633941521417
1673611580.033273,9.337729,-0.30471202731164904
1673611580.03428,9.372757,-0.30006066047115637
1673611580.035287,9.401678,-0.2954103948065256
1673611580.036294,9.39045,-0.2907590279660329
1673611580.037302,9.376195,-0.28610325642209283
1673611580.038309,9.37016,-0.28145188958160017
1673611580.039316,9.3698,-0.2768016239169694
1673611580.040323,9.384777,-0.27215025707647666
1673611580.04133,9.408289,-0.267498890235984
1673611580.042337,9.414299,-0.2628486245713532
1673611580.043344,9.413169,-0.25819725773086055
1673611580.044351,9.421055,-0.2535458908903679
1673611580.045358,9.422617,-0.24889562522573708
1673611580.046365,9.420069,-0.2442442583852444
1673611580.047372,9.424035,-0.23959289154475175
1673611580.048379,9.428483,-0.23494262588012094
1673611580.049386,9.457428,-0.23029125903962827
1673611580.050394,9.482815,-0.22563548749568818
1673611580.0514011,9.46803,-0.22098412065519552
1673611580.052408,9.437882,-0.2163338549905647
1673611580.053415,9.41401,-0.21168248815007204
1673611580.054422,9.404226,-0.20703222248544123
1673611580.055429,9.404587,-0.20238085564494857
1673611580.056436,9.398793,-0.1977294888044559
1673611580.057443,9.387734,-0.19307922313982512
1673611580.05845,9.388119,-0.18842785629933245
1673611580.059457,9.375618,-0.1837764894588398
1673611580.060464,9.369368,-0.17912622379420898
1673611580.061471,9.377349,-0.1744748569537163
1673611580.062479,9.375714,-0.16981908540977622
1673611580.063486,9.382109,-0.14723489749702026
1673611580.064493,9.391148,-0.11921900453028135
1673611580.0655,9.409851,-0.1170860929899857
1673611580.066507,9.407086,-0.094472
1673611580.067514,9.38057,-0.094472
1673611580.068521,9.380835,-0.0873079969003338
1673611580.069528,9.405235,-0.06909134350417163
1673611580.070535,9.426752,-0.08053648283261802
1673611580.071542,9.441056,-0.08993034120171674
1673611580.072549,9.416294,-0.059732098538678106
1673611580.073556,9.376219,-0.06314586477186397
1673611580.074563,9.353789,-0.06656043937972025
1673611580.075571,9.361794,-0.06997824748625822
1673611580.076578,9.373863,-0.07339201371944408
1673611580.077585,9.383887,-0.07186290653314259
1673611580.078592,9.398865,-0.042594438721983784
1673611580.079599,9.397976,-0.06332183647199047
1673611580.080606,9.369415,-0.0932622143190646
1673611580.081613,9.347875,-0.0849123209918242
1673611580.08262,9.368862,-0.07656440443857226
1673611580.083627,9.39497,-0.06821451111133187
1673611580.084634,9.393648,-0.059864617784091474
1673611580.085641,9.398096,-0.05151670123083953
1673611580.086648,9.416944,-0.04316680790359914
1673611580.087656,9.422497,-0.03480900748040491
1673611580.088663,9.422449,-0.026459114153164515
1673611580.08967,9.407086,-0.018111197599912573
1673611580.090677,9.388288,-0.009761304272672175
1673611580.091684,9.386436,-0.0014114109454317902
1673611580.092691,9.391845,0.006936505607820151
1673611580.093698,9.398865,0.01528639893506055
1673611580.094705,9.409636,0.023636292262300934
1673611580.095712,9.420693,0.03198420881555289
1673611580.096719,9.439133,0.04033410214279329
1673611580.097726,9.455601,0.04868399547003366
1673611580.098733,9.442739,0.057031912023285614
1673611580.09974,9.456129,0.06538180535052601
1673611580.100748,9.539575,0.07373960577372024
1673611580.101755,9.583569,0.08208752232697217
1673611580.102762,9.533805,0.09043741565421257
1673611580.103769,9.477886,0.09878730898145296
1673611580.104776,9.423747,0.10713522553470489
1673611580.105783,9.425382,0.11548511886194532
1673611580.10679,9.448701,0.12383501218918569
1673611580.107797,9.461995,0.13218292874243762
1673611580.108804,9.470218,0.14053282206967802
1673611580.109811,9.468702,0.14888271539691844
1673611580.110818,9.432329,0.1572306319501704
1673611580.111825,9.395956,0.1655805252774108
1673611580.112833,9.397399,0.17393832570060502
1673611580.11384,9.421703,0.18228821902784537
1673611580.114847,9.399707,0.19063613558109732
1673611580.115854,9.330229,0.19898602890833772
1673611580.116861,9.339437,0.20733592223557812
1673611580.117868,9.347201,0.21568383878883007
1673611580.118875,9.302967,0.22403373211607042
1673611580.119882,9.302053,0.23238362544331082
1673611580.120889,9.344966,0.24073154199656277
1673611580.121896,9.321767,0.24908143532380317
1673611580.122903,9.288255,0.2574313286510436
1673611580.12391,9.31768,0.2657792452042955
1673611580.124917,9.337032,0.2741291385315359
1673611580.125925,9.354198,0.2824869389547301
1673611580.126932,9.362275,0.2908348555079821
1673611580.127939,9.377637,0.29918474883522245
1673611580.128946,9.393191,0.303504
1673611580.129953,9.393335,0.2945888919885551
1673611580.13096,9.375401,0.3125525
1673611580.131967,9.353477,0.32134253349225267
1673611580.132974,9.365617,0.322097426323319
1673611580.133981,9.390883,0.35853809966618977
1673611580.134988,9.384729,0.35676111635670005
1673611580.135995,9.377589,0.3493662135876043
1673611580.137002,9.371459,0.3675825996661898
1673611580.13801,9.358189,0.3805796954824766
1673611580.139017,9.363598,0.389206570956244
1673611580.140024,9.37807,0.39783140408259815
1673611580.141031,9.388239,0.40645827955636554
1673611580.142038,9.38997,0.41508515503013294
1673611580.143045,9.382518,0.423709988156487
1673611580.144052,9.369488,0.4323368636302544
1673611580.145059,9.383119,0.4409637391040218
1673611580.146066,9.386268,0.4495885722303759
1673611580.147073,9.390018,0.45821544770414335
1673611580.14808,9.396413,0.46684232317791075
1673611580.149087,9.394273,0.47546715630426484
1673611580.150094,9.388455,0.48409403177803223
1673611580.151102,9.38598,0.4927290766414528
1673611580.152109,9.388215,0.5013539097678069
1673611580.153116,9.384369,0.5099807852415743
1673611580.154123,9.370305,0.5186076607153417
1673611580.15513,9.361554,0.5272324938416958
1673611580.156137,9.360929,0.5358593693154632
1673611580.157144,9.364343,0.5444862447892306
1673611580.158151,9.374992,0.5531110779155847
1673611580.159158,9.381748,0.5617379533893521
1673611580.160165,9.379464,0.5703648288631195
1673611580.161172,9.382036,0.5789896619894737
1673611580.162179,9.385474,0.5876165374632409
1673611580.163187,9.38658,0.5962515823266616
1673611580.164194,9.384777,0.6048784578004289
1673611580.165201,9.397927,0.6135032909267831
1673611580.166208,9.408529,0.6221301664005505
1673611580.167215,9.40324,0.6307570418743179
1673611580.168222,9.404226,0.6393818750006719
1673611580.169229,9.404178,0.6480087504744394
1673611580.170236,9.408914,0.6566356259482067
1673611580.171243,9.412568,0.6652604590745609
1673611580.17225,9.412761,0.6738873345483283
1673611580.173257,9.396485,0.6825142100220957
1673611580.174264,9.39598,0.6911390431484498
1673611580.175271,9.385811,0.6997659186222172
1673611580.176279,9.368886,0.7084009634856377
1673611580.177286,9.363333,0.717025796611992
1673611580.178293,9.368935,0.7256526720857592
1673611580.1793,9.372709,0.7342795475595266
1673611580.180307,9.373021,0.7429043806858808
1673611580.181314,9.382398,0.7515312561596481
1673611580.182321,9.39348,0.7650447186456842
1673611580.183328,9.3961,0.7832565551847437
1673611580.184335,9.4225930000000009,0.8110047529804483
1673611580.185342,9.447547,0.828119
1673611580.186349,9.429805,0.8183349854588796
1673611580.187356,9.408361,0.8496806366237483
1673611580.188364,9.390811,0.8622744105865522
1673611580.189371,9.387494,0.8665884306151646
1673611580.190378,9.384584,0.8927050831942789
1673611580.191385,9.379584,0.906676307177944
1673611580.192392,9.382518,0.9174846978885374
1673611580.193399,9.393215,0.9282905297945117
1673611580.194406,9.394442,0.939098920505105
1673611580.195413,9.37932,0.9499073112156984
1673611580.19642,9.363453,0.9607131431216727
1673611580.197427,9.346529,0.971521533832266
1673611580.198434,9.345663,0.9823299245428593
1673611580.199441,9.359703,0.9931357564488337
1673611580.200448,9.399611,1.003944147159427
1673611580.201456,9.42115,1.0147627730884963
1673611580.202463,9.41127,1.0255686049944706
1673611580.20347,9.3911,1.036376995705064
1673611580.204477,9.37819,1.0471853864156573
1673611580.205484,9.390403,1.0579912183216316
1673611580.206491,9.396004,1.068799609032225
1673611580.207498,9.402519,1.0796079997428183
1673611580.208505,9.41252,1.0904138316487926
1673611580.209512,9.403144,1.0965225659117999
1673611580.210519,9.396822,1.081383
1673611580.211526,9.395066,1.081383
1673611580.212533,9.382926,1.081383
1673611580.213541,9.366603,1.0744389632808775
1673611580.214548,9.364896,1.056009231044349
1673611580.215555,9.365809,1.1069249785407727
1673611580.216562,9.365569,1.1317950379022645
1673611580.217569,9.384584,1.1135800398187887
1673611580.218576,9.39687,1.1014489850414142
1673611580.219583,9.381459,1.1102208178302104
1673611580.22059,9.371387,1.1189926506190064
1673611580.221597,9.388191,1.1277624067428431
1673611580.222604,9.388359,1.1365342395316391
1673611580.223611,9.377589,1.1453060723204351
1673611580.224618,9.389682,1.1540758284442718
1673611580.225625,9.412592,1.1628476612330678
1673611580.226633,9.441609,1.1716278006817018
1673611580.22764,9.427185,1.1803975568055385
1673611580.228647,9.385763,1.1891693895943345
1673611580.229654,9.375498,1.1979412223831305
1673611580.230661,9.419419,1.2067109785069672
1673611580.231668,9.449903,1.2154828112957632
1673611580.232675,9.446513,1.2242546440845592
1673611580.233682,9.430984,1.2330244002083959
1673611580.234689,9.441393,1.2417962329971919
1673611580.235696,9.452884,1.2505680657859881
1673611580.236703,9.43495,1.2593378219098246
1673611580.23771,9.414155,1.2681096546986208
1673611580.238718,9.410092,1.2768897941472548
1673611580.239725,9.418242,1.2856616269360508
1673611580.240732,9.420045,1.2944313830598873
1673611580.241739,9.4149,1.3032032158486835
1673611580.242746,9.405308,1.3119750486374795
1673611580.243753,9.38997,1.3207448047613162
1673611580.24476,9.376603,1.3295166375501122
1673611580.245767,9.38444,1.3422093148986889
1673611580.246774,9.404731,1.3604208841201717
1673611580.247781,9.407832,1.3864545522174536
1673611580.248788,9.412785,1.3752309029797378
1673611580.249795,9.415189,1.350776867906533
1673611580.250802,9.424637,1.3790188259418217
1673611580.25181,9.441128,1.4056000906056272
1673611580.252817,9.428916,1.4251
1673611580.253824,9.429324,1.4422832560801144
1673611580.254831,9.472982,1.4639258222910756
1673611580.255838,9.476035,1.4694558685498351
1673611580.256845,9.483055,1.4749872243151678
1673611580.257852,9.534934,1.4805185800805005
1673611580.258859,9.577462,1.4860486263392598
1673611580.259866,9.576332,1.4915799821045925
1673611580.260873,9.599724,1.4971113378699252
1673611580.26188,9.604893,1.5026413841286848
1673611580.262887,9.575515,1.5081727398940175
1673611580.263895,9.537795,1.513709333685643
1673611580.264902,9.49683,1.5192406894509758
1673611580.265909,9.458894,1.5247707357097353
1673611580.266916,9.424949,1.530302091475068
1673611580.267923,9.374969,1.5358334472404007
1673611580.26893,9.307102,1.5413634934991602
1673611580.269937,9.267941,1.546894849264493
1673611580.270944,9.270657,1.5563562575107295
1673611580.271951,9.284553,1.580584333810205
1673611580.272958,9.280729,1.538775086054827
1673611580.2739651,9.262002,1.561731808536004
1673611580.274972,9.267796,1.5183657453505006
1673611580.275979,9.276667,1.5365841373390556
1673611580.276987,9.287004,1.5455309132300357
1673611580.277994,9.31179,1.5219800948974724
1673611580.279001,9.339869,1.551723
1673611580.280008,9.322176,1.5550255284552845
1673611580.281015,9.316406,1.5723289746918436
1673611580.282022,9.329268,1.5896365183582482
1673611580.283029,9.342707,1.6069440620246525
1673611580.284036,9.351481,1.6242475082612116
1673611580.285043,9.349751,1.641555051927616
1673611580.28605,9.35927,1.6588625955940204
1673611580.287057,9.373214,1.6761660418305795
1673611580.288064,9.387878,1.693473585496984
1673611580.289072,9.394586,1.7107975188827695
1673611580.290079,9.392687,1.7281050625491738
1673611580.291086,9.395211,1.745408508785733
1673611580.292093,9.392422,1.7627160524521375
1673611580.2931,9.386821,1.7800235961185418
1673611580.294107,9.379392,1.7973270423551009
1673611580.295114,9.376195,1.8146345860215054
1673611580.2961211,9.375185,1.83194212968791
1673611580.297128,9.371555,1.8492455759244688
1673611580.298135,9.357226,1.8665531195908733
1673611580.2991421,9.34374,1.8838606632572779
1673611580.300149,9.338812,1.89544
1673611580.301157,9.344052,1.9077753695755841
1673611580.302164,9.343692,1.931618
1673611580.303171,9.357467,1.9444592495828368
1673611580.304178,9.39824,1.987440599427754
1673611580.305185,9.42769,2.022071
1673611580.306192,9.434757,2.028871084147795
1673611580.307199,9.429324,2.06786752074392
1673611580.308206,9.415934,2.077235727706247
1673611580.309213,9.403649,2.0235417852329327
1673611580.31022,9.423867,2.027273074616662
1673611580.311227,9.448965,2.0310043640003905
1673611580.312234,9.447571,2.034734770029625
1673611580.313241,9.443965,2.038466059413354
1673611580.314249,9.441874,2.04220088221506
1673611580.315256,9.43394,2.045932171598789
1673611580.316263,9.431464,2.0496625776280237
1673611580.31727,9.429373,2.0533938670117524
1673611580.3182771,9.410621,2.057125156395481
1673611580.319284,9.403169,2.060855562424716
1673611580.320291,9.427737,2.064586851808445
1673611580.3212981,9.447547,2.0683181411921736
1673611580.322305,9.447019,2.0720485472214083
1673611580.323312,9.425742,2.075779836605137
1673611580.3243191,9.411847,2.0143852596566525
1673611580.325326,9.399418,2.128866390941597
1673611580.326334,9.366386,2.1329473688602767
1673611580.327341,9.322176,2.1464990231282783
1673611580.328348,9.330878,2.170844263816814
1673611580.329355,9.360785,2.196039495056637
1673611580.330362,9.386772,2.2212347262964593
1673611580.331369,9.393937,2.2464239927561596
1673611580.332376,9.404298,2.271619223995982
1673611580.333383,9.433964,2.296814455235805
1673611580.33439,9.454014,2.3220037216955047
1673611580.335397,9.476275,2.3471989529353277
1673611580.336404,9.519381,2.3723941841751506
1673611580.337411,9.524068,2.3975834506348503
1673611580.338418,9.493561,2.4227786818746733
1673611580.339426,9.481829,2.4479977722349884
1673611580.3404331,9.461707,2.4731930034748113
1673611580.34144,9.450552,2.498382269934511
1673611580.342447,9.438243,2.523577501174334
1673611580.3434541,9.45875,2.548772732414157
1673611580.344461,9.461394,2.5739619988738567
1673611580.345468,9.415646,2.5991572301136796
1673611580.3464751,9.432449,2.6243524613535025
1673611580.347482,9.562701,2.6495417278132023
1673611580.348489,9.674874,2.674736959053025
1673611580.3494961,9.733245,2.6999321902928477
1673611580.350503,9.76255,2.725121456752548
1673611580.351511,9.752742,2.750340547112863
1673611580.352518,9.675571,2.775535778352686
1673611580.353525,9.535439,2.8007250448123857
1673611580.354532,9.463702,2.8259202760522086
1673611580.355539,9.459928,2.8511155072920316
1673611580.356546,9.462933,2.876304773751731
1673611580.357553,9.442931,2.9015000049915542
1673611580.35856,9.379392,2.9266952362313767
1673611580.359567,9.343475,2.9518845026910765
1673611580.360574,9.329484,2.9770797339308994
1673611580.361581,9.334388,3.0022749651707223
1673611580.362588,9.3529,3.027464231630422
1673611580.363595,9.392855,3.052659462870245
1673611580.364603,9.435094,3.07787855323056
1673611580.3656101,9.485411,3.103073784470383
1673611580.366617,9.576645,3.128263050930083
1673611580.367624,9.639872,3.1534582821699058
1673611580.3686311,9.652925,3.1786535134097287
1673611580.369638,9.627803,3.2038427798694284
1673611580.370645,9.518082,3.2290380111092514
1673611580.3716521,9.412279,3.2542332423490743
1673611580.372659,9.38521,3.279422508808774
1673611580.373666,9.370617,3.304617740048597
1673611580.3746731,9.340182,3.3359574341917027
1673611580.37568,9.389537,3.378825
1673611580.376688,9.50873,3.378825
1673611580.377695,9.659345,3.38302346948021
1673611580.378702,9.81205,3.4796853698630135
1673611580.379709,9.962183,3.5534871178082192
1673611580.380716,10.044065,3.5930248056828598
1673611580.381723,9.977569,3.613090378995434
1673611580.38273,9.830441,3.4560203671912255
1673611580.383737,9.71156,3.5078761577875928
1673611580.384744,9.624413,3.6496153059067273
1673611580.385751,9.602296,3.7913880176413293
1673611580.386758,9.570322,3.9331607293759308
1673611580.387765,9.436608,4.074899877495065
1673611580.388772,9.265608,4.216672589229667
1673611580.38978,9.187837,4.358579555426139
1673611580.3907871,9.116725,4.500352267160741
1673611580.391794,9.140718,4.642091415279875
1673611580.392801,9.213392,4.783864127014477
1673611580.3938081,9.217167,4.925636838749078
1673611580.394815,9.305996,5.067375986868213
1673611580.395822,9.38985,5.209148698602815
1673611580.3968291,9.447019,5.350921410337417
1673611580.397836,9.482935,5.492660558456551
1673611580.398843,9.503129,5.634433270191153
1673611580.3998501,9.490627,5.776205981925755
1673611580.400857,9.442186,5.917945130044889
1673611580.401865,9.370016,6.059852096241361
1673611580.402872,9.313136,6.201624807975962
1673611580.403879,9.27871,6.3433639560950965
1673611580.404886,9.263276,6.485136667829699
1673611580.405893,9.182428,6.626909379564301
1673611580.4069,9.103407,6.768648527683435
1673611580.407907,9.141463,6.910421239418037
1673611580.408914,9.220196,7.052193951152638
1673611580.409921,9.250246,7.1939330992717725
1673611580.410928,9.283422,7.335705811006374
1673611580.411935,9.346047,7.477478522740977
1673611580.412942,9.464375,7.619217670860111
1673611580.413949,9.515342,7.760990382594713
1673611580.414957,9.557292,7.902897348791185
1673611580.4159641,9.62136,8.044670060525785
1673611580.416971,9.672543,8.186409208644921
1673611580.417978,9.712354,8.328181920379523
1673611580.4189851,9.631241,8.469954632114124
1673611580.419992,9.480795,8.611693780233258
1673611580.420999,9.339245,8.75346649196786
1673611580.4220061,9.292438,8.895239203702463
1673611580.423013,9.383286,9.036978351821597
1673611580.42402,9.427786,9.178751063556199
1673611580.4250271,9.321527,9.3205237752908
1673611580.426034,9.157162,9.462262923409934
1673611580.427042,9.048282,9.604169889606407
1673611580.428049,9.083309,9.745942601341008
1673611580.429056,9.123745,9.887681749460143
1673611580.430063,9.176514,10.067597287553648
1673611580.43107,9.188799,10.35395639237187
1673611580.432077,9.204906,10.68722109966619
1673611580.433084,9.229163,10.977500391408116
1673611580.434091,9.222119,11.23927028816385
1673611580.435098,9.266594,11.512294674773486
1673611580.436105,9.309026,11.778787518854417
1673611580.437112,9.366723,12.069047303643725
1673611580.438119,9.453894,12.386312278969957
1673611580.439126,9.636313,12.684505021413889
1673611580.440134,9.776999,13.020498166454175
1673611580.4411411,9.806184,13.356173437185058
1673611580.442148,9.807507,13.691769239338589
1673611580.443155,9.799404,14.027444510069472
1673611580.4441621,9.821979,14.363119780800353
1673611580.445169,9.82443,14.698715582953884
1673611580.446176,9.826979,15.034390853684767
1673611580.4471831,9.886744,15.37006612441565
1673611580.44819,9.914438,15.705661926569181
1673611580.449197,9.844937,16.041337197300063
1673611580.4502041,9.743077,16.377012468030944
1673611580.451211,9.711224,16.712608270184475
1673611580.452219,9.77659,17.048601415224763
1673611580.453226,9.889941,17.384276685955648
1673611580.454233,9.852462,17.719872488109175
1673611580.45524,9.731466,18.05554775884006
1673611580.456247,9.564216,18.39122302957094
1673611580.457254,9.538276,18.726818831724472
1673611580.458261,9.650281,19.062494102455354
1673611580.459268,9.731707,19.39816937318624
1673611580.460275,9.575154,19.73376517533977
1673611580.461282,9.310011,20.06944044607065
1673611580.462289,8.875166,20.405115716801532
1673611580.463296,8.926373,20.740711518955067
1673611580.464303,9.130476,21.076386789685948
1673611580.465311,9.37355,21.412379934726232
1673611580.4663181,9.805631,21.748055205457113
1673611580.467325,10.159988,22.083651007610648
1673611580.468332,10.222711,22.41932627834153
1673611580.4693391,10.119216,22.75500154907241
1673611580.470346,9.965669,23.090597351225945
1673611580.471353,9.72822,23.426272621956826
1673611580.4723601,9.477069,23.761947892687708
1673611580.473367,9.363021,24.097543694841242
1673611580.474374,9.329677,24.433218965572124
1673611580.4753811,9.312319,24.768894236303005
1673611580.476388,9.286404,25.104490038456536
1673611580.477396,9.242409,25.440483183496823
1673611580.478403,9.198318,25.776158454227705
1673611580.47941,9.146319,26.111754256381236
1673611580.480417,9.03881,26.447429527112117
1673611580.481424,8.93921,26.783104797843002
1673611580.482431,8.907476,27.11870059999653
1673611580.483438,8.93457,27.454375870727414
1673611580.484445,9.026886,27.790051141458296
1673611580.485452,9.1756,28.125646943611827
1673611580.486459,9.286884,28.461322214342708
1673611580.487466,9.305828,28.796997485073593
1673611580.488473,9.394225,29.132593287227124
1673611580.48948,9.605301,29.468268557958005
1673611580.490488,9.648334,29.804261702998293
1673611580.4914951,9.589531,30.139936973729174
1673611580.492502,9.504331,30.475532775882705
1673611580.493509,9.43269,30.811208046613586
1673611580.4945161,9.408505,31.199421107032183
1673611580.495523,9.438989,31.64463719337148
1673611580.49653,9.431584,32.88375854640406
1673611580.4975371,9.280874,33.25546470644391
1673611580.498544,9.15995,33.6803660113399
1673611580.499551,9.083284,34.0929030552074
1673611580.5005581,9.044195,34.50726989976133
1673611580.501565,9.081963,34.91733170546105
1673611580.502573,9.169278,35.373464193673534
1673611580.50358,9.320782,35.298996244513006
1673611580.504587,9.507336,35.807900739369884
1673611580.505594,9.58679,36.316925742039885
1673611580.506601,9.499307,36.825950744709885
1673611580.507608,9.50147,37.334855239566764
1673611580.508615,9.487767,37.843880242236764
1673611580.509622,9.274719,38.352905244906765
1673611580.510629,9.159734,38.861809739763636
1673611580.511636,9.176994,39.370834742433644
1673611580.512643,9.239789,39.879859745103644
1673611580.51365,9.240991,40.388764239960516
1673611580.514657,9.210724,40.89778924263052
1673611580.515665,9.206541,41.407296276553055
1673611580.5166721,9.247602,41.916321279223055
1673611580.517679,9.336287,42.42522577407993
1673611580.518686,9.457235,42.934250776749934
1673611580.5196931,9.543084,43.443275779419935
1673611580.5207,9.617441,43.952180274276806
1673611580.521707,9.690717,44.461205276946814
1673611580.5227141,9.73399,44.970230279616814
1673611580.523721,9.874844,45.479134774473685
1673611580.524728,9.961246,45.98815977714369
1673611580.525735,9.897322,46.49706427200056
1673611580.526742,9.844288,47.006089274670565
1673611580.52775,9.852751,47.515596308593096
1673611580.528757,9.861116,48.024621311263104
1673611580.529764,9.832051,48.533525806119975
1673611580.530771,9.735721,49.042550808789976
1673611580.531778,9.565659,49.55157581145998
1673611580.532785,9.436921,50.060480306316855
1673611580.533792,9.519765,50.569505308986855
1673611580.534799,9.628524,51.07853031165686
1673611580.535806,9.75731,51.58743480651373
1673611580.536813,10.036492,52.096459809183735
1673611580.53782,10.112917,52.60548481185374
1673611580.538827,10.045724,53.114389306710606
1673611580.539834,9.982088,53.623414309380614
1673611580.540842,9.822412,54.132921343303146
1673611580.5418491,9.509692,54.64194634597315
1673611580.542856,9.256713,55.15085084083002
1673611580.543863,9.267892,55.659875843500025
1673611580.5448701,9.140189,56.16890084617003
1673611580.545877,9.038593,56.6778053410269
1673611580.546884,9.052994,57.186830343696904
1673611580.547891,9.16108,57.5718571855031
1673611580.548898,9.225845,57.882535845493564
1673611580.549905,9.279504,58.246459322842156
1673611580.550912,9.388119,58.556277087267524
1673611580.551919,9.487551,58.88395254935622
1673611580.552927,9.439854,59.19564703790227
1673611580.553934,9.332922,59.57490226609442
1673611580.554941,9.232048,59.85013808321412
1673611580.555948,9.109008,60.17660625067659
1673611580.556955,9.026093,60.470762201260094
1673611580.557962,9.01638,60.764848512650744
1673611580.558969,9.129178,61.05900446323424
1673611580.559976,9.320877,61.35316041381774
1673611580.560983,9.375642,61.64724672520839
1673611580.56199,9.286548,61.941402675791885
1673611580.562997,9.319628,62.235558626375386
1673611580.564004,9.431512,62.52964493776604
1673611580.565011,9.582174,62.82380088834953
1673611580.566019,9.795414,63.11823539570442
1673611580.5670261,10.19516,63.41239134628792
1673611580.568033,10.768935,63.70647765767857
1673611580.56904,11.266142,64.00063360826206
1673611580.570047,11.505489,64.29471991965272
1673611580.571054,11.516837,64.58887587023621
1673611580.572061,11.24126,64.88303182081971
1673611580.573068,10.529852,65.17711813221037
1673611580.574075,9.69942,65.47127408279385
1673611580.575082,9.078404,65.76543003337736
1673611580.576089,8.688178,66.05951634476801
1673611580.577096,8.533165,66.3536722953515
1673611580.578104,8.364641,66.6481068027064
1673611580.579111,8.201238,66.94226275328988
1673611580.580118,8.185971,67.23634906468054
1673611580.581125,8.303554,67.53050501526404
1673611580.582132,8.453134,67.82466096584753
1673611580.583139,8.648079,68.11874727723819
1673611580.584146,8.884686,68.41290322782169
1673611580.585153,9.089896,68.70705917840517
1673611580.58616,9.235654,69.00114548979583
1673611580.587167,9.298327,69.29530144037933
1673611580.588174,9.289721,69.58945739096282
1673611580.589181,9.220364,69.88354370235348
1673611580.590188,9.217071,70.17769965293698
1673611580.591196,9.22837,70.47213416029186
1673611580.592203,9.137015,70.76622047168252
1673611580.59321,9.035516,71.060376422266
1673611580.594217,9.019385,71.3545323728495
1673611580.595224,9.084487,71.64861868424015
1673611580.596231,9.136102,71.94277463482365
1673611580.597238,9.144203,72.23693058540715
1673611580.598245,9.180985,72.53101689679781
1673611580.599252,9.180601,72.8251728473813
1673611580.600259,9.242601,73.1193287979648
1673611580.601266,9.321214,73.413415109355455
1673611580.602273,9.347971,73.70757105993894
1673611580.603281,9.368261,74.00200556729384
1673611580.604288,9.389657,74.29616151787732
1673611580.605295,9.395908,74.59024782926798
1673611580.606302,9.335085,74.88440377985148
1673611580.607309,9.247722,75.17855973043497
1673611580.608316,9.23474,75.47264604182563
1673611580.609323,9.260464,75.76680199240913
1673611580.61033,9.326695,76.06095794299262
1673611580.611337,9.444061,76.3742299066222
1673611580.612344,9.570154,76.70655299140812
1673611580.613351,9.619197,77.03050691797806
1673611580.614358,9.599988,77.36227862717521
1673611580.615365,9.615326,77.70106105293276
1673611580.616373,9.562365,78.06177114449213
1673611580.61738,9.467981,78.3594454874851
1673611580.618387,9.440743,78.64515888459705
1673611580.619394,9.515149,78.99650098474011
1673611580.620401,9.570731,79.31251529893827
1673611580.621408,9.589049,79.54220547134722
1673611580.622415,9.559913,79.77189564375615
1673611580.623422,9.624581,80.00153143875686
1673611580.624429,9.74238,80.23122161116581
1673611580.625436,9.831907,80.46091178357474
1673611580.626443,9.757718,80.69054757857545
1673611580.62745,9.721802,80.92023775098438
1673611580.628458,9.883234,81.1501454330263
1673611580.629465,10.065629,81.37983560543523
1673611580.630472,10.109984,81.60947140043594
1673611580.631479,10.248578,81.83916157284489
1673611580.632486,10.478718,82.06885174525382
1673611580.633493,10.281922,82.29848754025453
1673611580.6345,10.142031,82.62320524415833
1673611580.635507,10.054451,82.88016239079639
1673611580.636514,9.825801,83.18872030488677
1673611580.637521,9.557485,83.4624552839771
1673611580.638528,9.312728,83.75376265236052
1673611580.639535,9.07665,83.9905561830751
1673611580.640542,9.000994,84.22734398426323
1673611580.64155,9.297894,84.46442634501669
1673611580.642557,9.511543,84.69826463611537
1673611580.643564,9.508779,84.83904198189464
1673611580.644571,9.411631,84.97981932767391
1673611580.645578,9.435695,85.12056334548305
1673611580.646585,9.597127,85.26134069126232
1673611580.647592,9.623331,85.40211803704159
1673611580.648599,9.613475,85.54286205485074
1673611580.649606,9.549335,85.68363940063
1673611580.650613,9.500316,85.82441674640927
1673611580.65162,9.626168,85.96516076421842
1673611580.652627,9.828878,86.1059381099977
1673611580.653635,9.903572,86.24684876765743
1673611580.654642,9.897033,86.3876261134367
1673611580.655649,9.950187,86.52837013124585
1673611580.656656,9.901072,86.66914747702512
1673611580.657663,9.775027,86.80992482280438
1673611580.65867,9.581164,86.95066884061353
1673611580.659677,9.393985,87.0914461863928
1673611580.660684,9.160142,87.23222353217207
1673611580.661691,8.744938,87.37296754998121
1673611580.662698,8.671374,87.51374489576048
1673611580.663705,8.900624,87.65452224153975
1673611580.664712,9.081915,87.7952662593489
1673611580.665719,9.135164,87.93604360512816
1673611580.666727,9.104681,88.07695426278791
1673611580.667734,9.081482,88.21769828059706
1673611580.668741,9.12324,88.35847562637632
1673611580.669748,9.165023,88.49925297215559
1673611580.670755,9.138433,88.63999698996474
1673611580.671762,9.087155,88.78077433574401
1673611580.672769,9.033377,88.92155168152328
1673611580.673776,9.07124,89.06229569933242
1673611580.674783,9.082059,89.2030730451117
1673611580.67579,9.058259,89.34514543432658
1673611580.676797,9.032054,89.48593937863615
1673611580.677804,9.040901,89.62856918693372
1673611580.678812,9.032511,90.52519640716612
1673611580.679819,8.971015,90.73716800814775
1673611580.680826,8.994263,90.8720068555133
1673611580.681833,9.16221,91.06437044842562
1673611580.68284,9.479881,91.25688062303097
1673611580.683847,9.816353,91.40860062031504
1673611580.684854,10.043584,91.57834374579033
1673611580.685861,10.012452,92.10642044171634
1673611580.686868,9.805078,92.25965346208869
1673611580.687875,9.585083,92.43834312207916
1673611580.688882,9.378671,92.63347603742578
1673611580.689889,9.33333,92.8298296613013
1673611580.690896,9.297847,93.02622978141737
1673611580.691904,9.068379,93.22281588649567
1673611580.692911,8.858625,93.41916951037118
1673611580.693918,8.825017,93.61556963048724
1673611580.694925,8.931493,93.81196975060331
1673611580.695932,9.029651,94.00832337447882
1673611580.696939,9.101724,94.20472349459489
1673611580.697946,9.266233,94.40112361471097
1673611580.698953,9.515222,94.59747723858648
1673611580.69996,9.61785,94.79387735870255
1673611580.700967,9.673769,94.99027747881861
1673611580.701974,9.907611,95.18663110269412
1673611580.702981,10.03029,95.38303122281019
1673611580.703989,10.006153,95.57961732788849
1673611580.704996,9.964467,95.77601744800455
1673611580.706003,9.852149,95.97237107188008
1673611580.70701,9.680236,96.16877119199614
1673611580.708017,9.468655,96.36517131211221
1673611580.709024,9.334196,96.56152493598772
1673611580.710031,9.188438,96.75792505610379
1673611580.711038,9.003807,96.95432517621985
1673611580.712045,8.845284,97.15067880009536
1673611580.713052,8.849586,97.34707892021143
1673611580.714059,9.099368,97.5434790403275
1673611580.715066,9.363333,97.73983266420302
1673611580.716073,9.38598,97.93623278431909
1673611580.717081,9.39473,98.13281888939738
1673611580.718088,9.400235,98.3291725132729
1673611580.719095,9.435118,98.52557263338896
1673611580.720102,9.573664,98.72197275350503
1673611580.721109,9.57513,98.91832637738054
1673611580.722116,9.487262,99.1147264974966
1673611580.723123,9.556162,99.31112661761269
1673611580.72413,9.628596,99.5074802414882
1673611580.725137,9.705814,99.70388036160426
1673611580.726144,9.791976,99.90028048172033
1673611580.727151,9.80592,100.09663410559584
1673611580.728158,9.707738,100.2930342257119
1673611580.729166,9.556451,100.48315085193133
1673611580.730173,9.523972,100.65089981545064
1673611580.73118,9.630014,100.8447148193087
1673611580.732187,9.751251,101.06545517811159
1673611580.733194,9.757574,101.22114889222699
1673611580.734201,9.765843,101.35719007985698
1673611580.735208,9.771975,101.52991677634716
1673611580.736215,9.650858,101.72128540915594
1673611580.737222,9.429517,101.88985739666269
1673611580.738229,9.257026,102.03161722096486
1673611580.739236,9.450841,102.0596254353782
1673611580.740243,9.757694,102.08762701905896
1673611580.74125,10.030025,102.1156352334723
1673611580.742258,9.877872,102.14366997081596
1673611580.743265,9.621696,102.17913703933915
1673611580.744272,9.482478,102.28558855717151
1673611580.745279,9.456971,102.39204007500385
1673611580.746286,9.373214,102.49846639124581
1673611580.747293,9.256305,102.60491790907815
1673611580.7483,9.086025,102.71136942691051
1673611580.749307,8.984767,102.81779574315246
1673611580.750314,9.032247,102.92424726098481
1673611580.751321,9.094584,103.03069877881715
1673611580.752328,9.15346,103.1371250950591
1673611580.753335,9.132736,103.24357661289146
1673611580.754343,9.064149,103.35012893708539
1673611580.75535,9.080352,103.45658045491774
1673611580.756357,9.138313,103.56300677115969
1673611580.757364,9.553397,103.66945828899205
1673611580.758371,9.927829,103.7759098068244
1673611580.759378,10.031516,103.88233612306635
1673611580.760385,10.059042,103.98878764089869
1673611580.761392,9.845731,104.09523915873105
1673611580.762399,9.55347,104.201665474973
1673611580.763406,9.448076,104.30811699280535
1673611580.764413,9.253732,104.41456851063771
1673611580.76542,9.031477,104.52099482687966
1673611580.766427,8.897283,104.627446344712
1673611580.767435,8.914881,104.73399866890594
1673611580.768442,8.998686,104.84042498514789
1673611580.769449,9.158195,104.94687650298025
1673611580.770456,9.263926,105.05332802081259
1673611580.771463,9.405091,105.15975433705454
1673611580.77247,9.485026,105.26620585488689
1673611580.773477,9.446777,105.37265737271925
1673611580.774484,9.420213,105.4790836889612
1673611580.775491,9.399466,105.58553520679354
1673611580.776498,9.293976,105.69198672462589
1673611580.777505,9.160311,105.79841304086784
1673611580.778512,8.970991,105.9048645587002
1673611580.77952,8.829946,106.01141688289412
1673611580.780527,8.998061,106.11786840072648
1673611580.781534,9.144348,106.22429471696843
1673611580.782541,9.340734,106.33074623480078
1673611580.783548,9.833735,106.43719775263312
1673611580.784555,10.384143,106.54362406887509
1673611580.785562,10.888393,106.65007558670743
1673611580.786569,10.939648,106.75652710453979
1673611580.787576,10.631015,106.86295342078174
1673611580.788583,10.274013,106.96940493861409
1673611580.7895901,9.883835,107.07585645644643
1673611580.790597,9.569673,107.1822827726884
1673611580.791604,9.2846,107.28873429052074
1673611580.792612,8.956399,107.39528661471468
1673611580.793619,8.854683,107.50171293095663
1673611580.794626,9.086169,107.58465153134685
1673611580.795633,9.274695,107.68127416785885
1673611580.79664,9.4669,107.8014424713877
1673611580.797647,9.687087,107.89253596757273
1673611580.798654,9.773801,107.96606847794995
1673611580.799661,9.888763,108.02071243752981
1673611580.800668,9.928959,108.10245848450167
1673611580.801675,9.80503,108.193448333969
1673611580.802682,9.850081,108.26629354506437
1673611580.803689,9.981103,108.3132382894253
1673611580.804697,10.108253,108.33592194448728
1673611580.805704,10.124216,108.35858413913765
1673611580.806711,9.876863,108.38124096868513
1673611580.807718,9.559984,108.43031785274464
1673611580.808725,9.128048,108.49350755221745
1673611580.809732,8.51737,108.5874476634913
1673611580.810739,8.315406,108.65522374295942
1673611580.8117461,8.470635,108.71383799904626
1673611580.812753,8.492464,108.8102415760607
1673611580.81376,8.531747,108.91083796478662
1673611580.8147671,8.691568,109.01143435351253
1673611580.815774,8.863338,109.1120069268055
1673611580.816782,8.936036,109.21269857726317
1673611580.817789,8.978805,109.31329496598907
1673611580.818796,9.020034,109.41386753928205
1673611580.819803,9.102036,109.51446392800796
1673611580.82081,9.246327,109.61506031673387
1673611580.821817,9.33559,109.71563289002685
1673611580.822824,9.392374,109.81622927875276
1673611580.823831,9.416126,109.91682566747868
1673611580.824838,9.517024,110.01739824077166
1673611580.825845,9.684395,110.11799462949756
1673611580.826852,10.047262,110.21859101822348
1673611580.827859,10.64193,110.31916359151644
1673611580.828866,11.107138,110.41975998024236
1673611580.829874,11.176591,110.52045163070002
1673611580.830881,11.020039,110.62104801942593
1673611580.831888,10.791774,110.7216205927189
1673611580.832895,10.469222,110.82221698144483
1673611580.8339021,10.084621,110.92281337017073
1673611580.834909,9.698362,111.02338594346371
1673611580.835916,9.184977,111.12398233218961
1673611580.8369231,8.79463,111.22457872091553
1673611580.83793,8.550426,111.32515129420851
1673611580.838937,8.264343,111.42574768293441
1673611580.8399441,8.054325,111.52634407166033
1673611580.840951,7.974415,111.6269166449533
1673611580.841959,8.142025,111.72760829541096
1673611580.842966,8.384763,111.82820468413688
1673611580.843973,8.629736,111.92877725742986
1673611580.84498,8.819704,112.02937364615576
1673611580.845987,8.895408,112.12997003488168
1673611580.846994,8.979838,112.23054260817464
1673611580.848001,9.073765,112.33113899690056
1673611580.849008,9.106316,112.43173538562648
1673611580.850015,9.121004,112.53230795891945
1673611580.851022,9.176779,112.63290434764536
1673611580.852029,9.230605,112.73350073637127
1673611580.853036,9.247578,112.83407330966425
1673611580.854043,9.296404,112.93466969839017
1673611580.855051,9.403961,113.03536134884783
1673611580.8560581,9.471636,113.13595773757373
1673611580.857065,9.465096,113.23653031086671
1673611580.858072,9.423795,113.33712669959262
1673611580.8590791,9.404106,113.44532104477257
1673611580.860086,9.336937,113.5546790849642
1673611580.861093,9.193703,113.59851070433953
1673611580.8621001,9.113336,113.700946652205
1673611580.863107,9.123721,114.16122264209983
1673611580.864114,9.193054,114.21818658715596
1673611580.8651211,9.22236,114.23084994561934
1673611580.866128,9.256906,114.31762764350452
1673611580.867136,9.288326,114.10188687350835
1673611580.868143,9.335013,114.0473481270776
1673611580.86915,9.393696,113.98291008804833
1673611580.870157,9.448244,113.91845679018907
1673611580.871164,9.44459,113.85400349232981
1673611580.872171,9.416823,113.78956545330054
1673611580.873178,9.45375,113.72511215544128
1673611580.874185,9.536353,113.66065885758202
1673611580.875192,9.788827,113.59622081855275
1673611580.876199,10.087579,113.53176752069349
1673611580.877206,10.376546,113.46731422283423
1673611580.878213,10.575289,113.40287618380496
1673611580.87922,10.604955,113.3384228859457
1673611580.880228,10.480281,113.2739085527665
1673611580.8812351,10.154339,113.20945525490724
1673611580.882242,9.642948,113.14501721587797
1673611580.883249,9.194352,113.08056391801871
1673611580.8842561,9.041791,113.01611062015945
1673611580.885263,9.042825,112.95167258113017
1673611580.88627,8.961616,112.88721928327091
1673611580.8872771,8.896297,112.82276598541165
1673611580.888284,9.040348,112.75832794638238
1673611580.889291,9.321166,112.69387464852312
1673611580.8902981,9.652396,112.62942135066386
1673611580.891305,9.834071,112.56498331163459
1673611580.892313,9.662301,112.50046897845539
1673611580.89332,9.297654,112.43601568059613
1673611580.894327,9.11562,112.37157764156686
1673611580.895334,9.01198,112.3071243437076
1673611580.896341,8.997292,112.24267104584834
1673611580.897348,9.059364,112.17823300681907
1673611580.898355,9.13978,112.11377970895981
1673611580.899362,9.168676,112.04932641110055
1673611580.900369,9.19553,111.98488837207128
1673611580.901376,9.16382,111.92043507421202
1673611580.902383,9.09944,111.85598177635276
1673611580.90339,9.061384,111.79154373732348
1673611580.904397,9.13288,111.72709043946422
1673611580.905405,9.13413,111.66257610628503
1673611580.9064121,9.104537,111.59812280842577
1673611580.907419,9.140718,111.53368476939649
1673611580.908426,9.140429,111.46923147153723
1673611580.9094331,9.091482,111.40477817367797
1673611580.91044,9.104609,111.3403401346487
1673611580.911447,9.135741,111.27588683678944
1673611580.9124541,9.114681,111.21143353893018
1673611580.913461,9.164181,111.14699549990091
1673611580.914468,9.231182,111.05361395665633
1673611580.9154751,9.254381,110.89475593967573
1673611580.916482,9.273662,110.70580800954654
1673611580.91749,9.354678,110.5188726223176
1673611580.918497,9.338643,110.35496422410098
1673611580.919504,9.335278,110.19114414878398
1673611580.920511,9.438941,110.01984895465394
1673611580.921518,9.559576,109.86721273065015
1673611580.922525,9.671533,109.74298664949929
1673611580.923532,9.677062,109.64370587445296
1673611580.924539,9.634294,109.60887308670678
1673611580.925546,9.554407,109.57404854535923
1673611580.926553,9.391244,109.53921575761305
1673611580.92756,9.237144,109.50438296986688
1673611580.928567,9.079751,109.43634452312827
1673611580.929574,8.949787,109.24145094612635
1673611580.930582,8.942743,109.04382170886981
1673611580.9315891,9.002148,108.93488541463996
1673611580.932596,9.067394,108.7209417170441
1673611580.933603,9.126943,108.55386148855507
1673611580.9346101,9.226278,108.45234163751388
1673611580.935617,9.271017,108.2727155591565
1673611580.936624,9.214522,108.09304694561598
1673611580.9376311,9.266594,107.91337833207547
1673611580.938638,9.47981,107.7337522537181
1673611580.939645,9.667301,107.55408364017758
1673611580.9406521,9.68562,107.37441502663707
1673611580.941659,9.656051,107.1947889482797
1673611580.942667,9.66235,107.01495019400666
1673611580.943674,9.637347,106.83528158046614
1673611580.944681,9.556884,106.65565550210877
1673611580.945688,9.56109,106.47598688856826
1673611580.946695,9.52753,106.29631827502774
1673611580.947702,9.393456,106.11669219667037
1673611580.948709,9.259141,105.93702358312986
1673611580.949716,9.18,105.75735496958934
1673611580.950723,9.225172,105.57772889123197
1673611580.95173,9.217047,105.39806027769146
1673611580.952737,9.108768,105.21839166415094
1673611580.953744,8.990464,105.03876558579357
1673611580.954751,8.854466,104.85909697225306
1673611580.955759,8.797178,104.67925821798002
1673611580.9567661,8.814897,104.49958960443952
1673611580.957773,8.838408,104.31996352608213
1673611580.95878,8.911683,104.14029491254162
1673611580.9597871,8.993373,103.96062629900112
1673611580.960794,9.050734,103.78100022064373
1673611580.961801,9.136775,103.60133160710322
1673611580.9628081,9.233634,103.4216629935627
1673611580.963815,9.296332,103.21507061087267
1673611580.964822,9.380354,102.99565861945636
1673611580.9658291,9.495436,102.81296481215733
1673611580.966836,9.598497,102.62213393848354
1673611580.967844,9.652757,102.37593358702908
1673611580.968851,9.698603,102.12116473992849
1673611580.969858,9.671245,101.9124978783977
1673611580.970865,9.553879,101.71130896137339
1673611580.971872,9.328955,101.50232873039333
1673611580.972879,9.121654,101.28527771185286
1673611580.973886,9.041382,101.05364497506812
1673611580.974893,9.085112,100.82201223828338
1673611580.9759,9.148699,100.59043433879428
1673611580.976907,9.142472,100.35880160200954
1673611580.977914,9.199088,100.1271688652248
1673611580.978921,9.332032,99.89559096573569
1673611580.979928,9.541883,99.68217959227468
1673611580.980936,9.963962,99.4276591955174
1673611580.9819431,10.239323,99.16891860667461
1673611580.98295,10.261343,98.96524693466857
1673611580.983957,10.127365,98.71608052932761
1673611580.9849641,9.945403,98.45847923647199
1673611580.985971,9.801616,98.24452353648068
1673611580.986978,9.604748,98.00947716165952
1673611580.9879851,9.317415,97.80110000715308
1673611580.988992,9.097228,97.63782663941936
1673611580.989999,8.887836,97.48477982878221
1673611580.9910061,8.690799,97.33173301814504
1673611580.992013,8.568745,97.17872244018086
1673611580.993021,8.514678,97.02553069885181
1673611580.994028,8.595406,96.87248388821465
1673611580.995035,8.695198,96.71947331025046
1673611580.996042,8.778451,96.5664264996133
1673611580.997049,8.939402,96.41337968897615
1673611580.998056,9.04143,96.26036911101195
1673611580.999063,9.18262,96.1073223003748
1673611581.00007,9.487839,95.95427548973764
1673611581.001077,9.847005,95.80126491177346
1673611581.002084,10.142031,95.6482181011363
1673611581.003091,10.27519,95.49517129049914
1673611581.004098,10.211075,95.34216071253495
1673611581.005105,10.038054,95.1891139018978
1673611581.006113,9.760386,95.03592216056875
1673611581.0071201,9.157377,94.88287534993158
1673611581.008127,8.709045,94.7298647719674
1673611581.009134,8.49095,94.57681796133024
1673611581.0101411,8.424381,94.42377115069309
1673611581.011148,8.440152,94.27076057272889
1673611581.012155,8.557446,94.11771376209174
1673611581.0131621,8.745924,93.96466695145457
1673611581.014169,8.816291,93.8116563734904
1673611581.015176,8.761478,93.65860956285323
1673611581.0161831,8.720561,93.50556275221606
1673611581.01719,8.765925,93.35255217425188
1673611581.018198,8.861679,93.19936043292283
1673611581.019205,8.923343,93.04631362228568
1673611581.020212,8.974693,92.89330304432148
1673611581.021219,9.0121,92.74025623368433
1673611581.022226,9.036862,92.58720942304717
1673611581.023233,9.060567,92.43419884508299
1673611581.02424,9.092901,92.28115203444582
1673611581.025247,9.145814,92.10381525536481
1673611581.026254,9.197645,91.90636611111111
1673611581.027261,9.229692,91.62879234382451
1673611581.028268,9.260655,91.44624501620977
1673611581.029275,9.283519,91.18821002575108
1673611581.030282,9.284071,90.97816255507868
1673611581.03129,9.235414,90.77761357568535
1673611581.0322971,9.143146,90.56111701645207
1673611581.033304,9.08391,90.39115534334763
1673611581.034311,9.136342,90.21396496058173
1673611581.0353181,9.185962,90.03525447945641
1673611581.036325,9.208272,89.85658630668362
1673611581.037332,9.200002,89.67787582555829
1673611581.0383391,9.191611,89.49916534443297
1673611581.039346,9.204906,89.32049717166018
1673611581.040353,9.20166,89.14178669053484
1673611581.04136,9.203464,88.96311851776206
1673611581.042367,9.199593,88.78440803663673
1673611581.043375,9.226133,88.60552832210125
1673611581.044382,9.303231,88.42681784097591
1673611581.045389,9.385715,88.24814966820313
1673611581.046396,9.435984,88.0694391870778
1673611581.047403,9.354943,87.89072870595247
1673611581.04841,9.260632,87.71206053317968
1673611581.049417,9.234788,87.53335005205436
1673611581.050424,9.303304,87.35463957092902
1673611581.051431,9.427786,87.17597139815624
1673611581.052438,9.530487,86.99726091703091
1673611581.053445,9.586381,86.81855043590559
1673611581.054452,9.630784,86.64528614353839
1673611581.055459,9.630904,86.58601411206486
1673611581.056467,9.591502,86.4422530419547
1673611581.0574741,9.514139,86.33297261778732
1673611581.058481,9.396701,86.22236609871244
1673611581.059488,9.140718,86.09772069582837
1673611581.0604951,8.914087,86.0034975491178
1673611581.061502,8.81468,85.87598237529805
1673611581.062509,8.882858,85.75210919837863
1673611581.063516,9.04619,85.65802020444585
1673611581.064523,9.338162,85.53878968696075
1673611581.06553,9.729856,85.41955916947568
1673611581.066537,9.963289,85.30035687891234
1673611581.067544,10.044353,85.18112636142726
1673611581.068552,10.023438,85.06178293625516
1673611581.069559,9.852269,84.94255241877008
1673611581.070566,9.535391,84.82335012820674
1673611581.071573,9.213873,84.70411961072166
1673611581.07258,8.902308,84.58488909323657
1673611581.073587,8.693516,84.46568680267325
1673611581.074594,8.577039,84.34645628518815
1673611581.075601,8.528405,84.22722576770308
1673611581.076608,8.656637,84.10802347713974
1673611581.077615,8.886753,83.98879295965466
1673611581.078622,8.972818,83.86956244216957
1673611581.079629,8.978324,83.75036015160624
1673611581.080636,9.028088,83.63112963412115
1673611581.081644,9.093502,83.51178620894906
1673611581.0826511,9.066889,83.39255569146397
1673611581.083658,8.984767,83.27335340090065
1673611581.084665,9.046238,83.15412288341555
1673611581.085672,9.124562,83.03492059285223
1673611581.086679,9.168845,82.91569007536714
1673611581.087686,9.236879,82.79645955788206
1673611581.088693,9.288326,82.67725726731872
1673611581.0897,9.411727,82.55802674983364
1673611581.090707,9.5607780000000009,82.43879623234855
1673611581.091714,9.577053,82.31959394178523
1673611581.092721,9.496446,82.20036342430014
1673611581.093729,9.395572,82.08101999912805
1673611581.094736,9.227023,81.96178948164297
1673611581.095743,9.024313,81.84258719107963
1673611581.09675,8.871535,81.72335667359454
1673611581.097757,8.858674,81.60412615610946
1673611581.098764,8.878195,81.48492386554612
1673611581.099771,8.846822,81.36569334806104
1673611581.100778,8.854058,81.24646283057595
1673611581.101785,8.95849,81.12726054001263
1673611581.102792,9.047224,81.00803002252754
1673611581.103799,9.116653,80.88879950504246
1673611581.104806,9.127687,80.76959721447912
1673611581.105813,9.202983,80.67394703862661
1673611581.106821,9.30905,80.659843
1673611581.107828,9.374969,80.50447089318074
1673611581.108835,9.423434,80.38494985550787
1673611581.109842,9.351866,80.27562546399618
1673611581.110849,9.198895,80.21410792181167
1673611581.111856,9.060278,80.03108136194564
1673611581.112863,8.887883,79.97624210872675
1673611581.11387,8.814391,79.9072303306317
1673611581.114877,8.872041,79.83435746638054
1673611581.115884,8.927742,79.71180668907964
1673611581.116891,9.038521,79.66770769702026
1673611581.117898,9.134298,79.61446695231284
1673611581.118906,9.150695,79.50889296709585
1673611581.119913,9.124394,79.46789957081545
1673611581.12092,9.080856,79.33367701389312
1673611581.121927,9.038305,79.19368462549618
1673611581.122934,8.993469,79.05369223709923
1673611581.123941,8.979574,78.91373299083969
1673611581.124948,8.96878,78.77374060244274
1673611581.125955,8.975583,78.6337482140458
1673611581.126962,8.94623,78.49378896778626
1673611581.127969,8.989383,78.35379657938931
1673611581.128976,9.078381,78.21380419099236
1673611581.129983,9.124154,78.07384494473281
1673611581.13099,9.118552,77.93385255633588
1673611581.131998,9.089896,77.79372759938931
1673611581.133005,9.050133,77.75869609871245
1673611581.134012,9.00823,77.73376054016687
1673611581.135019,9.008518,77.70312932284216
1673611581.136026,9.024218,77.66014493848355
1673611581.137033,9.11271,77.64136458750596
1673611581.13804,9.228033,77.61505565196663
1673611581.139047,9.329484,77.55277678707678
1673611581.140054,9.438941,77.48740503361945
1673611581.141061,9.630784,77.44704924910609
1673611581.142068,9.794236,77.41787684587875
1673611581.143075,9.857126,77.3814398104564
1673611581.144083,9.893139,77.34496827026567
1673611581.14509,9.952615,77.30853123484333
1673611581.146097,10.062432,77.27210282561308
1673611581.147104,10.0363,77.23566579019074
1673611581.148111,9.821329,77.1992287547684
1673611581.149118,9.480964,77.16280034553814
1673611581.150125,9.113792,77.1263633101158
1673611581.151132,8.911251,77.08992627469347
1673611581.152139,8.834658,77.05349786546321
1673611581.153146,8.759098,77.01706083004088
1673611581.154153,8.841196,76.98062379461854
1673611581.15516,8.79362,76.94419538538828
1673611581.156167,8.6801,76.8694959048641
1673611581.157175,8.534343,76.82991861874106
1673611581.158182,8.489916,76.75962254350416
1673611581.159189,8.644353,76.734291
1673611581.160196,8.784629,76.66787886409156
1673611581.161203,8.862208,76.61702537091776
1673611581.16221,8.900986,76.56705998521697
1673611581.163217,8.86954,76.52606328302338
1673611581.164224,8.849154,76.517204
1673611581.165231,8.955389,76.51163934840464
1673611581.166238,9.131318,76.50435094891974
1673611581.167245,9.245439,76.4970642749082
1673611581.168252,9.332826,76.48977587542329
1673611581.16926,9.450624,76.48248057404493
1673611581.170267,9.574481,76.37893414949927
1673611581.171274,9.713675,76.354385
1673611581.172281,9.830009,76.3247197300906
1673611581.173288,9.873377,76.318207
1673611581.174295,9.86715,76.29144013311388
1673611581.175302,9.765051,76.25911787876085
1673611581.176309,9.446946,76.2267956244078
1673611581.177316,9.108431,76.19448102210362
1673611581.178323,8.94385,76.16215876775057
1673611581.17933,8.77494,76.12983651339752
1673611581.180337,8.584805,76.09752191109334
1673611581.181344,8.474843,76.06519965674029
1673611581.182352,8.509196,76.03284679419184
1673611581.183359,8.577448,76.00053219188766
1673611581.184366,8.585958,75.96820993753461
1673611581.185373,8.66909,75.93588768318156
1673611581.18638,8.872738,75.90357308087738
1673611581.187387,9.004408,75.87125082652433
1673611581.188394,9.068356,75.8389285721713
1673611581.189401,9.148988,75.8066139698671
1673611581.190408,9.255631,75.77429171551405
1673611581.191415,9.33434,75.74196946116102
1673611581.192422,9.479834,75.70965485885682
1673611581.193429,9.61547,75.67733260450379
1673611581.194437,9.55972,75.64497974195532
1673611581.195444,9.506567,75.61265748760229
1673611581.196451,9.447354,75.5803428852981
1673611581.197458,9.36153,75.54802063094506
1673611581.198465,9.245198,75.51569837659201
1673611581.199472,9.096243,75.48338377428782
1673611581.200479,8.981473,75.45106151993478
1673611581.201486,8.87394,75.41873926558173
1673611581.202493,8.696472,75.38642466327755
1673611581.2035,8.510591,75.3541024089245
1673611581.204507,8.408419,75.32075899833094
1673611581.205514,8.503451,75.2718473490701
1673611581.206521,8.675053,75.3210828317044
1673611581.207529,8.747198,75.28337626037197
1673611581.208536,8.784485,75.23550460562709
1673611581.209543,8.883195,75.26452283357177
1673611581.21055,9.061023,75.21954419594756
1673611581.211557,9.162186,75.26724014735336
1673611581.212564,9.133986,75.24715840772532
1673611581.213571,9.083646,75.21641412540873
1673611581.214578,9.113889,75.23202757476159
1673611581.215585,9.216108,75.24764472135558
1673611581.216592,9.266401,75.2632618679496
1673611581.217599,9.327176,75.27887531730245
1673611581.218606,9.406101,75.29449246389646
1673611581.219614,9.475169,75.31012439945503
1673611581.220621,9.441537,75.32615484982121
1673611581.221628,9.328691,75.34436614639962
1673611581.222635,9.17536,75.35628746161183
1673611581.223642,9.078837,75.341347
1673611581.224649,9.01263,75.35834066905102
1673611581.225656,8.932238,75.4353212832618
1673611581.226663,8.827229,75.44256958116806
1673611581.22767,8.724744,75.43637389413448
1673611581.228677,8.767223,75.51833214592274
1673611581.229684,8.940797,75.50672760730704
1673611581.230691,9.048474,75.51835713258232
1673611581.231698,9.100113,75.52998941171157
1673611581.232706,9.075135,75.54163270625665
1673611581.233713,9.011572,75.55326223153195
1673611581.23472,8.897908,75.56489451066118
1673611581.235727,8.755107,75.57652678979042
1673611581.236734,8.744626,75.5881563150657
1673611581.237741,8.81932,75.59978859419495
1673611581.238748,8.923439,75.61142087332419
1673611581.239755,9.056648,75.62305039859947
1673611581.240762,9.144276,75.63468267772872
1673611581.241769,9.216445,75.64631495685796
1673611581.242776,9.334629,75.65794448213325
1673611581.243783,9.500051,75.66957676126249
1673611581.244791,9.569312,75.68122005580757
1673611581.245798,9.583039,75.69285233493682
1673611581.246805,9.57138,75.7044818602121
1673611581.247812,9.538973,75.71611413934134
1673611581.248819,9.452403,75.72774641847059
1673611581.249826,9.31768,75.73937594374587
1673611581.250833,9.213993,75.75100822287511
1673611581.25184,9.15406,75.76264050200436
1673611581.252847,9.100162,75.77427002727964
1673611581.253854,8.953033,75.78590230640889
1673611581.254861,8.794726,75.79753458553813
1673611581.255868,8.896514,75.80916411081341
1673611581.256875,9.030107,75.82079638994266
1673611581.257883,9.107493,75.83243968448774
1673611581.25889,9.134731,75.84406920976302
1673611581.259897,9.170312,75.85570148889227
1673611581.260904,9.232048,75.86733376802151
1673611581.261911,9.261521,75.87896329329679
1673611581.262918,9.143723,75.89059557242604
1673611581.263925,8.931156,75.90222785155528
1673611581.264932,8.84961,75.91385737683056
1673611581.265939,8.966448,75.92548965595981
1673611581.266946,9.093695,75.93712193508905
1673611581.267953,9.088069,75.94875146036433
1673611581.26896,9.09456,75.96038373949358
1673611581.269968,9.154613,75.97202703403866
1673611581.270975,9.226062,75.9836593131679
1673611581.271982,9.274383,75.99528883844319
1673611581.272989,9.315324,76.00692111757243
1673611581.273996,9.423001,76.01855339670168
1673611581.275003,9.486733,76.03018292197696
1673611581.27601,9.432858,76.0418152011062
1673611581.277017,9.317055,76.06751215855985
1673611581.278024,9.184616,76.0725655680191
1673611581.279031,9.137592,76.09674613686218
1673611581.280038,9.097108,76.10849086901644
1673611581.281045,8.997701,76.11195442250835
1673611581.282052,8.829513,76.152141550358
1673611581.28306,8.702218,76.16237753941415
1673611581.284067,8.69188,76.17786607010014
1673611581.285074,8.768209,76.18020990930788
1673611581.286081,8.827734,76.16898901537282
1673611581.287088,8.899735,76.16186154008022
1673611581.288095,8.955485,76.1547323770123
1673611581.289102,9.011139,76.14760321394436
1673611581.290109,9.113889,76.14047573865179
1673611581.291116,9.235341,76.13334657558386
1673611581.292123,9.411222,76.12621741251593
1673611581.29313,9.470409,76.11908993722335
1673611581.294137,9.432402,76.11196077415542
1673611581.295145,9.301837,76.10482485998611
1673611581.296152,9.092035,76.09769569691818
1673611581.297159,8.934834,76.09056822162559
1673611581.298166,8.772176,76.08343905855767
1673611581.299173,8.691039,76.07630989548974
1673611581.30018,8.639064,76.06918242019715
1673611581.301187,8.581101,76.06205325712922
1673611581.302194,8.59067,76.0549240940613
1673611581.303201,8.659762,76.04779661876871
1673611581.304208,8.788283,76.04066745570078
1673611581.3052151,8.90964,76.03353829263285
1673611581.306222,9.011211,76.02641081734028
1673611581.307229,9.061144,76.01928165427235
1673611581.308237,9.016621,76.01214574010304
1673611581.309244,8.993782,76.010674
1673611581.310251,8.947672,75.98155137148308
1673611581.311258,8.929257,75.974495
1673611581.312265,8.943345,75.974495
1673611581.313272,9.054124,75.974495
1673611581.314279,9.211061,75.98957924009547
1673611581.315286,9.308665,75.91652812184073
1673611581.316293,9.329604,75.902145
1673611581.3173,9.298544,75.84033372103005
1673611581.318307,9.203608,75.51938005102528
1673611581.319314,9.066288,75.51786266030989
1673611581.320322,8.954788,75.44726002670481
1673611581.321329,8.893773,75.42521126084883
1673611581.322336,8.880166,75.431793
1673611581.323343,8.857593,75.42003558130662
1673611581.32435,8.788668,75.37804291082499
1673611581.325357,8.714864,75.39547233285646
1673611581.326364,8.763834,75.38942655423124
1673611581.3273711,8.911587,75.38025071555728
1673611581.328378,9.121028,75.38429807730076
1673611581.329385,9.358212,75.38834639745333
1673611581.3303921,9.625639,75.39239471760592
1673611581.331399,9.810199,75.39644207934938
1673611581.332407,9.845105,75.40049423313849
1673611581.333414,9.74714,75.40454255329107
1673611581.334421,9.531257,75.40858991503453
1673611581.335428,9.245029,75.41263823518712
1673611581.336435,8.955918,75.41668655533971
1673611581.337442,8.797178,75.42073391708317
1673611581.338449,8.661854,75.42478223723576
1673611581.339456,8.746885,75.42883055738835
1673611581.340463,8.97527,75.43287791913181
1673611581.34147,9.115547,75.43692623928439
1673611581.342477,9.179879,75.44097455943698
1673611581.343484,9.262435,75.44502192118044
1673611581.344491,9.281763,75.44907024133303
1673611581.345499,9.256545,75.45312239512214
1673611581.3465061,9.288375,75.45717071527471
1673611581.347513,9.388071,75.46121807701817
1673611581.34852,9.507239,75.46526639717077
1673611581.3495271,9.622899,75.46931471732336
1673611581.350534,9.704107,75.47336207906682
1673611581.351541,9.54258,75.47741039921941
1673611581.3525481,9.326983,75.481458719372
1673611581.353555,9.203007,75.48550608111546
1673611581.354562,9.103911,75.47033987339056
1673611581.356576,9.261521,75.43391083261803
1673611581.357584,9.266065,75.49626560586552
1673611581.358591,9.235991,75.4554080379113
1673611581.359598,9.140477,75.43351359833134
1673611581.360605,8.922237,75.49778382618025
1673611581.361612,8.841485,75.45426938841202
1673611581.362619,8.933848,75.41638616185935
1673611581.363626,8.938056,75.39650125429083
1673611581.364633,8.792442,75.37793125738935
1673611581.36564,8.672432,75.35936565679394
1673611581.366647,8.485252,75.34079565989246
1673611581.367654,8.386686,75.32222566299097
1673611581.368661,8.528646,75.30366006239558
1673611581.369668,8.850307,75.28509006549409
1673611581.370676,9.173461,75.26650248336827
1673611581.3716831,9.528227,75.24793248646678
1673611581.37269,9.970669,75.22936688587139
1673611581.373697,10.232014,75.2107968889699
1673611581.3747041,10.225066,75.19222689206842
1673611581.375711,9.972304,75.17366129147301
1673611581.376718,9.585011,75.15509129457153
1673611581.3777251,9.114225,75.13652129767004
1673611581.378732,8.600166,75.13044493705294
1673611581.379739,8.266459,75.12972034191702
1673611581.3807461,8.159911,75.106171
1673611581.381753,8.202415,75.09960905340964
1673611581.382761,8.245279,75.088089
1673611581.383768,8.314445,75.06757194445768
1673611581.384775,8.38582,75.047743962804
1673611581.385782,8.453086,75.07
1673611581.386789,8.599253,75.07722007296137
1673611581.387796,8.721282,75.09643540715253
1673611581.388803,8.769411,75.11713724145218
1673611581.38981,8.833263,75.13783907575183
1673611581.390817,9.054965,75.15853600904903
1673611581.391824,9.34124,75.17923784334869
1673611581.392831,9.517193,75.19993967764833
1673611581.393838,9.617514,75.22063661094555
1673611581.394845,9.630591,75.24133844524519
1673611581.395853,9.576116,75.26205988355458
1673611581.3968601,9.38533,75.28276171785424
1673611581.397867,9.182067,75.30345865115144
1673611581.398874,8.980776,75.3241604854511
1673611581.3998811,8.835739,75.34486231975075
1673611581.400888,8.710849,75.36555925304795
1673611581.401895,8.524198,75.3862610873476
1673611581.4029021,8.395701,75.40696292164725
1673611581.403909,8.439648,75.42765985494445
1673611581.404916,8.603652,75.44836168924411
1673611581.4059231,8.756021,75.46906352354375
1673611581.40693,8.821291,75.48976045684097
1673611581.407938,8.884542,75.51048189515036
1673611581.408945,9.047104,75.53118372945
1673611581.409952,9.273181,75.62166629375298
1673611581.410959,9.433868,75.70564467008343
1673611581.411966,9.508298,75.75249868049595
1673611581.412973,9.435599,76.14011930722891
1673611581.41398,9.375618,76.29181742263792
1673611581.414987,9.236038,76.3766362885225
1673611581.415994,8.994287,76.03628459155937
1673611581.417001,8.818767,76.10914923694875
1673611581.418008,8.720561,76.22674524892703
1673611581.419015,8.653128,76.32477280341118
1673611581.420022,8.629712,76.39366026987774
1673611581.42103,8.657214,76.46261297068754
1673611581.4220371,8.759675,76.53150043715411
1673611581.423044,8.896105,76.60037159503486
1673611581.424051,9.041382,76.66925906150142
1673611581.4250581,9.101171,76.73814652796798
1673611581.426065,9.179134,76.80701768584873
1673611581.427072,9.24729,76.87590515231528
1673611581.4280791,9.2658,76.94479261878185
1673611581.429086,9.309506,77.0136637766626
1673611581.430093,9.347106,77.08255124312916
1673611581.4311001,9.303905,77.15143870959572
1673611581.432107,9.209377,77.22030986747647
1673611581.433115,9.246568,77.28926256828628
1673611581.434122,9.397735,77.35815003475284
1673611581.435129,9.528949,77.42702119263359
1673611581.436136,9.713315,77.49590865910015
1673611581.437143,9.756781,77.5647961255667
1673611581.43815,9.553734,77.63366728344745
1673611581.439157,9.138337,77.70255474991401
1673611581.440164,8.729528,77.77144221638058
1673611581.441171,8.45359,77.84031337426133
1673611581.442178,8.434792,77.90920084072789
1673611581.443185,8.447244,77.97808830719444
1673611581.444192,8.351851,78.04695946507519
1673611581.445199,8.331922,78.11584693154175
1673611581.446207,8.575068,78.18479963235156
1673611581.4472141,8.791168,78.25368709881812
1673611581.448221,8.897235,78.32255825669887
1673611581.449228,8.999143,78.39144572316543
1673611581.4502351,9.141944,78.460333189632
1673611581.451242,9.237265,78.52920434751275
1673611581.452249,9.298231,78.59809181397931
1673611581.4532561,9.412881,78.66697928044586
1673611581.454263,9.462428,78.73585043832661
1673611581.45527,9.482695,78.80473790479317
1673611581.4562771,9.501229,78.87362537125973
1673611581.457284,9.584338,78.94249652914048
1673611581.458292,9.754376,79.01144922995029
1673611581.459299,9.865949,79.08033669641685
1673611581.460306,10.20819,79.1492078542976
1673611581.461313,10.386931,79.21809532076416
1673611581.46232,10.326349,79.28698278723071
1673611581.463327,10.245813,79.35585394511146
1673611581.464334,9.931771,79.42550145731998
1673611581.465341,9.435166,79.49477841654745
1673611581.466348,9.027631,79.54570520190703
1673611581.467355,8.680293,79.5628770824988
1673611581.468362,8.395389,79.53608828087744
1673611581.469369,8.270835,79.5843096948021
1673611581.470376,8.16847,79.56481207699642
1673611581.471384,8.099834,79.6012775245589
1673611581.4723911,8.091781,79.6287
1673611581.473398,8.105124,79.63877203329122
1673611581.474405,8.252107,79.6783849463472
1673611581.4754121,8.48006,79.71799785940317
1673611581.476419,8.671999,79.75760139440209
1673611581.477426,8.820978,79.79721430745806
1673611581.4784331,8.962096,79.83682722051404
1673611581.47944,8.960582,79.87643075551296
1673611581.480447,8.853001,79.91604366856893
1673611581.4814541,8.742679,79.95565658162492
1673611581.482461,8.676398,79.99526011662383
1673611581.483469,8.555114,80.03491054190808
1673611581.484476,8.538405,80.07452345496405
1673611581.485483,8.606681,80.11412698996297
1673611581.48649,8.681664,80.15373990301894
1673611581.487497,8.755276,80.19335281607492
1673611581.488504,8.78196,80.23295635107384
1673611581.489511,8.849346,80.27256926412981
1673611581.490518,8.947432,80.3121821771858
1673611581.491525,9.035084,80.35178571218471
1673611581.492532,9.059461,80.39139862524068
1673611581.493539,9.050373,80.43101153829667
1673611581.494546,9.014096,80.47061507329558
1673611581.495553,8.97503,80.51022798635155
1673611581.496561,8.935484,80.5498784116358
1673611581.4975681,8.905409,80.58949132469179
1673611581.498575,8.884854,80.6290948596907
1673611581.499582,8.867496,80.66870777274669
1673611581.5005891,8.861872,80.70832068580266
1673611581.501596,8.878988,80.74792422080156
1673611581.502603,8.897451,80.78753713385755
1673611581.5036101,8.918679,80.82715004691353
1673611581.504617,8.935724,80.86675358191243
1673611581.505624,8.931324,80.90636649496842
1673611581.5066311,8.933945,80.9459794080244
1673611581.507638,8.949595,80.9855829430233
1673611581.508646,8.975006,81.02523336830757
1673611581.509653,9.03828,81.06484628136354
1673611581.51066,9.111941,81.10444981636245
1673611581.511667,9.148723,81.14406272941844
1673611581.512674,9.179278,81.18367564247441
1673611581.513681,9.191515,81.22327917747332
1673611581.514688,9.20493,81.2628920905293
1673611581.515695,9.250655,81.30250500358528
1673611581.516702,9.267748,81.34210853858418
1673611581.517709,9.214834,81.38172145164017
1673611581.518716,9.16221,81.42133436469615
1673611581.519723,9.140117,81.46093789969505
1673611581.52073,9.092973,81.50055081275104
1673611581.521738,9.011379,81.5402012380353
1673611581.5227451,8.990752,81.57981415109127
1673611581.523752,9.06422,81.61941768609019
1673611581.524759,9.294649,81.65903059914616
1673611581.5257661,9.509812,81.69864351220214
1673611581.526773,9.687544,81.73824704720106
1673611581.52778,9.744737,81.77785996025703
1673611581.5287871,9.690236,81.74829067485102
1673611581.529794,9.61624,81.79534263876967
1673611581.530801,9.528973,81.84999874487363
1673611581.5318081,9.377132,81.85379
1673611581.532815,9.160624,81.93916903505007
1673611581.533823,8.946422,81.97868114735336
1673611581.53483,8.703324,81.980415
1673611581.535837,8.478232,81.99788047019551
1673611581.536844,8.491166,81.94569894086791
1673611581.537851,8.797803,81.94496234557461
1673611581.538858,8.987988,81.94570745244923
1673611581.539865,9.018399,81.94645273576403
1673611581.540872,8.983805,81.94719801907884
1673611581.541879,8.987339,81.94794312595346
1673611581.542886,9.110739,81.94868840926826
1673611581.543893,9.203103,81.94943369258306
1673611581.5449,9.190265,81.95017879945767
1673611581.545907,9.200506,81.95092408277247
1673611581.546915,9.165816,81.951670071848
1673611581.5479221,9.033401,81.9524153551628
1673611581.548929,8.881873,81.95316046203742
1673611581.549936,8.69241,81.95390574535222
1673611581.5509431,8.619158,81.95465102866702
1673611581.55195,8.695679,81.95539613554165
1673611581.552957,8.804872,81.95614141885645
1673611581.5539641,8.94599,81.95688670217125
1673611581.554971,9.118793,81.95763180904586
1673611581.555978,9.206853,81.95837709236066
1673611581.556985,9.095666,81.9591221992353
1673611581.557992,9.006186,81.9598674825501
1673611581.559,9.018784,81.9606134716256
1673611581.560007,9.027775,81.9613587549404
1673611581.561014,8.957192,81.96210386181502
1673611581.562021,8.835859,81.98789753433476
1673611581.563028,8.86942,81.998497
1673611581.564035,9.033016,82.0637519147213
1673611581.565042,9.138914,82.02310370536352
1673611581.566049,9.178365,81.97388345227563
1673611581.567056,9.21933,81.94016856027433
1673611581.568063,9.242649,81.9064456846377
1673611581.56907,9.148314,81.87272280900108
1673611581.570077,9.001283,81.83900791699978
1673611581.571084,8.902932,81.80528504136315
1673611581.572092,8.453279,81.7715302311852
1673611581.5730991,8.346226,81.73780735554857
1673611581.574106,8.448543,81.70409246354727
1673611581.575113,8.571798,81.67036958791064
1673611581.5761201,8.656373,81.63664671227401
1673611581.577127,8.73638,81.60293182027272
1673611581.578134,8.785495,81.56920894463609
1673611581.579141,8.828431,81.53549405263479
1673611581.580148,8.893533,81.50177117699815
1673611581.581155,8.988324,81.46804830136152
1673611581.582162,9.008927,81.43433340936022
1673611581.583169,9.100113,81.4006105337236
1673611581.584177,9.279095,81.36685572354564
1673611581.585184,9.38533,81.33313284790901
1673611581.586191,9.411005,81.29941795590771
1673611581.587198,9.305227,81.26569508027109
1673611581.588205,9.182596,81.23197220463446
1673611581.589212,8.962049,81.19825731263316
1673611581.590219,8.628029,81.16453443699653
1673611581.591226,8.510976,81.1308115613599
1673611581.592233,8.556364,81.0970966693586
1673611581.59324,8.618509,81.06337379372198
1673611581.594247,8.671158,81.02965091808534
1673611581.595254,8.713878,80.99593602608404
1673611581.596261,8.787923,80.96221315044741
1673611581.597269,8.925579,80.92845834026946
1673611581.5982761,9.042705,80.89473546463283
1673611581.599283,9.113672,80.86102057263153
1673611581.60029,9.133121,80.8272976969949
1673611581.601297,9.10985,80.7935828049936
1673611581.602304,9.047031,80.75985992935698
1673611581.603311,9.026284,80.72613705372035
1673611581.604318,9.012341,80.69242216171905
1673611581.605325,8.943657,80.65869928608242
1673611581.606332,8.987363,80.6249764104458
1673611581.607339,9.040493,80.5912615184445
1673611581.608346,9.120403,80.55753864280787
1673611581.609354,9.289986,80.52378383262992
1673611581.610361,9.420982,80.49006095699329
1673611581.611368,9.363478,80.45634606499199
1673611581.612375,9.306525,80.42245871006199
1673611581.613382,9.323137,80.388489
1673611581.614389,9.280514,80.388489
1673611581.615396,9.163508,80.38254715942722
1673611581.616403,9.042728,80.31774448773517
1673611581.61741,9.080376,80.32900434620886
1673611581.618417,9.235918,80.28553317326968
1673611581.619424,9.430238,80.33018994140066
1673611581.620431,9.583809,80.29167618712754
1673611581.621438,9.611311,80.241824723636
1673611581.622446,9.581332,80.22603252273784
1673611581.623453,9.472982,80.21025899757394
1673611581.62446,9.185818,80.1944817372632
1673611581.625467,8.844778,80.17870447695246
1673611581.626474,8.682384,80.16293095178858
1673611581.627481,8.617836,80.14715369147784
1673611581.628488,8.731211,80.1313764311671
1673611581.629495,8.781864,80.1156029060032
1673611581.630502,8.822397,80.09982564569246
1673611581.631509,8.948874,80.08404838538172
1673611581.632516,9.106292,80.06827486021783
1673611581.633523,9.280874,80.05249759990708
1673611581.634531,9.269142,80.03670539900894
1673611581.635538,9.085448,80.0209281386982
1673611581.636545,8.834057,80.0051546135343
1673611581.637552,8.518788,79.98937735322356
1673611581.638559,8.336441,79.97360009291282
1673611581.639566,8.302689,79.95782656774892
1673611581.640573,8.335191,79.94204930743818
1673611581.64158,8.431065,79.92627204712744
1673611581.642587,8.624591,79.91049852196356
1673611581.643594,8.791072,79.89472126165282
1673611581.644601,8.854852,79.87894400134208
1673611581.645608,8.899856,79.86317047617818
1673611581.646615,8.875574,79.84739321586744
1673611581.647623,8.840475,79.8316010149693
1673611581.64863,8.972434,79.8158274898054
1673611581.649637,9.129804,79.80005022949466
1673611581.650644,9.21546,79.78427296918392
1673611581.651651,9.274262,79.76849944402002
1673611581.652658,9.439373,79.75272218370928
1673611581.653665,9.525198,79.73694492339854
1673611581.654672,9.472477,79.72117139823466
1673611581.655679,9.344365,79.70539413792392
1673611581.656686,9.244068,79.68961687761318
1673611581.657693,9.124274,79.67384335244928
1673611581.6587,8.894639,79.64127746638054
1673611581.659708,8.734697,79.59458320267049
1673611581.660715,8.688058,79.5662889308536
1673611581.661722,8.613292,79.556343
1673611581.662729,8.485324,79.53955608202193
1673611581.663736,8.474506,79.53720970910824
1673611581.664743,8.538982,79.547697363528
1673611581.66575,8.595935,79.52070068669528
1673611581.666757,8.727341,79.52877438054364
1673611581.667764,8.899807,79.55464239805339
1673611581.668771,8.994912,79.55121031844399
1673611581.669778,9.094824,79.5477782388346
1673611581.670785,9.210051,79.54434697174405
1673611581.671792,9.232841,79.54091489213465
1673611581.6728,9.088646,79.53747956244987
1673611581.673807,8.896922,79.53404829535933
1673611581.674814,8.75001,79.53061621574993
1673611581.675821,8.763425,79.52718413614053
1673611581.676828,8.880095,79.52375286904999
1673611581.677835,8.963179,79.52032078944059
1673611581.678842,8.993542,79.51688870983119
1673611581.679849,9.040829,79.51345744274064
1673611581.680856,8.984165,79.51002536313125
1673611581.681863,8.715632,79.50659328352185
1673611581.68287,8.478232,79.5031620164313
1673611581.683877,8.523957,79.49972993682191
1673611581.684885,8.659931,79.49629460713713
1673611581.685892,8.848649,79.49286252752773
1673611581.686899,9.031886,79.48943126043719
1673611581.687906,9.166273,79.48599918082779
1673611581.688913,9.266161,79.4825671012184
1673611581.68992,9.384777,79.47913583412785
1673611581.690927,9.579914,79.47570375451845
1673611581.691934,9.618595,79.47227167490905
1673611581.692941,9.520558,79.4688404078185
1673611581.693948,9.436056,79.46540832820911
1673611581.694955,9.240149,79.46197624859971
1673611581.695962,8.881801,79.45854498150916
1673611581.696969,8.609855,79.45511290189977
1673611581.697977,8.551796,79.45167757221499
1673611581.698984,8.671711,79.44824630512444
1673611581.699991,8.944523,79.44481422551505
1673611581.700998,9.176009,79.44138214590565
1673611581.702005,9.307583,79.4379508788151
1673611581.703012,9.340399,79.4345187992057
1673611581.704019,9.350712,79.43108671959631
1673611581.705026,9.369415,79.429703
1673611581.706033,9.303857,79.39671229899858
1673611581.70704,9.164277,79.36431732657927
1673611581.708047,9.031116,79.37985057558417
1673611581.709054,8.923944,79.37077563328565
1673611581.710062,8.761574,79.40344722985218
1673611581.711069,8.623389,79.41805122884386
1673611581.712076,8.524847,79.39984353648069
1673611581.713083,8.534559,79.42923958226038
1673611581.71409,8.584203,79.44612255239916
1673611581.715097,8.568817,79.44359564300187
1673611581.716104,8.61221,79.44106813523628
1673611581.717111,8.709911,79.43854062747069
1673611581.718118,8.790999,79.43601371807341
1673611581.719125,8.857087,79.43348621030782
1673611581.720132,8.885648,79.43095870254223
1673611581.721139,8.901177,79.42843179314495
1673611581.722146,8.941494,79.42590428537936
1673611581.723154,8.985896,79.4233743841405
1673611581.724161,9.062995,79.42084747474323
1673611581.725168,9.189592,79.41831996697762
1673611581.726175,9.36129,79.41579245921203
1673611581.727182,9.502359,79.41326554981475
1673611581.728189,9.541161,79.41073804204916
1673611581.729196,9.486253,79.40821053428357
1673611581.730203,8.940003,79.4056836248863
1673611581.73121,8.689789,79.4031561171207
1673611581.732217,8.701137,79.40062860935511
1673611581.733224,8.828695,79.39810169995782
1673611581.734231,9.046767,79.39557419219223
1673611581.735239,9.125236,79.39304429095337
1673611581.736246,9.215075,79.39051678318778
1673611581.737253,9.243659,79.3879898737905
1673611581.73826,9.099416,79.38546236602491
1673611581.739267,9.007317,79.38293485825932
1673611581.740274,8.914015,79.38040794886204
1673611581.741281,8.571438,79.37788044109645
1673611581.742288,8.369208,79.37535293333086
1673611581.743295,8.463399,79.37282602393357
1673611581.744302,8.469842,79.37029851616798
1673611581.745309,8.382407,79.36777100840239
1673611581.746316,8.474314,79.36524409900511
1673611581.747323,8.60019,79.36271659123952
1673611581.748331,8.609782,79.36018669000066
1673611581.749338,8.653656,79.35765978060338
1673611581.750345,8.782947,79.35513227283779
1673611581.751352,8.882858,79.3526047650722
1673611581.752359,8.955485,79.35007785567493
1673611581.753366,9.057249,79.34755034790932
1673611581.754373,9.127664,79.34502284014373
1673611581.75538,9.114009,79.34249593074645
1673611581.756387,9.101916,79.33996842298086
1673611581.757394,9.119682,79.33744091521527
1673611581.758401,9.099344,79.33491400581799
1673611581.759408,9.050637,79.3323864980524
1673611581.760416,9.015995,79.32985659681354
1673611581.761423,8.933993,79.32732908904795
1673611581.76243,8.88019,79.32480217965067
1673611581.763437,8.824609,79.32227467188508
1673611581.764444,8.753978,79.31974716411948
1673611581.765451,8.716065,79.3172202547222
1673611581.766458,8.743736,79.31469274695661
1673611581.767465,8.81968,79.31216523919102
1673611581.768472,8.889975,79.30963832979374
1673611581.769479,8.927261,79.30711082202815
1673611581.770486,8.949235,79.30458331426256
1673611581.771493,8.929305,79.303085
1673611581.7725,8.934114,79.303085
1673611581.773508,8.966544,79.28001398330949
1673611581.774515,9.044387,79.25663084505364
1673611581.775522,9.220196,79.282787710062
1673611581.776529,9.37081,79.303085
1673611581.777536,9.497576,79.28669925506556
1673611581.778543,9.491541,79.266907
1673611581.77955,9.279817,79.24155163590845
1673611581.780557,9.090353,79.20481447055604
1673611581.781564,9.001643,79.188221184655
1673611581.782571,8.96789,79.17162789875397
1673611581.783578,8.894494,79.15503854118766
1673611581.784585,8.751645,79.13844525528663
1673611581.785593,8.588915,79.12183625604666
1673611581.7866,8.517587,79.10524297014562
1673611581.787607,8.512514,79.08865361257932
1673611581.788614,8.557158,79.07206032667828
1673611581.789621,8.686567,79.05546704077724
1673611581.790628,8.858458,79.03887768321094
1673611581.791635,8.986762,79.0222843973099
1673611581.792642,9.090448,79.00569111140886
1673611581.793649,9.070375,78.98910175384255
1673611581.794656,9.044556,78.97250846794151
1673611581.795663,9.121726,78.95591518204047
1673611581.79667,9.206733,78.93932582447417
1673611581.797677,9.292389,78.92273253857313
1673611581.798685,9.356938,78.90612353933317
1673611581.799692,9.347466,78.88953418176686
1673611581.800699,9.267796,78.87294089586582
1673611581.801706,9.114802,78.85634760996479
1673611581.802713,8.88233,78.83975825239847
1673611581.80372,8.773306,78.82316496649743
1673611581.804727,8.913318,78.80657168059639
1673611581.805734,9.005513,78.78998232303009
1673611581.806741,8.935748,78.77338903712905
1673611581.807748,8.814151,78.75679575122801
1673611581.808755,8.790038,78.74020639366171
1673611581.809762,8.771599,78.72361310776067
1673611581.81077,8.754819,78.7070041085207
1673611581.811777,8.758305,78.69041082261967
1673611581.812784,8.797106,78.67382146505335
1673611581.813791,8.819056,78.65722817915231
1673611581.814798,8.857784,78.64063489325127
1673611581.815805,9.038857,78.62404553568497
1673611581.816812,9.22736,78.60745224978393
1673611581.817819,9.403769,78.5908589638829
1673611581.818826,9.439325,78.57426960631659
1673611581.819833,9.248467,78.55767632041555
1673611581.8208401,8.89637,78.54108303451451
1673611581.821847,8.597882,78.5244936769482
1673611581.822854,8.387167,78.50790039104716
1673611581.823862,8.337835,78.49129139180721
1673611581.824869,8.446787,78.47470203424089
1673611581.825876,8.671927,78.45810874833985
1673611581.826883,8.825787,78.44151546243882
1673611581.82789,8.900553,78.42492610487251
1673611581.828897,8.981954,78.40833281897147
1673611581.829904,9.081602,78.39173953307044
1673611581.830911,9.113696,78.37515017550412
1673611581.831918,9.088622,78.35855688960308
1673611581.832925,9.05184,78.34196360370204
1673611581.833932,8.988253,78.32537424613574
1673611581.834939,8.939137,78.3087809602347
1673611581.835947,9.056576,78.308121
1673611581.836954,9.262748,78.2022764029566
1673611581.837961,9.343259,78.16406144791418
1673611581.838968,9.372252,78.14551540104912
1673611581.839975,9.32232,78.145317
1673611581.840982,9.212791,78.072945
1673611581.841989,9.05059,78.07276384120172
1673611581.8429961,8.920434,78.05454445922747
1673611581.844003,8.774532,78.03527368031583
1673611581.84501,8.590069,77.9728622115437
1673611581.8460171,8.47429,77.91045074277157
1673611581.847024,8.463255,77.84805404944187
1673611581.848032,8.453302,77.78558347890008
1673611581.849039,8.521505,77.72317201012795
1673611581.850046,8.657527,77.66077531679825
1673611581.851053,8.810496,77.59836384802614
1673611581.85206,8.941854,77.53595237925401
1673611581.853067,9.032847,77.494064
1673611581.854074,9.062778,77.48183505983313
1673611581.855081,9.126462,77.4391626342394
1673611581.856088,9.250126,77.41635017167381
1673611581.857095,9.123552,77.41381992324196
1673611581.858102,8.985945,77.35419788650454
1673611581.859109,8.934234,77.31776935574631
1673611581.860116,8.857231,77.30195702765856
1673611581.861124,8.826267,77.313171
1673611581.862131,8.800544,77.30492488294574
1673611581.863138,8.758377,77.28390897931261
1673611581.864145,8.720898,77.26288809914536
1673611581.8651521,8.75042,77.2418672189781
1673611581.866159,8.80867,77.22085131534497
1673611581.867166,8.862016,77.19983043517772
1673611581.8681731,8.954355,77.17880955501045
1673611581.86918,8.988373,77.15779365137732
1673611581.870187,8.863843,77.13677277121006
1673611581.8711941,8.660172,77.1157518910428
1673611581.872201,8.584083,77.09473598740968
1673611581.873209,8.582857,77.07369520110589
1673611581.874216,8.663224,77.05267432093864
1673611581.875223,8.745708,77.03165841730551
1673611581.87623,8.78761,77.01063753713825
1673611581.877237,8.868603,76.98961665697098
1673611581.878244,9.022414,76.96860075333785
1673611581.879251,9.221614,76.9475798731706
1673611581.880258,9.337995,76.92655899300334
1673611581.881265,9.371987,76.90554308937021
1673611581.882272,9.336576,76.88452220920296
1673611581.883279,9.296067,76.86350132903569
1673611581.884286,9.219859,76.84248542540256
1673611581.885293,9.116701,76.8214645452353
1673611581.886301,9.016452,76.80042375893152
1673611581.8873081,9.017871,76.77940287876426
1673611581.888315,9.317488,76.77047
1673611581.889322,9.436488,76.77047
1673611581.8903291,9.430502,76.72754651394517
1673611581.891336,9.307246,76.71980994802098
1673611581.892343,9.205988,76.7123191535527
1673611581.8933501,9.134515,76.68698654124941
1673611581.894357,9.060374,76.65754166030989
1673611581.895364,8.893677,76.62110776680973
1673611581.8963711,8.663152,76.607651
1673611581.897378,8.515952,76.60596296425726
1673611581.898386,8.388465,76.60331275440937
1673611581.899393,8.328051,76.60066505185557
1673611581.9004,8.315189,76.5980179761253
1673611581.901407,8.395028,76.5953702735715
1673611581.902414,8.501985,76.5927225710177
1673611581.903421,8.522035,76.59007549528744
1673611581.904428,8.527227,76.58742779273364
1673611581.905435,8.589372,76.58478009017985
1673611581.906442,8.707675,76.58213301444957
1673611581.907449,8.797251,76.57948531189577
1673611581.908456,8.870502,76.57683760934198
1673611581.909463,9.007244,76.5741905336117
1673611581.91047,9.103046,76.5715428310579
1673611581.911478,9.151175,76.50049487127534
1673611581.9124851,9.221109,76.47730967372387
1673611581.913492,9.338692,76.45508865710607
1673611581.914499,9.37843,76.43286237858523
1673611581.9155061,9.288567,76.41063610006438
1673611581.916513,9.060422,76.38841508344659
1673611581.91752,8.905913,76.36618880492574
1673611581.9185271,9.030805,76.34396252640488
1673611581.919534,9.266787,76.3217415097871
1673611581.920541,9.287798,76.29951523126624
1673611581.9215481,9.176033,76.2772889527454
1673611581.922555,9.092588,76.2550679361276
1673611581.923563,8.946782,76.23282060999452
1673611581.92457,8.735586,76.21059433147367
1673611581.925577,8.613869,76.18837331485588
1673611581.926584,8.583818,76.16614703633503
1673611581.927591,8.54908,76.14392075781419
1673611581.928598,8.438253,76.1216997411964
1673611581.929605,8.416424,76.09947346267555
1673611581.930612,8.486166,76.07724718415469
1673611581.931619,8.612691,76.0550261675369
1673611581.932626,8.729143,76.03279988901605
1673611581.933633,8.841172,76.0105736104952
1673611581.93464,8.993758,75.98835259387741
1673611581.935647,9.168629,75.96612631535656
1673611581.936655,9.276234,75.94387898922348
1673611581.9376621,9.327296,75.92165271070263
1673611581.938669,9.392735,75.89943169408484
1673611581.939676,9.319291,75.87720541556398
1673611581.9406831,9.230749,75.85497913704313
1673611581.94169,9.157282,75.83275812042534
1673611581.942697,8.991546,75.81053184190449
1673611581.9437041,8.767032,75.78830556338364
1673611581.944711,8.596992,75.76608454676585
1673611581.945718,8.435777,75.743858268245
1673611581.9467251,8.355073,75.72163198972416
1673611581.947732,8.408058,75.69941097310637
1673611581.94874,8.51927,75.67716364697328
1673611581.949747,8.608556,75.65493736845242
1673611581.950754,8.675797,75.63271635183465
1673611581.951761,8.734625,75.61049007331378
1673611581.952768,8.765156,75.58826379479294
1673611581.953775,8.772729,75.56604277817515
1673611581.954782,8.790231,75.5438164996543
1673611581.955789,8.860789,75.52159022113345
1673611581.956796,8.946782,75.49936920451566
1673611581.957803,9.116701,75.47714292599481
1673611581.95881,9.240606,75.45491664747396
1673611581.959817,9.278301,75.43269563085617
1673611581.960824,9.304987,75.41046935233531
1673611581.961832,9.275609,75.37743509060563
1673611581.9628391,9.217287,75.32277377515499
1673611581.963846,9.15733,75.28075082717521
1673611581.964853,9.057777,75.23401777996376
1673611581.9658601,8.89536,75.24427333782035
1673611581.966867,8.718205,75.2642699363528
1673611581.967874,8.597377,75.28024466523605
1673611581.9688811,8.568384,75.25507730042918
1673611581.969888,8.635289,75.232796
1673611581.970895,8.710776,75.22197341468377
1673611581.9719021,8.785062,75.19459940248277
1673611581.972909,8.846125,75.16723187087177
1673611581.973917,8.990031,75.13983193631071
1673611581.974924,9.224619,75.1124579241097
1673611581.975931,9.309674,75.08509039249871
1673611581.976938,9.2445,75.0577163802977
1673611581.977945,9.221734,75.03034236809668
1673611581.978952,9.227696,75.00297483648569
1673611581.979959,9.157834,74.97560082428468
1673611581.980966,9.035732,74.94822681208366
1673611581.981973,8.879541,74.92085928047267
1673611581.98298,8.800833,74.89348526827166
1673611581.983987,8.765156,74.86611125607065
1673611581.984994,8.711113,74.83874372445965
1673611581.986001,8.609782,74.81136971225864
1673611581.987009,8.59317,74.78396977769759
1673611581.9880161,8.626081,74.75659576549657
1673611581.989023,8.716378,74.72922823388558
1673611581.99003,8.876416,74.70185422168457
1673611581.9910371,9.01864,74.67448020948356
1673611581.992044,9.141391,74.64711267787256
1673611581.993051,9.179567,74.61973866567155
1673611581.9940581,9.163845,74.59236465347054
1673611581.995065,9.097685,74.56499712185953
1673611581.996072,9.020299,74.53762310965853
1673611581.9970791,8.905722,74.51024909745752
1673611581.998086,8.784148,74.48288156584651
1673611581.999094,8.808694,74.45548163128547
1673611582.000101,8.977146,74.42810761908446
1673611582.001108,9.084247,74.40074008747345
1673611582.002115,9.142521,74.37336607527244
1673611582.003122,9.405885,74.34599206307144
1673611582.004129,9.799308,74.31862453146043
1673611582.005136,10.087193,74.29125051925942
1673611582.006143,10.089021,74.26387650705841
1673611582.00715,9.860395,74.2365089754474
1673611582.008157,9.642035,74.2091349632464
1673611582.009164,9.485891,74.18176095104539
1673611582.010171,9.285033,74.15439341943438
1673611582.011178,8.959115,74.12701940723338
1673611582.012186,8.494821,74.09961947267233
1673611582.0131931,7.957466,74.07224546047132
1673611582.0142,7.636525,74.04487792886032
1673611582.015207,7.688092,74.01750391665931
1673611582.0162141,7.784663,73.9901299044583
1673611582.017221,7.945686,73.97006178969957
1673611582.018228,8.153444,73.93719438879619
1673611582.0192351,8.306895,73.90074616976634
1673611582.020242,8.427315,73.84940830472104
1673611582.021249,8.514245,73.80979463909416
1673611582.0222561,8.570981,73.78851957200763
1673611582.023263,8.616417,73.70916262041011
1673611582.024271,8.655603,73.695145
1673611582.025278,8.717772,73.67958690987125
1673611582.026285,8.776504,73.65438902096724
1673611582.027292,8.827397,73.62805758657936
1673611582.028299,8.919136,73.60172615219149
1673611582.029306,9.029242,73.57540095157121
1673611582.030313,9.089727,73.54906951718334
1673611582.03132,9.10706,73.52273808279546
1673611582.032327,9.045877,73.49641288217518
1673611582.033334,8.969309,73.47008144778731
1673611582.034341,8.824656,73.44375001339942
1673611582.035348,8.697145,73.41742481277915
1673611582.036355,8.706906,73.39109337839128
1673611582.037363,8.71246,73.36473700893295
1673611582.0383701,8.677288,73.33840557454506
1673611582.039377,8.721883,73.3120803739248
1673611582.040384,8.820714,73.28574893953692
1673611582.0413911,8.89346,73.25941750514903
1673611582.042398,8.997195,73.23309230452877
1673611582.043405,9.167234,73.20676087014088
1673611582.0444121,9.303713,73.17075197043395
1673611582.045419,9.293231,73.22440281909309
1673611582.046426,9.189904,73.18655415527506
1673611582.0474331,9.061721,73.08189751287553
1673611582.04844,8.909304,73.152443
1673611582.049448,8.893942,73.15170115259896
1673611582.050455,8.881392,73.134354
1673611582.051462,8.913054,73.134354
1673611582.052469,8.922862,73.134354
1673611582.053476,8.847663,73.13685259966658
1673611582.054483,8.76357,73.1718863776824
1673611582.05549,8.646685,73.19159222243437
1673611582.056497,8.547109,73.2182863191236
1673611582.057504,8.605119,73.1559108011445
1673611582.058511,8.759771,73.18675687350834
1673611582.059518,8.839033,73.16651700881161
1673611582.060525,8.847735,73.14069432427277
1673611582.061532,8.895624,73.19311187112172
1673611582.06254,9.071264,73.22239330901287
1673611582.0635471,9.243683,73.20417793688974
1673611582.064554,9.298183,73.19126176992417
1673611582.065561,9.282125,73.20948135842038
1673611582.0665681,9.294553,73.22770094691658
1673611582.067575,9.292558,73.24591622206324
1673611582.068582,9.366819,73.26413581055945
1673611582.0695891,9.498657,73.25931353846154
1673611582.070596,9.358766,73.17732958035288
1673611582.071603,9.21969,73.21377391264916
1673611582.07261,9.11562,73.242889
1673611582.073617,9.005754,73.2277076432484
1673611582.074625,8.853505,73.17838199761563
1673611582.075632,8.759242,73.206711
1673611582.076639,8.800256,73.18575245487021
1673611582.077646,8.840067,73.14209111683357
1673611582.078653,8.749722,73.22637902004543
1673611582.07966,8.582785,73.23286559752776
1673611582.080667,8.443734,73.2393537110218
1673611582.081674,8.616513,73.24584182451585
1673611582.082681,8.836605,73.25232840199817
1673611582.083688,8.815809,73.25881651549223
1673611582.084695,8.742438,73.26530462898627
1673611582.085702,8.853986,73.27179120646859
1673611582.086709,8.920843,73.27827931996265
1673611582.087717,8.857737,73.28477357750356
1673611582.0887241,8.742654,73.2912616909976
1673611582.089731,8.668249,73.29774826847994
1673611582.090738,8.641275,73.30423638197398
1673611582.0917451,8.64993,73.31072449546802
1673611582.092752,8.682096,73.31721107295036
1673611582.093759,8.763064,73.3236991864444
1673611582.094766,8.887643,73.33018576392672
1673611582.095773,8.996258,73.33667387742078
1673611582.09678,8.988444,73.34316199091482
1673611582.097787,8.916659,73.34964856839714
1673611582.098794,8.841125,73.35613668189119
1673611582.099802,8.823983,73.36263093943211
1673611582.100809,8.769868,73.36911905292615
1673611582.101816,8.687144,73.37560563040849
1673611582.102823,8.594877,73.38209374390253
1673611582.10383,8.509196,73.38858185739657
1673611582.104837,8.531747,73.39506843487891
1673611582.105844,8.688611,73.40155654837295
1673611582.106851,8.869493,73.408044661867
1673611582.107858,9.01424,73.41453123934933
1673611582.108865,9.029314,73.42101935284337
1673611582.109872,9.009,73.42750746633742
1673611582.110879,9.018832,73.43399404381974
1673611582.111886,9.026404,73.4404821573138
1673611582.112894,9.005418,73.4469764148547
1673611582.1139011,8.985896,73.45346452834875
1673611582.114908,8.96349,73.45995110583108
1673611582.115915,8.990897,73.46643921932512
1673611582.116922,8.890888,73.47292579680746
1673611582.117929,8.743423,73.4794139103015
1673611582.118936,8.730057,73.48590202379555
1673611582.119943,8.763762,73.49238860127788
1673611582.12095,8.820017,73.49887671477192
1673611582.121957,8.911996,73.50536482826597
1673611582.122964,8.953778,73.51185140574829
1673611582.123971,9.004095,73.51833951924235
1673611582.124979,9.107037,73.52483377678325
1673611582.125986,9.173148,73.5313218902773
1673611582.126993,9.156512,73.53780846775963
1673611582.128,9.071938,73.54429658125368
1673611582.129007,8.96337,73.55078469474772
1673611582.130014,8.82795,73.55727127223005
1673611582.131021,8.763521,73.5637593857241
1673611582.132028,8.749217,73.57024749921814
1673611582.133035,8.69176,73.57673407670048
1673611582.134042,8.637404,73.58322219019452
1673611582.135049,8.640338,73.58971030368856
1673611582.136056,8.670869,73.5961968811709
1673611582.137063,8.698132,73.60268499466494
1673611582.138071,8.734865,73.60917925220585
1673611582.139078,8.713373,73.61566582968818
1673611582.140085,8.651444,73.62215394318223
1673611582.141092,8.700079,73.62864205667627
1673611582.142099,8.802659,73.6351286341586
1673611582.143106,8.958467,73.64161674765265
1673611582.144113,9.139155,73.64810486114669
1673611582.14512,9.327921,73.65459143862903
1673611582.146127,9.444686,73.67083305697258
1673611582.147134,9.402663,73.70120485813067
1673611582.148141,9.241664,73.73178915307582
1673611582.149148,9.125596,73.7422503556615
1673611582.150156,8.997124,73.71451533762517
1673611582.151163,8.814752,73.70638899405469
1673611582.15217,8.664979,73.66676551680048
1673611582.153177,8.593867,73.6883057294398
1673611582.154184,8.564345,73.68402098712446
1673611582.155191,8.605503,73.6906096531178
1673611582.156198,8.676254,73.67895679105553
1673611582.157205,8.736909,73.66730392899326
1673611582.158212,8.834705,73.6556538256578
1673611582.159219,8.910481,73.64400096359553
1673611582.160226,8.922694,73.63234810153325
1673611582.161233,8.90238,73.6206979981978
1673611582.16224,8.924977,73.60904513613552
1673611582.163248,8.930699,73.597381239166
1673611582.164255,8.916684,73.58573113583053
1673611582.165262,8.931349,73.57407827376827
1673611582.166269,9.007461,73.56242541170599
1673611582.167276,9.112494,73.55077530837053
1673611582.168283,9.096435,73.53912244630826
1673611582.16929,9.015611,73.52746958424598
1673611582.170297,8.915338,73.51581948091052
1673611582.171304,8.893605,73.50416661884825
1673611582.172311,8.981329,73.496147
1673611582.173318,9.039964,73.48453622556032
1673611582.174325,8.992027,73.46590236448152
1673611582.175333,8.946278,73.4719808896042
1673611582.17634,8.906827,73.46617550238436
1673611582.177347,8.862785,73.45273736209774
1673611582.178354,8.778835,73.39279017811158
1673611582.179361,8.658368,73.37611313948499
1673611582.180368,8.616009,73.38090283690987
1673611582.181375,8.711666,73.36464394023683
1673611582.182382,8.72496,73.35163087816896
1673611582.183389,8.607931,73.33862089684494
1673611582.184396,8.608484,73.32560783477707
1673611582.185403,8.789053,73.3125947727092
1673611582.18641,8.953154,73.2995847913852
1673611582.187417,9.06398,73.28657172931733
1673611582.188425,9.11021,73.27354634427402
1673611582.189432,9.084102,73.26053636295
1673611582.190439,9.109344,73.24752330088214
1673611582.191446,9.11235,73.23451023881427
1673611582.192453,9.097541,73.22150025749026
1673611582.19346,9.124659,73.20848719542239
1673611582.194467,9.060398,73.19547413335452
1673611582.195474,8.88144,73.18246415203052
1673611582.196481,8.679548,73.16945108996265
1673611582.197488,8.438253,73.15643802789478
1673611582.198495,8.290403,73.14342804657076
1673611582.199502,8.26117,73.13041498450289
1673611582.20051,8.389739,73.11738959945959
1673611582.201517,8.569346,73.10437653739172
1673611582.202524,8.655483,73.06957093943728
1673611582.203531,8.714022,73.043892
1673611582.204538,8.771935,73.043892
1673611582.205545,8.866102,73.06372361945637
1673611582.206552,8.947335,73.07003630042918
1673611582.207559,9.017414,73.01502410606551
1673611582.208566,9.016404,73.0120669776192
1673611582.209573,8.966279,73.02305068764902
1673611582.21058,8.878531,73.02880807365912
1673611582.211587,8.804174,73.02786324598598
1673611582.212594,8.793332,73.00049644851016
1673611582.213602,8.824489,72.97310373550643
1673611582.214609,8.789534,72.94574341691258
1673611582.215616,8.712868,72.91837661943676
1673611582.216623,8.663777,72.89100982196092
1673611582.21763,8.65558,72.86364950336709
1673611582.218637,8.658296,72.83628270589125
1673611582.219644,8.697218,72.80891590841543
1673611582.220651,8.73186,72.78155558982158
1673611582.221658,8.762824,72.75418879234576
1673611582.222665,8.829536,72.72682199486994
1673611582.223672,8.853145,72.69946167627609
1673611582.224679,8.858554,72.67209487880027
1673611582.225687,8.901201,72.64470216579653
1673611582.226694,8.979574,72.6173353683207
1673611582.227701,9.138025,72.58997504972685
1673611582.228708,9.227864,72.56260825225102
1673611582.229715,9.2324560000000009,72.5352414547752
1673611582.230722,9.183823,72.50788113618135
1673611582.231729,9.199016,72.48051433870553
1673611582.232736,9.261642,72.45314754122971
1673611582.233743,9.340976,72.42578722263586
1673611582.23475,9.359198,72.39842042516004
1673611582.235757,9.280682,72.3710536276842
1673611582.236764,9.139276,72.34369330909036
1673611582.237771,9.015851,72.31632651161453
1673611582.238779,8.948009,72.2889337986108
1673611582.239786,8.897524,72.26157348001695
1673611582.240793,8.800303,72.23420668254113
1673611582.2418,8.753785,72.2068398850653
1673611582.242807,8.736789,72.17947956647146
1673611582.243814,8.651949,72.15211276899564
1673611582.244821,8.522947,72.1247459715198
1673611582.245828,8.502995,72.09738565292596
1673611582.246835,8.598195,72.07001885545013
1673611582.247842,8.727197,72.04265205797431
1673611582.248849,8.805472,72.01529173938046
1673611582.249856,8.900937,71.98792494190464
1673611582.250864,9.034122,71.9605322289009
1673611582.251871,9.161128,71.93316543142507
1673611582.252878,9.258901,71.90580511283123
1673611582.253885,9.12449,71.8784383153554
1673611582.254892,8.96902,71.85107151787957
1673611582.255899,9.002244,71.82371119928573
1673611582.256906,9.085448,71.7963444018099
1673611582.257913,9.101964,71.76897760433408
1673611582.25892,9.047441,71.71189278307509
1673611582.259927,8.918847,71.6390137925608
1673611582.260934,8.750924,71.614769
1673611582.261941,8.585646,71.60248831537545
1673611582.262948,8.46513,71.53464065736767
1673611582.263956,8.417578,71.48112963400095
1673611582.264963,8.392407,71.4447011702432
1673611582.26597,8.427675,71.38264495113229
1673611582.266977,8.47215,71.32270562756318
1673611582.267984,8.514606,71.28179103068034
1673611582.268991,8.595791,71.2462860378117
1673611582.269998,8.696568,71.21078104494306
1673611582.271005,8.850909,71.1752844576125
1673611582.272012,9.079679,71.13977946474387
1673611582.273019,9.285562,71.10427447187523
1673611582.274026,9.429781,71.06877788454467
1673611582.275033,9.46839,71.03327289167603
1673611582.276041,9.391508,70.99773427665507
1673611582.277048,9.283013,70.96222928378643
1673611582.278055,9.199425,70.92673269645587
1673611582.279062,9.111508,70.89122770358723
1673611582.280069,8.916659,70.8557227107186
1673611582.281076,8.754435,70.82022612338804
1673611582.282083,8.69301,70.7847211305194
1673611582.28309,8.616802,70.74921613765076
1673611582.284097,8.503186,70.7137195503202
1673611582.285104,8.532011,70.67821455745157
1673611582.286111,8.632861,70.64270956458293
1673611582.287118,8.693155,70.60721297725237
1673611582.288125,8.737774,70.57170798438374
1673611582.289133,8.735659,70.53616936936275
1673611582.29014,8.699286,70.5006727820322
1673611582.291147,8.7373169999999991,70.46516778916356
1673611582.292154,8.819944,70.42966279629492
1673611582.293161,8.898341,70.39416620896436
1673611582.294168,8.938393,70.35866121609573
1673611582.295175,8.958875,70.32315622322709
1673611582.296182,8.930747,70.28765963589653
1673611582.297189,8.785566,70.2521546430279
1673611582.298196,8.718326,70.21664965015925
1673611582.299203,8.715032,70.1811530628287
1673611582.30021,8.708734,70.14564806996006
1673611582.301218,8.760973,70.11010945493909
1673611582.302225,8.853745,70.07460446207045
1673611582.303232,8.861319,70.04880890464838
1673611582.304239,8.803958,70.00988870982356
1673611582.305246,8.824103,69.94474966881259
1673611582.306253,8.929689,69.92489798974971
1673611582.30726,9.039771,69.932388
1673611582.308267,9.088622,69.89981943633762
1673611582.309274,9.006716,69.86714155089392
1673611582.310281,8.847928,69.83781870863137
1673611582.311288,8.822998,69.84632407534573
1673611582.312295,8.878242,69.85245733418104
1673611582.313302,8.898798,69.84031186553287
1673611582.31431,8.92428,69.82815489549392
1673611582.315317,8.955389,69.81601230219344
1673611582.316324,8.951639,69.80386683354527
1673611582.317331,8.887763,69.79172136489709
1673611582.318338,8.860068,69.7795787715966
1673611582.319345,8.884157,69.76743330294843
1673611582.320352,8.926011,69.75528783430025
1673611582.321359,8.949908,69.74314524099977
1673611582.322366,8.968323,69.7309997723516
1673611582.323373,8.923102,69.71885430370341
1673611582.32438,8.889638,69.74111254315689
1673611582.325387,8.953057,69.71241509823558
1673611582.326395,8.975415,69.65771237854588
1673611582.327402,8.952744,69.61635689818789
1673611582.328409,8.985392,69.606773
1673611582.329416,9.009768,69.5932245761621
1673611582.330423,8.972746,69.54765304434906
1673611582.33143,8.910842,69.534416
1673611582.332437,8.847423,69.5622725363528
1673611582.333444,8.936061,69.56542292406375
1673611582.334451,9.085809,69.55872096742715
1673611582.335458,9.064389,69.55201742377736
1673611582.3364651,8.999191,69.54531388012757
1673611582.337472,8.977098,69.53861192349095
1673611582.338479,8.938007,69.53190837984116
1673611582.339487,8.879036,69.52519848813867
1673611582.340494,8.713614,69.51849653150205
1673611582.341501,8.553648,69.51179298785226
1673611582.342508,8.555379,69.50508944420247
1673611582.343515,8.591343,69.49838748756586
1673611582.344522,8.64916,69.49168394391607
1673611582.345529,8.708421,69.48498040026628
1673611582.346536,8.725706,69.47827844362966
1673611582.347543,8.794703,69.47157489997987
1673611582.34855,8.904062,69.46487135633008
1673611582.349557,9.03405,69.45816939969347
1673611582.350564,9.188967,69.45146585604368
1673611582.351572,9.288856,69.44475596434118
1673611582.352579,9.308953,69.4380524206914
1673611582.353586,9.356842,69.43135046405479
1673611582.354593,9.317415,69.424646920405
1673611582.3556,9.116004,69.4179433767552
1673611582.356607,8.996907,69.41124142011859
1673611582.357614,8.895648,69.4045378764688
1673611582.3586211,8.6682,69.397834332819
1673611582.359628,8.355914,69.3911323761824
1673611582.360635,8.116687,69.3844288325326
1673611582.3616421,8.184529,69.37772528888281
1673611582.362649,8.458279,69.3710233322462
1673611582.363657,8.984647,69.36431344054371
1673611582.364664,9.157353,69.35760989689392
1673611582.365671,9.219811,69.3509079402573
1673611582.366678,9.132496,69.34420439660751
1673611582.367685,8.898293,69.33750085295772
1673611582.368692,8.743712,69.33079889632111
1673611582.369699,8.682865,69.32409535267132
1673611582.370706,8.64904,69.31739180902153
1673611582.371713,8.696112,69.31068985238491
1673611582.37272,8.727221,69.30398630873512
1673611582.373727,8.754049,69.29728276508533
1673611582.374734,8.80064,69.29058080844872
1673611582.375741,8.823118,69.28387726479893
1673611582.376749,8.83134,69.27716737309643
1673611582.377756,8.900216,69.27046382944665
1673611582.378763,8.930483,69.26376187281004
1673611582.37977,8.95748,69.29569465951359
1673611582.3807771,8.971688,69.31568572174535
1673611582.381784,8.871247,69.317329
1673611582.382791,8.781432,69.317329
1673611582.3837981,8.737678,69.33415520171674
1673611582.384805,8.674932,69.31846771244635
1673611582.385812,8.573193,69.2831776579261
1673611582.3868191,8.554897,69.33276641535527
1673611582.387826,8.655844,69.30075824129709
1673611582.388834,8.747005,69.31004384022404
1673611582.389841,8.771935,69.32130628373498
1673611582.390848,8.798452,69.33256606094776
1673611582.391855,8.798982,69.30821142584645
1673611582.392862,8.846678,69.20310886027659
1673611582.393869,8.916612,69.29730850464838
1673611582.394876,8.968612,69.32143526609443
1673611582.395883,8.966375,69.34555448593228
1673611582.39689,9.051623,69.38197686269368
1673611582.397897,9.159013,69.37532369527896
1673611582.398904,9.151272,69.42957823032903
1673611582.399911,9.09831,69.42934357687723
1673611582.400918,9.044796,69.47010422126849
1673611582.401926,9.009601,69.46525929518359
1673611582.4029331,8.909832,69.47707351680572
1673611582.40394,8.7561889999999991,69.5255654248927
1673611582.404947,8.585934,69.55088928359987
1673611582.4059541,8.496816,69.57054554064109
1673611582.406961,8.492104,69.59019714421237
1673611582.407968,8.48845,69.60985340125357
1673611582.4089751,8.53504,69.6295096582948
1673611582.409982,8.688227,69.64916126186607
1673611582.410989,8.804751,69.66881751890728
1673611582.4119961,8.876945,69.6884737759485
1673611582.413003,8.921492,69.70812537951977
1673611582.414011,8.96914,69.72780025044075
1673611582.415018,9.068668,69.74745650748197
1673611582.416025,9.188943,69.76710811105325
1673611582.417032,9.206709,69.78676436809445
1673611582.418039,9.222167,69.80642062513567
1673611582.419046,9.324844,69.82607222870695
1673611582.420053,9.247578,69.84572848574817
1673611582.42106,9.030275,69.86538474278937
1673611582.422067,9.019265,69.88503634636065
1673611582.423074,9.09516,69.90469260340187
1673611582.424081,9.057874,69.92434886044308
1673611582.425088,9.002364,69.94400046401435
1673611582.426095,8.922285,69.96365672105557
1673611582.427103,8.803934,69.98333159197655
1673611582.4281101,8.700487,70.00298784901777
1673611582.429117,8.70205,70.02263945258905
1673611582.430124,8.708132,70.04229570963025
1673611582.4311311,8.704213,70.06195196667147
1673611582.432138,8.679428,70.08160357024275
1673611582.433145,8.654233,70.10125982728397
1673611582.4341521,8.705969,70.12091608432517
1673611582.435159,8.779412,70.14056768789645
1673611582.436166,8.938993,70.16022394493767
1673611582.4371731,9.213296,70.17988020197888
1673611582.43818,9.379513,70.19953180555015
1673611582.439188,9.351697,70.21920667647115
1673611582.440195,9.306982,70.23886293351235
1673611582.441202,9.282701,70.25851453708363
1673611582.442209,9.155046,70.2761
1673611582.443216,8.942672,70.2801905951359
1673611582.444223,8.800977,70.31012452765856
1673611582.44523,8.771455,70.30110007604291
1673611582.446237,8.738495,70.34120103624225
1673611582.447244,8.626731,70.294205
1673611582.448251,8.526986,70.29688277568535
1673611582.449258,8.497105,70.31694320917359
1673611582.450265,8.48107,70.36170536457098
1673611582.451272,8.463159,70.31009365717675
1673611582.45228,8.425464,70.289170347795
1673611582.4532871,8.554176,70.312294
1673611582.454294,8.732942,70.32293002145923
1673611582.455301,8.776527,70.330383
1673611582.4563081,8.743808,70.31949079165673
1673611582.457315,8.724672,70.33432575154983
1673611582.458322,8.718637,70.348473
1673611582.4593291,8.671879,70.35114307379662
1673611582.460336,8.600647,70.3554566627955
1673611582.461343,8.633101,70.35977127324574
1673611582.4623501,8.70693,70.36408588369598
1673611582.463357,8.772778,70.36839947269488
1673611582.464365,8.791409,70.37271816895046
1673611582.465372,8.762271,70.3770327794007
1673611582.466379,8.722749,70.38134636839959
1673611582.467386,8.74441,70.38566097884981
1673611582.468393,8.795952,70.38997558930005
1673611582.4694,8.862761,70.39428917829895
1673611582.470407,8.890528,70.39860378874918
1673611582.471414,8.900913,70.40291839919942
1673611582.472421,8.904712,70.4072319881983
1673611582.473428,8.915987,70.41154659864854
1673611582.474435,8.955076,70.41586120909878
1673611582.475442,8.960294,70.42017479809768
1673611582.476449,8.935002,70.42448940854791
1673611582.477457,8.950293,70.4288081048035
1673611582.4784641,8.905192,70.43312271525372
1673611582.479471,8.815474,70.43743630425261
1673611582.480478,8.801434,70.44175091470285
1673611582.4814851,8.812829,70.44606552515309
1673611582.482492,8.742702,70.45037911415199
1673611582.483499,8.672865,70.45469372460221
1673611582.4845061,8.64856,70.45900833505245
1673611582.485513,8.676807,70.46332192405134
1673611582.48652,8.715632,70.46763653450158
1673611582.4875271,8.739072,70.47195114495182
1673611582.488534,8.75643,70.4762647339507
1673611582.489542,8.72508,70.4805834302063
1673611582.490549,8.757848,70.48489804065652
1673611582.491556,8.794991,70.48921162965541
1673611582.492563,8.85062,70.49352624010565
1673611582.49357,8.980559,70.49784085055589
1673611582.494577,9.123336,70.50215443955479
1673611582.495584,9.218969,70.50646905000501
1673611582.496591,9.266931,70.51078366045525
1673611582.497598,9.288856,70.5435472539342
1673611582.498605,9.285995,70.53119430417163
1673611582.499612,9.230004,70.46380558035288
1673611582.500619,9.178774,70.49003837458274
1673611582.501626,9.123361,70.4432537114926
1673611582.502634,9.067826,70.45570576448152
1673611582.5036411,9.070856,70.49084062708631
1673611582.504648,9.15781,70.4761460751073
1673611582.505655,9.231182,70.4579308271752
1673611582.5066621,9.206108,70.44019144078634
1673611582.507669,8.985536,70.4224816329162
1673611582.508676,8.687697,70.40476763139038
1673611582.5096831,8.532492,70.38705362986458
1673611582.51069,8.505013,70.36934382199443
1673611582.511697,8.595767,70.35162982046862
1673611582.5127041,8.652983,70.33391581894281
1673611582.513711,8.753665,70.31620601107267
1673611582.514719,8.891297,70.2984752349242
1673611582.515726,8.908751,70.28076123339838
1673611582.516733,8.959572,70.26305142552823
1673611582.51774,9.143867,70.24533742400243
1673611582.518747,9.309362,70.22762342247661
1673611582.519754,9.407472,70.20991361460648
1673611582.520761,9.440143,70.19219961308066
1673611582.521768,9.364175,70.17448561155486
1673611582.522775,8.798212,70.15677580368471
1673611582.523782,8.641155,70.13906180215889
1673611582.524789,8.57288,70.12134780063309
1673611582.525796,8.53706,70.10363799276294
1673611582.526803,8.518308,70.08592399123712
1673611582.527811,8.546268,70.06819321508866
1673611582.5288181,8.611897,70.05047921356285
1673611582.529825,8.605503,70.0327694056927
1673611582.530832,8.59983,70.0150554041669
1673611582.5318391,8.649233,69.99734140264108
1673611582.532846,8.681423,69.97963159477094
1673611582.533853,8.734312,69.96191759324513
1673611582.5348601,8.778426,69.94420359171932
1673611582.535867,8.892115,69.92649378384917
1673611582.536874,9.054508,69.90877978232336
1673611582.5378811,9.099608,69.89106578079755
1673611582.538888,9.05071,69.8733559729274
1673611582.539896,8.911035,69.85562519677893
1673611582.540903,8.74441,69.83791119525313
1673611582.54191,8.620817,69.82020138738298
1673611582.542917,8.609662,69.80248738585718
1673611582.543924,8.558455,69.78477338433136
1673611582.544931,8.474554,69.76706357646121
1673611582.545938,8.482752,69.74934957493541
1673611582.546945,8.522419,69.73163557340959
1673611582.547952,8.624351,69.71392576553944
1673611582.548959,8.676639,69.69621176401364
1673611582.549966,8.707868,69.67849776248782
1673611582.550973,8.689837,69.66078795461767
1673611582.55198,8.687409,69.64307395309187
1673611582.552988,8.724407,69.6253431769434
1673611582.5539951,8.774364,69.6076291754176
1673611582.555002,8.802131,69.58991936754745
1673611582.556009,8.867088,69.57220536602163
1673611582.5570161,8.906394,69.55449136449583
1673611582.558023,8.952793,69.53678155662568
1673611582.55903,8.921877,69.51906755509987
1673611582.5600371,8.864612,69.50135355357406
1673611582.561044,8.82021,69.48364374570392
1673611582.562051,8.796168,69.4659297441781
1673611582.5630581,8.77672,69.44782156819265
1673611582.564065,8.688418,69.4583325107296
1673611582.565073,8.670028,69.46951745504222
1673611582.56608,8.709142,69.462059
1673611582.567087,8.739697,69.409277171386
1673611582.568094,8.767632,69.42906812589413
1673611582.569101,8.803164,69.44089279737783
1673611582.570108,8.821051,69.45910886266094
1673611582.575143,9.041622,69.51097879780639
1673611582.57615,9.002677,69.51493385268176
1673611582.577157,9.007894,69.48676892274678
1673611582.578165,9.048906,69.49147042489271
1673611582.5791721,9.07326,69.480148
1673611582.580179,9.075929,69.480148
1673611582.581186,9.103358,69.480148
1673611582.5821931,9.10985,69.49469721883194
1673611582.5832,9.097541,69.51430958398839
1673611582.584207,9.122759,69.50934074128689
1673611582.5852141,9.234908,69.50437189858539
1673611582.586221,9.385161,69.49940423221976
1673611582.587228,9.472237,69.49443538951826
1673611582.588235,9.370978,69.48946772315261
1673611582.589242,9.24539,69.48449888045113
1673611582.59025,9.044747,69.47952533240615
1673611582.591257,8.750636,69.47455648970465
1673611582.592264,8.546916,69.46958882333902
1673611582.593271,8.44823,69.46461998063752
1673611582.594278,8.525953,69.45965113793602
1673611582.595285,8.727821,69.45468347157039
1673611582.596292,8.80088,69.44971462886889
1673611582.597299,8.857808,69.44474578616739
1673611582.598306,8.905962,69.43977811980176
1673611582.599313,8.929305,69.43480927710026
1673611582.60032,8.893869,69.42984043439876
1673611582.601327,8.877065,69.42487276803313
1673611582.602334,8.90964,69.41990392533162
1673611582.603342,8.840115,69.41493037728665
1673611582.6043491,8.684452,69.40996153458515
1673611582.605356,8.596007,69.40499386821952
1673611582.606363,8.693203,69.40002502551802
1673611582.6073701,8.819296,69.39505618281652
1673611582.608377,8.895673,69.39008851645089
1673611582.609384,8.972218,69.38511967374939
1673611582.610391,8.92606,69.38015200738376
1673611582.611398,8.782104,69.37518316468226
1673611582.612405,8.698973,69.37021432198075
1673611582.613412,8.642622,69.36524665561512
1673611582.614419,8.61084,69.36027781291362
1673611582.615427,8.61173,69.35530426486866
1673611582.616434,8.568264,69.3651403397711
1673611582.617441,8.465202,69.33632409394373
1673611582.618448,8.417217,69.34109761120382
1673611582.619455,8.437868,69.32948355674773
1673611582.620462,8.509677,69.29305506294706
1673611582.621469,8.638367,69.29341736051502
1673611582.622476,8.835066,69.23727532681764
1673611582.623483,8.990969,69.23382703671912
1673611582.62449,9.066672,69.23232608965189
1673611582.625497,9.093598,69.2327569762826
1673611582.626504,9.032415,69.24113165617504
1673611582.627511,8.891369,69.24950831917899
1673611582.628519,8.879518,69.25789291462895
1673611582.6295261,8.927165,69.2662695776329
1673611582.630533,8.942985,69.27464425752534
1673611582.63154,8.95337,69.28302092052928
1673611582.632547,8.879493,69.29139560042172
1673611582.633554,8.705007,69.29977226342568
1673611582.634561,8.650603,69.30814892642962
1673611582.635568,8.628438,69.31652360632206
1673611582.636575,8.584131,69.32490026932601
1673611582.637582,8.564442,69.33327693232995
1673611582.638589,8.563817,69.34165161222239
1673611582.639596,8.568697,69.35002827522634
1673611582.640604,8.622187,69.35841287067632
1673611582.641611,8.724336,69.36678953368026
1673611582.642618,8.87019,69.3751642135727
1673611582.643625,8.976593,69.38354087657665
1673611582.644632,9.003325,69.39191753958059
1673611582.645639,8.934425,69.40029221947303
1673611582.646646,8.880695,69.40866888247697
1673611582.647653,8.913198,69.41704554548092
1673611582.64866,8.898509,69.42542022537336
1673611582.649667,8.81004,69.4337968883773
1673611582.650674,8.756501,69.44217355138126
1673611582.651681,8.770373,69.4505482312737
1673611582.652688,8.808958,69.45892489427764
1673611582.653696,8.82759,69.46730948972761
1673611582.654703,8.878844,69.47568416962005
1673611582.65571,8.94921,69.484060832624
1673611582.656717,9.040781,69.49243749562794
1673611582.657724,9.129562,69.50081217552038
1673611582.658731,9.112229,69.50918883852432
1673611582.659738,8.898196,69.51756550152828
1673611582.660745,8.791168,69.52594018142072
1673611582.661752,8.846461,69.53431684442467
1673611582.662759,8.842375,69.60634220100025
1673611582.663766,8.822156,69.588684
1673611582.664773,8.932262,69.58982992760181
1673611582.665781,9.131558,69.7147304973747
1673611582.666788,9.224523,69.6795666196948
1673611582.667795,9.246039,69.69665996904025
1673611582.668802,9.18452,69.68113716714353
1673611582.669809,8.93344,69.73421267899761
1673611582.670816,8.571318,69.75187905948549
1673611582.671823,8.377069,69.75916564327778
1673611582.67283,8.610456,69.76645222707008
1673611582.673837,8.92618,69.77373708581885
1673611582.674844,9.249044,69.78102366961114
1673611582.675851,9.514332,69.78831025340342
1673611582.676858,9.574288,69.7955951121522
1673611582.677865,9.478319,69.80288169594449
1673611582.678873,9.307102,69.81017517991083
1673611582.67988,9.124202,69.8174600386596
1673611582.680887,8.794077,69.8247466224519
1673611582.681894,8.760132,69.83203320624419
1673611582.682901,8.772825,69.83931806499297
1673611582.683908,8.69313,69.84660464878526
1673611582.684915,8.630841,69.85389123257754
1673611582.685922,8.615504,69.86117609132631
1673611582.686929,8.574106,69.86846267511861
1673611582.687936,8.577424,69.8757492589109
1673611582.688943,8.633606,69.88303411765968
1673611582.68995,8.598026,69.89032070145197
1673611582.690958,8.565475,69.89621
1673611582.691965,8.57324,69.87811788721983
1673611582.692972,8.605576,69.82075881193317
1673611582.693979,8.607715,69.87812
1673611582.694986,8.632236,69.86607502643486
1673611582.695993,8.647526,69.823853
1673611582.697,8.660267,69.82812293562232
1673611582.698007,8.778211,69.8331555222672
1673611582.699014,8.868939,69.8012638601432
1673611582.700021,8.861872,69.7854044686529
1673611582.701028,8.84562,69.77648026419077
1673611582.702035,8.906443,69.76755817246644
1673611582.703042,8.96813,69.7586339680043
1673611582.70405,8.996979,69.74970131259099
1673611582.705057,9.046671,69.74077922086666
1673611582.706064,9.056071,69.73185501640452
1673611582.707071,8.967986,69.72293081194239
1673611582.708078,8.897259,69.71400872021806
1673611582.709085,8.88108,69.70508451575593
1673611582.710092,8.872425,69.69616031129381
