measure_time,emg_ch_1,grip_force_inter
1673611545.24097,10.927339,-0.221104
1673611545.241977,10.913178,-0.29309270791607056
1673611545.242984,10.901062,-0.238938529089175
1673611545.243991,10.884883,-0.2218630865315852
1673611545.244999,10.858318,-0.25729
1673611545.246006,10.82995,-0.2573196012332768
1673611545.2470129,10.827354,-0.2581474555917399
1673611545.24802,10.835648,-0.2589755059848604
1673611545.249027,10.845096,-0.2598035563779809
1673611545.2500339,10.858438,-0.260631410736444
1673611545.251041,10.868391,-0.26145946112956453
1673611545.252048,10.880243,-0.26228751152268504
1673611545.2530549,10.861611,-0.2631153658811481
1673611545.254062,10.843245,-0.26394341627426865
1673611545.255069,10.87469,-0.26477146666738915
1673611545.2560759,10.891278,-0.2655993210258522
1673611545.257083,10.883321,-0.26642737141897277
1673611545.258091,10.881638,-0.26725620595072314
1673611545.259098,10.885099,-0.26808425634384364
1673611545.260105,10.886806,-0.2689121107023067
1673611545.261112,10.882431,-0.26974016109542726
1673611545.262119,10.880219,-0.27056821148854776
1673611545.263126,10.878368,-0.2713960658470108
1673611545.264133,10.875579,-0.2722241162401314
1673611545.26514,10.877551,-0.2730521666332519
1673611545.266147,10.872959,-0.27388002099171493
1673611545.267154,10.864328,-0.2747080713848355
1673611545.268161,10.860963,-0.275536121777956
1673611545.269168,10.860843,-0.27636397613641905
1673611545.270176,10.855073,-0.2771928106681694
1673611545.271183,10.857332,-0.27802086106129
1673611545.2721899,10.870122,-0.27884871541975303
1673611545.273197,10.881253,-0.27967676581287354
1673611545.274204,10.888874,-0.2805048162059941
1673611545.2752109,10.891037,-0.28133267056445715
1673611545.276218,10.892336,-0.28216072095757766
1673611545.277225,10.89046,-0.2829887713506982
1673611545.2782319,10.889691,-0.2838166257091613
1673611545.279239,10.890869,-0.2846446761022818
1673611545.280246,10.890797,-0.28547272649540234
1673611545.2812529,10.892263,-0.2863005808538654
1673611545.28226,10.88421,-0.2871286312469859
1673611545.283268,10.863102,-0.28795746577873627
1673611545.284275,10.853102,-0.2887855161718568
1673611545.285282,10.869425,-0.2896133705303199
1673611545.286289,10.892216,-0.2904414209234404
1673611545.287296,10.877094,-0.2912694713165609
1673611545.288303,10.852813,-0.292097325675024
1673611545.28931,10.866709,-0.2929253760681445
1673611545.290317,10.891614,-0.2809113449344458
1673611545.291324,10.887431,-0.2764917711015737
1673611545.292331,10.874762,-0.29849703528850735
1673611545.293338,10.885773,-0.275379
1673611545.294345,10.902024,-0.2889392804005722
1673611545.295353,10.922482,-0.29077664663805436
1673611545.29636,10.934599,-0.26434617644253694
1673611545.2973669,10.926641,-0.275379
1673611545.298374,10.898923,-0.2972980028612303
1673611545.299381,10.890942,-0.3257131623683713
1673611545.3003879,10.904307,-0.3160795351535406
1673611545.301395,10.914044,-0.3064436267103853
1673611545.302402,10.907361,-0.29680771826722996
1673611545.3034089,10.881805,-0.26966850023843586
1673611545.304416,10.890485,-0.3054065674773486
1673611545.305423,10.908154,-0.2931790934445769
1673611545.3064299,10.889547,-0.26309970028612306
1673611545.307437,10.860626,-0.25729
1673611545.308445,10.851467,-0.25729
1673611545.309452,10.866468,-0.25729
1673611545.310459,10.885172,-0.25729
1673611545.311466,10.899837,-0.25729
1673611545.312473,10.895989,-0.25729
1673611545.31348,10.885099,-0.25729
1673611545.314487,10.884378,-0.25729
1673611545.315494,10.892191,-0.25729
1673611545.316501,10.899524,-0.25729
1673611545.317508,10.898923,-0.25729
1673611545.318515,10.904043,-0.25729
1673611545.319522,10.909212,-0.25729
1673611545.32053,10.906303,-0.25729
1673611545.321537,10.888825,-0.25729
1673611545.3225439,10.885964,-0.25729
1673611545.323551,10.895196,-0.25729
1673611545.324558,10.89349,-0.25729
1673611545.3255649,10.882768,-0.25729
1673611545.326572,10.882719,-0.25729
1673611545.327579,10.880051,-0.25729
1673611545.3285859,10.875195,-0.25729
1673611545.329593,10.8713,-0.25729
1673611545.3306,10.868175,-0.25729
1673611545.3316069,10.865073,-0.25729
1673611545.332614,10.865314,-0.25729
1673611545.333622,10.865939,-0.25729
1673611545.334629,10.882815,-0.25729
1673611545.335636,10.887383,-0.25729
1673611545.336643,10.886446,-0.25729
1673611545.33765,10.886927,-0.25729
1673611545.338657,10.886013,-0.25729
1673611545.339664,10.891302,-0.25729
1673611545.340671,10.902529,-0.25729
1673611545.341678,10.920078,-0.25729
1673611545.342685,10.946908,-0.25729
1673611545.343692,10.945658,-0.25729
1673611545.344699,10.879017,-0.25729
1673611545.345707,10.832811,-0.25729
1673611545.346714,10.8544,-0.25729
1673611545.3477209,10.878849,-0.25729
1673611545.348728,10.86517,-0.25729
1673611545.349735,10.835744,-0.25729
1673611545.3507419,10.83774,-0.25729
1673611545.351749,10.851683,-0.25729
1673611545.352756,10.868584,-0.25729
1673611545.3537629,10.878873,-0.2577212038140644
1673611545.35477,10.878729,-0.293468
1673611545.355777,10.88647,-0.29299787577491654
1673611545.3567839,10.894619,-0.275379
1673611545.357791,10.902048,-0.2746545775923719
1673611545.358799,10.905847,-0.2564226902718169
1673611545.359806,10.908539,-0.24218239556509297
1673611545.360813,10.902288,-0.2923468700834327
1673611545.36182,10.875291,-0.27413252384358605
1673611545.362827,10.844855,-0.25704549586486236
1673611545.363834,10.846058,-0.25380869033919995
1673611545.364841,10.864064,-0.25057111834289447
1673611545.365848,10.880027,-0.24733354634658894
1673611545.366855,10.873079,-0.24409674082092653
1673611545.367862,10.865026,-0.24085916882462102
1673611545.368869,10.857838,-0.23762159682831555
1673611545.369876,10.858775,-0.2343847913026531
1673611545.370884,10.874137,-0.23114415342377537
1673611545.371891,10.895773,-0.22790658142746986
1673611545.3728979,10.925776,-0.22466977590180745
1673611545.373905,10.955514,-0.22143220390550195
1673611545.374912,10.962294,-0.21819463190919647
1673611545.3759189,10.955971,-0.21495782638353403
1673611545.376926,10.964145,-0.21172025438722852
1673611545.377933,10.952245,-0.20848268239092305
1673611545.3789399,10.928276,-0.20524587686526063
1673611545.379947,10.907625,-0.20200830486895513
1673611545.380954,10.903298,-0.19877073287264962
1673611545.3819609,10.896495,-0.1955339273469872
1673611545.382968,10.868631,-0.19229635535068174
1673611545.383976,10.844471,-0.18905571747180397
1673611545.384983,10.826801,-0.18581814547549846
1673611545.38599,10.820142,-0.18258133994983605
1673611545.386997,10.812208,-0.17934376795353058
1673611545.388004,10.8118,-0.17610619595722504
1673611545.389011,10.811872,-0.17286939043156263
1673611545.390018,10.817546,-0.16963181843525715
1673611545.391025,10.823363,-0.16639424643895168
1673611545.392032,10.825912,-0.16315744091328924
1673611545.393039,10.831417,-0.15991986891698373
1673611545.394046,10.850986,-0.15668229692067825
1673611545.395053,10.862621,-0.15344549139501582
1673611545.396061,10.8663,-0.15020485351613805
1673611545.397068,10.893033,-0.14696728151983257
1673611545.3980749,10.906087,-0.14373047599417013
1673611545.399082,10.897961,-0.14049290399786465
1673611545.400089,10.876517,-0.13725533200155915
1673611545.4010959,10.866516,-0.13401852647589674
1673611545.402103,10.870266,-0.13078095447959123
1673611545.40311,10.858919,-0.12754338248328576
1673611545.4041169,10.842884,-0.12430657695762332
1673611545.405124,10.84887,-0.12106900496131784
1673611545.406131,10.831321,-0.11783143296501233
1673611545.4071379,10.820743,-0.11459462743934992
1673611545.408145,10.832908,-0.11135705544304442
1673611545.409153,10.84798,-0.10811641756416665
1673611545.41016,10.84899,-0.10487884556786117
1673611545.411167,10.853222,-0.10164204004219876
1673611545.412174,10.866949,-0.09840446804589326
1673611545.413181,10.886013,-0.09516689604958775
1673611545.414188,10.889306,-0.09193009052392534
1673611545.415195,10.877406,-0.08869251852761983
1673611545.416202,10.871469,-0.08545494653131436
1673611545.417209,10.884066,-0.08221814100565195
1673611545.418216,10.889908,-0.07898056900934644
1673611545.4192228,10.873512,-0.08356862800666826
1673611545.42023,10.879834,-0.11626756247019551
1673611545.421238,10.884883,-0.130658
1673611545.422245,10.868655,-0.12665801931330473
1673611545.4232519,10.868271,-0.12491796594427244
1673611545.424259,10.888369,-0.15837376394849786
1673611545.425266,10.891855,-0.1262913968973747
1673611545.4262729,10.854327,-0.11706046844486782
1673611545.42728,10.838965,-0.12143462517882689
1673611545.428287,10.838581,-0.09269028922897027
1673611545.4292939,10.842691,-0.08584391562928095
1673611545.430301,10.852669,-0.07899592081869898
1673611545.431308,10.847669,-0.07214792600811701
1673611545.4323149,10.84988,-0.06530155240842768
1673611545.433322,10.849544,-0.05845355759784571
1673611545.43433,10.86291,-0.05159907794369311
1673611545.435337,10.868271,-0.044751083133111144
1673611545.436344,10.860963,-0.037904709533421815
1673611545.437351,10.860217,-0.031056714722839843
1673611545.438358,10.875074,-0.02420871991225787
1673611545.439365,10.874834,-0.017362346312568555
1673611545.440372,10.856924,-0.010514351501986582
1673611545.4413788,10.851803,-0.0036679779022972675
1673611545.442386,10.852476,0.003180016908284719
1673611545.443393,10.858655,0.010028011718866692
1673611545.4443998,10.869497,0.016874385318556007
1673611545.445407,10.863102,0.02372238012913798
1673611545.446415,10.851587,0.030576859783290583
1673611545.447422,10.844543,0.03742485459387254
1673611545.4484289,10.849711,0.044271228193561885
1673611545.449436,10.863391,0.05111922300414384
1673611545.450443,10.861684,0.05796721781472583
1673611545.4514499,10.856275,0.06481359141441514
1673611545.452457,10.865626,0.0716615862249971
1673611545.453464,10.885436,0.07850958103557909
1673611545.4544709,10.895365,0.0853559546352684
1673611545.455478,10.904596,0.09220394944585036
1673611545.456485,10.922026,0.09905194425643235
1673611545.4574919,10.921376,0.10589831785612167
1673611545.458499,10.9302,0.11274631266670362
1673611545.459507,10.905918,0.11960079232085624
1673611545.460514,10.891542,0.1264487871314382
1673611545.461521,10.875772,0.13329516073112754
1673611545.462528,10.870338,0.14014315554170953
1673611545.4635348,10.866804,0.14698952914139882
1673611545.464542,10.86654,0.15383752395198078
1673611545.465549,10.865555,0.16068551876256276
1673611545.4665558,10.872142,0.16753189236225208
1673611545.467563,10.844855,0.17437988717283404
1673611545.46857,10.804299,0.18122788198341605
1673611545.4695768,10.825624,0.18807425558310537
1673611545.470584,10.869112,0.19492225039368732
1673611545.471592,10.901543,0.20177673004783991
1673611545.472599,10.906447,0.20862472485842187
1673611545.4736059,10.919285,0.21547109845811124
1673611545.474613,10.942821,0.2223190932686932
1673611545.47562,10.959793,0.22916708807927516
1673611545.4766269,10.961693,0.23601346167896448
1673611545.477634,10.94472,0.2428614564895465
1673611545.478641,10.903899,0.24970945130012845
1673611545.4796479,10.858174,0.25655582489981776
1673611545.480655,10.845601,0.2634038197103997
1673611545.481662,10.838749,0.2702518145209817
1673611545.4826689,10.807521,0.277098188120671
1673611545.483676,10.784634,0.283946182931253
1673611545.484684,10.792183,0.24243098140200287
1673611545.4856908,10.808987,0.3079511509054326
1673611545.486698,10.818844,0.3265858551307847
1673611545.487705,10.821656,0.34631245070422534
1673611545.4887118,10.833941,0.3317900704225352
1673611545.489719,10.847187,0.338268384305835
1673611545.490726,10.852813,0.38493069818913483
1673611545.4917328,10.863342,0.35807017102615696
1673611545.49274,10.860049,0.37452133400402415
1673611545.493747,10.854904,0.43030155527740027
1673611545.4947538,10.870675,0.4321237390506163
1673611545.495761,10.89837,0.4339463543141883
1673611545.496769,10.904236,0.4357706955391841
1673611545.497776,10.895412,0.4375933108027561
1673611545.4987829,10.914212,0.4394154945759721
1673611545.49979,10.907217,0.44123810983954415
1673611545.500797,10.919021,0.4430607251031161
1673611545.5018039,10.93657,0.44488290887633214
1673611545.502811,10.924718,0.44670552413990416
1673611545.503818,10.905918,0.4541332746781116
1673611545.5048249,10.88897,0.4813365168057211
1673611545.505832,10.854544,0.466322
1673611545.506839,10.826368,0.4729813743443014
1673611545.5078459,10.80555,0.5025
1673611545.508853,10.793048,0.5060798450166905
1673611545.509861,10.808314,0.5168625107296136
1673611545.5108678,10.83007,0.5063506500595947
1673611545.511875,10.843028,0.520589
1673611545.512882,10.847283,0.5217865965747096
1673611545.5138888,10.878344,0.5270990444055909
1673611545.514896,10.922843,0.5324127502160675
1673611545.515903,10.979218,0.537726456026544
1673611545.5169098,11.05545,0.5430389038574253
1673611545.517917,11.115384,0.5483526096679018
1673611545.518924,11.136756,0.5536663154783783
1673611545.5199308,11.133991,0.5589787633092596
1673611545.520938,11.131394,0.5642924691197362
1673611545.521946,11.125457,0.5696112068485938
1673611545.522953,11.089348,0.5749249126590703
1673611545.5239599,11.031891,0.5802373604899517
1673611545.524967,10.954504,0.5855510663004282
1673611545.525974,10.856083,0.5908647721109047
1673611545.5269809,10.797592,0.596177219941786
1673611545.527988,10.773551,0.6014909257522625
1673611545.528995,10.754968,0.6068046315627391
1673611545.5300019,10.743548,0.6121170793936204
1673611545.531009,10.732105,0.6174307852040969
1673611545.532016,10.740543,0.6227444910145734
1673611545.5330229,10.793697,0.6280569388454547
1673611545.53403,10.822859,0.6333706446559312
1673611545.535038,10.822834,0.6386893823847889
1673611545.5360448,10.849231,0.6440018302156701
1673611545.537052,10.887744,0.6328619129916567
1673611545.538059,10.930247,0.6402683371483071
1673611545.5390658,11.004917,0.6685361735813067
1673611545.540073,11.056413,0.647221
1673611545.54108,11.060427,0.6395326359952325
1673611545.5420868,11.040401,0.6447539260848831
1673611545.543094,11.039392,0.6494292899380066
1673611545.544101,11.034896,0.6371998233611442
1673611545.5451078,10.980083,0.6554115128755365
1673611545.546115,10.915655,0.6689493075719649
1673611545.547123,10.881013,0.6769259754901961
1673611545.54813,10.863848,0.6848950968919483
1673611545.5491369,10.825935,0.6928623316645807
1673611545.550144,10.81793,0.7008314530663329
1673611545.551151,10.82959,0.6179207008343266
1673611545.5521579,10.792183,0.796270765379113
1673611545.553165,10.745809,0.81003
1673611545.554172,10.738259,0.7758441616209774
1673611545.5551789,10.803242,0.7786017100481774
1673611545.556186,10.828556,0.7836274553496555
1673611545.557193,10.8356,0.7886532006511338
1673611545.5582,10.856804,0.7936777561454856
1673611545.559207,10.869738,0.7987035014469638
1673611545.560215,10.875507,0.8037340059769472
1673611545.5612218,10.890773,0.8087585614712991
1673611545.562229,10.912578,0.8137843067727774
1673611545.563236,10.918155,0.8188100520742555
1673611545.5642428,10.933445,0.8238346075686075
1673611545.56525,10.938854,0.8288603528700856
1673611545.566257,10.925728,0.8338860981715639
1673611545.5672638,10.905173,0.8389106536659158
1673611545.568271,10.882287,0.8439363989673939
1673611545.569278,10.8713,0.8489621442688722
1673611545.5702848,10.859039,0.85398669976322406
1673611545.571292,10.839375,0.8590124450647023
1673611545.5723,10.798313,0.8640429495946856
1673611545.573307,10.800717,0.8690686948961639
1673611545.5743139,10.796029,0.8740932503905158
1673611545.575321,10.800597,0.879118995691994
1673611545.576328,10.833004,0.8841447409934722
1673611545.5773349,10.881685,0.8891692964878241
1673611545.578342,10.925488,0.8941950417893023
1673611545.579349,10.985613,0.8992207870907805
1673611545.580356,11.048119,0.90424534258513245
1673611545.581363,11.060763,0.9092710878866106
1673611545.58237,11.000975,0.9142968331880889
1673611545.583377,10.933853,0.9375602533969011
1673611545.584384,10.935103,1.0395290047687171
1673611545.585392,11.014318,1.0209655674773486
1673611545.5863988,11.122332,1.081383
1673611545.587406,11.190727,1.074913400572246
1673611545.588413,11.254122,1.06202595851216
1673611545.5894198,11.324008,1.1286714587505962
1673611545.590427,11.304415,1.110327
1673611545.591434,11.156373,1.153747
1673611545.5924408,10.984459,1.1550365043312407
1673611545.593448,10.840456,1.1611088190415642
1673611545.594455,10.753069,1.1671811337518876
1673611545.5954618,10.740952,1.1732520108877056
1673611545.596469,10.729364,1.179324325598029
1673611545.597477,10.704723,1.1854023906063738
1673611545.598484,10.709267,1.1914747053166972
1673611545.599491,10.79377,1.1975455824525152
1673611545.600498,10.88171,1.2036178971628386
1673611545.601505,10.970035,1.208014
1673611545.602512,11.05485,1.2183222284215545
1673611545.603519,11.164042,1.244192
1673611545.604526,11.279942,1.2333748297567955
1673611545.605533,11.374709,1.23886284536996
1673611545.60654,11.38209,1.256619980929678
1673611545.607547,11.340404,1.2557685898903195
1673611545.608554,11.317685,1.2685442453505007
1673611545.609561,11.275734,1.2683596674612634
1673611545.610569,11.16397,1.3253283541194913
1673611545.6115758,10.96215,1.3511591968298207
1673611545.612583,10.728403,1.3769961562445567
1673611545.61359,10.590867,1.4028331156592928
1673611545.6145968,10.566658,1.4286639583696221
1673611545.615604,10.562235,1.4545009177843582
1673611545.616611,10.549469,1.4803378771990943
1673611545.6176178,10.583126,1.5061687199094234
1673611545.618625,10.648949,1.5320056793241594
1673611545.619632,10.730615,1.5578426387388957
1673611545.6206388,10.858968,1.5836734814492248
1673611545.621646,10.987897,1.6095104408639611
1673611545.622654,11.03944,1.6353718670963246
1673611545.623661,11.040185,1.6612088265110607
1673611545.624668,11.045161,1.68703966922139
1673611545.625675,11.003451,1.712876628636126
1673611545.626682,10.937508,1.7387135880508622
1673611545.627689,10.83007,1.7645444307611915
1673611545.628696,10.726336,1.7903813901759276
1673611545.629703,10.762854,1.8162183495906636
1673611545.63071,10.847813,1.8420491923009927
1673611545.631717,10.925127,1.867886151715729
1673611545.632724,10.970468,1.893723111130465
1673611545.633731,10.955226,1.9195539538407944
1673611545.634738,10.90462,1.9453909132555305
1673611545.635746,10.893129,1.971252339487894
1673611545.6367528,10.886614,1.9970831821982233
1673611545.63776,10.859496,2.0229201416129596
1673611545.638767,10.839326,2.0487571010276957
1673611545.6397738,10.816247,2.074587943738025
1673611545.640781,10.772181,2.100424903152761
1673611545.641788,10.703713,2.126261862567497
1673611545.6427948,10.680923,2.152092705277826
1673611545.643802,10.652987,2.177929664692562
1673611545.644809,10.635607,2.203766624107298
1673611545.6458158,10.674335,2.2295974668176277
1673611545.646823,10.728716,2.255434426232364
1673611545.647831,10.797472,2.2812958524647273
1673611545.648838,10.860963,2.3071328118794634
1673611545.649845,10.881614,2.3329636545897925
1673611545.650852,10.929526,2.3588006140045286
1673611545.651859,10.983858,2.3846375734192646
1673611545.652866,11.019727,2.410468416129594
1673611545.653873,11.018548,2.4363053755443302
1673611545.65488,11.028453,2.4621423349590663
1673611545.655887,11.060307,2.487973177669396
1673611545.656894,11.070067,2.5035008934191705
1673611545.657901,11.068168,2.4734703053635276
1673611545.658908,11.057662,2.5802814732951838
1673611545.659915,11.030833,2.575627674773486
1673611545.660923,10.963375,2.6428499206197853
1673611545.6619298,10.960851,2.670330506437768
1673611545.662937,10.934406,2.6645517095851217
1673611545.663944,10.914236,2.722453451120648
1673611545.6649508,10.911016,2.788579779499404
1673611545.665958,10.896903,2.822151467692741
1673611545.666965,10.856083,2.843665504199709
1673611545.6679718,10.843245,2.8651744474215195
1673611545.668979,10.814733,2.8866884839284874
1673611545.669986,10.762805,2.908202520435456
1673611545.6709929,10.764488,2.9345533317422436
1673611545.672,10.728908,2.975240773962804
1673611545.673008,10.719796,2.9682374615384615
1673611545.674015,10.714796,3.111235989116937
1673611545.675022,10.749294,3.241392477185802
1673611545.676029,10.816343,3.371579786113788
1673611545.677036,10.900245,3.5017670950417736
1673611545.678043,10.967463,3.6319235831106385
1673611545.67905,11.065283,3.7621108920386246
1673611545.680057,11.20645,3.8922982009666107
1673611545.681064,11.300327,4.0224546890354755
1673611545.682071,11.307251,4.152641997963462
1673611545.683078,11.285014,4.282829306891448
1673611545.684085,11.230706,4.412985794960313
1673611545.685092,11.136539,4.543173103888298
1673611545.6861,11.025953,4.673483696252769
1673611545.6871068,10.968881,4.803640184321634
1673611545.688114,10.892263,4.93382749324962
1673611545.689121,10.781364,5.064014802177606
1673611545.6901278,10.73689,5.194171290246471
1673611545.691135,10.710757,5.324358599174458
1673611545.692142,10.724364,5.4545459081024426
1673611545.6931489,10.781412,5.584702396171307
1673611545.694156,10.796005,5.714889705099294
1673611545.695163,10.765906,5.8450770140272805
1673611545.6961699,10.688448,5.975233502096145
1673611545.697177,10.665586,6.105420811024131
1673611545.698185,10.628659,6.235731403388602
1673611545.699192,10.599137,6.365918712316588
1673611545.700199,10.643732,6.496075200385453
1673611545.701206,10.725494,6.626262509313438
1673611545.702213,10.786654,6.756449818241425
1673611545.70322,10.82846,6.88660630631029
1673611545.704227,10.943157,7.016793615238275
1673611545.705234,11.084468,7.146980924166262
1673611545.706241,11.14327,7.277137412235127
1673611545.707248,11.145603,7.407324721163112
1673611545.708255,11.142477,7.537512030091098
1673611545.709262,11.184596,7.667668518159963
1673611545.71027,11.226523,7.797979110524434
1673611545.711277,11.190222,7.92816641945242
1673611545.7122838,11.119615,8.058322907521285
1673611545.713291,11.002441,8.18851021644927
1673611545.714298,10.78598,8.318697525377257
1673611545.7153049,10.701982,8.448854013446121
1673611545.716312,10.646737,8.579041322374108
1673611545.717319,10.625534,8.709228631302093
1673611545.7183259,10.674504,8.83938511937096
1673611545.719333,10.74177,8.969572428298946
1673611545.72034,10.753814,9.09975973722693
1673611545.7213469,10.761363,9.229916225295796
1673611545.722354,10.738885,9.377082459871398
1673611545.723362,10.707705,9.550539505011933
1673611545.724369,10.695852,9.7612604654268
1673611545.725376,10.690948,9.978820776162097
1673611545.726383,10.743909,10.208275222486899
1673611545.72739,10.74903,10.453518377088306
1673611545.728397,10.766652,10.650477151883644
1673611545.729404,10.845216,10.814342898547274
1673611545.730411,10.920487,10.99878759665871
1673611545.731418,11.075885,11.192187057361078
1673611545.732425,11.196424,11.380205255568814
1673611545.733432,11.218133,11.568223453776552
1673611545.734439,11.179716,11.756197140100245
1673611545.735447,11.106633,11.944393385844164
1673611545.736454,11.116513,12.132411584051901
1673611545.7374609,11.096921,12.320385270375594
1673611545.738468,11.031771,12.508403468583332
1673611545.739475,10.932339,12.696421666791068
1673611545.7404819,10.826321,12.88439535311476
1673611545.741489,10.679745,13.072413551322498
1673611545.742496,10.587718,13.260431749530236
1673611545.7435029,10.569471,13.448405435853928
1673611545.74451,10.621639,13.636423634061664
1673611545.745517,10.790452,13.824441832269402
1673611545.7465239,10.935946,14.012415518593095
1673611545.747531,10.960707,14.200433716800832
1673611545.748539,10.981622,14.388629962544751
1673611545.749546,11.031651,14.57664816075249
1673611545.750553,11.056893,14.764621847076182
1673611545.75156,11.075668,14.952640045283918
1673611545.752567,11.104613,15.140658243491657
1673611545.753574,11.067616,15.328631929815348
1673611545.754581,10.967006,15.516650128023086
1673611545.755588,10.921136,15.704668326230824
1673611545.756595,10.882094,15.892642012554514
1673611545.757602,10.788889,16.080660210762254
1673611545.758609,10.749775,16.26867840896999
1673611545.759616,10.717368,16.456652095293684
1673611545.760624,10.690756,16.6448483410376
1673611545.761631,10.726384,16.832866539245337
1673611545.7626379,10.752829,17.02084022556903
1673611545.763645,10.752419,17.208858423776768
1673611545.764652,10.804732,17.396876621984504
1673611545.7656589,10.888705,17.584850308308198
1673611545.766666,10.946379,17.772868506515938
1673611545.767673,10.96162,17.960886704723674
1673611545.7686799,10.947365,18.148860391047364
1673611545.769687,10.984363,18.336878589255104
1673611545.770694,11.037637,18.52489678746284
1673611545.7717009,11.102138,18.71287047378653
1673611545.772708,11.18664,18.90088867199427
1673611545.773716,11.299029,19.08908491773819
1673611545.774723,11.358602,19.277103115945927
1673611545.77573,11.31456,19.46507680226962
1673611545.776737,11.208901,19.653095000477357
1673611545.777744,11.135722,19.841113198685093
1673611545.778751,10.991623,20.029086885008788
1673611545.779758,10.764488,20.217105083216524
1673611545.780765,10.587309,20.40512328142426
1673611545.781772,10.431334,20.593096967747954
1673611545.782779,10.372868,20.78111516595569
1673611545.783786,10.437008,20.969133364163426
1673611545.784793,10.519443,21.15710705048712
1673611545.785801,10.570866,21.347233886027656
1673611545.786808,10.608105,21.653617594278902
1673611545.7878149,10.634501,21.819132106103957
1673611545.788822,10.66532,22.03643258536004
1673611545.789829,10.729485,22.219421791418355
1673611545.7908359,10.802279,22.42066765450644
1673611545.791843,10.866612,22.638249811158797
1673611545.79285,10.90087,22.83866563623361
1673611545.7938569,10.945874,23.04028401549833
1673611545.794864,10.985685,23.246010650235018
1673611545.795871,10.979002,23.299884519095183
1673611545.7968779,10.974001,23.35374563372503
1673611545.797885,10.993474,23.407619502585195
1673611545.798893,10.984339,23.46611062455304
1673611545.7999,10.890148,23.614595082020838
1673611545.800907,10.803193,23.809119573125432
1673611545.801914,10.735159,24.003690127334718
1673611545.802921,10.704123,24.198260681544
1673611545.803928,10.692414,24.392785172648594
1673611545.804935,10.611398,24.58735572685788
1673611545.805942,10.603272,24.781926281067165
1673611545.806949,10.640102,24.97645077217176
1673611545.807956,10.684577,25.17102132638104
1673611545.808963,10.728787,25.365591880590326
1673611545.80997,10.803073,25.56011637169492
1673611545.810978,10.871516,25.75487117832296
1673611545.811985,10.933372,25.949441732532247
1673611545.8129919,10.98607,26.14396622363684
1673611545.813999,11.006456,26.338536777846127
1673611545.815006,11.03194,26.53310733205541
1673611545.8160129,11.034271,26.727631823160003
1673611545.81702,11.103051,26.92220237736929
1673611545.818027,11.268979,27.116772931578573
1673611545.8190339,11.39887,27.311297422683168
1673611545.820041,11.370958,27.50586797689245
1673611545.821048,11.26232,27.700438531101735
1673611545.8220549,11.12512,27.89496302220633
1673611545.823062,10.956163,28.08953357641561
1673611545.82407,10.825022,28.284288383043656
1673611545.825077,10.71119,28.47885893725294
1673611545.826084,10.626062,28.673383428357536
1673611545.827091,10.604522,28.867953982566817
1673611545.828098,10.582573,29.062524536776102
1673611545.829105,10.552643,29.257049027880697
1673611545.830112,10.614595,29.451619582089982
1673611545.831119,10.734197,29.646190136299264
1673611545.832126,10.878969,29.84071462740386
1673611545.833133,10.966837,30.035285181613144
1673611545.83414,10.982728,30.229855735822426
1673611545.835147,10.930848,30.42438022692702
1673611545.836155,10.879041,30.619135033555064
1673611545.837162,10.843004,30.81370558776435
1673611545.8381689,10.767445,31.008230078868944
1673611545.839176,10.637938,31.202800633078226
1673611545.840183,10.594593,31.39737118728751
1673611545.8411899,10.605171,31.591895678392106
1673611545.842197,10.656234,31.78646623260139
1673611545.843204,10.709435,31.981036786810677
1673611545.8442109,10.718884,32.175561277915264
1673611545.845218,10.781076,32.37013183212456
1673611545.846225,10.833316,32.564702386333835
1673611545.8472319,10.821488,32.75922687743843
1673611545.848239,10.786365,32.953797431647715
1673611545.849247,10.733188,33.148552238275755
1673611545.850254,10.761483,33.33807466189795
1673611545.851261,10.785788,33.53533063098927
1673611545.852268,10.797472,33.70781485407725
1673611545.853275,10.837018,33.84839451359085
1673611545.854282,10.982127,34.03054418407248
1673611545.855289,11.181856,34.18851322359952
1673611545.856296,11.357568,34.29145038102051
1673611545.857303,11.449595,34.44751940701001
1673611545.85831,11.405577,34.651878063647196
1673611545.859317,11.266863,34.79476850765687
1673611545.860324,11.039872,34.934445098620145
1673611545.861332,10.819108,35.07428706560871
1673611545.862339,10.667941,35.21399673177704
1673611545.8633459,10.551465,35.35367332274031
1673611545.864353,10.500956,35.49338298890864
1673611545.86536,10.539853,35.63309265507697
1673611545.8663669,10.564423,35.77276924604024
1673611545.867374,10.619355,35.91247891220857
1673611545.868381,10.733692,36.0521885783769
1673611545.8693879,10.857549,36.191865169340176
1673611545.870395,10.928613,36.331574835508505
1673611545.871402,10.945081,36.471284501676834
1673611545.8724089,10.813843,36.6109610926401
1673611545.873416,10.820671,36.75067075880843
1673611545.874424,10.864016,36.890512725797
1673611545.875431,10.904043,37.03022239196533
1673611545.876438,10.890629,37.1698989829286
1673611545.877445,10.899067,37.30960864909693
1673611545.878452,10.84411,37.44931831526526
1673611545.879459,10.703377,37.588994906228535
1673611545.880466,10.637915,37.728704572396865
1673611545.881473,10.60522,37.868414238565194
1673611545.88248,10.606349,38.00809082952846
1673611545.883487,10.670009,38.1478004956968
1673611545.884494,10.763959,38.28751016186513
1673611545.885501,10.894403,38.4271867528284
1673611545.886509,10.953927,38.56702871981696
1673611545.887516,10.99833,38.70673838598529
1673611545.8885229,11.022612,38.846414976948566
1673611545.88953,10.925271,38.986124643116895
1673611545.890537,10.806727,39.125834309285224
1673611545.8915439,10.803699,39.26551090024849
1673611545.892551,10.83007,39.40522056641682
1673611545.893558,10.776772,39.54493023258516
1673611545.8945649,10.702031,39.68460682354843
1673611545.895572,10.631015,39.82431648971676
1673611545.896579,10.625341,39.96402615588509
1673611545.8975859,10.645583,40.103702746848356
1673611545.898593,10.688736,40.24341241301669
1673611545.899601,10.679193,40.383254380005255
1673611545.900608,10.681812,40.522964046173584
1673611545.901615,10.691069,40.66264063713686
1673611545.902622,10.699795,40.80235030330519
1673611545.903629,10.692655,40.94205996947352
1673611545.904636,10.677677,41.08173656043679
1673611545.905643,10.702295,41.22144622660512
1673611545.90665,10.750015,41.353875650691464
1673611545.907657,10.813843,41.47036551740582
1673611545.908664,10.934767,41.568524612634086
1673611545.909671,11.04521,41.70469661015736
1673611545.910678,11.082304,41.845843147353364
1673611545.911686,11.071318,41.892704
1673611545.912693,11.120721,41.986042624225085
1673611545.9136999,11.193492000000001,42.143555827849305
1673611545.914707,11.285855,42.29561011206485
1673611545.915714,11.364131,42.35002212747506
1673611545.9167209,11.451206000000001,42.357680853075344
1673611545.917728,11.42404,42.36534139225024
1673611545.918735,11.28285,42.37300193142514
1673611545.9197419,11.059875,42.380660657025416
1673611545.920749,10.85553,42.483695759656655
1673611545.921756,10.727826,42.71379279904535
1673611545.9227629,10.568389,42.75953745606097
1673611545.92377,10.417006,42.79597342894611
1673611545.924778,10.38847,42.903026048926016
1673611545.925785,10.370776,43.0299959587899
1673611545.926792,10.463428,43.193210652920136
1673611545.927799,10.57149,43.24919423175965
1673611545.928806,10.618875,43.35191042831478
1673611545.929813,10.652603,43.45484233903887
1673611545.93082,10.645487,43.55779862388343
1673611545.931827,10.59243,43.66075490872798
1673611545.932834,10.567788,43.76368681945207
1673611545.933841,10.605892,43.86664310429662
1673611545.9348478,10.732442,43.96957501502071
1673611545.935855,10.818074,44.07253129986526
1673611545.936863,10.866612,44.17558508119168
1673611545.93787,10.90914,44.27854136603623
1673611545.9388769,10.955683,44.38147327676032
1673611545.939884,11.06247,44.48442956160487
1673611545.940891,11.137837,44.58738584644942
1673611545.9418979,11.118004000000001,44.69031775717351
1673611545.942905,10.979939,44.79327404201806
1673611545.943912,10.849711,44.89623032686262
1673611545.9449189,10.765329,44.99916223758671
1673611545.945926,10.675225,45.10211852243126
1673611545.946933,10.631784,45.205074807275814
1673611545.9479399,10.656114,45.3080067179999
1673611545.948947,10.64467,45.410963002844454
1673611545.949955,10.634837,45.51401678417087
1673611545.950962,10.68989,45.61697306901542
1673611545.951969,10.828075,45.71990497973951
1673611545.952976,10.934142,45.82286126458406
1673611545.953983,10.977992,45.925817549428615
1673611545.95499,10.939383,46.0287494601527
1673611545.955997,10.872599,46.131705744997255
1673611545.9570038,10.812521,46.23463765572134
1673611545.958011,10.761338,46.337593940565895
1673611545.959018,10.748814,46.440550225410455
1673611545.9600248,10.706406,46.54348213613454
1673611545.961032,10.664432,46.646438420979095
1673611545.96204,10.635438,46.749492202305504
1673611545.963047,10.595075,46.852448487150056
1673611545.9640539,10.504417,46.95538039787415
1673611545.965061,10.486819,47.0583366827187
1673611545.966068,10.557306,47.161292967563256
1673611545.9670749,10.622072,47.264224878287344
1673611545.968082,10.691069,47.367181163131896
1673611545.969089,10.755497,47.47013744797645
1673611545.9700959,10.827642,47.573069358700536
1673611545.971103,10.946042,47.67246783563602
1673611545.97211,11.025905,47.78564597353993
1673611545.9731169,11.086439,47.91560054172627
1673611545.974124,11.102691,47.98765716658711
1673611545.975132,11.039536,48.07332588806859
1673611545.976139,11.014077,48.14003501692895
1673611545.977146,11.008836,48.24281860477327
1673611545.978153,10.93681,48.31013955918076
1673611545.9791598,10.935103,48.388273486409155
1673611545.980167,10.984266,48.444218596201885
1673611545.981174,10.969602,48.50243762797375
1673611545.9821808,10.885484,48.5606428768309
1673611545.983188,10.826993,48.61886190860276
1673611545.984195,10.765522,48.67708094037462
1673611545.9852018,10.661138,48.73528618923177
1673611545.986209,10.659791,48.793505221003635
1673611545.987217,10.657989,48.85177938443437
1673611545.988224,10.692246,48.90999841620624
1673611545.9892309,10.670273,48.968203665063385
1673611545.990238,10.707439,49.026422696835255
1673611545.991245,10.793385,49.08464172860712
1673611545.9922519,10.890148,49.14284697746426
1673611545.993259,10.966332,49.20106600923613
1673611545.994266,10.94323,49.25928504100799
1673611545.9952729,11.047565,49.317490289865134
1673611545.99628,11.103508,49.375709321637004
1673611545.997287,11.118196,49.43392835340887
1673611545.9982939,11.084419,49.492133602266016
1673611545.999301,10.934575,49.55035263403788
1673611546.000309,10.690516,49.60862679746862
1673611546.0013158,10.541608,49.666832046325766
1673611546.002323,10.583799,49.72505107809763
1673611546.00333,10.624908,49.78327010986949
1673611546.0043368,10.744414,49.84147535872664
1673611546.005344,11.063191,49.8996943904985
1673611546.006351,11.497244,49.957913422270366
1673611546.0073578,11.759887,50.016118671127515
1673611546.008365,11.867733,50.07433770289938
1673611546.009372,11.816286,50.13255673467124
1673611546.0103788,11.604392,50.19076198352839
1673611546.011386,11.355717,50.24898101530025
1673611546.012394,11.031146,50.30725517873099
1673611546.013401,10.721095,50.36547421050286
1673611546.0144079,10.453451,50.42367945936
1673611546.015415,10.387052,50.481898491131865
1673611546.016422,10.437561,50.540117522903735
1673611546.0174289,10.446913,50.59832277176088
1673611546.018436,10.524299,50.65654180353274
1673611546.019443,10.452417,50.71476083530461
1673611546.0204499,10.342024,50.77296608416175
1673611546.021457,10.4209,50.83118511593362
1673611546.022464,10.471362,50.889404147705484
1673611546.0234709,10.460375,50.947609396562626
1673611546.024478,10.475449,51.005828428334496
1673611546.025486,10.46951,51.064102591765234
1673611546.0264928,10.477709,51.10741058583691
1673611546.0275,10.602142,51.1690252739628
1673611546.028507,10.734509,51.21645902479142
1673611546.0295138,10.770786,51.265727704816406
1673611546.030521,10.645031,51.32038962374821
1673611546.031528,10.585747,51.401230023122764
1673611546.0325348,10.552499,51.43941654816404
1673611546.033542,10.563509,51.457635678111586
1673611546.034549,10.638035,51.54323341954708
1673611546.0355558,10.702295,51.61585106189328
1673611546.036563,10.683543,51.676045489244125
1673611546.037571,10.698857,51.73629691889359
1673611546.038578,10.711719,51.79649134624443
1673611546.0395849,10.70328,51.856671523020616
1673611546.040592,10.708906,51.91686595037146
1673611546.041599,10.720302,51.9770603777223
1673611546.0426059,10.773551,52.03724055449849
1673611546.043613,10.820382,52.097434981849325
1673611546.04462,10.841586,52.15762940920017
1673611546.0456269,10.86053,52.217809585976354
1673611546.046634,10.859303,52.2780040133272
1673611546.047641,10.82947,52.338198440678035
1673611546.0486479,10.828989,52.39837861745422
1673611546.049655,10.876685,52.458573044805064
1673611546.050663,10.892432,52.51882447445453
1673611546.0516698,10.841322,52.57900465123072
1673611546.052677,10.777806,52.63919907858156
1673611546.053684,10.727345,52.6993935059324
1673611546.0546908,10.699121,52.759573682708584
1673611546.055698,10.653397,52.81976811005943
1673611546.056705,10.631856,52.87996253741027
1673611546.0577118,10.660032,52.94014271418645
1673611546.058719,10.680202,53.000337141537294
1673611546.059726,10.634597,53.06053156888814
1673611546.0607328,10.61587,53.12071174566432
1673611546.06174,10.658878,53.18090617301516
1673611546.062748,10.696477,53.241157602664636
1673611546.063755,10.793625,53.30135203001547
1673611546.0647619,10.944551,53.36153220679166
1673611546.065769,11.080477,53.4217266341425
1673611546.066776,11.195415,53.481921061493345
1673611546.0677829,11.258641,53.542101238269524
1673611546.06879,11.238688,53.60229566562037
1673611546.069797,11.221811,53.66249009297121
1673611546.0708039,11.22698,53.7226702697474
1673611546.071811,11.221691,53.78286469709823
1673611546.072818,11.167119,53.84305912444908
1673611546.073825,11.10483,53.90323930122526
1673611546.074832,11.091247,53.963433728576106
1673611546.07584,10.972463,54.023685158225575
1673611546.0768468,10.650801,54.08386533500176
1673611546.077854,10.441792,54.1440597623526
1673611546.078861,10.429771,54.20425418970344
1673611546.0798678,10.398664,54.26443436647963
1673611546.080875,10.427776,54.32462879383047
1673611546.081882,10.484344,54.38482322118131
1673611546.0828888,10.573197,54.44500339795749
1673611546.083896,10.677293,54.505197825308336
1673611546.084903,10.739413,54.56539225265918
1673611546.0859098,10.737034,54.625572429435366
1673611546.086917,10.787134,54.6857668567862
1673611546.087925,10.883489,54.74601828643567
1673611546.088932,10.97191,54.806212713786515
1673611546.0899389,11.052374,54.8663928905627
1673611546.090946,11.202435,54.926587317913544
1673611546.091953,11.244457,54.98678174526438
1673611546.0929599,11.265541,55.046961922040566
1673611546.093967,11.287874,55.10898210205055
1673611546.094974,11.318911,55.19286316352801
1673611546.095981,11.164571,55.33281144206009
1673611546.096988,10.917026,55.44513291845494
1673611546.097995,10.829229,55.47098090263802
1673611546.099002,10.724941,55.00697384869912
1673611546.100009,10.650224,54.54285691859305
1673611546.101017,10.603104,54.34892653039333
1673611546.1020238,10.536151,54.387829344778254
1673611546.103031,10.486819,54.44248895374344
1673611546.104038,10.426286,54.49714513686218
1673611546.1050448,10.459004,54.58395756877235
1673611546.106052,10.52978,54.66070422460658
1673611546.107059,10.751386,54.726344730567476
1673611546.1080658,11.014678,54.83251062574494
1673611546.109073,11.157431,54.93757471101574
1673611546.11008,11.186207,55.07111511932431
1673611546.1110868,11.251309,55.230236154976005
1673611546.112094,11.219527,55.38939487024779
1673611546.113102,11.216282,55.54870430399995
1673611546.114109,11.329272,55.707863019271734
1673611546.115116,11.320137,55.86698405492343
1673611546.116123,11.203612,56.026142770195214
1673611546.11713,11.093314,56.185301485467
1673611546.118137,10.916376,56.344422521118695
1673611546.119144,10.654286,56.50358123639048
1673611546.120151,10.433041,56.66273995166227
1673611546.121158,10.370704,56.82186098731396
1673611546.122165,10.307742,56.98101970258575
1673611546.123172,10.2881,57.140178417857534
1673611546.124179,10.468741,57.29929945350922
1673611546.125186,10.664263,57.45845816878101
1673611546.126194,10.781605,57.617767602533164
1673611546.1272008,10.795501,57.77688863818486
1673611546.128208,10.775908,57.936047353456644
1673611546.129215,10.695443,58.09520606872843
1673611546.1302218,10.573967,58.254327104380124
1673611546.131229,10.555575,58.41348581965191
1673611546.132236,10.523001,58.5726445349237
1673611546.1332428,10.408808,58.73176557057539
1673611546.13425,10.381282,58.89092428584718
1673611546.135257,10.499849,59.05008300111896
1673611546.1362638,10.585603,59.20920403677066
1673611546.137271,10.616567,59.368362752042444
1673611546.138279,10.664864,59.5276721857946
1673611546.139286,10.740616,59.686830901066386
1673611546.140293,10.817617,59.84595193671808
1673611546.1413,10.839591,60.00511065198987
1673611546.142307,10.800117,60.16426936726165
1673611546.143314,10.739125,60.32339040291335
1673611546.144321,10.704459,60.482549118185126
1673611546.145328,10.748981,60.59833233396901
1673611546.146335,10.79062,60.65262632403434
1673611546.147342,10.755304,60.71728294778255
1673611546.148349,10.706334,60.779770846722286
1673611546.149356,10.754848,60.84517370934668
1673611546.150363,10.864809,60.887333
1673611546.151371,10.928252,60.9270560443385
1673611546.1523778,10.895845,60.97979807081545
1673611546.153385,10.902505,61.016235298998566
1673611546.154392,10.947773,61.04847808641428
1673611546.1553988,10.959024,61.077498779817674
1673611546.156406,11.04307,61.10652634527728
1673611546.157413,11.176471,61.135553910736895
1673611546.1584198,11.169715,61.140598
1673611546.159427,11.086679,61.216469988796185
1673611546.160434,10.976549,61.10862038865045
1673611546.1614408,10.89135,61.286891895326654
1673611546.162448,10.812954,61.321487
1673611546.163456,10.728307,61.369281234598674
1673611546.164463,10.715974,61.424728322471466
1673611546.16547,10.747251,61.48016228366625
1673611546.166477,10.810526,61.53560937153904
1673611546.167484,10.875123,61.59105645941183
1673611546.168491,10.953014,61.64649042060662
1673611546.169498,11.02564,61.7019375084794
1673611546.170505,11.107835,61.757384596352196
1673611546.171512,11.201184,61.81281855754698
1673611546.172519,11.332253,61.86826564541977
1673611546.173526,11.464116,61.92371273329256
1673611546.174533,11.551407,61.97914669448735
1673611546.17554,11.461135,62.03459378236013
1673611546.176548,11.194741,62.09009337694492
1673611546.1775548,11.017707,62.14552733813971
1673611546.178562,10.892023,62.2009744260125
1673611546.179569,10.61135,62.256421513885286
1673611546.1805758,10.512014,62.31185547508007
1673611546.181583,10.681668,62.367302562952865
1673611546.18259,10.679313,62.42274965082565
1673611546.1835968,10.532496,62.47818361202044
1673611546.184604,10.480281,62.53363069989323
1673611546.185611,10.474439,62.589077787766016
1673611546.1866179,10.699578,62.6445117489608
1673611546.187625,11.059995,62.69995883683359
1673611546.188633,11.243087,62.75545843141838
1673611546.18964,11.313934,62.81090551929117
1673611546.190647,11.483974,62.866339480485955
1673611546.191654,11.557417,62.92178656835875
1673611546.192661,11.599705,62.97723365623153
1673611546.193668,11.6067,63.03266761742632
1673611546.194675,11.428824,63.088114705299105
1673611546.195682,10.952052,63.1435617931719
1673611546.196689,10.658277,63.198995754366685
1673611546.197696,10.700275,63.25444284223947
1673611546.198703,10.743381,63.30988993011226
1673611546.19971,10.714796,63.36532389130705
1673611546.200717,10.660273,63.420770979179835
1673611546.201725,10.526775,63.47627057376462
1673611546.2027318,10.342095,63.53170453495942
1673611546.203739,10.281273,63.5871516228322
1673611546.204746,10.382964,63.64259871070499
1673611546.2057528,10.776676,63.69803267189978
1673611546.20676,11.185318,63.75347975977257
1673611546.207767,11.251044,63.80892684764535
1673611546.2087739,11.163777,63.86757574493444
1673611546.209781,11.045762,63.95439297210301
1673611546.210788,10.862694,64.08204918860277
1673611546.2117949,10.587525,64.15541620667462
1673611546.212802,10.414987,64.28566270958513
1673611546.21381,10.475232,64.36664156199333
1673611546.214817,10.556417,64.46352760595948
1673611546.215824,10.465688,64.53095555627087
1673611546.216831,10.414746,64.63147594563662
1673611546.217838,10.542354,64.69396560752594
1673611546.218845,10.618129,64.7249702677567
1673611546.219852,10.663253,64.75598226984403
1673611546.220859,10.712994,64.78699427193135
1673611546.221866,10.788817,64.83389758164482
1673611546.222873,10.814179,64.95202483094897
1673611546.22388,10.761147,65.02816879978542
1673611546.224887,10.641016,65.11923905209512
1673611546.225895,10.528217,65.21041713089349
1673611546.226902,10.491676,65.30150894850092
1673611546.2279088,10.547763,65.39257797711016
1673611546.228916,10.609499,65.49147761740167
1673611546.229923,10.63527,65.60286537386743
1673611546.2309299,10.598801,65.66582420934668
1673611546.231937,10.581732,65.76548842646007
1673611546.232944,10.620509,65.89300835550787
1673611546.2339509,10.65229,66.00689663376252
1673611546.234958,10.659407,66.08910881211254
1673611546.235965,10.672846,66.18883521072706
1673611546.2369719,10.700179,66.27274229888407
1673611546.237979,10.767324,66.38660614317031
1673611546.238987,10.864376,66.50057781306666
1673611546.239994,10.947677,66.6144416573529
1673611546.241001,11.014174,66.7282785452366
1673611546.242008,11.105936,66.84214238952283
1673611546.243015,11.129015,66.95600623380906
1673611546.244022,11.049729,67.06984312169277
1673611546.245029,10.923203000000001,67.18370696597901
1673611546.246036,10.852308,67.29757081026524
1673611546.247043,10.79889,67.41140769814895
1673611546.24805,10.781124,67.52527154243518
1673611546.249057,10.680202,67.63913538672142
1673611546.250064,10.633876,67.75297227460511
1673611546.251072,10.640583,67.86694394450147
1673611546.252079,10.646617000000001,67.9808077887877
1673611546.2530859,10.66633,68.09464467667141
1673611546.254093,10.747299,68.20850852095765
1673611546.2551,10.866756,68.32237236524388
1673611546.2561069,10.939984,68.43620925312759
1673611546.257114,10.980468,68.55007309741382
1673611546.258121,10.95472,68.66393694170006
1673611546.2591279,11.001359,68.77777382958377
1673611546.260135,11.071534,68.89163767387
1673611546.261142,11.04444,69.00550151815622
1673611546.2621489,11.004701,69.11933840603993
1673611546.263156,10.973833,69.23320225032617
1673611546.264164,10.923347,69.34717392022252
1673611546.265171,10.89784,69.46103776450876
1673611546.266178,10.860242,69.57487465239245
1673611546.267185,11.023741,69.6887384966787
1673611546.268192,11.304559,69.80260234096492
1673611546.269199,11.509673,69.91643922884863
1673611546.270206,11.573212,70.03030307313486
1673611546.271213,11.484094,70.1441669174211
1673611546.27222,11.244193,70.25800380530481
1673611546.273227,11.031987,70.36948631282785
1673611546.274234,10.803987,70.51745229852169
1673611546.275241,10.684216,70.69957544100119
1673611546.276249,10.691116,70.862062308536
1673611546.277256,10.543267,71.02793537386742
1673611546.2782629,10.459774,71.2304253580453
1673611546.27927,10.49896,71.42842554172628
1673611546.280277,10.684,71.64193641249405
1673611546.2812839,10.965899,71.84703774511206
1673611546.282291,11.371944,71.93712160650321
1673611546.283298,11.546527,71.96237292472408
1673611546.2843049,11.590497,71.98761826488666
1673611546.285312,11.662475,72.01286958310753
1673611546.286319,11.647233,72.0381209013284
1673611546.2873259,11.410794,72.06336624149098
1673611546.288333,11.07377,72.08861755971185
1673611546.289341,10.920679,72.19568543957092
1673611546.290348,11.150434,72.42212506485455
1673611546.291355,11.272922,72.65337818334386
1673611546.292362,11.221498,72.87754136082057
1673611546.293369,11.106464,73.10170453829727
1673611546.294376,10.93169,73.32581464683992
1673611546.295383,10.605027,73.54997782431661
1673611546.29639,10.220258,73.77414100179331
1673611546.297397,9.99721,73.99825111033596
1673611546.298404,10.071784,74.22241428781265
1673611546.299411,10.295794,74.44657746528937
1673611546.300418,10.370776,74.670687573832
1673611546.301426,10.487541,74.89506302704496
1673611546.302433,10.780378,75.11922620452165
1673611546.3034399,10.958879,75.3433363130643
1673611546.304447,11.096801,75.567499490541
1673611546.305454,11.182361,75.7916626680177
1673611546.3064609,11.158969,76.01577277656034
1673611546.307468,11.135482,76.23993595403704
1673611546.308475,11.022803,76.46409913151375
1673611546.3094819,10.780066,76.68820924005638
1673611546.310489,10.684265,76.91237241753309
1673611546.311496,10.63414,77.13653559500979
1673611546.3125029,10.548291,77.36064570355244
1673611546.31351,10.421574,77.58480888102913
1673611546.314518,10.290048,77.82768805793991
1673611546.315525,10.268026,78.07169016305124
1673611546.316532,10.362939,78.30847045207439
1673611546.317539,10.460255,78.53402703767287
1673611546.318546,10.525092,78.69557416571293
1673611546.319553,10.581179,78.86921806841478
1673611546.32056,10.580866,79.03461536385312
1673611546.321567,10.578294,79.22756557367669
1673611546.322574,10.643372,79.4222670986889
1673611546.323581,10.669239,79.57609029217564
1673611546.324588,10.646833,79.71540711643269
1673611546.325595,10.632649,79.85469095848701
1673611546.326603,10.645728,79.99413971155491
1673611546.32761,10.698737,80.13345653581196
1673611546.3286169,10.729797,80.27274037786628
1673611546.329624,10.730831,80.41205720212334
1673611546.330631,10.725518,80.55137402638037
1673611546.3316379,10.765762,80.69065786843471
1673611546.332645,10.798794,80.82997469269175
1673611546.333652,10.825335,80.9692915169488
1673611546.3346589,10.842571,81.10857535900313
1673611546.335666,10.87154,81.24789218326018
1673611546.336673,10.931161,81.38720900751721
1673611546.3376799,10.951475,81.52649284957155
1673611546.338687,10.963231,81.66580967382859
1673611546.339695,10.983065,81.80525842689649
1673611546.340702,10.933445,81.9068889461135
1673611546.341709,10.833196,82.0266988669528
1673611546.342716,10.737322,82.06727644815255
1673611546.343723,10.638539,82.17319183118741
1673611546.34473,10.6552,82.31761365121413
1673611546.345737,10.689842,82.39815727400662
1673611546.346744,10.730182,82.4613023294702
1673611546.347751,10.875147,82.52128275496688
1673611546.348758,11.011456,82.56917153504415
1673611546.349765,11.216907,82.85132532641869
1673611546.350772,11.384638,82.89292392753278
1673611546.35178,11.411179,82.92939308726753
1673611546.352787,11.362016,82.939201
1673611546.3537939,11.221187,82.99871813711889
1673611546.354801,11.012298,83.07939862081278
1673611546.355808,10.939142,83.16007910450666
1673611546.3568149,10.837187,83.24074048770727
1673611546.357822,10.697656,83.32142097140115
1673611546.358829,10.543508,83.40210145509505
1673611546.3598359,10.447947,83.48276283829564
1673611546.360843,10.480329,83.56344332198954
1673611546.36185,10.65431,83.64412380568344
1673611546.3628569,10.865458,83.72478518888403
1673611546.363864,11.070332,83.80546567257792
1673611546.364872,11.277273,83.88622255824501
1673611546.365879,11.391609,83.9669030419389
1673611546.366886,11.357857,84.0475644251395
1673611546.367893,11.201954,84.1282449088334
1673611546.3689,11.053455,84.20892539252729
1673611546.369907,10.926954,84.28958677572788
1673611546.370914,10.947725,84.37026725942178
1673611546.371921,11.059538,84.45094774311566
1673611546.372928,11.005687,84.53160912631627
1673611546.373935,10.85815,84.61228961001015
1673611546.374942,10.850361,84.69297009370405
1673611546.375949,10.872238,84.77363147690464
1673611546.376957,10.989435,84.85438836257174
1673611546.377964,10.981237,84.93506884626562
1673611546.3789709,10.851274,85.01573022946623
1673611546.379978,10.774537,85.09641071316011
1673611546.380985,10.698977,85.17709119685401
1673611546.3819919,10.599281,85.2577525800546
1673611546.382999,10.522953,85.3384330637485
1673611546.384006,10.504128,85.4191135474424
1673611546.3850129,10.593247,85.49977493064299
1673611546.38602,10.768984,85.58045541433688
1673611546.387027,10.895678,85.66113589803078
1673611546.3880339,11.005927,85.74179728123137
1673611546.389041,11.336292,85.82247776492527
1673611546.390049,11.583357,85.90323465059235
1673611546.391056,11.43421,85.98391513428625
1673611546.392063,11.279099,86.06457651748684
1673611546.39307,11.191616,86.14525700118074
1673611546.394077,11.030593,86.22593748487463
1673611546.395084,10.958639,86.30812922460657
1673611546.396091,10.797232,86.43637610011919
1673611546.397098,10.602623,86.5804081382928
1673611546.398105,10.45737,86.69067018693372
1673611546.399112,10.403808,86.8193171761621
1673611546.400119,10.391234,86.96257649856939
1673611546.401126,10.456529,87.07458564711493
1673611546.402134,10.572981,87.21747118454935
1673611546.403141,10.65484,87.32188529296782
1673611546.4041479,10.704555,87.37006577823684
1673611546.405155,10.677942,87.35746429861214
1673611546.406162,10.62801,87.34486281898745
1673611546.4071689,10.622264,87.33226432266758
1673611546.408176,10.647314,87.31966284304289
1673611546.409183,10.736865,87.3070613634182
1673611546.4101899,10.876589,87.29446286709833
1673611546.411197,11.014582,87.28186138747364
1673611546.412204,11.147045,87.26925990784895
1673611546.4132109,11.31956,87.25666141152908
1673611546.414218,11.501379,87.24405993190439
1673611546.415226,11.478684,87.23144651906036
1673611546.416233,11.213517,87.21884503943566
1673611546.41724,11.012226,87.2062465431158
1673611546.418247,10.970901,87.1936450634911
1673611546.419254,10.798866,87.18104358386641
1673611546.420261,10.550888,87.16844508754654
1673611546.421268,10.411381,87.15584360792185
1673611546.422275,10.343298,87.14324212829716
1673611546.423282,10.340797,87.13064363197729
1673611546.424289,10.388302,87.1180421523526
1673611546.425296,10.423521,87.10544067272791
1673611546.426303,10.477924,87.09284217640806
1673611546.427311,10.532088,87.08022876356401
1673611546.428318,10.56625,87.06762728393932
1673611546.4293249,10.599931,87.05502878761946
1673611546.430332,10.621519,87.04242730799476
1673611546.431339,10.660705,87.02982582837006
1673611546.4323459,10.708882,87.01722733205021
1673611546.433353,10.77997,87.0046258524255
1673611546.43436,10.81216,86.99202437280081
1673611546.4353669,10.829926,86.97942587648096
1673611546.436374,10.853149,86.96682439685627
1673611546.437381,10.874907,86.95422291723156
1673611546.4383879,10.862982,86.94162442091171
1673611546.439395,10.847572,86.92902294128702
1673611546.440403,10.863078,86.91640952844297
1673611546.44141,10.878849,86.90380804881828
1673611546.442417,10.862765,86.89120955249842
1673611546.443424,10.788216,86.87860807287372
1673611546.444431,10.715806,86.86600659324903
1673611546.445438,10.68727,86.85340809692917
1673611546.446445,10.684505,86.84080661730448
1673611546.447452,10.707488,86.82820513767977
1673611546.448459,10.75254,86.81560664135992
1673611546.449466,10.787038,86.80300516173523
1673611546.4504728,10.793818,86.79040666541536
1673611546.45148,10.813098,86.77780518579067
1673611546.452488,10.801823,86.76519177294664
1673611546.453495,10.755881,86.75259029332194
1673611546.4545019,10.876685,86.73999179700208
1673611546.455509,11.133342,86.72739031737738
1673611546.456516,11.354034,86.71478883775269
1673611546.4575229,11.462818,86.702190341432825
1673611546.45853,11.464957,86.68958886180813
1673611546.459537,11.4125,86.62436464982122
1673611546.4605439,11.318262,86.49500797091083
1673611546.461551,11.189837,86.40008624225084
1673611546.462558,11.011289,86.32485468676997
1673611546.4635649,10.806848,86.23378351144493
1673611546.464572,10.573606,86.17432052288984
1673611546.46558,10.356448,86.07371547771156
1673611546.466587,10.231317,85.98206689127325
1673611546.467594,10.294856,85.89458722150691
1673611546.468601,10.438883,85.8517
1673611546.469608,10.581107,85.8517
1673611546.470615,10.67936,85.8517
1673611546.471622,10.73523,85.8517
1673611546.4726288,10.774874,85.8517
1673611546.473636,10.806799,85.8287897794994
1673611546.474643,10.839759,85.70467962851693
1673611546.4756498,10.833316,85.60243006819266
1673611546.476657,10.81769,85.5332142966142
1673611546.477665,10.867646,85.47471016758045
1673611546.478672,10.976598,85.4136241096805
1673611546.4796789,11.040209,85.38325631688126
1673611546.480686,11.197169,85.32290863504173
1673611546.481693,11.468828,85.29751915589112
1673611546.4826999,11.63401,85.24894685261276
1673611546.483707,11.634707,85.20036304748659
1673611546.484714,11.443537,85.15177924236042
1673611546.4857209,11.111369,85.10320693908206
1673611546.486728,10.763839,85.05462313395589
1673611546.487735,10.655537,84.99422049582837
1673611546.4887419,10.542401,84.93948523748212
1673611546.489749,10.483286,84.92805933690988
1673611546.490757,10.572909,84.82226611060787
1673611546.491764,10.676066,84.77878826609442
1673611546.492771,10.685347,84.73771683142584
1673611546.493778,10.716046,84.68753336233611
1673611546.4947848,10.834278,84.66430288340486
1673611546.495792,10.970179,84.57340836266094
1673611546.496799,11.038647,84.57251106467929
1673611546.4978058,11.02665,84.53478227544895
1673611546.498813,10.928469,84.4970445520985
1673611546.49982,10.899788,84.45930682874805
1673611546.5008268,10.910774,84.42157803951771
1673611546.501834,10.810141,84.38384031616727
1673611546.502842,10.729028,84.34606685633638
1673611546.503849,10.76468,84.30832913298592
1673611546.5048559,10.791726,84.27060034375559
1673611546.505863,10.683399,84.23286262040514
1673611546.50687,10.725302,84.19512489705468
1673611546.5078769,10.603248,84.15739610782435
1673611546.508884,10.515116,84.11965838447391
1673611546.509891,10.618057,84.08192066112346
1673611546.5108979,10.669047,84.04419187189312
1673611546.511905,10.675178,84.00645414854267
1673611546.512912,10.774273,83.96871642519223
1673611546.5139189,10.865699,83.93098763596188
1673611546.514926,10.917482,83.89324991261144
1673611546.515934,10.86529,83.85547645278054
1673611546.5169408,10.803722,83.81774766355021
1673611546.517948,10.783168,83.78000994019976
1673611546.518955,10.765473,83.74227221684932
1673611546.5199618,10.744895,83.70454342761897
1673611546.520969,10.712729,83.66680570426853
1673611546.521976,10.710613,83.62906798091808
1673611546.5229828,10.780691,83.59133919168774
1673611546.52399,10.844351,83.55360146833729
1673611546.524997,10.820983,83.54597459966618
1673611546.5260038,10.784779,83.49468683071053
1673611546.527011,10.770065,83.38538051203814
1673611546.528019,10.717176,83.28617042727707
1673611546.529026,10.623298,83.21573704768717
1673611546.5300329,10.614283,83.15064023289631
1673611546.53104,10.66395,83.10950646351931
1673611546.532047,10.698737,83.01632580352884
1673611546.5330539,10.697847,82.92478713352408
1673611546.534061,10.667124,82.80894760176072
1673611546.535068,10.675466,82.65262404465498
1673611546.5360749,10.765402,82.49633749596714
1673611546.537082,10.850505,82.34001393886142
1673611546.538089,10.857525,82.18369038175568
1673611546.5390959,10.849279,82.02740383306784
1673611546.540103,10.825142,81.8710802759621
1673611546.541111,10.79187,81.71460868518488
1673611546.5421178,10.804516,81.55832213649703
1673611546.543125,10.785716,81.4019985793913
1673611546.544132,10.736313,81.24567502228557
1673611546.5451388,10.724124,81.08938847359772
1673611546.546146,10.731721,80.933064916492
1673611546.547153,10.718354,80.77674135938626
1673611546.5481598,10.723042,80.62045481069842
1673611546.549167,10.734365,80.4641312535927
1673611546.550174,10.72333,80.30780769648696
1673611546.5511808,10.72273,80.15152114779912
1673611546.552188,10.747707,79.9951975906934
1673611546.553196,10.769224,79.83872599991616
1673611546.554203,10.819781,79.68240244281043
1673611546.5552099,10.902361,79.52611589412258
1673611546.556217,10.975492,79.36979233701686
1673611546.557224,11.046075,79.21346877991112
1673611546.5582309,11.097016,79.05718223122328
1673611546.559238,11.099349,78.90085867411756
1673611546.560245,11.057614,78.74453511701182
1673611546.5612519,10.989796,78.58824856832398
1673611546.562259,10.911304,78.42247176490224
1673611546.563266,10.866372,78.27419798354792
1673611546.5642729,10.815839,78.15549616019071
1673611546.56528,10.748381,77.99857733333333
1673611546.566288,10.688015,77.83113964806867
1673611546.5672948,10.75028,77.66730741773964
1673611546.568302,10.833749,77.53570201883194
1673611546.569309,10.896543,77.38686952765856
1673611546.5703158,11.027035,77.25167670386266
1673611546.571323,11.146757,77.11275935610192
1673611546.57233,11.19741,76.98295610675011
1673611546.5733368,11.243207,76.85318358733423
1673611546.574344,11.231043,76.72338033798242
1673611546.575351,11.29552,76.59357708863061
1673611546.5763578,11.347014,76.46380456921472
1673611546.577365,11.278282,76.3340013198629
1673611546.578373,11.17498,76.2040751507674
1673611546.57938,11.122211,76.0842214282308
1673611546.5803869,11.026458,75.939045765856
1673611546.581394,10.905774,75.80236949463648
1673611546.582401,10.734533,75.3185883984375
1673611546.5834079,10.669359,75.19589773991936
1673611546.584415,10.65306,75.09134891028225
1673611546.585422,10.574832,74.98717259011848
1673611546.5864289,10.418953,75.20360462947068
1673611546.587436,10.267041,75.11938735446961
1673611546.588443,10.252905,75.01697554311896
1673611546.58945,10.266512,74.92024885568544
1673611546.590457,10.323512,74.82349926351894
1673611546.591465,10.437922,74.72665805242046
1673611546.5924718,10.530213,74.62993136498694
1673611546.593479,10.615484,74.53318177282044
1673611546.594486,10.655392,74.43643218065392
1673611546.5954928,10.721696,74.339705493220407
1673611546.5965,10.849279,74.2429559010539
1673611546.597507,11.104133,74.1462063088874
1673611546.5985138,11.516428,74.04947962145388
1673611546.599521,11.752146,73.95273002928738
1673611546.600528,11.766474,73.85598043712086
1673611546.6015348,11.705411,73.75925374968735
1673611546.602542,11.612302,73.66250415752084
1673611546.60355,11.439162,73.56566294642236
1673611546.604557,11.235995,73.46891335425585
1673611546.6055639,10.943542,73.37218666682234
1673611546.606571,10.492349,73.27543707465583
1673611546.607578,10.140972,73.17868748248932
1673611546.6085849,9.997378,73.0819607950558
1673611546.609592,10.027285,72.9852112028893
1673611546.610599,10.117004,72.88846161072279
1673611546.611606,10.22473,72.79173492328928
1673611546.612613,10.391018,72.69498533112277
1673611546.61362,10.561995,72.59823573895626
1673611546.614627,10.699121,72.50150905152275
1673611546.615634,10.802352,72.40475945935624
1673611546.616642,10.876854,72.30791824825775
1673611546.6176488,10.926762,72.21119156082425
1673611546.618656,10.91515,72.11444196865773
1673611546.619663,10.791077,72.01769237649123
1673611546.6206698,10.721648,71.92096568905771
1673611546.621677,10.709075,71.8242160968912
1673611546.622684,10.686645,71.72746650472469
1673611546.6236908,10.727826,71.63073981729119
1673611546.624698,10.817209,71.53399022512467
1673611546.625705,10.844062,71.43724063295817
1673611546.6267118,10.833532,71.34051394552465
1673611546.627719,10.77485,71.24376435335815
1673611546.628727,10.663806,71.14692314225965
1673611546.629734,10.619836,71.05017355009315
1673611546.630741,10.664527,70.95344686265963
1673611546.631748,10.692463,70.85669727049313
1673611546.632755,10.709964,70.75994767832663
1673611546.633762,10.739149,70.66322099089311
1673611546.634769,10.745015,70.60542573962803
1673611546.635776,10.752708,70.49981132800954
1673611546.636783,10.762685,70.42474631831188
1673611546.63779,10.778672,70.30015281235099
1673611546.638797,10.7623,70.15527110011918
1673611546.639804,10.766003,70.00955719599428
1673611546.640811,10.778119,69.89903118717214
1673611546.641819,10.795308,69.84291245779686
1673611546.6428258,10.794274,69.69884143837902
1673611546.643833,10.788745,69.62962530940364
1673611546.64484,10.822954,69.56127003694037
1673611546.6458468,10.875628,69.49293094707001
1673611546.646854,10.902601,69.42457567460674
1673611546.647861,10.926594,69.35622040214348
1673611546.6488678,10.922795,69.28788131227311
1673611546.649875,10.892504,69.21952603980985
1673611546.650882,10.857261,69.15117076734658
1673611546.6518888,10.885653,69.08283167747624
1673611546.652896,10.918924,69.01447640501297
1673611546.653904,10.90628,68.94605640217804
1673611546.654911,10.856491,68.87770112971478
1673611546.655918,10.862574,68.80936203984443
1673611546.656925,10.802809,68.74100676738117
1673611546.657932,10.676066,68.67265149491789
1673611546.658939,10.656618,68.60431240504754
1673611546.659946,10.722874,68.53595713258427
1673611546.660953,10.800092,68.46760186012101
1673611546.66196,10.870074,68.39926277025064
1673611546.662967,10.979939,68.33090749778738
1673611546.663974,11.100815,68.26255222532411
1673611546.664981,11.131996,68.19421313545377
1673611546.665988,11.135362,68.1258578629905
1673611546.666996,11.149089,68.05743786015557
1673611546.6680028,11.146636,67.98909877028522
1673611546.66901,11.142597,67.92074349782196
1673611546.670017,11.038887,67.85238822535868
1673611546.6710238,10.85464,67.78404913548833
1673611546.672031,10.74564,67.71569386302507
1673611546.673038,10.643372,67.6473385905618
1673611546.6740448,10.473021,67.57899950069144
1673611546.675052,10.455688,67.51064422822817
1673611546.676059,10.570216,67.44228895576491
1673611546.6770658,10.708282,67.37394986589456
1673611546.678073,10.844928,67.3055945934313
1673611546.679081,10.906688,67.23717459059637
1673611546.680088,10.902048,67.1688193181331
1673611546.681095,10.911688,67.10048022826275
1673611546.682102,10.981791,67.03212495579947
1673611546.683109,10.970035,66.96376968333621
1673611546.684116,10.855241,66.89543059346586
1673611546.685123,10.76444,66.8270753210026
1673611546.68613,10.820599,66.75872004853933
1673611546.687137,10.846803,66.69038095866897
1673611546.688144,10.815815,66.6220256862057
1673611546.689151,10.821248,66.55367041374244
1673611546.690158,10.842836,66.48533132387209
1673611546.691165,10.841417,66.41697605140881
1673611546.692173,10.824349,66.3485560485739
1673611546.6931798,10.779393,66.28021695870355
1673611546.694187,10.774513,66.21186168624027
1673611546.695194,10.766868,66.143506413777
1673611546.6962008,10.752756,66.07516732390665
1673611546.697208,10.687342,66.00681205144339
1673611546.698215,10.599906,65.952568
1673611546.6992218,10.595002,65.8863108902439
1673611546.700229,10.641809,65.88007756169297
1673611546.701236,10.68614,65.812188872427
1673611546.7022429,10.789082,65.8482978583691
1673611546.70325,10.863919,65.84453781139723
1673611546.704258,10.953615,65.7806678476758
1673611546.705265,11.048239,65.75823773772055
1673611546.706272,11.059706,65.75249246852647
1673611546.707279,11.063264,65.64007385915829
1673611546.708286,11.021338,65.46689403245823
1673611546.709293,10.990469,65.41223469683258
1673611546.7103,10.96751,65.3629826735813
1673611546.711307,10.902072,65.31556013436754
1673611546.712314,10.841634,65.27076954131937
1673611546.713321,10.782351,65.27177686981402
1673611546.714328,10.686813,65.223589275179
1673611546.715335,10.595652,65.17469
1673611546.716342,10.525212,65.14411731156139
1673611546.71735,10.484464,65.066389738342
1673611546.7183568,10.504008,65.01442657708651
1673611546.719364,10.582886,64.96245111103319
1673611546.720371,10.745279,64.91047564497987
1673611546.7213778,10.845721,64.85851248372438
1673611546.722385,10.873223,64.80653701767106
1673611546.723392,10.876685,64.75456155161774
1673611546.7243989,10.821079,64.70259839036225
1673611546.725406,10.667316,64.65062292430893
1673611546.726413,10.581588,64.59864745825561
1673611546.7274199,10.656137,64.54668429700013
1673611546.728427,10.742851,64.4947088309468
1673611546.729435,10.781388,64.44268414570215
1673611546.730442,10.860001,64.39070867964882
1673611546.731449,11.012033,64.33874551839334
1673611546.732456,11.16873,64.28677005234002
1673611546.733463,11.278788,64.2347945862867
1673611546.73447,11.336365,64.18283142503121
1673611546.735477,11.319656,64.13085595897789
1673611546.736484,11.225129,64.07888049292457
1673611546.737491,11.127933,64.02691733166907
1673611546.738498,10.97316,63.974941865615754
1673611546.739505,10.799178,63.922966399562434
1673611546.740512,10.574135,63.87100323830695
1673611546.74152,10.414169,63.81897855306229
1673611546.742527,10.351736,63.767003087008966
1673611546.7435338,10.329258,63.71503992575347
1673611546.744541,10.381233,63.66306445970015
1673611546.745548,10.48807,63.61108899364683
1673611546.7465549,10.57125,63.559125832391345
1673611546.747562,10.603729,63.507150366338024
1673611546.748569,10.649214,63.4551749002847
1673611546.7495759,10.779393,63.40321173902922
1673611546.750583,10.890388,63.351236272975896
1673611546.75159,10.986166,63.31890448307105
1673611546.7525969,11.075813,63.22561401787843
1673611546.753604,11.088098,63.166687
1673611546.754612,11.057494,63.11164229832936
1673611546.755619,10.985469,62.70075114364303
1673611546.756626,10.900414,62.5997159597561
1673611546.757633,10.829566,62.53850534313726
1673611546.75864,10.80014,62.48528705684597
1673611546.759647,10.759632,62.505211710268945
1673611546.760654,10.768503,62.40400027032181
1673611546.761661,10.76557,62.331142256795424
1673611546.762668,10.762084,62.25828142768496
1673611546.763675,10.856154,62.1875896377709
1673611546.764682,10.921882,62.15081480367049
1673611546.765689,10.966597,62.10905605595292
1673611546.766697,11.012563,62.06724786619448
1673611546.767704,11.005086,62.02547923006873
1673611546.7687109,10.913107,61.98372048235116
1673611546.769718,10.842836,61.941951846225415
1673611546.770725,10.763598,61.90018321009967
1673611546.7717319,10.710974,61.8584244623821
1673611546.772739,10.725422,61.81665582625635
1673611546.773746,10.712994,61.774887190130606
1673611546.7747529,10.825575,61.73312844241303
1673611546.77576,10.987271,61.69135980628729
1673611546.776767,11.087112,61.64959117016154
1673611546.7777739,11.06889,61.60783242244397
1673611546.778781,11.047036,61.566063786318225
1673611546.779789,11.033742,61.52425559655978
1673611546.780796,11.021289,61.48248696043404
1673611546.781803,11.01689,61.440728212716465
1673611546.78281,10.948879,61.39895957659072
1673611546.783817,10.773239,61.357190940464974
1673611546.784824,10.599041,61.3154321927474
1673611546.785831,10.511942,61.273663556621656
1673611546.786838,10.456456,61.23189492049591
1673611546.787845,10.475689,61.19013617277834
1673611546.788852,10.474198,61.14836753665259
1673611546.789859,10.499249,61.10659890052685
1673611546.790866,10.599906,61.064840152809275
1673611546.791874,10.70304,61.02303196305084
1673611546.792881,10.746289,60.981263326925095
1673611546.7938879,10.806438,60.93950457920752
1673611546.794895,10.916785,60.89773594308178
1673611546.795902,11.038791,60.85596730695603
1673611546.7969089,11.170749,60.81420855923846
1673611546.797916,11.340427,60.772439923112714
1673611546.798923,11.423896,60.73067128698697
1673611546.7999299,11.288091,60.688912539269396
1673611546.800937,11.113244,60.64714390314365
1673611546.801944,11.091006,60.605375267017905
1673611546.8029509,11.04444,60.56361651930033
1673611546.803958,10.906832,60.52184788317459
1673611546.804966,10.814925,60.480039693416145
1673611546.805973,10.673038,60.42718072961374
1673611546.80698,10.467227,60.367569140643624
1673611546.807987,10.340533,60.317648084406294
1673611546.808994,10.319257,60.29291915322196
1673611546.810001,10.387099,60.31252360681115
1673611546.811008,10.501365,60.2832378144969
1673611546.812015,10.621952,60.25048908926015
1673611546.813022,10.746698,60.21061001143402
1673611546.814029,10.859785,60.17737980977354
1673611546.815036,10.939142,60.14073926799649
1673611546.816043,10.990445,60.129061045820876
1673611546.817051,11.049609,60.1173689967187
1673611546.818058,11.078458,60.105688009157774
1673611546.8190649,11.120481,60.09400978698216
1673611546.820072,11.097402,60.08232879942124
1673611546.821079,11.095407,60.07064781186032
1673611546.8220859,11.125288,60.05896958968471
1673611546.823093,11.003523,60.04728860212378
1673611546.8241,10.885364,60.035607614562856
1673611546.8251069,10.706959,60.023929392387245
1673611546.826114,10.559398,60.01224840482632
1673611546.827121,10.490161,60.000567417265394
1673611546.8281279,10.465207,59.98888919508978
1673611546.829135,10.471482,59.97720820752886
1673611546.830143,10.514586,59.96551615842668
1673611546.83115,10.552499,59.95383517086576
1673611546.832157,10.614235,59.94215694869015
1673611546.833164,10.698713,59.930475961129225
1673611546.834171,10.773143,59.918794973568296
1673611546.835178,10.828604,59.907116751392685
1673611546.836185,10.866949,59.89543576383176
1673611546.837192,10.828363,59.88375477627084
1673611546.838199,10.78223,59.87207655409522
1673611546.839206,10.780908,59.8603955665343
1673611546.840213,10.797784,59.84871457897338
1673611546.84122,10.822666,59.83703635679777
1673611546.842228,10.788625,59.82534430769559
1673611546.843235,10.739125,59.813663320134665
1673611546.8442419,10.73463,59.801985097959054
1673611546.845249,10.732538,59.79030411039813
1673611546.846256,10.689073,59.7786231228372
1673611546.8472629,10.637626,59.76694490066159
1673611546.84827,10.626568,59.75526391310067
1673611546.849277,10.683472,59.74358292553974
1673611546.8502839,10.760521,59.73190470336413
1673611546.851291,10.806535,59.72022371580321
1673611546.852298,10.881998,59.708542728242286
1673611546.8533049,10.955827,59.696864506066674
1673611546.854312,11.012538,59.685183518505745
1673611546.85532,11.076558,59.67349146940357
1673611546.856327,11.158392,59.66181048184265
1673611546.857334,11.196978,59.65013225966703
1673611546.858341,11.159666,59.63845127210611
1673611546.859348,11.149233,59.62677028454519
1673611546.860355,11.235394,59.61509206236958
1673611546.861362,11.227654,59.60341107480865
1673611546.862369,11.159426,59.591730087247726
1673611546.863376,11.070572,59.580051865072114
1673611546.867405,10.583847,59.53331961867248
1673611546.868412,10.524948,59.52163863111156
1673611546.8694189,10.543147,59.50996040893594
1673611546.870426,10.636015,59.49827942137502
1673611546.871433,10.580097,59.486598433814095
1673611546.8724399,10.604041,59.474920211638484
1673611546.873447,10.75956,59.463239224077554
1673611546.874454,10.90349,59.45155823651663
1673611546.8754609,11.032011,59.43988001434102
1673611546.876468,11.053479,59.4281990267801
1673611546.877475,10.977078,59.41651803921917
1673611546.8784819,10.941402,59.40483981704356
1673611546.879489,10.926738,59.39315882948264
1673611546.880497,10.880219,59.38146678038046
1673611546.881504,10.85565,59.369785792819535
1673611546.882511,10.847404,59.32261030329042
1673611546.883518,10.818218,59.328665680257515
1673611546.884525,10.728187,59.331577
1673611546.885532,10.659119,59.349667
1673611546.886539,10.739655,59.35728774213075
1673611546.887546,10.917266,59.35010413542926
1673611546.888553,10.995445,59.36525724695864
1673611546.88956,11.026771,59.40771632082324
1673611546.890567,10.999773,59.40103044915254
1673611546.891574,10.825768,59.359211393364284
1673611546.892582,10.635871,59.36996091258224
1673611546.893589,10.545046,59.38070026196177
1673611546.8945959,10.594666,59.39143706888169
1673611546.895603,10.66823,59.40217641826122
1673611546.89661,10.693905,59.41291576764075
1673611546.8976169,10.705925,59.42365257456067
1673611546.898624,10.715878,59.4343919239402
1673611546.899631,10.711551,59.44513127331973
1673611546.9006379,10.757805,59.45586808023965
1673611546.901645,10.826585,59.46660742961918
1673611546.902652,10.835984,59.47734677899871
1673611546.9036589,10.811487,59.48808358591863
1673611546.904666,10.832595,59.49882293529816
1673611546.905674,10.892456,59.50957245451611
1673611546.906681,10.908491,59.520311803895645
1673611546.907688,10.884018,59.53104861081557
1673611546.908695,10.849664,59.541787960195094
1673611546.909702,10.827306,59.55252730957462
1673611546.910709,10.838774,59.563264116494544
1673611546.911716,10.84375,59.57400346587407
1673611546.912723,10.882382,59.5847428152536
1673611546.91373,10.926618,59.59547962217352
1673611546.914737,10.863078,59.60621897155305
1673611546.915744,10.81055,59.61695832093258
1673611546.916751,10.776989,59.627695127852505
1673611546.917759,10.75278,59.63844464707046
1673611546.918766,10.747852,59.649183996449985
1673611546.9197729,10.807256,59.65992080336991
1673611546.92078,10.957197,59.670660152749434
1673611546.921787,11.194814,59.68139950212897
1673611546.9227939,11.308742,59.69213630904889
1673611546.923801,11.288451,59.70287565842842
1673611546.924808,11.182794,59.713615007807945
1673611546.9258149,11.078626,59.72435181472787
1673611546.926822,11.008499,59.735091164107395
1673611546.927829,10.882815,59.74583051348692
1673611546.9288359,10.694458,59.756567320406845
1673611546.929843,10.648444,59.76730666978637
1673611546.930851,10.672917,59.77805618900433
1673611546.931858,10.630342,59.78879553838386
1673611546.932865,10.49723,59.79953234530378
1673611546.933872,10.461529,59.81027169468331
1673611546.934879,10.544036,59.82101104406284
1673611546.935886,10.63527,59.83174785098276
1673611546.936893,10.789779,59.838104
1673611546.9379,10.888705,59.8607350758226
1673611546.938907,10.864161,59.861667764677804
1673611546.939914,10.780908,59.84346126037196
1673611546.940921,10.755473,59.86634779209336
1673611546.941928,10.811511,59.84813768973747
1673611546.942936,10.789682,59.829891921793035
1673611546.943943,10.750135,59.84501007311265
1673611546.9449499,10.742419,59.85737644105012
1673611546.945957,10.776099,59.83322276347873
1673611546.946964,10.822186,59.822872189650504
1673611546.9479709,10.852525,59.81252406624221
1673611546.948978,10.855217,59.802173492413985
1673611546.949985,10.900365,59.801926
1673611546.9509919,10.920799,59.81983385121602
1673611546.951999,10.89284,59.820015
1673611546.953006,10.843101,59.856197119868924
1673611546.9540129,10.755785,59.85697213201307
1673611546.95502,10.767324,59.857747327678915
1673611546.956028,10.798914,59.85852325743157
1673611546.957035,10.78021,59.859298453097416
1673611546.958042,10.794371,59.86007346524157
1673611546.959049,10.964842,59.860848660907415
1673611546.960056,11.143896,59.86162385657326
1673611546.961063,11.196112,59.862398868717406
1673611546.96207,11.101728,59.86317406438326
1673611546.963077,11.062447,59.863949260049104
1673611546.964084,11.112907,59.86472427219325
1673611546.965091,11.097258,59.8654994678591
1673611546.9660978,11.02201,59.86627448000325
1673611546.967105,10.87969,59.867049675669094
1673611546.968113,10.751338,59.86782560542175
1673611546.96912,10.704434,59.868600801087595
1673611546.9701269,10.662075,59.86937581323175
1673611546.971134,10.688952,59.870151008897594
1673611546.972141,10.70643,59.87092620456344
1673611546.9731479,10.751819,59.87170121670759
1673611546.974155,10.743237,59.87247641237344
1673611546.975162,10.686068,59.87325160803928
1673611546.9761689,10.670898,59.87402662018343
1673611546.977176,10.657388,59.87480181584928
1673611546.978183,10.677773,59.87557701151513
1673611546.9791899,10.757636,59.87635202365927
1673611546.980197,10.898827,59.877127219325125
1673611546.981205,11.009341,59.877903149077774
1673611546.982212,10.972319,59.878678344743626
1673611546.983219,11.005013,59.87945335688777
1673611546.984226,10.969625,59.88022855255362
1673611546.985233,10.848077,59.88100374821947
1673611546.98624,10.652195,59.881778760363616
1673611546.987247,10.577068,59.88255395602946
1673611546.9882538,10.572837,59.883328968173615
1673611546.989261,10.604547,59.88410416383946
1673611546.990268,10.675706,59.884879359505305
1673611546.9912748,10.711911,59.88565437164946
1673611546.992282,10.771676,59.886429567315304
1673611546.99329,10.81531,59.88720549706795
1673611546.994297,10.878849,59.887980692733805
1673611546.9953039,10.940489,59.88875570487795
1673611546.996311,10.968087,59.8895309005438
1673611546.997318,11.003812,59.89030609620965
1673611546.9983249,11.027251,59.891081108353795
1673611546.999332,11.009702,59.89185630401964
1673611547.000339,10.872526,59.89846821072706
1673611547.0013459,10.783504,59.89180070672389
1673611547.002353,10.70631,59.849844815450645
1673611547.00336,10.563052,59.838104
1673611547.0043669,10.527184,59.83150500858369
1673611547.005374,10.613081,59.7931010944206
1673611547.006382,10.690612,59.761404777592375
1673611547.007389,10.758502,59.79083649356223
1673611547.008396,10.810958,59.77342447019552
1673611547.009403,10.878128,59.73182703789043
1673611547.0104098,10.976357,59.73749880781392
1673611547.011417,11.069683,59.743171920803924
1673611547.012424,11.094036,59.748845033793934
1673611547.0134308,11.057302,59.75451680371742
1673611547.014438,11.015808,59.760189916707425
1673611547.015445,10.924743,59.765863029697435
1673611547.0164518,10.872502,59.77153479962092
1673611547.017459,10.849544,59.777207912610926
1673611547.018467,10.806415,59.782886397867024
1673611547.019474,10.79776,59.788559510857034
1673611547.0204809,10.817858,59.79423128078052
1673611547.021488,10.73088,59.799904393770525
1673611547.022495,10.609907,59.805577506760535
1673611547.0235019,10.519515,59.811249276684016
1673611547.024509,10.51461,59.816922389674026
1673611547.025516,10.571346,59.822595502664036
1673611547.0265229,10.592982,59.82826727258752
1673611547.02753,10.623057,59.83394038557753
1673611547.028537,10.676452,59.83961349856754
1673611547.0295439,10.789105,59.84528526849102
1673611547.030551,10.938085,59.85095838148103
1673611547.031559,11.021505,59.85663686673713
1673611547.0325658,11.050691,59.862308636660615
1673611547.033573,11.083818,59.86798174965062
1673611547.03458,11.03528,59.87365486264063
1673611547.0355868,10.934215,59.87932663256411
1673611547.036594,11.066029,59.88499974555412
1673611547.037601,11.249458,59.89067285854413
1673611547.0386078,11.255323,59.89634462846761
1673611547.039615,11.163128,59.90201774145762
1673611547.040622,11.104469,59.90769085444763
1673611547.0416288,10.97239,59.91336262437111
1673611547.042636,10.854977,59.91903573736112
1673611547.043644,10.807112,59.92471422261722
1673611547.044651,10.70905,59.93038733560723
1673611547.0456579,10.656618,59.93605910553071
1673611547.046665,10.671787,59.94173221852072
1673611547.047672,10.630101,59.94740533151073
1673611547.0486789,10.552859,59.95307710143421
1673611547.049686,10.552138,59.95875021442422
1673611547.050693,10.643781,59.964423327414224
1673611547.0516999,10.773864,59.97009509733771
1673611547.052707,10.92318,59.97576821032772
1673611547.053714,11.056244,59.981441323317725
1673611547.0547209,11.17022,59.98711309324121
1673611547.055728,11.285134,59.99278620623122
1673611547.056736,11.324753,59.99846469148732
1673611547.0577428,11.314295,60.0041364614108
1673611547.05875,11.250203,60.00980957440081
1673611547.059757,11.118894,60.01548268739082
1673611547.0607638,10.940753,60.0211544573143
1673611547.061771,10.717633,60.02682757030431
1673611547.062778,10.636688,60.032500683294316
1673611547.0637848,10.691213,60.0474495498331
1673611547.064792,10.72261,60.084206112064855
1673611547.065799,10.740399,60.066314916070574
1673611547.0668058,10.710565,60.12095541764005
1673611547.067813,10.601806,60.167682394849784
1673611547.068821,10.700155,60.194133749165474
1673611547.069828,10.954096,60.24032965554231
1673611547.0708349,11.272368,60.28032242250835
1673611547.071842,11.4119,60.367204845016694
1673611547.072849,11.422574,60.386531767437205
1673611547.0738559,11.41214,60.40912981966835
1673611547.074863,11.322734,60.43173322308402
1673611547.07587,11.192217,60.45433662649968
1673611547.0768769,10.881277,60.47693467873083
1673611547.077884,10.481242,60.49953808214649
1673611547.078891,10.298462,60.52214148556216
1673611547.0798979,10.333561,60.544739537793305
1673611547.080905,10.340725,60.56734294120897
1673611547.081913,10.417895,60.589967749362714
1673611547.0829198,10.499369,60.61256580159386
1673611547.083927,10.473405,60.635169205009525
1673611547.084934,10.455688,60.65777260842519
1673611547.0859408,10.469703,60.68037066065634
1673611547.086948,10.580025,60.702974064072
1673611547.087955,10.649982,60.72557746748767
1673611547.0889618,10.691236,60.748175519718814
1673611547.089969,10.706045,60.77077892313448
1673611547.090976,10.67287,60.793382326550145
1673611547.0919828,10.694698,60.81598037878129
1673611547.09299,10.738259,60.838583782196956
1673611547.093998,10.745255,60.8612085903507
1673611547.095005,10.760617,60.883811993766365
1673611547.0960119,10.758453,60.90641004599751
1673611547.097019,10.757925,60.929013449413176
1673611547.098026,10.828556,60.95161685282884
1673611547.0990329,10.922435,60.97421490505999
1673611547.10004,10.972847,60.99681830847565
1673611547.101047,10.959048,61.01942171189132
1673611547.1020539,10.905991,61.042019764122465
1673611547.103061,10.763454,61.06462316753813
1673611547.104068,10.594689,61.087226570953796
1673611547.105075,10.595435,61.10982462318494
1673611547.106082,10.677197,61.13242802660061
1673611547.10709,10.780764,61.15505283475436
1673611547.1080968,10.952245,61.1776508869855
1673611547.109104,11.040137,61.20025429040116
1673611547.110111,11.083265,61.22285769381683
1673611547.1111178,11.102017,61.24545574604797
1673611547.112125,11.11697,61.26805914946364
1673611547.113132,11.155099,61.290662552879304
1673611547.1141388,11.144641,61.31326060511045
1673611547.115146,10.964698,61.335864008526116
1673611547.116153,10.772902,61.35846741194178
1673611547.1171598,10.775908,61.38106546417293
1673611547.118167,10.816055,61.40366886758859
1673611547.119175,10.77747,61.42629367574234
1673611547.120182,10.678783,61.44889707915801
1673611547.1211889,10.66722,61.47149513138915
1673611547.122196,10.68977,61.49409853480481
1673611547.123203,10.731504,61.51670193822048
1673611547.1242099,10.796269,61.539299990451624
1673611547.125217,10.848293,61.56190339386729
1673611547.126224,10.906014,61.584506797282955
1673611547.127231,10.925897,61.6071048495141
1673611547.128238,10.970107,61.59581201430615
1673611547.129245,10.972439,61.62335749451597
1673611547.130252,10.844519,61.61366358402861
1673611547.131259,10.823147,61.63450110574018
1673611547.132267,10.794515,61.6497027794562
1673611547.1332738,10.617913,61.636386499496474
1673611547.134281,10.631063,61.669841994964756
1673611547.135288,10.822017,61.68765774723062
1673611547.1362948,10.934623,61.6614384010574
1673611547.137302,11.008187,61.798848892703866
1673611547.138309,10.999845,61.82537440343348
1673611547.1393158,10.922626,61.87472716996424
1673611547.140323,10.998715,61.89799544778255
1673611547.14133,11.116153,61.95096191597177
1673611547.1423368,11.273042,62.00915752091693
1673611547.143344,11.30165,62.06736690649315
1673611547.144352,11.171903,62.125631414593585
1673611547.145359,11.059778,62.183840800169804
1673611547.146366,11.034945,62.242036405114966
1673611547.147373,11.010687,62.300245790691186
1673611547.14838,10.920151,62.358455176267405
1673611547.149387,10.784129,62.41665078121257
1673611547.150394,10.656642,62.47486016678879
1673611547.151401,10.578126,62.533069552365006
1673611547.152408,10.627145,62.59126515731017
1673611547.153415,10.752083,62.64947454288639
1673611547.154422,10.824373,62.70768392846261
1673611547.155429,10.8619,62.76587953340777
1673611547.156436,11.185029,62.82408891898399
1673611547.157444,11.615163,62.882353427084425
1673611547.1584508,11.904755,62.940549032029594
1673611547.159458,11.922666,62.99875841760581
1673611547.160465,11.701829,63.056967803182026
1673611547.1614718,11.315906,63.115163408127195
1673611547.162479,11.097233,63.17337279370341
1673611547.163486,11.050282,63.23158217927963
1673611547.1644928,10.836561,63.289777784224796
1673611547.1655,10.571106,63.347987169801016
1673611547.166507,10.326397,63.40619655537723
1673611547.1675138,10.188524,63.4643921603224
1673611547.168521,10.099214,63.52260154589862
1673611547.169529,10.150204,63.58086605399905
1673611547.170536,10.24389,63.63907543957527
1673611547.171543,10.355968,63.697271044520434
1673611547.17255,10.460495,63.755480430096654
1673611547.173557,10.566875,63.81368981567287
1673611547.174564,10.665874,63.871885420618035
1673611547.175571,10.810357,63.930094806194255
1673611547.176578,10.932122,63.988304191770474
1673611547.177585,11.054056,64.04649979671564
1673611547.178592,11.187481,64.10470918229186
1673611547.179599,11.288019,64.16291856786808
1673611547.180606,11.333191,64.22111417281323
1673611547.181613,11.362232,64.2759049206198
1673611547.182621,11.334465,64.30936789413448
1673611547.1836278,11.216065,64.34321977706247
1673611547.184635,10.910414,64.433006
1673611547.185642,10.658637,64.45667517310444
1673611547.1866488,10.577645,64.57014376251789
1673611547.187656,10.340533,64.61752704815257
1673611547.188663,10.12412,64.64702830185979
1673611547.1896698,10.081689,64.70046692727706
1673611547.190677,10.25192,64.69235964244172
1673611547.191684,10.464823,64.72001591921271
1673611547.1926908,10.581612,64.74766564856971
1673611547.193698,10.613032,64.77532192534072
1673611547.194706,10.643011,64.80300439176776
1673611547.195713,10.752228,64.83066066853875
1673611547.19672,10.867646,64.85831039789576
1673611547.197727,10.893394,64.88596667466676
1673611547.198734,10.880123,64.91362295143777
1673611547.199741,10.824157,64.94127268079477
1673611547.200748,10.700636,64.96892895756577
1673611547.201755,10.67977,64.99658523433678
1673611547.202762,10.804587,65.02423496369377
1673611547.203769,10.936186,65.05189124046478
1673611547.204776,10.999316,65.07954751723578
1673611547.205783,10.972535,65.10719724659278
1673611547.20679,10.891374,65.13485352336379
1673611547.207798,10.883849,65.16253598979083
1673611547.2088048,10.842427,65.19018571914782
1673611547.209812,10.761363,65.22465330972818
1673611547.210819,10.774633,65.26043031823599
1673611547.2118258,10.79954,65.25675014687648
1673611547.212833,10.749294,65.283241
1673611547.21384,10.685323,65.29854835431568
1673611547.2148468,10.673807,65.34273519022646
1673611547.215854,10.671499,65.32883512780163
1673611547.216861,10.710084,65.28707993204578
1673611547.2178679,10.753502,65.32629770083433
1673611547.218875,10.77283,65.30812445425005
1673611547.219883,10.786077,65.3297367375978
1673611547.22089,10.818675,65.35132857413066
1673611547.221897,10.902865,65.3729152989598
1673611547.222904,10.962967,65.39450713549265
1673611547.223911,10.985853,65.41609897202551
1673611547.224918,11.000398,65.43768569685464
1673611547.225925,10.956187,65.45927753338749
1673611547.226932,10.845192,65.48086936992036
1673611547.227939,10.874353,65.50245609474949
1673611547.228946,11.036339,65.52404793128234
1673611547.229953,11.164451,65.5456397678152
1673611547.23096,11.235851,65.56722649264434
1673611547.231967,11.208565,65.58881832917719
1673611547.232975,11.143511,65.61043061252495
1673611547.2339818,11.072519,65.63201733735409
1673611547.234989,10.953543,65.65360917388693
1673611547.235996,10.861371,65.6752010104198
1673611547.2370028,10.864833,65.69678773524893
1673611547.23801,10.810766,65.71837957178178
1673611547.239017,10.736673,65.73997140831464
1673611547.2400239,10.721335,65.76155813314378
1673611547.241031,10.739534,65.78314996967664
1673611547.242038,10.818483,65.80474180620949
1673611547.2430449,10.897865,65.82632853103863
1673611547.244052,10.901062,65.84792036757149
1673611547.24506,10.888681,65.86953265091924
1673611547.246067,10.861804,65.88941939651885
1673611547.247074,10.896687,65.92629426746127
1673611547.248081,10.947485,65.98094418597998
1673611547.249088,11.002946,66.006836
1673611547.250095,11.123557,66.0554102546495
1673611547.251102,11.213854,66.14649889916566
1673611547.252109,11.191039,66.19771149618502
1673611547.253116,11.115239,66.2461999527897
1673611547.254123,11.000566,66.30884215613827
1673611547.25513,10.853799,66.35456236765368
1673611547.256137,10.791894,66.39348537957594
1673611547.257145,10.805573,66.43245447604936
1673611547.258152,10.809492,66.47138670488184
1673611547.2591588,10.682101,66.51030971680409
1673611547.260166,10.560264,66.54924194563658
1673611547.261173,10.551489,66.58817417446906
1673611547.2621799,10.528121,66.62709718639131
1673611547.263187,10.59368,66.6660294152238
1673611547.264194,10.692751,66.70496164405628
1673611547.2652009,10.780043,66.74388465597853
1673611547.266208,10.817353,66.78281688481103
1673611547.267215,10.890749,66.8217491136435
1673611547.2682219,10.873656,66.86067212556576
1673611547.269229,10.744702,66.89960435439825
1673611547.270237,10.708353,66.93857345087167
1673611547.271244,10.816704,66.97750567970415
1673611547.272251,10.931041,67.0164286916264
1673611547.273258,11.01963,67.0553609204589
1673611547.274265,11.110143,67.09429314929137
1673611547.275272,11.167095,67.13321616121362
1673611547.276279,11.097425,67.1721483900461
1673611547.277286,11.031363,67.2110806188786
1673611547.278293,11.050041,67.25000363080085
1673611547.2793,11.0348,67.28893585963333
1673611547.280307,10.961476,67.32786808846582
1673611547.281314,10.863127,67.36679110038807
1673611547.282322,10.778456,67.4057601968615
1673611547.283329,10.705637,67.4932058152122
1673611547.2843359,10.632409000000001,67.5644458772348
1673611547.285343,10.536896,67.68312636623749
1673611547.28635,10.479824,67.77714669933239
1673611547.2873569,10.431887,67.84999612777116
1673611547.288364,10.460495,67.89649508726752
1673611547.289371,10.591853,67.94624704291846
1673611547.2903779,10.727009,68.04120149249106
1673611547.291385,10.85327,68.1911995917978
1673611547.292392,10.985829,68.26213887865335
1673611547.2933989,11.16171,68.30233502685904
1673611547.294406,11.327325,68.34254069345171
1673611547.295414,11.36567,68.38278443359229
1673611547.296421,11.327445,68.42299010018498
1673611547.297428,11.257511,68.46318624839067
1673611547.298435,10.979146,68.50339191498334
1673611547.299442,10.738259,68.54359758157602
1673611547.300449,10.505836,68.58379372978172
1673611547.301456,10.359525,68.62399939637439
1673611547.302463,10.301419,68.66420506296707
1673611547.30347,10.397701,68.70440121117277
1673611547.304477,10.492085,68.74460687776543
1673611547.305484,10.565553,68.78481254435812
1673611547.306491,10.62313,68.82500869256381
1673611547.307499,10.682606,68.8652524327044
1673611547.308506,10.733956,68.90545809929708
1673611547.3095129,10.727322,68.94565424750277
1673611547.31052,10.71696,68.98585991409544
1673611547.311527,10.744655,69.02606558068811
1673611547.3125339,10.784658,69.06626172889382
1673611547.313541,10.832955,69.10646739548649
1673611547.314548,10.880147,69.14667306207916
1673611547.3155549,10.94448,69.18686921028487
1673611547.316562,10.977247,69.22707487687754
1673611547.317569,11.013812,69.2672805434702
1673611547.3185759,11.041483,69.30747669167592
1673611547.319583,11.052734,69.34768235826859
1673611547.320591,11.07901,69.38792609840917
1673611547.321598,11.024414,69.40710747472579
1673611547.322605,10.926449,69.44288262660943
1673611547.323612,10.856611,69.42628363766389
1673611547.324619,10.831561,69.39026495088221
1673611547.325626,10.846058,69.389687
1673611547.326633,10.853967,69.42579599093943
1673611547.32764,10.854736,69.407776
1673611547.328647,10.866132,69.40669770958512
1673611547.329654,10.866733,69.31577662310674
1673611547.330661,10.850097,69.23381112314249
1673611547.331668,10.841706,69.15186502788941
1673611547.332676,10.850938,69.0698219090805
1673611547.333683,10.879594,68.98785640911626
1673611547.3346899,10.882382,68.90591031386319
1673611547.335697,10.843101,68.82394481389895
1673611547.336704,10.810622,68.74197931393469
1673611547.3377109,10.736817,68.66003321868162
1673611547.338718,10.711358,68.57806771871738
1673611547.339725,10.797832,68.49610221875314
1673611547.3407319,10.891903,68.41415612350005
1673611547.341739,10.912626,68.33219062353581
1673611547.342746,10.940225,68.25022512357157
1673611547.3437529,10.914212,68.16827902831848
1673611547.34476,10.869353,68.08631352835424
1673611547.345768,10.881782,68.00427040954533
1673611547.346775,10.893874,67.92655717306317
1673611547.347782,10.825407,67.87096173485932
1673611547.348789,10.769825,67.86079152455889
1673611547.349796,10.794442,67.85235891179975
1673611547.350803,10.798697,67.81593463519313
1673611547.35181,10.806438,67.78863242060086
1673611547.352817,10.815983,67.76114529153755
1673611547.353824,10.84387,67.71535513101476
1673611547.354831,10.904884,67.65119019427208
1673611547.355838,10.95561,67.59932492752179
1673611547.356845,10.930007,67.56620936934848
1673611547.357853,10.912914,67.53305460260523
1673611547.35886,10.910366,67.49993120271793
1673611547.3598669,10.94311,67.46681564454464
1673611547.360874,10.961452,67.43369224465734
1673611547.361881,10.969193,67.40056884477005
1673611547.3628879,10.999124,67.36745328659674
1673611547.363895,10.983161,67.33432988670944
1673611547.364902,10.948807,67.30120648682215
1673611547.3659089,10.923564,67.26809092864885
1673611547.366916,10.945994,67.255058
1673611547.367923,10.98554,67.19918375942721
1673611547.3689299,11.007033,67.164597
1673611547.369937,10.955177,67.13030715232419
1673611547.370945,10.833869,67.0987597300906
1673611547.371952,10.706791,67.08054133810205
1673611547.372959,10.654166,67.0268456636472
1673611547.373966,10.648517,67.001801
1673611547.374973,10.643708,66.97762990844063
1673611547.37598,10.686885,66.9412516130759
1673611547.376987,10.764368,66.90488972174164
1673611547.377994,10.830671,66.86852783040736
1673611547.379001,10.887551,66.83217454747539
1673611547.380008,10.943903,66.79581265614112
1673611547.381015,10.967751,66.75945076480684
1673611547.382022,10.981165,66.72309748187487
1673611547.38303,10.949336,66.68670115693139
1673611547.384037,10.894715,66.65033926559711
1673611547.3850439,10.866949,66.61398598266514
1673611547.386051,10.825431,66.57762409133088
1673611547.387058,10.708834,66.5412621999966
1673611547.3880649,10.556778,66.50490891706463
1673611547.389072,10.526896,66.46854702573036
1673611547.390079,10.525525,66.43218513439608
1673611547.3910859,10.55959,66.39583185146411
1673611547.392093,10.645151,66.35946996012984
1673611547.3931,10.697703,66.32310806879556
1673611547.3941069,10.752203,66.2867547858636
1673611547.395114,10.7905,66.25039289452933
1673611547.396122,10.840048,66.21399656958583
1673611547.397129,10.898202,66.17763467825156
1673611547.398136,10.965395,66.1412813953196
1673611547.399143,11.052855,66.10491950398531
1673611547.40015,11.127068,66.06855761265105
1673611547.401157,11.182048,66.03220432971908
1673611547.402164,11.208878,65.9958424383848
1673611547.403171,11.122019,65.95948054705053
1673611547.404178,10.947533,65.92312726411856
1673611547.405185,10.77271,65.88676537278428
1673611547.406192,10.682678,65.85040348145002
1673611547.407199,10.641809,65.81405019851805
1673611547.408207,10.676163,65.77765387357455
1673611547.409214,10.710998,65.74129198224027
1673611547.4102209,10.753622,65.7049386993083
1673611547.411228,10.847163,65.66857680797403
1673611547.412235,10.940008,65.63221491663975
1673611547.4132419,10.946042,65.59586163370778
1673611547.414249,10.953927,65.55949974237352
1673611547.415256,11.033309,65.52313785103924
1673611547.4162629,11.063961,65.48678456810727
1673611547.41727,11.111297,65.450422676773
1673611547.418277,11.094348,65.41406078543872
1673611547.4192839,11.03944,65.37770750250675
1673611547.420291,10.932796,65.34134561117249
1673611547.421299,10.880316,65.30494928622899
1673611547.422306,10.931858,65.26858739489472
1673611547.423313,10.952316,65.23223411196275
1673611547.42432,10.916496,65.19587222062847
1673611547.425327,10.896182,65.1595103292942
1673611547.426334,10.891975,65.12315704636224
1673611547.427341,10.875628,65.08679515502796
1673611547.428348,10.81216,65.05043326369369
1673611547.429355,10.762661,65.01407998076172
1673611547.430362,10.675586,64.97771808942744
1673611547.431369,10.64681,64.94135619809317
1673611547.432376,10.640367,64.95680508273725
1673611547.433384,10.64193,64.87041340104912
1673611547.434391,10.625149,64.76177747008344
1673611547.4353979,10.642771,64.74093311516452
1673611547.436405,10.694963,64.740532
1673611547.437412,10.762252,64.65078178969956
1673611547.4384189,10.842691,64.6320025601907
1673611547.439426,10.949311,64.55940838841201
1673611547.440433,11.080069,64.52302493008379
1673611547.4414399,11.180173,64.49015694360811
1673611547.442447,11.218782,64.45728117404305
1673611547.443454,11.185943,64.42440540447798
1673611547.4444609,11.141973,64.3915374180023
1673611547.445468,11.078385,64.35866164843723
1673611547.446476,11.039824,64.32575474651462
1673611547.447483,10.965491,64.29287897694955
1673611547.44849,10.88522,64.26001099047387
1673611547.449497,10.818675,64.2271352209088
1673611547.450504,10.826512,64.19425945134374
1673611547.451511,10.842668,64.16139146486806
1673611547.452518,10.879017,64.128515695303
1673611547.453525,10.921713,64.09563992573793
1673611547.454532,10.89861,64.06277193926225
1673611547.455539,10.842547,64.02989616969718
1673611547.456546,10.798144,63.997020400132115
1673611547.457553,10.794851,63.964152413656436
1673611547.458561,10.795212,63.93124551173383
1673611547.459568,10.834206,63.89836974216876
1673611547.4605749,10.850457,63.86550175569308
1673611547.461582,10.897072,63.832625986128015
1673611547.462589,10.94912,63.79975021656295
1673611547.4635959,10.995614,63.76688223008726
1673611547.464603,11.00285,63.7340064605222
1673611547.46561,11.022275,63.701130690957136
1673611547.4666169,11.014582,63.66826270448145
1673611547.467624,11.034271,63.63538693491638
1673611547.468631,11.12464,63.602511165351316
1673611547.4696379,11.177216,63.56964317887564
1673611547.470645,11.179668,63.53676740931057
1673611547.471653,11.108748,63.50386050738796
1673611547.47266,11.051701,63.470984737822896
1673611547.473667,10.968737,63.438116751347216
1673611547.474674,10.944575,63.40524098178215
1673611547.475681,10.946282,63.37236521221708
1673611547.476688,10.910606,63.339497225741404
1673611547.477695,10.851875,63.30662145617634
1673611547.478702,10.805621,63.27374568661127
1673611547.479709,10.775282,63.24087770013559
1673611547.480716,10.740039,63.208001930570525
1673611547.4817228,10.712657,63.175133944094846
1673611547.48273,10.665874,63.14225817452978
1673611547.483738,10.671787,63.109351272607164
1673611547.484745,10.692607,63.076475503042104
1673611547.4857519,10.735351,63.04360751656642
1673611547.486759,10.790885,63.01073174700135
1673611547.487766,10.869137,62.977855977436285
1673611547.4887729,10.961596,62.944987990960605
1673611547.48978,11.016385,62.91211222139554
1673611547.490787,11.011553,62.87923645183047
1673611547.4917939,10.862309,62.84636846535479
1673611547.492801,10.749438,62.813492695789726
1673611547.493808,10.775642,62.78061692622466
1673611547.4948149,10.817761,62.74774893974898
1673611547.495822,10.811607,62.74231934740105
1673611547.49683,10.772373,62.72082134469607
1673611547.497837,10.743092,62.65610560562709
1673611547.498844,10.740447,62.58325009084406
1673611547.499851,10.761675,62.5825565396901
1673611547.500858,10.766844,62.58501849022413
1673611547.501865,10.755713,62.527465618741054
1673611547.502872,10.743861,62.454592374731824
1673611547.5038788,10.741962,62.40336168788746
1673611547.504886,10.746986,62.37143987480354
1673611547.505893,10.755064,62.34252100021551
1673611547.5068998,10.777038,62.31360897195196
1673611547.507907,10.828604,62.28469009736393
1673611547.508915,10.878032,62.25574383747799
1673611547.509922,10.921545,62.22682496288996
1673611547.5109289,10.981598,62.1979129346264
1673611547.511936,11.064154,62.16899406003837
1673611547.512943,11.095598,62.14007518545034
1673611547.5139499,11.08192,62.11116315718679
1673611547.514957,11.096079,62.08224428259876
1673611547.515964,11.086776,62.05332540801072
1673611547.5169709,11.065548,62.024413379747166
1673611547.517978,10.949817,61.99549450515914
1673611547.518985,10.817353,61.96657563057111
1673611547.5199919,10.793,61.93766360230755
1673611547.520999,10.80841,61.90874472771952
1673611547.522007,10.820839,61.87979846783358
1673611547.523014,10.796342,61.85087959324555
1673611547.524021,10.821008,61.821967564981996
1673611547.525028,10.924767,61.79304869039397
1673611547.5260348,11.092713,61.76413666213041
1673611547.527042,11.189958,61.73521778754238
1673611547.528049,11.208204,61.706298912954345
1673611547.5290558,11.127596,61.67738688469079
1673611547.530063,10.964265,61.64846801010276
1673611547.53107,10.832090000000001,61.61954913551473
1673611547.5320768,10.767373,61.590637107251176
1673611547.533084,10.789803,61.56171823266315
1673611547.534092,10.811776,61.532771972777205
1673611547.535099,10.80829,61.503853098189175
1673611547.5361059,10.84774,61.47494106992562
1673611547.537113,10.93133,61.44602219533759
1673611547.53812,10.986142,61.41710332074956
1673611547.5391269,11.043599,61.388191292486006
1673611547.540134,11.069923,61.35927241789797
1673611547.541141,11.032852,61.33035354330994
1673611547.5421479,10.968688,61.301441515046385
1673611547.543155,10.961861,61.272522640458355
1673611547.544162,10.954865,61.243603765870326
1673611547.5451689,10.921545,61.21469173760677
1673611547.546176,10.906111,61.185772863018734
1673611547.547184,10.876084,61.1568266031328
1673611547.5481908,10.837932,61.127914574869244
1673611547.549198,10.878079,61.098995700281215
1673611547.550205,10.980107,61.065851561278016
1673611547.5512118,11.078746,61.07087565530393
1673611547.552219,11.170701,61.075840622794466
1673611547.553226,11.228086,61.10012830692124
1673611547.5542328,11.188154,61.122509
1673611547.55524,11.065067,61.10077054506438
1673611547.556247,10.870868,61.119357064439136
1673611547.5572538,10.752563,61.107207279656976
1673611547.558261,10.641881,61.097580729439805
1673611547.559269,10.597046,61.10442
1673611547.560276,10.645343,61.10442
1673611547.5612829,10.636617,61.10442
1673611547.56229,10.582886,61.10442
1673611547.563297,10.597815,61.10442
1673611547.5643039,10.644285,61.084383580906916
1673611547.565311,10.727177,61.05697095779685
1673611547.566318,10.782639,61.05435470945463
1673611547.5673249,10.837234,61.06731294420601
1673611547.568332,10.894187,61.093756158711216
1673611547.569339,10.947365,61.05078917123117
1673611547.5703459,10.97239,61.052372911142434
1673611547.571353,10.919309,61.053957026080916
1673611547.572361,10.818627,61.055542641128234
1673611547.5733678,10.777398,61.0571263810395
1673611547.574375,10.835504,61.058710495977984
1673611547.575382,10.936546,61.06029461091646
1673611547.5763888,11.044728,61.061878350827726
1673611547.577396,11.102138,61.0634624657662
1673611547.578403,11.165244,61.06504658070468
1673611547.5794098,11.216498,61.06663032061595
1673611547.580417,11.194381,61.068214435554424
1673611547.581424,11.08918,61.069798550492905
1673611547.5824308,10.955899,61.071382290404166
1673611547.583438,10.878969,61.07296640534265
1673611547.584446,10.852909,61.074552020389966
1673611547.585453,10.768167,61.07613613532845
1673611547.5864599,10.696766,61.077719875239715
1673611547.587467,10.688785,61.07930399017819
1673611547.588474,10.714652,61.08088810511667
1673611547.5894809,10.699675,61.08247184502793
1673611547.590488,10.694338,61.08405595996641
1673611547.591495,10.733765,61.08564007490489
1673611547.5925019,10.764921,61.087223814816156
1673611547.593509,10.716359,61.08880792975464
1673611547.594516,10.727706,61.09039204469311
1673611547.5955229,10.787038,61.09197578460438
1673611547.59653,10.826585,61.09355989954286
1673611547.597538,10.910823,61.09514551459018
1673611547.5985448,11.017443,61.09672925450145
1673611547.599552,11.091247,61.09831336943992
1673611547.600559,11.17962,61.0998974843784
1673611547.6015658,11.268498,61.10148122428967
1673611547.602573,11.283114,61.103065339228145
1673611547.60358,11.254146,61.104649454166626
1673611547.6045868,11.188203,61.10623319407789
1673611547.605594,11.024654,61.10781730901637
1673611547.606601,10.800789,61.10940142395484
1673611547.6076078,10.654791,61.11098516386611
1673611547.608615,10.590674,61.11256927880459
1673611547.609623,10.596733,61.11415489385191
1673611547.61063,10.620557,61.11573900879039
1673611547.6116369,10.658277,61.11732274870165
1673611547.612644,10.683568,61.118906863640134
1673611547.613651,10.716311,61.12049097857861
1673611547.6146579,10.683568,61.12207471848988
1673611547.615665,10.849111,61.109300885210764
1673611547.616672,10.889258,61.10442
1673611547.6176789,10.978136,61.11788961336516
1673611547.618686,11.03581,61.09530142584644
1673611547.619693,11.02778,61.08633
1673611547.6207,11.019486,61.030919647732695
1673611547.621707,11.038141,61.04193628993801
1673611547.622715,11.017587,61.007801176470586
1673611547.6237218,10.998836,60.9816350944206
1673611547.624729,11.026554,60.96166896561342
1673611547.625736,10.992609,60.94123389496809
1673611547.6267428,10.965803,60.92080366217094
1673611547.62775,10.995037,60.90036859152561
1673611547.628757,11.051075,60.87993352088029
1673611547.6297638,11.035906,60.85950328808314
1673611547.630771,10.944672,60.894270218884124
1673611547.631778,10.845264,60.90169590772532
1673611547.6327848,10.769705,60.90939925703386
1673611547.633792,10.729485,60.89003271895113
1673611547.6348,10.756771,60.88054854673343
1673611547.635807,10.816728,60.841599141392464
1673611547.6368139,10.810958,60.83809252443385
1673611547.637821,10.798866,60.88620835193133
1673611547.638828,10.837811,60.86998349356223
1673611547.6398349,10.954745,60.84916794111055
1673611547.640842,11.058215,60.8461310882388
1673611547.641849,11.018717,60.84309423536705
1673611547.642856,10.947917,60.8400581014472
1673611547.643863,10.98655,60.83702124857545
1673611547.64487,10.995854,60.833984395703695
1673611547.645877,10.984772,60.830948261783846
1673611547.646884,11.026554,60.827911408912094
1673611547.647892,11.006985,60.8248716802327
1673611547.6488988,10.923564,60.821835546312855
1673611547.649906,10.882287,60.818798693441096
1673611547.650913,10.86743,60.815761840569344
1673611547.6519198,10.846779,60.8127257066495
1673611547.652927,10.863222,60.80968885377774
1673611547.653934,10.893874,60.80665200090599
1673611547.6549408,10.967727,60.80361586698615
1673611547.655948,10.983017,60.8005790141144
1673611547.656955,10.883536,60.79754216124264
1673611547.6579618,10.833725,60.7945060273228
1673611547.658969,10.785331,60.791469174451045
1673611547.659977,10.768599,60.78842944577164
1673611547.660984,10.761747,60.78539259289989
1673611547.661991,10.780354,60.78235645898005
1673611547.662998,10.815983,60.779319606108295
1673611547.664005,10.859713,60.776282753236536
1673611547.665012,10.934094,60.773246619316694
1673611547.666019,10.949431,60.77020976644494
1673611547.667026,10.893874,60.767172913573184
1673611547.668033,10.904813,60.76413677965334
1673611547.66904,10.915799,60.76109992678159
1673611547.670047,10.935753,60.72914874493445
1673611547.671054,10.977439,60.708620037672866
1673611547.672061,11.020832,60.706429
1673611547.673069,11.019246,60.64174664004767
1673611547.6740758,10.981742,60.60148147114926
1673611547.675083,10.941643,60.614317156413925
1673611547.67609,10.825624,60.58288188033373
1673611547.6770968,10.740832,60.62982686456843
1673611547.678104,10.75891,60.60046358750596
1673611547.679111,10.756482,60.59026112903087
1673611547.6801178,10.74677,60.582051910716395
1673611547.681125,10.73499,60.57384074847146
1673611547.682132,10.698448,60.565629586226535
1673611547.6831388,10.720782,60.55742036791206
1673611547.684146,10.793193,60.549209205667125
1673611547.685154,10.849231,60.54099026770037
1673611547.686161,10.874714,60.53277910545544
1673611547.687168,10.928252,60.52456988714097
1673611547.688175,10.995589,60.51635872489604
1673611547.689182,11.062303,60.508147562651104
1673611547.690189,11.16433,60.49993834433663
1673611547.691196,11.228471,60.4917271820917
1673611547.692203,11.238279,60.48351601984677
1673611547.69321,11.145531,60.47530680153229
1673611547.694217,11.024439,60.467095639287365
1673611547.695224,11.006888,60.45888447704243
1673611547.696231,10.97816,60.450675258727955
1673611547.697238,10.944095,60.44246409648302
1673611547.698246,10.882479,60.43424515851627
1673611547.6992528,10.812665,60.42603594020179
1673611547.70026,10.791293,60.41782477795687
1673611547.701267,10.782759,60.40063284743743
1673611547.7022738,10.728787,60.365945906056275
1673611547.703281,10.686188,60.36272
1673611547.704288,10.687678,60.32925858402861
1673611547.7052948,10.762277,60.30968653695756
1673611547.706302,10.842019,60.24051170195517
1673611547.707309,10.904789,60.20185231425847
1673611547.7083158,10.93758,60.21715150846246
1673611547.709323,10.999797,60.16589742632332
1673611547.710331,11.126106,60.132306299440415
1673611547.711338,11.172408,60.099620549892705
1673611547.712345,11.168777,60.06694253844859
1673611547.713352,11.15832,60.03425678890088
1673611547.714359,11.13589,60.00157103935318
1673611547.715366,11.045354,59.96889302790906
1673611547.716373,10.895101,59.93620727836136
1673611547.71738,10.803073,59.903521528813656
1673611547.718387,10.792567,59.870843517369536
1673611547.719394,10.819372,59.838157767821826
1673611547.720401,10.812737,59.80547201827412
1673611547.721408,10.743693,59.772794006830004
1673611547.722415,10.704579,59.7401082572823
1673611547.723423,10.761603,59.70739155532025
1673611547.7244298,10.80264,59.67471354387613
1673611547.725437,10.816487,59.64202779432843
1673611547.726444,10.797376,59.609342044780725
1673611547.7274508,10.745135,59.576664033336606
1673611547.728458,10.74677,59.5439782837889
1673611547.729465,10.878056,59.51129253424119
1673611547.7304718,10.982415,59.47861452279707
1673611547.731479,11.029415,59.44592877324937
1673611547.732486,11.017803,59.41324302370167
1673611547.7334929,10.996888,59.38056501225755
1673611547.7345,11.03956,59.347879262709846
1673611547.735508,11.087593,59.315162560747794
1673611547.736515,11.156445,59.28247681120009
1673611547.737522,11.202002,59.24979879975597
1673611547.738529,11.116273,59.21711305020827
1673611547.739536,10.974891,59.18442730066056
1673611547.740543,10.893994,59.15174928921644
1673611547.74155,10.840456,59.11906353966874
1673611547.742557,10.819468,59.086377790121034
1673611547.743564,10.814829,59.056587750893925
1673611547.744571,10.848654,59.042133
1673611547.745578,10.891783,59.04991398664759
1673611547.746585,10.924622,59.074297492491056
1673611547.747592,10.954456,59.047802055793994
1673611547.7486,11.009028,59.005959
1673611547.7496068,11.234552,59.00154754112038
1673611547.750614,11.427094,58.960644423938966
1673611547.751621,11.423608,58.8699995245589
1673611547.7526278,11.356366,58.83398838860258
1673611547.753635,11.326868,58.79913711358661
1673611547.754642,11.232244,58.76428583857065
1673611547.7556489,11.009702,58.72944281433002
1673611547.756656,10.817184,58.694591539314054
1673611547.757663,10.722489,58.659740264298094
1673611547.7586699,10.634549,58.624897240057464
1673611547.759677,10.514009,58.590045965041504
1673611547.760685,10.468068,58.5551616869242
1673611547.761692,10.425445,58.520310411908234
1673611547.762699,10.416694,58.485467387667605
1673611547.763706,10.486218,58.51346660562709
1673611547.764713,10.551777,58.50132974916547
1673611547.76572,10.587381,58.46680621764005
1673611547.766727,10.653877,58.463253
1673611547.767734,10.748741,58.43011048259418
1673611547.768741,10.815142,58.427074
1673611547.769748,10.838412,58.3934314784267
1673611547.770755,10.877719,58.40784635050072
1673611547.771762,10.877262,58.340682338340486
1673611547.77277,10.841803,58.31813045315108
1673611547.773777,10.910654,58.2985628002861
1673611547.7747838,10.954769,58.2789997799147
1673611547.775791,11.050858,58.25943212704972
1673611547.776798,11.076702,58.23986447418474
1673611547.7778049,11.071509,58.22030145381334
1673611547.778812,10.991142,58.20073380094837
1673611547.779819,10.881565,58.18116614808339
1673611547.7808259,10.858727,58.16160312771199
1673611547.781833,10.835889,58.14203547484701
1673611547.78284,10.837258,58.12246782198204
1673611547.7838469,10.850794,58.10290480161064
1673611547.784854,10.895557,58.08333714874566
1673611547.785862,11.028549,58.06375096590638
1673611547.786869,11.164474,58.04418331304141
1673611547.787876,11.201858,58.02462029267001
1673611547.788883,11.18801,58.00505263980503
1673611547.78989,11.068553,57.98548498694005
1673611547.790897,10.925247,57.96592196656865
1673611547.791904,10.913467,57.94635431370367
1673611547.792911,10.959625,57.9267866608387
1673611547.793918,10.990181,57.9072236404673
1673611547.794925,10.951211,57.88765598760232
1673611547.795932,10.908178,57.868088334737344
1673611547.796939,10.839014,57.84852531436594
1673611547.797947,10.790428,57.82893913152667
1673611547.798954,10.734582,57.812012
1673611547.7999609,10.720494,57.80942833047211
1673611547.800968,10.774153,57.78578369384836
1673611547.801975,10.788168,57.74534142336115
1673611547.8029819,10.76319,57.769910683118745
1673611547.803989,10.806919,57.742750639484974
1673611547.804996,10.87933,57.75452672943981
1673611547.8060029,11.011577,57.73297274725799
1673611547.80701,11.228278,57.70695201835956
1673611547.808017,11.364757000000001,57.72302786247878
1673611547.8090239,11.360357,57.73040603762594
1673611547.810031,11.290231,57.73778595991379
1673611547.811039,11.250107,57.745172870764414
1673611547.812046,11.157911,57.75255279305227
1673611547.813053,11.024439,57.75993096819943
1673611547.81406,10.909332,57.76731089048728
1673611547.815067,10.790596,57.774690812775134
1673611547.816074,10.692558,57.78206898792229
1673611547.817081,10.622144,57.78944891021014
1673611547.818088,10.613633,57.796828832497994
1673611547.819095,10.663398,57.804207007645154
1673611547.820102,10.719195,57.81158692993301
1673611547.821109,10.740399,57.81896685222086
1673611547.822116,10.759944,57.82634502736801
1673611547.823124,10.775667,57.83373193821864
1673611547.824131,10.787759,57.841111860506494
1673611547.8251379,10.792014,57.848490035653654
1673611547.826145,10.831561,57.85586995794151
1673611547.827152,10.864905,57.863249880229354
1673611547.8281589,10.901664,57.870628055376514
1673611547.829166,10.97417,57.87800797766437
1673611547.830173,11.041843,57.88538789995222
1673611547.8311799,11.071534,57.89276607509938
1673611547.832187,11.126635,57.900145997387234
1673611547.833194,11.176543,57.90752591967508
1673611547.8342009,11.179548,57.91490409482224
1673611547.835208,11.200343,57.922284017110094
1673611547.836216,11.137549,57.92967092796072
1673611547.837223,11.05146,57.93705085024857
1673611547.83823,11.045161,57.94442902539573
1673611547.839237,10.973929,57.95180894768358
1673611547.840244,10.920006,57.959188869971435
1673611547.841251,10.811247,57.966567045118595
1673611547.842258,10.698545,57.97394696740645
1673611547.843265,10.721263,57.981326889694294
1673611547.844272,10.807281,57.988705064841454
1673611547.845279,10.88772,57.99608498712931
1673611547.846286,10.938253,58.00346490941716
1673611547.847293,10.979819,58.01084308456432
1673611547.848301,11.00636,58.01822999541494
1673611547.849308,11.056268,58.025609917702795
1673611547.8503149,11.107618,58.032988092849955
1673611547.851322,11.069851,58.04036801513781
1673611547.852329,10.927435,58.04774793742566
1673611547.8533359,10.822666,58.05512611257282
1673611547.854343,10.798217,58.06250603486067
1673611547.85535,10.736193,58.088033366714356
1673611547.8563569,10.690587,58.12446189556509
1673611547.857364,10.739775,58.14926420977354
1673611547.858371,10.831945,58.179236237482115
1673611547.8593779,10.892407,58.20378115450644
1673611547.860385,10.958856,58.22199702622169
1673611547.861393,10.948566,58.21592277920839
1673611547.8624,10.875267,58.209988
1673611547.863407,10.791822,58.25963374248927
1673611547.864414,10.766844,58.29176011304559
1673611547.865421,10.815262,58.30541889443691
1673611547.866428,10.946883,58.31907444221522
1673611547.867435,11.043574,58.332733223606546
1673611547.868442,11.110215,58.34639200499787
