measure_time,emg_ch_1,grip_force_inter
1673611727.016179,-1.028937,0.213059
1673611727.017187,-1.025307,0.2673318653505949
1673611727.0181942,-1.016243,0.26806054890684977
1673611727.019201,-1.008935,0.26878905995279306
1673611727.0202081,-1.002324,0.269517743509048
1673611727.0212152,-1.002925,0.27024642706530294
1673611727.022222,-0.999199,0.27097493811124623
1673611727.0232291,-0.992131,0.2717036216675011
1673611727.0242362,-0.99064,0.27243230522375605
1673611727.025243,-0.98701,0.27316081626969935
1673611727.0262501,-0.985736,0.2738894998259543
1673611727.0272572,-0.989006,0.27461818338220917
1673611727.028264,-0.999944,0.2753466944281525
1673611727.0292711,-1.012661,0.2760753779844074
1673611727.0302792,-1.013022,0.27680475158190876
1673611727.031286,-1.012036,0.2775332626278521
1673611727.032293,-1.01509,0.278261946184107
1673611727.0333002,-1.025715,0.27899062974036193
1673611727.034307,-1.032567,0.2797191407863052
1673611727.035314,-1.039635,0.28044782434256016
1673611727.0363212,-1.039298,0.28117650789881504
1673611727.037328,-1.02146,0.2819050189447584
1673611727.038335,-0.995809,0.2826337025010133
1673611727.0393422,-0.975591,0.2833623860572682
1673611727.040349,-0.975663,0.2840908971032115
1673611727.041356,-1.002925,0.28481958065946644
1673611727.0423641,-1.02747,0.2855489542569678
1673611727.0433712,-1.028624,0.2862776378132227
1673611727.044378,-1.015378,0.28700614885916603
1673611727.0453851,-1.00944,0.2877348324154209
1673611727.0463922,-1.008382,0.28846351597167585
1673611727.047399,-1.008358,0.28919202701761915
1673611727.0484061,-1.007589,0.2899207105738741
1673611727.0494132,-1.001338,0.29064939413012897
1673611727.05042,-0.982298,0.2913779051760723
1673611727.0514271,-0.987491,0.2921065887323272
1673611727.0524342,-0.998405,0.29283527228858214
1673611727.053441,-1.009536,0.29356378333452543
1673611727.0544481,-1.038289,0.29429246689078037
1673611727.0554562,-1.050814,0.29502184048828173
1673611727.056463,-1.034899,0.295750351534225
1673611727.05747,-1.017133,0.29647903509047996
1673611727.0584772,-0.999319,0.29720771864673484
1673611727.059484,-0.985904,0.29793622969267813
1673611727.060491,-0.983957,0.2986649132489331
1673611727.0614982,-0.999127,0.299393596805188
1673611727.062505,-1.026268,0.3001221078511313
1673611727.063512,-1.02872,0.3008507914073862
1673611727.0645192,-1.019104,0.3015794749636411
1673611727.065526,-1.017397,0.3023079860095844
1673611727.066533,-1.017229,0.30303666956583936
1673611727.0675411,-1.016219,0.31005844515975206
1673611727.0685482,-1.018407,0.328280347079857
1673611727.069555,-1.018215,0.33969
1673611727.0705621,-1.027398,0.32582473962804004
1673611727.0715692,-1.033481,0.303504
1673611727.072576,-1.035644,0.31068843133047214
1673611727.0735831,-1.027398,0.3142871194563662
1673611727.0745902,-1.018143,0.32582208700834325
1673611727.075597,-1.007012,0.3426573896041965
1673611727.0766041,-0.997396,0.3226141840228694
1673611727.0776112,-1.004175,0.3250144584550624
1673611727.078618,-1.004151,0.32741416464046746
1673611727.0796251,-0.996578,0.32981443907266045
1673611727.0806332,-0.989294,0.33221698649200515
1673611727.08164,-0.973379,0.33461669267741023
1673611727.082647,-0.9503,0.33701696710960327
1673611727.0836542,-0.943064,0.33941724154179626
1673611727.084661,-0.948714,0.34181694772720134
1673611727.085668,-0.963258,0.3442172221593944
1673611727.0866752,-0.975519,0.34661749659158736
1673611727.087682,-0.98903,0.34901720277699244
1673611727.088689,-1.00944,0.3514174772091855
1673611727.0896962,-1.029754,0.35381775164137846
1673611727.090703,-1.040741,0.35621745782678355
1673611727.09171,-1.034514,0.35861773225897653
1673611727.0927181,-1.016989,0.3610202796783213
1673611727.0937252,-0.9998,0.36342055411051427
1673611727.094732,-0.989895,0.36582026029591935
1673611727.0957391,-0.988405,0.36822053472811234
1673611727.0967462,-0.978428,0.3706208091603054
1673611727.097753,-0.985712,0.37302051534571046
1673611727.0987601,-1.003718,0.37542078977790344
1673611727.0997672,-0.996819,0.3778210642100965
1673611727.100774,-0.984366,0.38022077039550156
1673611727.1017811,-0.965903,0.38262104482769455
1673611727.1027882,-0.96345,0.3850213192598876
1673611727.103795,-0.977827,0.38742102544529267
1673611727.1048021,-0.987755,0.38982129987748565
1673611727.1058102,-0.98124,0.39222384729683035
1673611727.106817,-0.984486,0.39462355348223543
1673611727.107824,-0.981313,0.3970238279144285
1673611727.1088312,-0.970615,0.39942410234662146
1673611727.109838,-0.959388,0.40182380853202654
1673611727.110845,-0.956479,0.4042240829642195
1673611727.1118522,-0.963066,0.40662435739641256
1673611727.112859,-0.984101,0.40902406358181764
1673611727.113866,-1.001194,0.4114243380140106
1673611727.1148732,-1.010738,0.3850526412395709
1673611727.11588,-1.019417,0.3350060100143062
1673611727.116887,-1.023311,0.36289054558472555
1673611727.1178951,-1.024706,0.40366276732555373
1673611727.1189022,-1.038144,0.4400965333810205
1673611727.119909,-1.03562,0.448233
1673611727.1209161,-1.031942,0.4196661305383516
1673611727.1219232,-1.032952,0.412046
1673611727.12293,-1.022758,0.4556324492131617
1673611727.1239371,-1.000665,0.45166620076299474
1673611727.1249442,-0.979846,0.448233
1673611727.125951,-0.978283,0.46313895708154507
1673611727.1269581,-0.987227,0.466322
1673611727.1279652,-0.992972,0.45115808478209096
1673611727.128972,-0.99742,0.46351850691463997
1673611727.1299791,-0.990857,0.4354550935560859
1673611727.1309872,-0.976264,0.41457475517980474
1673611727.131994,-0.957849,0.45910072961373394
1673611727.133001,-0.948617,0.4765019896422293
1673611727.1340082,-0.957128,0.48823147034293213
1673611727.135015,-0.970134,0.49995817417793875
1673611727.136022,-0.973427,0.5116876548786415
1673611727.1370292,-0.976577,0.5234171355793444
1673611727.138036,-0.98213,0.5351438394143511
1673611727.139043,-0.977466,0.5468733201150539
1673611727.1400502,-0.967393,0.5586028008157566
1673611727.141057,-0.961768,0.5703295046507633
1673611727.142064,-0.967658,0.5820589853514662
1673611727.1430721,-0.994174,0.5937995735149537
1673611727.1440792,-1.027326,0.6055290542156565
1673611727.145086,-1.048314,0.6172557580506632
1673611727.1460931,-1.057737,0.628985238751366
1673611727.1471002,-1.050213,0.6407147194520688
1673611727.148107,-1.028913,0.6524414232870754
1673611727.1491141,-1.010281,0.6641709039877782
1673611727.1501212,-1.00593,0.6759003846884811
1673611727.151128,-0.999944,0.6876270885234878
1673611727.1521351,-0.972321,0.6993565692241905
1673611727.1531422,-0.961816,0.7110860499248933
1673611727.154149,-0.959051,0.7228127537599001
1673611727.1551561,-0.962729,0.7345422344606028
1673611727.1561642,-0.970831,0.7462828226240904
1673611727.157171,-0.973956,0.758009526459097
1673611727.158178,-0.984438,0.7697390071597998
1673611727.1591852,-0.993213,0.7814684878605027
1673611727.160192,-0.986073,0.7931951916955093
1673611727.161199,-0.984318,0.8049246723962121
1673611727.1622062,-1.009392,0.8166541530969149
1673611727.163213,-1.017061,0.8283808569319215
1673611727.16422,-0.984462,0.8401103376326244
1673611727.1652272,-0.952055,0.8518398183333272
1673611727.166234,-0.946165,0.863566522168334
1673611727.167241,-0.952728,0.8752960028690366
1673611727.1682491,-0.955349,0.8870365910325242
1673611727.1692562,-0.984654,0.8987660717332271
1673611727.170263,-1.042183,0.9104927755682337
1673611727.1712701,-1.090361,0.9222222562689366
1673611727.1722772,-1.087091,0.9339517369696393
1673611727.173284,-1.053771,0.945678440804646
1673611727.1742911,-1.035885,0.9574079215053488
1673611727.1752982,-1.008358,0.9691374022060516
1673611727.176305,-0.959291,0.9808641060410582
1673611727.1773121,-0.89782,0.9925935867417611
1673611727.1783192,-0.855556,1.004323067442464
1673611727.179326,-0.844065,1.0160497712774705
1673611727.1803331,-0.866495,1.0277792519781732
1673611727.1813412,-0.925779,1.039519840141661
1673611727.182348,-1.001747,1.0512465439766676
1673611727.183355,-1.000617,1.0629760246773703
1673611727.1843622,-0.923832,1.0747055053780732
1673611727.185369,-0.867625,1.08643220921308
1673611727.186376,-0.861206,1.0981616899137827
1673611727.1873832,-0.867288,1.1098911706144854
1673611727.18839,-0.923423,1.121617874449492
1673611727.189397,-1.006339,1.133347355150195
1673611727.1904042,-1.049179,1.1450768358508978
1673611727.191411,-1.058939,1.1568035396859044
1673611727.192418,-1.089519,1.1685330203866071
1673611727.1934261,-1.089086,1.1802736085500949
1673611727.1944332,-1.084326,1.1920030892507976
1673611727.19544,-1.065983,1.2037297930858042
1673611727.1964471,-1.039274,1.215459273786507
1673611727.1974542,-1.043337,1.226103
1673611727.198461,-1.048602,1.22972521215733
1673611727.1994681,-1.027615,1.2700291235097758
1673611727.2004752,-0.930948,1.334646
1673611727.201482,-0.868514,1.3434686415813288
1673611727.2024891,-0.86498,1.407002
1673611727.2034962,-0.88818,1.4143467474940334
1673611727.204503,-0.922413,1.4690341219628396
1673611727.2055101,-0.977514,1.5074469923718712
1673611727.2065182,-1.019321,1.4776708762266049
1673611727.207525,-1.003069,1.5827196111354858
1673611727.208532,-0.890632,1.6877932214255904
1673611727.2095392,-0.856182,1.7928668317156953
1673611727.210546,-0.91073,1.897915566624576
1673611727.211553,-1.045837,2.0029891769146806
1673611727.2125602,-1.170728,2.1080627872047857
1673611727.213567,-1.161136,2.2131115221136666
1673611727.214574,-1.088509,2.318185132403771
1673611727.2155812,-0.997997,2.423258742693876
1673611727.216588,-0.940684,2.5283074776027568
1673611727.217595,-0.912292,2.6333810878928614
1673611727.2186031,-0.899262,2.7385541997078624
1673611727.2196102,-0.894791,2.843627809997967
1673611727.220617,-0.943088,2.9486765449068475
1673611727.2216241,-1.025283,3.0537501551969526
1673611727.2226312,-1.04014,3.1588237654870572
1673611727.223638,-0.9929,3.263872500395938
1673611727.2246451,-0.986722,3.3689461106860428
1673611727.2256522,-1.048915,3.4740197209761474
1673611727.226659,-1.034611,3.5790684558850283
1673611727.2276661,-0.975182,3.684142066175133
1673611727.2286732,-0.932078,3.7892156764652376
1673611727.22968,-0.900104,3.8942644113741185
1673611727.2306871,-0.92852,3.9993380216642236
1673611727.2316952,-0.991169,4.104511133479225
1673611727.232702,-1.046823,4.209559868388105
1673611727.233709,-1.076056,4.31463347867821
1673611727.2347162,-1.098029,4.419707088968314
1673611727.235723,-1.100193,4.524755823877195
1673611727.23673,-1.08899,4.6298294341673
1673611727.2377372,-1.054973,4.734903044457405
1673611727.238744,-0.997396,4.839951779366285
1673611727.239751,-0.949747,4.94502538965639
1673611727.2407582,-0.926861,5.050098999946496
1673611727.241765,-0.93804,5.155147734855376
1673611727.242772,-0.962898,5.26022134514548
1673611727.2437801,-0.974341,5.365394456960481
1673611727.2447872,-0.972706,5.470468067250586
1673611727.245794,-0.988982,5.575516802159466
1673611727.2468011,-0.994126,5.680590412449572
1673611727.2478082,-0.988044,5.7856640227396765
1673611727.248815,-1.020523,5.890712757648557
1673611727.2498221,-1.067955,5.995786367938662
1673611727.2508292,-1.067834,6.100859978228766
1673611727.251836,-1.031052,6.25942717167382
1673611727.2528431,-0.966215,6.440044933730632
1673611727.2538502,-0.952151,6.639050008583691
1673611727.254857,-0.971576,6.771682112541726
1673611727.255865,-0.982683,6.967659665236051
1673611727.2568722,-1.010594,7.185238555423123
1673611727.257879,-1.007372,7.386484525989508
1673611727.258886,-1.025884,7.499598475441107
1673611727.2598932,-1.089471,7.661646172824791
1673611727.2609,-1.085576,7.820275820332403
1673611727.261907,-1.054155,7.97879291168264
1673611727.2629142,-1.065094,8.137310003032876
1673611727.263921,-1.067786,8.295789566662622
1673611727.264928,-1.078917,8.45430665801286
1673611727.2659352,-1.077619,8.612823749363095
1673611727.266942,-1.033793,8.771303312992842
1673611727.267949,-1.033817,8.92982040434308
1673611727.2689571,-1.004752,9.088487606575276
1673611727.2699642,-0.873659,9.247004697925512
1673611727.270971,-0.720112,9.405484261555259
1673611727.2719781,-0.603491,9.564001352905496
1673611727.2729852,-0.578561,9.722518444255732
1673611727.273992,-0.657847,9.880998007885477
1673611727.2749991,-0.815072,10.039515099235715
1673611727.2760062,-0.905248,10.198032190585952
1673611727.277013,-1.036414,10.356511754215697
1673611727.2780201,-1.157746,10.515028845565935
1673611727.2790272,-1.133417,10.67354593691617
1673611727.280034,-1.093702,10.809534542312276
1673611727.281042,-1.0712,11.003612742727707
1673611727.2820492,-1.061896,11.234948746781116
1673611727.283056,-1.031173,11.41630754636472
1673611727.284063,-0.98576,11.643241187887458
1673611727.2850702,-0.960397,11.862409878874583
1673611727.286077,-0.940035,12.026357583690988
1673611727.287084,-0.858898,12.218239593563766
1673611727.2880912,-0.886497,12.455064667381974
1673611727.289098,-1.024441,12.702032749660031
1673611727.290105,-1.097789,12.958437524256928
1673611727.2911122,-1.092067,13.214842298853823
1673611727.292119,-1.091346,13.471186371562792
1673611727.293126,-1.075936,13.727591146159687
1673611727.2941341,-0.971817,13.984238728308284
1673611727.2951412,-0.852191,14.24064350290518
1673611727.296148,-0.784805,14.496987575614149
1673611727.2971551,-0.810312,14.753392350211044
1673611727.2981622,-0.823438,15.009797124807939
1673611727.299169,-0.878756,15.266141197516909
1673611727.3001761,-0.987539,15.522545972113804
1673611727.3011832,-1.161088,15.7789507467107
1673611727.30219,-1.205106,16.03529481941967
1673611727.3031971,-1.162314,16.291699594016563
1673611727.3042042,-1.122286,16.548104368613462
1673611727.305211,-1.06055,16.804448441322428
1673611727.306219,-0.992636,17.061096023471027
1673611727.3072262,-0.975519,17.317500798067922
1673611727.308233,-1.049395,17.57384487077689
1673611727.30924,-1.096154,17.830249645373787
1673611727.3102472,-1.093341,18.08665441997068
1673611727.311254,-1.109425,18.34299849267965
1673611727.312261,-1.143682,18.59940326727655
1673611727.3132682,-1.176378,18.855808041873445
1673611727.314275,-1.105434,19.112152114582415
1673611727.315282,-1.064276,19.36855688917931
1673611727.3162892,-0.987948,19.649846703218117
1673611727.317296,-0.951238,19.993515343824512
1673611727.318303,-0.974822,20.291956474964234
1673611727.3193111,-0.997372,20.63213086531585
1673611727.3203182,-1.001026,20.996496736528375
1673611727.321325,-0.975495,21.33362888412017
1673611727.3223321,-0.963018,21.73015731616595
1673611727.3233392,-0.985255,22.05223717401669
1673611727.324346,-1.02574,22.371596880305198
1673611727.3253531,-1.032495,22.75953801524025
1673611727.3263602,-0.982635,23.165029109602187
1673611727.327367,-0.949771,23.57042420701944
1673611727.3283741,-0.933784,23.975915301381377
1673611727.3293812,-0.958522,24.381406395743312
1673611727.330388,-0.968547,24.786801493160564
1673611727.331396,-1.049203,25.192676575301252
1673611727.3324032,-1.146856,25.59816766966319
1673611727.33341,-1.152361,26.00356276708044
1673611727.334417,-1.090721,26.40905386144238
1673611727.3354242,-1.0092,26.814544955804315
1673611727.336431,-0.985616,27.219940053221567
1673611727.337438,-0.981385,27.625431147583505
1673611727.3384452,-0.976072,28.03092224194544
1673611727.339452,-1.014705,28.43631733936269
1673611727.340459,-1.041775,28.84180843372463
1673611727.3414662,-1.012133,29.247299528086568
1673611727.342473,-0.973716,29.65269462550382
1673611727.34348,-0.90282,30.058185719865754
1673611727.3444881,-0.79846,30.464060802006443
1673611727.3454952,-0.672295,30.86955189636838
1673611727.346502,-0.615007,31.274946993785633
1673611727.3475091,-0.717203,31.680438088147568
1673611727.3485162,-0.795119,32.08592918250951
1673611727.349523,-0.78555,32.49132427992676
1673611727.3505301,-0.846012,32.89681537428869
1673611727.3515372,-1.049371,33.302306468650634
1673611727.352544,-1.188542,33.70770156606788
1673611727.3535511,-1.229123,34.11319266042982
1673611727.3545582,-1.156063,34.51868375479176
1673611727.355565,-1.14825,34.92407885220901
1673611727.356573,-1.176402,35.329953934349696
1673611727.3575802,-1.161785,35.73544502871164
1673611727.358587,-1.116997,36.140840126128886
1673611727.359594,-1.038673,36.54633122049083
1673611727.3606012,-1.034034,36.95182231485276
1673611727.361608,-0.954604,37.35721741227001
1673611727.362615,-0.906066,37.76270850663195
1673611727.3636222,-0.959965,38.16819960099389
1673611727.364629,-1.004079,38.573594698411135
1673611727.365636,-0.972995,38.97908579277308
1673611727.3666432,-0.958306,39.38457688713501
1673611727.36765,-1.095361,39.78997198455227
1673611727.368657,-1.134427,40.1954630789142
1673611727.3696651,-1.174743,40.60133816105489
1673611727.3706722,-1.185056,40.99634796280401
1673611727.371679,-1.10642,41.31387247353362
1673611727.3726861,-0.973115,41.57165016328963
1673611727.3736932,-0.924673,41.85910014186934
1673611727.3747,-0.915033,42.22043819122556
1673611727.3757071,-0.990809,42.56350986218407
1673611727.3767142,-1.119858,42.89790412181168
1673611727.377721,-1.191139,43.242050112541726
1673611727.3787282,-1.20364,43.51450767811159
1673611727.3797352,-1.191788,43.849142050477404
1673611727.380742,-1.127239,44.13692763201575
1673611727.38175,-0.998189,44.42505394950193
1673611727.3827572,-0.909504,44.71290767822984
1673611727.383764,-0.856085,45.00069325976819
1673611727.384771,-0.838728,45.2885469884961
1673611727.3857782,-1.007829,45.57640071722402
1673611727.386785,-1.122479,45.86418629876236
1673611727.387792,-1.110098,46.15204002749027
1673611727.3887992,-1.10666,46.43989375621819
1673611727.389806,-1.076008,46.727679337756534
1673611727.390813,-1.026581,47.01553306648445
1673611727.3918202,-0.884766,47.30338679521236
1673611727.392827,-0.799734,47.59117237675071
1673611727.393834,-0.770717,47.87902610547862
1673611727.3948421,-0.79096,48.167152422964804
1673611727.3958492,-0.876039,48.455006151692714
1673611727.396856,-1.036414,48.74279173323106
1673611727.3978631,-1.258188,49.030645461958976
1673611727.3988702,-1.411975,49.318499190686886
1673611727.399877,-1.36774,49.60628477222524
1673611727.4008842,-1.267804,49.89413850095315
1673611727.4018912,-1.145678,50.181992229681065
1673611727.402898,-0.929097,50.46977781121941
1673611727.4039052,-0.70225,50.75763153994732
1673611727.4049122,-0.633999,51.045485268675236
1673611727.405919,-0.793364,51.33327085021358
1673611727.406927,-1.083076,51.62139716769976
1673611727.4079342,-1.246576,51.90925089642767
1673611727.408941,-1.235229,52.19703647796602
1673611727.409948,-1.167843,52.48489020669393
1673611727.4109552,-1.106083,52.77274393542184
1673611727.411962,-1.113175,53.060529516960194
1673611727.412969,-1.119281,53.34838324568811
1673611727.4139762,-1.106323,53.63623697441602
1673611727.414983,-1.110434,53.924022555954366
1673611727.41599,-1.100506,54.211876284682276
1673611727.4169972,-1.037063,54.49973001341019
1673611727.418004,-1.012926,54.787515594948545
1673611727.419011,-1.050453,55.075369323676455
1673611727.4200191,-1.044876,55.36349564116263
1673611727.4210262,-1.012589,55.651349369890546
1673611727.422033,-0.990809,55.9391349514289
1673611727.4230402,-0.974533,56.22698868015681
1673611727.4240472,-0.970134,56.51484240888472
1673611727.425054,-0.969485,56.80262799042306
1673611727.4260612,-0.975447,57.09048171915098
1673611727.4270682,-1.001987,57.3783354478789
1673611727.428075,-1.06769,57.66612102941724
1673611727.4290822,-1.117719,57.95397475814515
1673611727.4300892,-1.157746,58.24182848687307
1673611727.431096,-1.178253,58.52961406841142
1673611727.432104,-1.092741,58.817740385897594
1673611727.4331112,-0.955205,59.105594114625504
1673611727.434118,-0.853705,59.393379696163855
1673611727.435125,-0.859451,59.681233424891765
1673611727.4361322,-0.901498,59.96908715361968
1673611727.437139,-0.84219,60.256872735158026
1673611727.438146,-0.787979,60.548121704410015
1673611727.4391532,-0.820409,60.822263972579876
1673611727.44016,-0.912485,61.077996662374815
1673611727.441167,-1.109064,61.29775785411204
1673611727.4421742,-1.302013,61.58738990748688
1673611727.443181,-1.352691,61.84308466285169
1673611727.444188,-1.243667,62.11616100381497
1673611727.4451962,-1.099231,62.35330389413448
1673611727.4462032,-1.029033,62.5710755618949
1673611727.44721,-0.98314,62.704498977759826
1673611727.4482172,-0.985087,62.83795398808742
1673611727.4492242,-1.031221,62.97140899841502
1673611727.450231,-1.052929,63.10483241427994
1673611727.4512382,-1.020114,63.23828742460754
1673611727.4522452,-0.970422,63.371742434935136
1673611727.453252,-0.946454,63.50516585080006
1673611727.4542592,-0.943881,63.638620861127656
1673611727.4552662,-0.984149,63.77207587145525
1673611727.456273,-1.001483,63.905499287320175
1673611727.457281,-1.02509,64.03908067549845
1673611727.4582882,-1.046342,64.17253568582605
1673611727.459295,-1.056175,64.30595910169097
1673611727.460302,-1.008695,64.43941411201857
1673611727.4613092,-0.759394,64.57286912234616
1673611727.462316,-0.431481,64.70629253821109
1673611727.463323,-0.281925,64.83974754853868
1673611727.4643302,-0.468335,64.97320255886629
1673611727.465337,-0.753745,65.1066259747312
1673611727.466344,-1.070166,65.24008098505881
1673611727.4673512,-1.322328,65.3735359953864
1673611727.468358,-1.46698,65.50695941125133
1673611727.4693651,-1.479697,65.64041442157892
1673611727.4703732,-1.393007,65.77399580975721
1673611727.4713802,-1.318313,65.9074508200848
1673611727.472387,-1.255423,66.04087423594973
1673611727.4733942,-1.167459,66.17432924627732
1673611727.4744012,-1.108968,66.30778425660492
1673611727.475408,-1.09625,66.44120767246984
1673611727.4764152,-1.09375,66.57466268279744
1673611727.4774222,-1.105963,66.70811769312503
1673611727.478429,-1.149693,66.84154110898996
1673611727.4794362,-1.119906,66.97499611931755
1673611727.480443,-1.032711,67.10841953518248
1673611727.48145,-1.05204,67.24187454551007
1673611727.482458,-1.110458,67.37545593368836
1673611727.4834652,-1.1667129999999999,67.50891094401595
1673611727.484472,-1.169069,67.64233435988088
1673611727.485479,-1.187917,67.77578937020847
1673611727.4864862,-1.290907,67.90924438053607
1673611727.487493,-1.315164,68.04266779640099
1673611727.4885,-1.020018,68.17612280672859
1673611727.4895072,-0.610944,68.30957781705618
1673611727.490514,-0.550001,68.4430012329211
1673611727.4915211,-0.663665,68.5764562432487
1673611727.4925282,-0.923423,68.7099112535763
1673611727.493535,-1.298624,68.83481095731999
1673611727.4945421,-1.418826,68.89158096924177
1673611727.4955502,-1.206188,69.3359130602178
1673611727.4965572,-0.996146,69.42436132051282
1673611727.497564,-0.950156,69.49487869922879
1673611727.4985712,-0.964484,69.60958745384615
1673611727.4995782,-1.021316,69.70822356566303
1673611727.500585,-1.064132,69.32020597424892
1673611727.5015922,-1.075864,69.35646527563186
1673611727.502599,-1.069589,69.462059
1673611727.503606,-1.068604,69.47834100524558
1673611727.5046132,-1.052112,69.55927670123987
1673611727.50562,-1.009296,69.60974438235995
1673611727.506627,-0.905344,69.7008559148784
1673611727.507635,-0.808581,69.74557156413925
1673611727.5086422,-0.749682,69.85611998140644
1673611727.509649,-0.766534,69.85807309084406
1673611727.510656,-0.822405,69.92678555698618
1673611727.5116632,-0.96321,69.99562971345073
1673611727.51267,-1.170968,70.11048985305116
1673611727.5136771,-1.267083,70.2253771913586
1673611727.5146842,-1.21929,70.34026452966603
1673611727.515691,-1.148923,70.45512466926647
1673611727.5166981,-1.134499,70.57001200757391
1673611727.5177052,-1.150173,70.68489934588133
1673611727.518712,-1.131927,70.79975948548177
1673611727.5197191,-1.092861,70.9146468237892
1673611727.5207272,-1.067137,71.02964295692458
1673611727.5217342,-1.059757,71.144530295232
1673611727.522741,-1.042159,71.25939043483245
1673611727.5237482,-1.019898,71.37427777313988
1673611727.524755,-0.993237,71.48913791274032
1673611727.525762,-1.019898,71.60402525104776
1673611727.5267692,-0.998381,71.71891258935518
1673611727.527776,-0.972297,71.83377272895562
1673611727.528783,-1.002805,71.94866006726306
1673611727.5297902,-1.083172,72.06354740557049
1673611727.530797,-1.074638,72.17840754517093
1673611727.531804,-0.994294,72.29329488347835
1673611727.532812,-0.950517,72.40829101661373
1673611727.5338192,-0.919601,72.52317835492116
1673611727.534826,-0.817212,72.63803849452161
1673611727.5358331,-0.752254,72.75292583282904
1673611727.5368402,-0.919096,72.86528928040057
1673611727.537847,-1.134379,72.92082016853396
1673611727.5388541,-1.218617,72.99063757057702
1673611727.5398612,-1.20953,73.01229028997614
1673611727.540868,-1.192653,73.08522112407715
1673611727.5418751,-1.158972,73.15383612041012
1673611727.5428822,-1.114305,73.17510398186157
1673611727.543889,-1.069902,73.22812660647928
1673611727.5448961,-1.024537,73.2645314319428
1673611727.5459042,-0.968451,73.2990693144969
1673611727.546911,-0.937967,73.32546288841202
1673611727.547918,-0.912124,73.40352761263408
1673611727.5489252,-0.917437,73.38531315236052
1673611727.549932,-0.981577,73.37680783293555
1673611727.550939,-0.952993,73.43406024815432
1673611727.5519462,-0.938232,73.49079017167381
1673611727.552953,-0.941261,73.46277516945108
1673611727.55396,-1.011652,73.48690014197237
1673611727.5549672,-1.14349,73.52007964243147
1673611727.555974,-1.23143,73.46360160669389
1673611727.556981,-1.174166,73.48439311167347
1673611727.5579891,-1.104015,73.50520430557823
1673611727.5589962,-1.074109,73.52599581055783
1673611727.560003,-0.95143,73.54678239330612
1673611727.5610101,-0.851638,73.5353652973747
1673611727.5620172,-0.829352,73.48677918073439
1673611727.563024,-0.825362,73.52392538080495
1673611727.5640311,-0.902363,73.51177201024116
1673611727.5650382,-1.10101,73.48747988580317
1673611727.566045,-1.249052,73.46319351234162
1673611727.5670521,-1.248211,73.43890138790363
1673611727.5680592,-1.173012,73.41460926346564
1673611727.569066,-1.171666,73.39032289000409
1673611727.5700731,-1.26326,73.3660307655661
1673611727.5710812,-1.272948,73.34171563722239
1673611727.572088,-1.180945,73.31742926376084
1673611727.573095,-1.062329,73.29313713932285
1673611727.5741022,-1.000232,73.26884501488487
1673611727.575109,-0.941526,73.24455864142331
1673611727.576116,-0.929818,73.22026651698533
1673611727.5771232,-0.914985,73.19597439254734
1673611727.57813,-0.955637,73.17168801908579
1673611727.579137,-0.986698,73.1473958946478
1673611727.5801442,-0.995472,73.12310377020981
1673611727.581151,-1.111949,73.09881739674826
1673611727.582158,-1.138177,73.07452527231027
1673611727.5831661,-1.070118,73.05021014396657
1673611727.5841732,-1.093702,73.02591801952859
1673611727.58518,-1.141351,72.98954645510837
1673611727.5861871,-1.132023,72.953445
1673611727.5871942,-1.132263,72.95373830472103
1673611727.588201,-1.16378,72.9706992383901
1673611727.5892081,-1.15426,72.935356
1673611727.5902152,-1.10101,72.935356
1673611727.591222,-1.005353,72.93296277473182
1673611727.5922291,-0.816563,72.8783215988566
1673611727.5932362,-0.731459,72.8253822349092
1673611727.594243,-0.856614,72.80008355999894
1673611727.5952501,-1.000112,72.77477889440081
1673611727.5962582,-1.076153,72.74945026605116
1673611727.597265,-1.176329,72.7241515911409
1673611727.598272,-1.200971,72.69884692554277
1673611727.5992792,-1.135244,72.67354225994463
1673611727.600286,-1.083725,72.64824358503438
1673611727.601293,-1.075215,72.62293891943624
1673611727.6023002,-1.094736,72.59763425383811
1673611727.603307,-1.121926,72.57233557892785
1673611727.604314,-1.140293,72.54703091332972
1673611727.6053212,-1.133754,72.52172624773158
1673611727.606328,-1.10892,72.49642757282132
1673611727.607335,-1.067786,72.47112290722319
1673611727.6083431,-1.051535,72.44579427887354
1673611727.6093502,-1.051992,72.42048961327541
1673611727.610357,-1.06858,72.39519093836515
1673611727.6113641,-1.067955,72.37792949368898
1673611727.6123712,-1.067113,72.38569469976133
1673611727.613378,-1.094039,72.36371332522651
1673611727.6143851,-1.141855,72.37017082598331
1673611727.6153922,-1.159766,72.27250724821344
1673611727.616399,-1.136783,72.22585101909308
1673611727.6174061,-1.091346,72.20349079113019
1673611727.6184132,-1.033961,72.16706391021671
1673611727.61942,-0.9691,72.12193006754175
1673611727.6204271,-0.895969,72.06760176152133
1673611727.6214352,-0.883155,72.06990697847083
1673611727.622442,-0.904503,72.07220946928864
1673611727.623449,-0.93344800000000006,72.07451250533278
1673611727.6244562,-1.010738,72.07681554137692
1673611727.625463,-0.991506,72.07911803219473
1673611727.62647,-0.96172,72.08142106823887
1673611727.6274772,-1.009608,72.08372410428301
1673611727.628484,-1.099953,72.08602659510082
1673611727.629491,-1.206645,72.08832963114496
1673611727.6304982,-1.236984,72.09063266718911
1673611727.631505,-1.203832,72.09293515800691
1673611727.632512,-1.096539,72.09523819405106
1673611727.6335201,-0.979101,72.09754341100054
1673611727.6345272,-0.961383,72.09984644704468
1673611727.635534,-0.970302,72.1021489378625
1673611727.6365411,-0.915586,72.10445197390663
1673611727.6375482,-0.87801,72.10675500995079
1673611727.638555,-0.950877,72.10905750076859
1673611727.6395621,-1.055454,72.11136053681274
1673611727.6405692,-1.083485,72.11366357285688
1673611727.641576,-1.064469,72.11596606367469
1673611727.6425831,-0.997901,72.11826909971883
1673611727.6435902,-0.89681,72.12057213576297
1673611727.644597,-0.875318,72.12287462658078
1673611727.6456041,-0.963018,72.12517766262492
1673611727.6466122,-0.897627,72.12748287957442
1673611727.647619,-0.953402,72.12978537039221
1673611727.648626,-1.044587,72.13208840643637
1673611727.6496332,-1.084495,72.1343914424805
1673611727.65064,-1.03312,72.13669393329832
1673611727.651647,-1.095457,72.13899696934246
1673611727.6526542,-1.14563,72.1413000053866
1673611727.653661,-1.093486,72.14360249620441
1673611727.654668,-1.083918,72.14590553224855
1673611727.6556752,-1.048386,72.14820856829269
1673611727.656682,-1.091755,72.1505110591105
1673611727.657689,-1.255255,72.15281409515464
1673611727.6586971,-1.305596,72.15511931210413
1673611727.6597042,-1.275088,72.15742234814827
1673611727.660711,-1.279055,72.15972483896608
1673611727.6617181,-1.250951,72.16202787501022
1673611727.6627252,-1.15289,72.16433091105436
1673611727.663732,-1.004199,72.16663340187218
1673611727.6647391,-1.005137,72.16893643791632
1673611727.6657462,-1.061223,72.17123947396047
1673611727.666753,-1.152601,72.17354196477827
1673611727.6677601,-1.238907,72.17584500082242
1673611727.6687672,-1.288118,72.17814803686656
1673611727.669774,-1.236359,72.18045052768437
1673611727.6707811,-1.02961,72.18275356372851
1673611727.6717892,-0.938376,72.18505878067799
1673611727.672796,-0.965686,72.1873612714958
1673611727.673803,-0.985712,72.18966430753994
1673611727.6748102,-0.987948,72.1919673435841
1673611727.675817,-1.066825,72.20820494754412
1673611727.676824,-1.049419,72.28775877825464
1673611727.6778312,-0.994294,72.43860618307508
1673611727.678838,-0.958522,72.5920586323319
1673611727.679845,-1.029874,72.73030778540773
1673611727.6808522,-1.134451,72.87781977830751
1673611727.681859,-1.13623,73.00391345493563
1673611727.682866,-1.096202,73.17936289127324
1673611727.6838741,-1.074758,73.35053424767581
1673611727.6848812,-1.024369,73.43280590419965
1673611727.685888,-1.025667,73.4601383976922
1673611727.6868951,-1.1351,73.4874773634778
1673611727.6879022,-1.219314,73.51481632926338
1673611727.688909,-1.191283,73.54214882275593
1673611727.6899161,-1.126013,73.57374809058403
1673611727.6909232,-1.065094,73.72104077944682
1673611727.69193,-1.023119,73.90137385264663
1673611727.6929371,-0.970014,74.04506599165673
1673611727.6939442,-0.94429,74.15782808798284
1673611727.694951,-0.950757,74.31791583357177
1673611727.6959581,-0.887819,74.43146954398094
1673611727.6969662,-0.912485,74.59245729065331
1673611727.697973,-1.001651,74.72333799045347
1673611727.69898,-1.11142,74.88927379418772
1673611727.6999872,-1.207101,75.06549238379023
1673611727.700994,-1.217655,75.19017621997712
1673611727.702001,-1.144764,75.29310944421
1673611727.7030082,-1.051487,75.39604266844289
1673611727.704015,-0.934073,75.49895152401473
1673611727.705022,-0.840122,75.60188474824763
1673611727.7060292,-0.842575,75.70481797248051
1673611727.707036,-0.91073,75.80772682805235
1673611727.708043,-0.959075,75.91066005228525
1673611727.7090511,-1.00343,76.01369075116229
1673611727.7100582,-1.009079,76.11662397539519
1673611727.711065,-0.991169,76.21953283096703
1673611727.7120721,-0.947488,76.32246605519991
1673611727.7130792,-0.954363,76.42539927943281
1673611727.714086,-1.032759,76.52830813500465
1673611727.7150931,-1.073893,76.631241359237535
1673611727.7161002,-1.202341,76.73417458347042
1673611727.717107,-1.261577,76.83708343904227
1673611727.7181141,-1.239604,76.94001666327516
1673611727.7191212,-1.236767,77.04294988750804
1673611727.720128,-1.223184,77.1458587430799
1673611727.7211351,-1.186114,77.24879196731278
1673611727.7221432,-1.13974,77.35182266618983
1673611727.72315,-1.019032,77.45473152176167
1673611727.724157,-0.840579,77.55766474599457
1673611727.7251642,-0.74985,77.66059797022746
1673611727.726171,-0.864283,77.7635068257993
1673611727.727178,-0.892002,77.8664400500322
1673611727.7281852,-0.970831,77.96937327426508
1673611727.729192,-1.213376,78.07228212983692
1673611727.730199,-1.306629,78.1752153540698
1673611727.7312062,-1.161569,78.2781485783027
1673611727.732213,-0.903517,78.38105743387455
1673611727.73322,-0.706986,78.48399065810743
1673611727.7342281,-0.618661,78.58702135698448
1673611727.7352352,-0.653544,78.68995458121736
1673611727.736242,-0.73093,78.79286343678922
1673611727.7372491,-0.857552,78.8957966610221
1673611727.7382562,-0.994222,78.99872988525499
1673611727.739263,-1.069469,79.10163874082684
1673611727.7402701,-1.030836,79.20457196505973
1673611727.7412772,-0.984919,79.31002120505484
1673611727.742284,-1.084615,79.36813369129916
1673611727.7432911,-1.243403,79.40196489127325
1673611727.7442982,-1.421567,79.4961774778043
1673611727.745305,-1.506478,79.56905484778466
1673611727.7463121,-1.557492,79.64970005792611
1673611727.7473202,-1.367692,79.73290556175489
1673611727.748327,-1.147433,79.76532755364806
1673611727.749334,-1.056367,79.80461931585221
1673611727.7503412,-1.067017,80.0677272792404
1673611727.751348,-1.13986,80.3917192262217
1673611727.752355,-1.214338,80.4876218855508
1673611727.7533622,-1.252754,80.54684991893181
1673611727.754369,-1.238282,80.6249620760429
1673611727.755376,-1.164958,80.74947892560802
1673611727.7563832,-1.149957,80.83336968097282
1673611727.75739,-1.195177,80.9355315125149
1673611727.758397,-1.246239,81.05145732618027
1673611727.7594051,-1.256384,81.14720650166905
1673611727.7604122,-1.152746,81.29342278728434
1673611727.761419,-0.954844,81.46493688589025
1673611727.7624261,-0.808173,81.6364915987748
1673611727.7634332,-0.77918,81.80804631165933
1673611727.76444,-0.888636,81.97956041026524
1673611727.7654471,-1.106997,82.15111512314976
1673611727.7664542,-1.193687,82.32266983603431
1673611727.767461,-1.119281,82.49418393464022
1673611727.7684681,-1.114257,82.66573864752475
1673611727.7694752,-1.077691,82.83729336040929
1673611727.770482,-1.030716,83.0088074590152
1673611727.77149,-1.053074,83.1805246290142
1673611727.7724972,-1.140797,83.35207934189874
1673611727.773504,-1.154164,83.52359344050465
1673611727.774511,-1.082523,83.69514815338918
1673611727.7755182,-1.048842,83.86670286627371
1673611727.776525,-0.881665,84.03821696487964
1673611727.777532,-0.722252,84.20977167776417
1673611727.7785392,-0.616618,84.3813263906487
1673611727.779546,-0.324621,84.5528404892546
1673611727.780553,-0.409027,84.72439520213914
1673611727.7815602,-0.920827,84.89594991502368
1673611727.782567,-1.12582,85.06746401362959
1673611727.783574,-1.276338,85.23901872651412
1673611727.7845821,-1.384761,85.41073589651313
1673611727.7855892,-1.359062,85.58229060939766
1673611727.786596,-1.355239,85.75380470800357
1673611727.7876031,-1.322496,85.92535942088811
1673611727.7886102,-1.264366,86.09691413377264
1673611727.789617,-1.234532,86.26842823237855
1673611727.7906241,-1.181017,86.43998294526308
1673611727.7916312,-1.100602,86.61153765814763
1673611727.792638,-0.929385,86.78305175675354
1673611727.7936451,-0.817452,86.95460646963807
1673611727.7946522,-0.853465,87.1261611825226
1673611727.795659,-1.010041,87.29767528112852
1673611727.796667,-1.058939,87.50126846304244
1673611727.7976742,-1.101972,87.682466325149
1673611727.798681,-1.166761,87.89675915021459
1673611727.799688,-1.104689,88.12089814949928
1673611727.8006952,-1.076753,88.31379306555422
1673611727.801702,-1.131205,88.50890291607058
1673611727.802709,-1.165319,88.73552192846924
1673611727.8037162,-1.210659,88.95911414278903
1673611727.804723,-1.22393,89.19102027014783
1673611727.80573,-1.180945,89.2791113785544
1673611727.8067372,-1.133561,89.31489221151881
1673611727.807744,-1.069157,89.35066457364209
1673611727.808751,-1.020403,89.38644540660651
1673611727.8097591,-0.995737,89.42226012293547
1673611727.8107662,-1.041943,89.49076856223176
1673611727.811773,-1.049684,89.71611685458879
1673611727.8127801,-1.070912,89.95709658321411
1673611727.8137872,-0.938881,90.15748224272771
1673611727.814794,-0.685133,90.408112429559
1673611727.8158011,-0.591087,90.57882693752397
1673611727.8168082,-0.661068,90.7744746449533
1673611727.817815,-0.838007,90.97007603427008
1673611727.8188221,-0.882722,91.16572374169941
1673611727.8198292,-0.960373,91.36137144912874
1673611727.820836,-1.03324,91.5569728384455
1673611727.821844,-1.052833,91.75280581832506
1673611727.8228512,-1.125219,91.94845352575439
1673611727.823858,-1.2233290000000001,92.14405491507117
1673611727.824865,-1.199721,92.3397026225005
1673611727.8258722,-1.150678,92.53535032992983
1673611727.826879,-0.924192,92.7309517192466
1673611727.827886,-0.599308,92.92659942667592
1673611727.8288932,-0.420134,93.12224713410525
1673611727.8299,-0.315438,93.31784852342203
1673611727.830907,-0.321832,93.51349623085136
1673611727.8319142,-0.541226,93.70914393828069
1673611727.832921,-0.992491,93.90474532759747
1673611727.833928,-1.421856,94.1003930350268
1673611727.8349361,-1.724262,94.29622601490634
1673611727.8359432,-1.863817,94.49187372233567
1673611727.83695,-1.740321,94.68747511165245
1673611727.8379571,-1.668487,94.88312281908178
1673611727.8389642,-1.563022,95.07877052651111
1673611727.839971,-1.157241,95.274371915827885
1673611727.8409781,-0.804735,95.47001962325722
1673611727.8419852,-0.780622,95.66566733068655
1673611727.842992,-0.783267,95.86126872000332
1673611727.8439991,-1.239364,96.05691642743265
1673611727.8450062,-1.391613,96.25256413486198
1673611727.846013,-1.162001,96.44816552417875
1673611727.847021,-1.018575,96.6439985040583
1673611727.8480282,-0.924048,96.83964621148763
1673611727.849035,-0.840363,97.03524760080441
1673611727.850042,-0.874044,97.23089530823374
1673611727.8510492,-0.967537,97.42654301566307
1673611727.852056,-1.087211,97.62214440497984
1673611727.853063,-1.171882,97.81779211240917
1673611727.8540702,-1.135557,98.0134398198385
1673611727.855077,-1.021172,98.20904120915527
1673611727.856084,-0.977755,98.4046889165846
1673611727.8570912,-0.979077,98.60033662401393
1673611727.858098,-1.000689,98.79593801333071
1673611727.859105,-0.947632,98.99158572076004
1673611727.8601131,-0.834208,99.18741870063958
1673611727.8611202,-0.678498,99.38306640806891
1673611727.862127,-0.587336,99.6105873557463
1673611727.8631341,-0.672848,99.8755765059609
1673611727.8641412,-0.869572,100.11870739046483
1673611727.865148,-1.068147,100.3982644561278
1673611727.8661551,-1.246744,100.69532672126847
1673611727.8671622,-1.259269,100.94777280543633
1673611727.868169,-1.134066,101.19507610178783
1673611727.8691761,-1.048842,101.45011854935622
1673611727.8701832,-0.932558,101.70519558297569
1673611727.87119,-0.796561,101.92016827676395
1673611727.872198,-0.829352,102.10867346782862
1673611727.8732052,-0.864788,102.29700031907205
1673611727.874212,-0.824664,102.48528258536018
1673611727.875219,-0.829497,102.67360943660361
1673611727.8762262,-0.886328,102.86193628784704
1673611727.877233,-0.956671,103.05021855413517
1673611727.87824,-1.0060500000000001,103.2385454053786
1673611727.8792472,-1.070816,103.42687225662203
1673611727.880254,-1.193398,103.61515452291016
1673611727.881261,-1.211477,103.80348137415359
1673611727.8822682,-1.119522,103.99180822539702
1673611727.883275,-1.018936,104.18009049168514
1673611727.8852901,-1.030572,104.55692253399326
1673611727.8862972,-1.100361,104.74524938523669
1673611727.887304,-1.036173,104.93353165152482
1673611727.8883111,-0.900296,105.12185850276825
1673611727.8893182,-0.788556,105.31018535401168
1673611727.890325,-0.744345,105.4984676202998
1673611727.8913321,-0.667872,105.68679447154324
1673611727.8923392,-0.777256,105.87512132278667
1673611727.893346,-1.047713,106.0634035890748
1673611727.8943532,-1.129402,106.25173044031823
1673611727.8953602,-0.984726,106.44005729156166
1673611727.896367,-1.010882,106.62833955784977
1673611727.897375,-1.08286,106.81684474891446
1673611727.8983822,-0.996795,107.0051716001579
1673611727.899389,-0.957849,107.19345386644602
1673611727.900396,-0.904719,107.38178071768945
1673611727.9014032,-0.853465,107.57010756893288
1673611727.90241,-0.765308,107.75838983522101
1673611727.903417,-0.721506,107.94671668646444
1673611727.9044242,-0.741628,108.13504353770787
1673611727.905431,-0.890415,108.32332580399598
1673611727.906438,-1.188278,108.51165265523942
1673611727.9074452,-1.575162,108.69997950648286
1673611727.908452,-1.490539,108.88826177277097
1673611727.909459,-1.124666,109.0765886240144
1673611727.9104671,-0.766486,109.2650938150791
1673611727.9114742,-0.561661,109.45342066632253
1673611727.912481,-0.504084,109.64170293261066
1673611727.9134881,-0.476678,109.83002978385409
1673611727.9144952,-0.536755,110.01835663509752
1673611727.915502,-0.626955,110.20663890138565
1673611727.9165092,-0.743143,110.39496575262908
1673611727.9175162,-0.895848,110.58329260387251
1673611727.918523,-0.92287,110.64697125029797
1673611727.9195302,-0.906763,110.68340670720077
1673611727.9205372,-1.006171,110.73504357701478
1673611727.921544,-1.180945,110.80501199237004
1673611727.922552,-1.106924,110.86248652348034
1673611727.9235592,-0.864644,110.88595004768717
1673611727.924566,-0.753721,110.96704341845494
1673611727.925573,-0.73283,110.99472874016686
1673611727.9265802,-0.618637,111.06087427324749
1673611727.927587,-0.993982,111.13975503230866
1673611727.928594,-1.309298,111.21944530406644
1673611727.9296012,-1.111949,111.29913557582422
1673611727.930608,-0.876808,111.37880698151388
1673611727.931615,-0.580605,111.45849725327166
1673611727.9326222,-0.416047,111.53818752502943
1673611727.933629,-0.557406,111.6178589307191
1673611727.934636,-0.906643,111.69754920247686
1673611727.9356441,-1.099063,111.77731493850715
1673611727.9366512,-1.167266,111.85700521026493
1673611727.937658,-1.214025,111.93667661595458
1673611727.9386652,-1.153203,112.01636688771237
1673611727.9396722,-1.068724,112.09605715947013
1673611727.940679,-1.027158,112.1757285651598
1673611727.9416862,-1.002949,112.25541883691757
1673611727.9426932,-1.010209,112.33510910867535
1673611727.9437,-1.072546,112.414780514365
1673611727.9447072,-1.110915,112.49447078612279
1673611727.9457142,-1.122118,112.57416105788057
1673611727.946721,-1.138682,112.65383246357023
1673611727.947729,-1.106299,112.73359819960051
1673611727.9487362,-1.046583,112.81328847135828
1673611727.949743,-0.999728,112.89295987704794
1673611727.95075,-0.977514,112.97265014880571
1673611727.9517572,-0.974076,113.0523404205635
1673611727.952764,-0.96309,113.13201182625315
1673611727.953771,-0.938785,113.21170209801093
1673611727.9547782,-0.883179,113.29139236976872
1673611727.955785,-0.849787,113.37106377545837
1673611727.956792,-0.855845,113.45075404721615
1673611727.9577992,-0.841156,113.53044431897392
1673611727.958806,-0.84558,113.61011572466359
1673611727.959813,-0.858417,113.68980599642136
1673611727.9608212,-0.88628,113.76957173245164
1673611727.9618282,-0.938472,113.84926200420942
1673611727.962835,-0.975952,113.92893340989907
1673611727.9638422,-0.967585,114.00862368165686
1673611727.9648492,-0.920105,114.08831395341463
1673611727.965856,-0.894334,114.16798535910429
1673611727.9668632,-0.917846,114.24767563086206
1673611727.9678702,-0.957056,114.32736590261985
1673611727.968877,-0.953113,114.4070373083095
1673611727.9698842,-0.926404,114.48672758006728
1673611727.9708912,-0.901234,114.56641785182507
1673611727.971898,-0.926212,114.64608925751472
1673611727.972906,-0.915946,114.725854993545
1673611727.9739132,-0.855388,114.80554526530277
1673611727.97492,-0.842286,114.88521667099243
1673611727.975927,-0.869572,114.9649069427502
1673611727.9769342,-0.90371,115.04459721450799
1673611727.977941,-0.926404,115.12426862019764
1673611727.978948,-0.918278,115.20395889195542
1673611727.9799552,-0.914913,115.2836491637132
1673611727.980962,-0.878756,115.36332056940286
1673611727.981969,-0.762399,115.44301084116064
1673611727.9829762,-0.686672,115.52270111291841
1673611727.983983,-0.652294,115.56634171731365
1673611727.9849901,-0.698572,115.58456060705771
1673611727.9859982,-0.81024,115.6137530921241
1673611727.9870052,-1.071729,115.60589947925608
1673611727.988012,-1.159742,115.63662440009527
1673611727.9890192,-1.056367,115.64159068830548
1673611727.9900262,-1.032014,115.6208606053616
1673611727.991033,-1.035644,115.55985367444755
1673611727.9920402,-0.944531,115.5348698716111
1673611727.9930472,-0.783267,115.410965
1673611727.994054,-0.438645,115.38013775870292
1673611727.9950612,-0.137826,115.28376282359952
1673611727.996068,-0.09852,115.20401739270386
1673611727.997075,-0.270338,115.12912690095466
1673611727.998083,-0.682296,114.97497594664125
1673611727.9990902,-1.161977,114.83882714223077
1673611728.000097,-1.382573,114.73531930450028
1673611728.001104,-1.390435,114.63178695627067
1673611728.0021112,-1.100433,114.52825460804108
1673611728.003118,-1.015282,114.42474677031058
1673611728.004125,-0.890103,114.32121442208098
1673611728.0051322,-0.838319,114.21768207385138
1673611728.006139,-0.847864,114.11417423612089
1673611728.0071461,-0.935227,114.01064188789128
1673611728.0081532,-1.079687,113.90710953966168
1673611728.00916,-1.109785,113.80360170193119
1673611728.0101671,-1.032303,113.70006935370158
1673611728.0111752,-0.960518,113.59643896347555
1673611728.0121822,-0.920875,113.49290661524594
1673611728.013189,-0.973836,113.38939877751545
1673611728.0141962,-1.052713,113.28586642928585
1673611728.0152032,-1.020066,113.18233408105625
1673611728.01621,-0.982515,113.07882624332575
1673611728.0172172,-1.007324,112.97529389509616
1673611728.018224,-1.027951,112.87178605736565
1673611728.019231,-0.993213,112.76825370913606
1673611728.0202382,-0.86813,112.66472136090646
1673611728.021245,-0.74235,112.56121352317597
1673611728.022252,-0.667343,112.45768117494636
1673611728.02326,-0.655323,112.35405078472033
1673611728.0242672,-0.698283,112.25051843649072
1673611728.025274,-0.802307,112.14701059876023
1673611728.026281,-1.016484,112.04347825053063
1673611728.0272882,-1.136639,111.93994590230102
1673611728.028295,-1.130652,111.83643806457053
1673611728.0293021,-1.092909,111.73290571634092
1673611728.0303092,-1.063219,111.62937336811133
1673611728.031316,-1.035957,111.52586553038083
1673611728.0323231,-0.895392,111.42233318215123
1673611728.0333302,-0.669819,111.31880083392163
1673611728.034337,-0.56449800000000006,111.21529299619114
1673611728.0353441,-0.646404,111.11176064796153
1673611728.0363522,-0.856278,111.0081302577355
1673611728.0373592,-1.038241,110.9045979095059
1673611728.038366,-1.014633,110.8010900717754
1673611728.0393732,-0.968932,110.6975577235458
1673611728.04038,-0.93816,110.53530835288508
1673611728.041387,-0.953834,110.40804966332857
1673611728.0423942,-0.947391,110.28488674135876
1673611728.043401,-0.942944,110.17137268860277
1673611728.044408,-0.91835,110.06206656366237
1673611728.0454152,-0.89681,109.92428703218117
1673611728.046422,-0.916692,109.77857632618026
1673611728.047429,-0.960277,109.63281435765379
1673611728.048437,-0.997828,109.45768099833134
1673611728.0494442,-0.990328,109.40892312011174
1673611728.050451,-0.996338,109.39138233519553
1673611728.0514581,-0.978716,109.37383739664804
1673611728.0524652,-0.931789,109.35629245810055
1673611728.053472,-0.906402,109.33875167318435
1673611728.0544791,-0.89431,109.32120673463687
1673611728.0554862,-0.851518,109.24652392896306
1673611728.056493,-0.79132,109.09136615546018
1673611728.0575001,-0.793195,108.89756627157844
1673611728.0585072,-0.814928,108.72183497976425
1673611728.059514,-0.848344,108.5598078037968
1673611728.0605211,-0.878227,108.39774226003964
1673611728.0615292,-1.005425,108.2355232451236
1673611728.062536,-1.054877,108.07349606915615
1673611728.063543,-1.001122,107.91143052539897
1673611728.0645502,-0.965975,107.7493649816418
1673611728.065557,-0.970254,107.58733780567435
1673611728.066564,-0.962128,107.42527226191717
1673611728.0675712,-0.929024,107.26320671816
1673611728.068578,-0.898781,107.10117954219255
1673611728.069585,-0.917221,106.93911399843537
1673611728.0705922,-0.918951,106.77704845467821
1673611728.071599,-0.8457,106.61502127871076
1673611728.072606,-0.788988,106.45295573495358
1673611728.0736141,-0.795383,106.29073672003754
1673611728.0746212,-0.802571,106.12867117628038
1673611728.075628,-0.960854,105.96664400031293
1673611728.0766351,-1.072979,105.80457845655575
1673611728.0776422,-0.947464,105.64251291279858
1673611728.078649,-0.863201,105.48048573683113
1673611728.0796561,-0.798244,105.31842019307395
1673611728.0806632,-0.736219,105.15635464931678
1673611728.08167,-0.74836,104.99432747334933
1673611728.0826771,-0.784541,104.83226192959215
1673611728.0836842,-0.926091,104.67019638583498
1673611728.084691,-1.11493,104.50816920986753
1673611728.0856981,-1.06519,104.34610366611035
1673611728.0867062,-0.841661,104.18388465119432
1673611728.087713,-0.76615,104.02185747522687
1673611728.08872,-0.824688,103.8597919314697
1673611728.0897272,-0.821539,103.69772638771252
1673611728.090734,-0.796537,103.53569921174507
1673611728.091741,-0.909936,103.3736336679879
1673611728.0927482,-0.989631,103.21156812423072
1673611728.093755,-0.927486,103.04954094826327
1673611728.094762,-0.913374,102.8874754045061
1673611728.0957692,-1.004728,102.72540986074893
1673611728.096776,-1.097356,102.56338268478147
1673611728.097783,-1.051487,102.40131714102431
1673611728.0987911,-0.944771,102.23909812610827
1673611728.0997982,-0.813798,102.07703258235111
1673611728.100805,-0.759082,101.91500540638364
1673611728.1018121,-0.814952,101.75293986262648
1673611728.1028192,-0.944434,101.59087431886931
1673611728.103826,-0.986481,101.42884714290184
1673611728.1048331,-0.941333,101.26678159914468
1673611728.1058402,-0.929193,101.10471605538751
1673611728.106847,-0.975278,100.90505941297091
1673611728.1078541,-1.061199,100.72264169909394
1673611728.1088612,-1.068964,100.55850916523606
1673611728.109868,-0.963378,100.34091260276585
1673611728.1108751,-0.893709,100.23042752228844
1673611728.1118832,-0.85183,100.04809536957559
1673611728.11289,-0.829376,99.86649761945637
1673611728.113897,-0.810144,99.70459979499405
1673611728.1149042,-0.918206,99.59914948563284
1673611728.115911,-1.002468,99.57592266461421
1673611728.116918,-1.021797,99.55269034351957
1673611728.1179252,-1.009536,99.52945802242493
1673611728.118932,-0.964556,99.50623120140631
1673611728.119939,-0.92626,99.48299888031167
1673611728.1209462,-0.914432,99.45976655921703
1673611728.121953,-0.928472,99.3218121091776
1673611728.12296,-0.890968,99.1278886163567
1673611728.1239681,-0.855196,98.98778532045779
1673611728.1249752,-0.892146,98.81450903432659
1673611728.125982,-0.900584,98.69388161230329
1673611728.1269891,-0.913374,98.52253398068669
1673611728.1279962,-0.978764,98.37266088166511
1673611728.129003,-1.00956,98.22816424587802
1673611728.1300101,-1.017614,98.08363339350655
1673611728.1310172,-1.05079,97.93910254113509
1673611728.132024,-1.042111,97.79460590534798
1673611728.1330311,-1.037375,97.65007505297652
1673611728.1340382,-1.016508,97.50554420060506
1673611728.135045,-0.972538,97.36104756481795
1673611728.1360521,-0.899575,97.21651671244649
1673611728.1370602,-0.813486,97.07184899373755
1673611728.138067,-0.77906,96.92735235795045
1673611728.139074,-0.83041,96.78282150557898
1673611728.1400812,-0.868226,96.63829065320752
1673611728.141088,-0.748985,96.49379401742043
1673611728.142095,-0.650082,96.34926316504895
1673611728.1431022,-0.598227,96.20473231267749
1673611728.144109,-0.555002,96.06023567689039
1673611728.145116,-0.589476,95.91570482451893
1673611728.1461232,-0.78043,95.77117397214747
1673611728.14713,-0.917196,95.62667733636036
1673611728.148137,-0.970326,95.4821464839889
1673611728.1491451,-1.020763,95.33747876527995
1673611728.1501522,-1.077234,95.1929479129085
1673611728.151159,-1.093654,95.04845127712139
1673611728.1521661,-1.097404,94.90392042474993
1673611728.1531732,-1.048746,94.75938957237847
1673611728.15418,-0.998502,94.61489293659136
1673611728.1551871,-1.003478,94.4703620842199
1673611728.1561942,-1.048482,94.32583123184843
1673611728.157201,-1.083269,94.18133459606133
1673611728.1582081,-1.06293,94.03680374368987
1673611728.1592152,-1.024513,93.8922728913184
1673611728.160222,-0.991578,93.7477762555313
1673611728.1612291,-0.819087,93.60324540315983
1673611728.1622372,-0.771439,93.4585776844509
1673611728.163244,-0.807139,93.3140810486638
1673611728.164251,-0.910129,93.16955019629233
1673611728.1652582,-0.952151,93.02501934392087
1673611728.166265,-0.977081,92.88052270813377
1673611728.167272,-0.99968,92.73599185576231
1673611728.1682792,-0.97124,92.59146100339083
1673611728.169286,-0.895776,92.44696436760374
1673611728.170293,-0.854138,92.30243351523228
1673611728.1713002,-0.87313,92.1579026628608
1673611728.172307,-0.910297,92.0100283590844
1673611728.173314,-0.977827,91.85594752109654
1673611728.1743221,-1.020907,91.73279181187411
1673611728.1753292,-1.041991,91.56842608973747
1673611728.176336,-1.058483,91.45876135826583
1673611728.1773431,-1.030355,91.27671754040524
1673611728.1783502,-1.050622,90.70635993268682
1673611728.179357,-0.999463,90.61245001939533
1673611728.1803641,-0.856686,90.4790570875392
1673611728.1813712,-0.825193,90.2742725386266
1673611728.182378,-0.868034,90.14231957558417
1673611728.1833851,-0.912605,89.96979818788745
1673611728.1843922,-0.963475,89.89344598235995
1673611728.185399,-1.00254,89.7767162446352
1673611728.1864061,-0.950877,89.60847632761087
1673611728.1874142,-0.879309,89.54570757548493
1673611728.188421,-0.830675,89.4225473179705
1673611728.189428,-0.810408,89.29935789629374
1673611728.1904352,-0.820121,89.17616847461697
1673611728.191442,-0.89907,89.05300821710254
1673611728.192449,-0.994198,88.92981879542577
1673611728.1934562,-0.99879,88.80662937374902
1673611728.194463,-1.021412,88.68346911623459
1673611728.19547,-1.015017,88.56027969455782
1673611728.1964772,-0.967922,88.43709027288106
1673611728.197484,-0.955709,88.31393001536662
1673611728.198491,-0.917221,88.19074059368987
1673611728.1994991,-0.795768,88.06743451536379
1673611728.2005062,-0.586134,87.94424509368703
1673611728.201513,-0.456075,87.8210848361726
1673611728.2025201,-0.465018,87.69789541449583
1673611728.2035272,-0.55404,87.57470599281908
1673611728.204534,-0.867288,87.45154573530463
1673611728.2055411,-1.184623,87.32835631362788
1673611728.2065482,-1.118127,87.20516689195111
1673611728.207555,-1.000257,87.08200663443668
1673611728.2085621,-0.983092,86.95881721275993
1673611728.2095692,-0.972658,86.83562779108316
1673611728.210576,-1.011604,86.71246753356873
1673611728.2115831,-1.100458,86.58927811189196
1673611728.2125912,-1.114137,86.46597203356589
1673611728.213598,-1.044106,86.34281177605145
1673611728.214605,-1.048963,86.21962235437469
1673611728.2156122,-1.067474,86.09643293269794
1673611728.216619,-1.039827,85.9732726751835
1673611728.217626,-1.004319,85.85008325350674
1673611728.2186332,-0.988741,85.72689383182997
1673611728.21964,-0.989823,85.60373357431554
1673611728.220647,-0.946502,85.48054415263879
1673611728.2216542,-0.948521,85.35735473096202
1673611728.222661,-0.981721,85.23419447344759
1673611728.223668,-0.909888,85.11100505177082
1673611728.2246761,-0.853705,84.98769897344475
1673611728.2256832,-0.90407,84.86450955176798
1673611728.22669,-0.919432,84.74134929425355
1673611728.2276971,-0.877554,84.61815987257678
1673611728.2287042,-0.85195,84.49497045090003
1673611728.229711,-0.850628,84.36251136742966
1673611728.2307181,-0.877818,84.21676986674612
1673611728.2317252,-0.887891,84.08655902575107
1673611728.232732,-0.907676,83.98515459513591
1673611728.2337391,-0.960421,83.86200050560191
1673611728.2347462,-0.987491,83.7061943438245
1673611728.235753,-1.011748,83.55220275321888
1673611728.2367601,-1.001963,83.44702245935638
1673611728.2377682,-0.96172,83.36784787553648
1673611728.238775,-0.989294,83.26735827508271
1673611728.239782,-1.062137,83.19663576336015
1673611728.2407892,-1.08072,83.12591325163758
1673611728.241796,-1.073821,83.0552074829339
1673611728.242803,-1.008671,82.98448497121133
1673611728.2438102,-0.847022,82.91376245948875
1673611728.244817,-0.640538,82.84305669078506
1673611728.245824,-0.615127,82.7723341790625
1673611728.2468312,-0.74235,82.70161166733993
1673611728.247838,-0.867913,82.63090589863624
1673611728.248845,-0.98564,82.56018338691368
1673611728.2498531,-1.01206,82.48939390311563
1673611728.2508602,-0.967778,82.41867139139306
1673611728.251867,-0.951623,82.34796562268936
1673611728.2528741,-0.948954,82.2772431109668
1673611728.2538812,-0.98927,82.20652059924423
1673611728.254888,-1.043986,82.13581483054054
1673611728.2558951,-1.0207870000000001,82.06509231881797
1673611728.2569022,-0.965229,81.99436980709541
1673611728.257909,-0.977803,81.92366403839172
1673611728.2589161,-1.010762,81.85294152666916
1673611728.2599232,-1.037447,81.78221901494659
1673611728.26093,-1.02711,81.7115132462429
1673611728.2619371,-0.968619,81.64079073452034
1673611728.2629452,-0.944218,81.57000125072227
1673611728.263952,-0.92876,81.49929548201858
1673611728.264959,-0.898349,81.42857297029602
1673611728.2659662,-0.937679,81.35785045857345
1673611728.266973,-0.95458,81.28714468986976
1673611728.26798,-0.933424,81.2164221781472
1673611728.2689872,-0.913134,81.14569966642463
1673611728.269994,-0.931212,81.07499389772094
1673611728.271001,-0.953065,81.00427138599838
1673611728.2720082,-0.965782,80.93354887427581
1673611728.273015,-1.000064,80.86284310557211
1673611728.274022,-1.016292,80.79212059384955
1673611728.2750301,-1.019777,80.7213311100515
1673611728.2760372,-0.985928,80.65060859832893
1673611728.277044,-0.960181,80.57990282962524
1673611728.2780511,-0.9572,80.50918031790268
1673611728.2790582,-0.922726,80.43845780618011
1673611728.280065,-0.854499,80.36775203747641
1673611728.2810721,-0.820962,80.29702952575384
1673611728.2820792,-0.797571,80.22630701403128
1673611728.283086,-0.815144,80.15560124532759
1673611728.2840931,-0.919576,80.08487873360502
1673611728.2851002,-1.029826,80.0234545954708
1673611728.286107,-0.942824,80.008591
1673611728.287115,-0.800768,80.01208458369098
1673611728.2881222,-0.728839,80.0049469272944
1673611728.289129,-0.765429,79.93686312160229
1673611728.290136,-0.848681,79.99309825178827
1673611728.2911432,-0.940516,79.94823871418355
1673611728.29215,-1.11481,79.97400760658083
1673611728.293157,-1.192389,79.91389131664282
1673611728.2941642,-1.108655,79.8991159358745
1673611728.295171,-1.067618,79.895212719534
1673611728.296178,-1.03574,79.89130857891779
1673611728.2971852,-1.023816,79.88740443830157
1673611728.298192,-1.048626,79.88350122196107
1673611728.299199,-1.032447,79.91516143770883
1673611728.3002071,-1.020354,79.92456735094696
1673611728.3012142,-0.984991,79.90562082053556
1673611728.302221,-0.930034,79.8866787755717
1673611728.3032281,-0.90407,79.8677322451603
1673611728.3042352,-0.882097,79.8487857147489
1673611728.305242,-0.850268,79.82984366978505
1673611728.3062491,-0.817645,79.81089713937365
1673611728.3072562,-0.763313,79.79195060896225
1673611728.308263,-0.765284,79.7730085639984
1673611728.3092701,-0.763024,79.754062033587
1673611728.3102772,-0.740931,79.7351155031756
1673611728.311284,-0.778651,79.71617345821174
1673611728.312292,-0.975567,79.69720898601018
1673611728.3132992,-1.132023,79.67826245559878
1673611728.314306,-1.145221,79.65932041063493
1673611728.315313,-1.07697,79.64037388022354
1673611728.3163202,-1.031317,79.62142734981214
1673611728.317327,-1.068411,79.60248530484827
1673611728.318334,-1.092067,79.58353877443687
1673611728.3193412,-1.069782,79.56459224402548
1673611728.320348,-0.981529,79.54565019906163
1673611728.321355,-0.962417,79.52670366865023
1673611728.3223622,-0.90294,79.50775713823883
1673611728.323369,-0.931837,79.48881509327497
1673611728.324376,-0.97511,79.46986856286357
1673611728.3253841,-0.996987,79.43707834334764
1673611728.3263912,-1.006988,79.40061944415274
1673611728.327398,-1.032735,79.32025248249583
1673611728.3284051,-1.051319,79.28830412184072
1673611728.3294122,-1.038769,79.25514616634845
1673611728.330419,-0.994222,79.12838204291846
1673611728.3314261,-0.971937,79.19507316789712
1673611728.3324332,-0.937679,79.12079580906922
1673611728.33344,-0.918302,79.04235854220315
1673611728.3344471,-0.887867,78.99574497821455
1673611728.3354542,-0.836805,78.9536150014901
1673611728.336461,-0.852311,78.9114949987185
1673611728.337469,-0.929265,78.86932512618277
1673611728.3384762,-0.970975,78.82719514945833
1673611728.339483,-0.932462,78.78507514668672
1673611728.34049,-0.920779,78.7429451699623
1673611728.3414972,-0.975399,78.70081519323786
1673611728.342504,-0.93852,78.65869519046625
1673611728.343511,-0.860196,78.61656521374182
1673611728.3445182,-0.956358,78.57443523701738
1673611728.345525,-1.017085,78.53231523424577
1673611728.346532,-0.990712,78.49018525752133
1673611728.3475392,-0.916331,78.44805528079691
1673611728.348546,-0.895512,78.4059352780253
1673611728.349553,-0.90484,78.36380530130086
1673611728.3505611,-0.942175,78.32718361919505
1673611728.3515682,-0.937511,78.30847898450168
1673611728.352575,-0.895344,78.20088017899761
1673611728.3535821,-0.966071,78.16135205915745
1673611728.3545892,-1.03062,78.1244382906287
1673611728.355596,-1.063387,78.09047071310508
1673611728.3566031,-1.101155,77.98531353773585
1673611728.3576102,-1.062497,77.93859361565836
1673611728.358617,-0.963523,77.82921896085409
1673611728.3596241,-0.866086,77.457886
1673611728.3606312,-0.847839,77.38171216185935
1673611728.361638,-0.843536,77.31880360176429
1673611728.362646,-0.893132,77.26105845609155
1673611728.3636532,-1.02271,77.20336794158786
1673611728.36466,-1.055886,77.14569108487642
1673611728.365667,-0.984486,77.08800057037273
1673611728.3666742,-0.958787,77.03031005586902
1673611728.367681,-0.941213,76.95917200429184
1673611728.368688,-0.93501,76.90256038197425
1673611728.3696952,-0.9522,76.81512261301859
1673611728.370702,-0.910345,76.75710176877234
1673611728.371709,-0.845772,76.75238
1673611728.3727162,-0.865077,76.6517231475918
1673611728.373723,-0.935612,76.67761906483909
1673611728.37473,-0.952752,76.57786408202193
1673611728.3757381,-0.987299,76.51996010014307
1673611728.3767452,-1.07358,76.47333720315734
1673611728.377752,-1.124089,76.4271518421335
1673611728.3787591,-1.097116,76.38095554448617
1673611728.3797662,-1.042664,76.33475924683884
1673611728.380773,-1.013166,76.28857388581501
1673611728.3817801,-0.98588,76.24237758816768
1673611728.3827872,-0.997348,76.19618129052034
1673611728.383794,-1.024754,76.14999592949651
1673611728.3848011,-1.001987,76.10379963184918
1673611728.3858082,-0.972995,76.05760333420186
1673611728.386815,-0.992852,76.01141797317803
1673611728.387823,-1.007204,75.96517792903671
1673611728.3888302,-1.003983,75.91898163138939
1673611728.389837,-0.979005,75.87279627036554
1673611728.390844,-0.930659,75.82659997271821
1673611728.3918512,-0.876039,75.78040367507089
1673611728.392858,-0.790623,75.73421831404706
1673611728.393865,-0.743744,75.68802201639973
1673611728.3948722,-0.758192,75.64182571875239
1673611728.395879,-0.857864,75.59564035772856
1673611728.396886,-0.919192,75.54944406008123
1673611728.3978932,-0.851013,75.5032477624339
1673611728.3989,-0.729103,75.45706240141007
1673611728.399907,-0.76401,75.41086610376273
1673611728.4009151,-1.018046,75.36462605962141
1673611728.4019222,-1.190105,75.31842976197409
1673611728.402929,-1.212847,75.27224440095026
1673611728.4039361,-1.196403,75.22215120529327
1673611728.4049432,-1.148803,75.160439
1673611728.40595,-1.073436,75.15169402550656
1673611728.4069571,-1.05079,75.09704987339056
1673611728.4079642,-1.061512,75.05191
1673611728.408971,-1.044106,75.04202389463647
1673611728.4099782,-0.988885,74.99420673843586
1673611728.4109852,-0.951166,74.96888884310921
1673611728.411992,-0.954604,74.92527
1673611728.413,-0.990376,74.92054037381777
1673611728.4140072,-1.056031,74.89796642919207
1673611728.415014,-1.167074,74.87539782877673
1673611728.416021,-1.163372,74.85282388415102
1673611728.4170282,-1.050165,74.83024993952532
1673611728.418035,-0.940804,74.80768133910999
1673611728.419042,-0.803749,74.78510739448429
1673611728.4200492,-0.695951,74.76253344985858
1673611728.421056,-0.596039,74.73996484944325
1673611728.422063,-0.554425,74.71739090481755
1673611728.4230702,-0.603035,74.69481696019184
1673611728.424077,-0.68785,74.67224835977652
1673611728.425084,-0.834377,74.64967441515081
1673611728.4260921,-1.041174,74.6270790936836
1673611728.4270992,-1.197966,74.6045051490579
1673611728.428106,-1.155919,74.58193654864257
1673611728.4291131,-1.061656,74.55936260401687
1673611728.4301202,-1.023672,74.53678865939116
1673611728.431127,-1.076609,74.51422005897584
1673611728.4321342,-1.144644,74.49164611435013
1673611728.4331412,-1.152457,74.46907216972443
1673611728.434148,-1.125123,74.4465035693091
1673611728.4351552,-1.090384,74.4239296246834
1673611728.4361622,-1.0806,74.40135568005769
1673611728.437169,-1.085649,74.37878707964236
1673611728.438177,-0.962681,74.35619175817516
1673611728.4391842,-0.749538,74.33361781354945
1673611728.440191,-0.595029,74.31104921313413
1673611728.441198,-0.476341,74.28847526850842
1673611728.4422052,-0.497953,74.26590132388272
1673611728.443212,-0.712876,74.24333272346739
1673611728.444219,-0.967249,74.22075877884168
1673611728.4452262,-1.128609,74.19818483421598
1673611728.446233,-1.238522,74.17561623380065
1673611728.44724,-1.223257,74.15304228917495
1673611728.4482472,-1.146688,74.13046834454924
1673611728.449254,-1.085456,74.10789974413392
1673611728.450261,-1.087644,74.08532579950821
1673611728.4512691,-1.109737,74.062730478041
1673611728.4522762,-1.108727,74.0401565334153
1673611728.453283,-1.157578,74.01758793299997
1673611728.4542902,-1.157842,73.99501398837427
1673611728.4552972,-1.120026,73.97244004374856
1673611728.456304,-1.079158,73.94987144333322
1673611728.4573112,-0.981313,73.92729749870752
1673611728.4583182,-0.922942,73.90472355408183
1673611728.459325,-0.880054,73.88215495366649
1673611728.4603322,-0.832405,73.85958100904078
1673611728.4613392,-0.833079,73.83700706441508
1673611728.462346,-1.015739,73.81443846399975
1673611728.463354,-1.125604,73.79184314253254
1673611728.4643612,-1.065743,73.76926919790684
1673611728.465368,-0.989222,73.74670059749151
1673611728.466375,-0.961335,73.7241266528658
1673611728.4673822,-0.964003,73.7015527082401
1673611728.468389,-1.021028,73.74731657081544
1673611728.469396,-1.083485,73.78067410443491
1673611728.4704032,-1.087572,73.79888932562574
1673611728.47141,-1.001194,73.8305252665713
1673611728.472417,-0.878323,73.88051471196948
1673611728.4734242,-0.809952,73.90781612705602
1673611728.474431,-0.80798,73.95363719933238
1673611728.475438,-0.811634,73.9525677958989
1673611728.4764462,-0.880583,74.00472217167382
1673611728.4774532,-0.995833,74.03607408076705
1673611728.47846,-1.114786,74.05569818583056
1673611728.4794672,-1.076753,74.07532693785241
1673611728.4804742,-1.041462,74.09495568987427
1673611728.481481,-0.974197,74.11457979493778
1673611728.4824882,-0.947824,74.13420854695963
1673611728.4834952,-0.974798,74.15383729898149
1673611728.484502,-1.002324,74.173461404045
1673611728.4855092,-1.016436,74.19309015606684
1673611728.4865162,-1.012782,74.2127189080887
1673611728.487523,-0.947944,74.23234301315222
1673611728.488531,-0.887074,74.25199035300741
1673611728.4895382,-0.902387,74.27161910502927
1673611728.490545,-0.981793,74.29124321009279
1673611728.491552,-1.02259,74.31087196211463
1673611728.4925592,-1.072907,74.33050071413649
1673611728.493566,-1.078004,74.3501248192
1673611728.494573,-1.014224,74.36975357122185
1673611728.4955802,-0.945564,74.38938232324371
1673611728.496587,-0.949026,74.40900642830722
1673611728.497594,-0.96797,74.42863518032907
1673611728.4986012,-0.943713,74.44826393235093
1673611728.499608,-0.883876,74.46788803741443
1673611728.5006151,-0.889646,74.48751678943628
1673611728.5016232,-0.943545,74.5071641292915
1673611728.5026302,-0.899791,74.52679288131334
1673611728.503637,-0.848777,74.54641698637685
1673611728.5046442,-0.927318,74.56604573839871
1673611728.5056512,-1.004127,74.58567449042056
1673611728.506658,-1.014056,74.60529859548407
1673611728.5076652,-1.053098,74.62492734750592
1673611728.5086722,-1.036582,74.64455609952778
1673611728.509679,-0.899623,74.66418020459129
1673611728.5106862,-0.774179,74.68380895661313
1673611728.511693,-0.685013,74.70343306167665
1673611728.5127,-0.724367,74.72306181369851
1673611728.513708,-0.856999,74.7427091535537
1673611728.5147152,-0.986553,74.76233790557556
1673611728.515722,-1.083942,74.78196201063908
1673611728.516729,-1.145173,74.80159076266092
1673611728.5177362,-1.040188,74.82121951468278
1673611728.518743,-1.033048,74.8408436197463
1673611728.51975,-1.073412,74.86047237176814
1673611728.5207572,-1.046679,74.88010112379
1673611728.521764,-1.057593,74.89972522885351
1673611728.5227711,-1.085937,74.91935398087536
1673611728.5237782,-1.065406,74.93898273289722
1673611728.524785,-1.009753,74.95860683796073
1673611728.5257921,-0.941694,74.97823558998257
1673611728.5268002,-0.939049,74.99788292983779
1673611728.5278072,-0.966431,75.01751168185963
1673611728.528814,-0.996578,75.03713578692314
1673611728.5298212,-1.033577,75.056764538945
1673611728.5308282,-1.051487,75.07639329096685
1673611728.531835,-1.055598,75.09601739603036
1673611728.5328422,-1.023143,75.08858571888412
1673611728.533849,-0.986553,75.10566572872467
1673611728.534856,-0.936693,75.1061745
1673611728.5358632,-0.920202,75.05165170886981
1673611728.53687,-1.003286,75.033821
1673611728.537877,-1.090745,75.00553431632896
1673611728.538885,-1.089471,74.9891086940868
1673611728.5398922,-1.057786,74.98792691392465
1673611728.540899,-1.083341,74.99917984457689
1673611728.541906,-1.044058,75.01942227010126
1673611728.5429132,-0.895536,75.02622107933738
1673611728.54392,-0.737277,75.03301827900691
1673611728.5449271,-0.626594,75.03981708824303
1673611728.5459342,-0.535144,75.04661589747914
1673611728.546941,-0.521104,75.05341309714866
1673611728.5479481,-0.734296,75.06021190638478
1673611728.5489552,-0.968114,75.0670107156209
1673611728.549962,-0.985111,75.07380791529043
1673611728.5509691,-0.99617,75.08060672452655
1673611728.5519772,-1.17544,75.08741197202899
1673611728.5529842,-1.347546,75.09421078126509
1673611728.553991,-1.35334,75.10100798093463
1673611728.5549982,-1.289248,75.10780679017074
1673611728.556005,-1.221117,75.11460398984028
1673611728.557012,-1.175007,75.12140279907639
1673611728.5580192,-1.153876,75.12820160831251
1673611728.559026,-1.079638,75.13499880798204
1673611728.560033,-0.989462,75.14179761721816
1673611728.5610402,-0.946526,75.14859642645426
1673611728.562047,-0.940492,75.1553936261238
1673611728.563054,-0.945059,75.16219243535991
1673611728.564062,-0.907941,75.16899768286235
1673611728.5650692,-0.907652,75.17579649209847
1673611728.566076,-0.962513,75.182593691768
1673611728.5670831,-1.012854,75.18939250100411
1673611728.5680902,-1.061776,75.19619131024022
1673611728.569097,-1.046126,75.20298850990976
1673611728.5701041,-0.987804,75.20978731914587
1673611728.5711112,-0.973187,75.21658612838199
1673611728.572118,-0.995737,75.22338332805153
1673611728.5731251,-1.007228,75.23018213728764
1673611728.5741322,-1.043193,75.23698094652376
1673611728.575139,-1.072835,75.24377814619328
1673611728.5761461,-1.072522,75.2505769554294
1673611728.5771542,-1.056656,75.25738220293184
1673611728.578161,-1.005642,75.26417940260137
1673611728.579168,-0.937415,75.27097821183749
1673611728.5801752,-0.878587,75.2777770210736
1673611728.581182,-0.798003,75.28457422074312
1673611728.582189,-0.720352,75.29137302997924
1673611728.5831962,-0.672319,75.29817183921536
1673611728.584203,-0.672848,75.30496903888489
1673611728.58521,-0.692321,75.31176784812101
1673611728.5862172,-0.849114,75.31856665735712
1673611728.587224,-0.956863,75.32536385702666
1673611728.588231,-1.014777,75.33216266626278
1673611728.5892391,-1.098126,75.3389679137652
1673611728.5902462,-1.15402,75.34576672300132
1673611728.591253,-1.216165,75.35256392267085
1673611728.5922601,-1.156183,75.35936273190697
1673611728.5932672,-1.10767,75.36616154114309
1673611728.594274,-1.05067,75.37295874081262
1673611728.5952811,-0.979341,75.37975755004872
1673611728.5962882,-0.926933,75.38655635928484
1673611728.597295,-0.877986,75.39335355895437
1673611728.5983021,-0.832141,75.37129726013353
1673611728.5993092,-0.802739,75.3717209966627
1673611728.600316,-0.902099,75.40234306938484
1673611728.6013231,-1.002901,75.37605314653938
1673611728.6023312,-1.039851,75.359436
1673611728.603338,-1.079614,75.37224275327772
1673611728.604345,-1.090817,75.36459011421078
1673611728.6053522,-1.106924,75.37250027777779
1673611728.606359,-1.050453,75.35115257473183
1673611728.607366,-0.927678,75.35040879492468
1673611728.6083732,-0.817284,75.3628082188838
1673611728.60938,-0.67381,75.37520470737324
1673611728.610387,-0.588346,75.38760413133238
1673611728.6113942,-0.668064,75.4000035552915
1673611728.612401,-0.804086,75.41240004378095
1673611728.613408,-0.856614,75.42479946774007
1673611728.6144161,-1.058747,75.43721063357796
1673611728.6154232,-1.249725,75.44961005753709
1673611728.61643,-1.315356,75.46200654602653
1673611728.6174371,-1.289705,75.47440596998565
1673611728.6184442,-1.240349,75.48680539394479
1673611728.619451,-1.131903,75.49920188243424
1673611728.6204581,-0.988044,75.51160130639336
1673611728.6214652,-0.86938,75.52400073035248
1673611728.622472,-0.827525,75.53639721884193
1673611728.6234791,-0.827068,75.54879664280107
1673611728.6244862,-0.879861,75.56119606676019
1673611728.625493,-1.020066,75.57359255524963
1673611728.6265001,-1.174118,75.58599197920876
1673611728.6275082,-1.189985,75.59840314504665
1673611728.628515,-1.144452,75.61079963353609
1673611728.629522,-1.12457,75.62319905749521
1673611728.6305292,-1.127695,75.63559848145434
1673611728.631536,-1.033336,75.64799496994378
1673611728.632543,-1.017421,75.66039439390292
1673611728.6335502,-1.078821,75.67279381786204
1673611728.634557,-1.089808,75.68519030635149
1673611728.635564,-1.053242,75.69758973031061
1673611728.6365712,-1.014248,75.70998915426975
1673611728.637578,-1.020162,75.72238564275919
1673611728.638585,-1.000545,75.73478506671832
1673611728.6395931,-0.944531,75.74719623255619
1673611728.6406002,-0.870966,75.75959565651533
1673611728.641607,-0.805456,75.77199214500477
1673611728.6426141,-0.747182,75.7843915689639
1673611728.6436212,-0.660828,75.79679099292302
1673611728.644628,-0.699437,75.80918748141247
1673611728.6456351,-0.776463,75.8215869053716
1673611728.6466422,-0.763265,75.83398632933073
1673611728.647649,-0.81387,75.84638281782017
1673611728.6486561,-0.921307,75.8587822417793
1673611728.6496632,-1.046102,75.87118166573843
1673611728.65067,-1.180104,75.88357815422788
1673611728.6516771,-1.301869,75.895977578187
1673611728.6526852,-1.359903,75.89297110801145
1673611728.653692,-1.223161,75.90265445588936
1673611728.654699,-0.9954,75.96736245029797
1673611728.6557062,-0.918374,76.010674
1673611728.656713,-0.957008,75.98164164806866
1673611728.65772,-1.025475,75.9956320464839
1673611728.6587272,-1.086586,76.05856252408202
1673611728.659734,-1.094111,76.09308907057701
1673611728.660741,-1.045116,76.0909349659118
1673611728.6617482,-0.987924,76.08710857132083
1673611728.662755,-0.928327,76.09431040473272
1673611728.663762,-0.907148,76.10151394352786
1673611728.6647701,-0.900777,76.10872430385595
1673611728.6657772,-0.896233,76.11592784265108
1673611728.666784,-0.900224,76.12912292371871
1673611728.6677911,-0.870822,76.11721680829757
1673611728.6687982,-0.792162,76.14180983690987
1673611728.669805,-0.819159,76.17971189169361
1673611728.6708121,-0.982563,76.19071852031273
1673611728.6718192,-1.045357,76.20172514893183
1673611728.672826,-1.057882,76.212729171815
1673611728.6738331,-1.065575,76.22373580043411
1673611728.6748402,-1.064733,76.23474242905323
1673611728.675847,-1.084831,76.2457464519364
1673611728.6768541,-1.105266,76.25675308055551
1673611728.6778622,-1.091731,76.26777013211839
1673611728.678869,-1.08435,76.27877415500156
1673611728.679876,-1.050958,76.28978078362067
1673611728.6808832,-0.984534,76.30078741223979
1673611728.68189,-0.9146,76.31179143512296
1673611728.682897,-0.820938,76.32279806374207
1673611728.6839042,-0.771343,76.33380469236118
1673611728.684911,-0.814519,76.34480871524435
1673611728.685918,-0.896786,76.35581534386347
1673611728.6869252,-1.002156,76.36682197248258
1673611728.687932,-1.17044,76.37782599536575
1673611728.688939,-1.26052,76.38883262398485
1673611728.6899471,-1.177099,76.39984967554774
1673611728.6909542,-1.025211,76.41085630416686
1673611728.691961,-0.919288,76.42186032705003
1673611728.6929681,-0.877506,76.43286695566914
1673611728.6939752,-0.840002,76.44387358428824
1673611728.694982,-0.825939,76.45487760717141
1673611728.6959891,-0.852335,76.46588423579053
1673611728.6969962,-0.917918,76.47689086440964
1673611728.698003,-0.951839,76.48789488729281
1673611728.6990101,-0.957825,76.49890151591192
1673611728.7000172,-0.879477,76.50990814453104
1673611728.701024,-0.813125,76.52091216741421
1673611728.7020311,-0.878371,76.53191879603332
1673611728.7030392,-0.962609,76.5429358475962
1673611728.704046,-0.968403,76.55393987047937
1673611728.705053,-0.952801,76.56494649909848
1673611728.7060602,-0.967489,76.5759531277176
1673611728.707067,-0.953185,76.58695715060077
1673611728.708074,-0.943593,76.59796377921988
1673611728.7090812,-0.942463,76.608970407839
1673611728.710088,-0.929145,76.61997443072217
1673611728.711095,-0.938496,76.63098105934128
1673611728.7121022,-1.038745,76.64198768796038
1673611728.713109,-1.220396,76.65299171084355
1673611728.714116,-1.210828,76.66399833946267
1673611728.7151241,-1.115266,76.67501539102555
1673611728.7161312,-1.033096,76.68602201964467
1673611728.717138,-1.009127,76.69702604252784
1673611728.7181451,-1.054877,76.698097
1673611728.7191522,-1.103174,76.6815218862661
1673611728.720159,-1.125243,76.680008
1673611728.7211661,-1.112021,76.680008
1673611728.7221732,-1.000521,76.680008
1673611728.72318,-0.874068,76.66293232896305
1673611728.7241871,-0.76615,76.6447132274678
1673611728.7251942,-0.717179,76.60916057319982
1673611728.726201,-0.683811,76.64256126078665
1673611728.7272081,-0.6133,76.64499087809374
1673611728.7282162,-0.657967,76.64619578870946
1673611728.729223,-0.811057,76.64739927440725
1673611728.73023,-0.907724,76.64860304508862
1673611728.7312372,-0.999535,76.64980681576999
1673611728.732244,-1.03175,76.65101030146776
1673611728.733251,-1.075576,76.65221407214914
1673611728.7342582,-1.153419,76.6534178428305
1673611728.735265,-1.117622,76.6546213285283
1673611728.736272,-0.966528,76.65582509920966
1673611728.7372792,-0.843729,76.65702886989104
1673611728.738286,-0.821323,76.65823235558881
1673611728.739293,-0.959315,76.65943612627018
1673611728.7403011,-1.094183,76.6606410368859
1673611728.7413082,-1.086947,76.66184480756728
1673611728.742315,-1.126349,76.66304829326506
1673611728.7433221,-1.193422,76.66425206394644
1673611728.7443292,-1.097813,76.6654558346278
1673611728.745336,-1.008815,76.66665932032559
1673611728.7463431,-0.936934,76.66786309100696
1673611728.7473502,-0.856855,76.66906686168834
1673611728.748357,-0.799422,76.67027034738611
1673611728.7493641,-0.859355,76.67147411806748
1673611728.7503712,-1.007589,76.67267788874885
1673611728.751378,-1.111444,76.67388137444664
1673611728.7523851,-1.06531,76.67508514512801
1673611728.7533932,-1.039106,76.67629005574373
1673611728.7544,-1.06257,76.6774935414415
1673611728.755407,-1.058362,76.67869731212288
1673611728.7564142,-1.029802,76.67990108280425
1673611728.757421,-1.013863,76.68110456850204
1673611728.758428,-1.008454,76.68230833918341
1673611728.7594352,-1.003165,76.68351210986478
1673611728.760442,-0.978187,76.68471559556257
1673611728.761449,-0.932967,76.68591936624394
1673611728.7624562,-0.917172,76.68712313692531
1673611728.763463,-0.894478,76.68832662262308
1673611728.76447,-0.859163,76.68953039330445
1673611728.7654781,-0.843392,76.69073530392018
1673611728.7664852,-0.791753,76.69193907460155
1673611728.767492,-0.771318,76.69314256029934
1673611728.7684991,-0.853946,76.69434633098071
1673611728.7695062,-0.848537,76.69555010166208
1673611728.770513,-0.932486,76.69675358735985
1673611728.7715201,-0.992131,76.69795735804122
1673611728.7725272,-0.898878,76.66588702098235
1673611728.773534,-0.84106,76.72683815041717
1673611728.7745411,-0.873803,76.76700219885551
1673611728.7755482,-0.874621,76.7375000100143
1673611728.776555,-1.016075,76.734291
1673611728.7775621,-1.298816,76.75102569718646
1673611728.7785702,-1.292133,76.76926227467811
1673611728.779577,-1.114064,76.7364643272944
1673611728.780584,-1.071801,76.76855494563662
1673611728.7815912,-1.124594,76.78041087712873
1673611728.782598,-1.104689,76.79090071323934
1673611728.783605,-1.097404,76.80139303332723
1673611728.7846122,-0.990448,76.81188535341512
1673611728.785619,-0.83243,76.82237518952573
1673611728.786626,-0.794373,76.82473
1673611728.7876332,-0.833559,76.76769874105865
1673611728.78864,-0.756173,76.7552566395931
1673611728.789647,-0.670108,76.7589000955575
1673611728.7906551,-0.7154,76.76254700176429
1673611728.7916622,-0.873034,76.76619045772868
1673611728.792669,-0.938977,76.76983305113248
1673611728.7936761,-1.03324,76.77347650709687
1673611728.7946832,-1.159766,76.77711996306127
1673611728.79569,-1.025307,76.78076255646508
1673611728.7966971,-0.96886,76.78440601242947
1673611728.7977042,-0.958426,76.78804946839387
1673611728.798711,-0.933833,76.79169206179766
1673611728.7997181,-0.924433,76.79533551776206
1673611728.8007252,-0.944266,76.79897897372645
1673611728.801732,-1.018864,76.80262156713025
1673611728.80274,-1.110891,76.80626847333704
1673611728.8037472,-1.095145,76.77400671435385
1673611728.804754,-1.011003,76.75402728963051
1673611728.805761,-1.003165,76.85180022365284
1673611728.8067682,-1.021436,76.860909
1673611728.807775,-1.044852,76.84408680929678
1673611728.808782,-1.017085,76.9106213390558
1673611728.8097892,-0.965975,76.8639367725322
1673611728.810796,-0.938737,76.80930024248927
1673611728.811803,-0.95155,76.87596257687723
1673611728.8128102,-1.011748,76.88737863434963
1673611728.813817,-1.073388,76.89612157379096
1673611728.814824,-1.064397,76.90486658354712
1673611728.8158321,-1.016772,76.9136198745625
1673611728.8168392,-0.984342,76.92236488431864
1673611728.817846,-0.988164,76.93110782375997
1673611728.8188531,-0.911811,76.93985283351611
1673611728.8198602,-0.86611,76.94859784327227
1673611728.820867,-0.887458,76.9573407827136
1673611728.8218741,-0.953233,76.96608579246974
1673611728.8228812,-1.023432,76.97483080222588
1673611728.823888,-1.079398,76.98357374166723
1673611728.8248951,-1.08084,76.99231875142337
1673611728.8259022,-1.006171,77.00106376117951
1673611728.826909,-0.939771,77.00980670062084
1673611728.827917,-0.932679,77.01855999163622
1673611728.8289242,-0.89794,77.02730500139238
1673611728.829931,-0.842887,77.03604794083371
1673611728.830938,-0.796537,77.04479295058985
1673611728.8319452,-0.843969,77.05353796034599
1673611728.832952,-0.959965,77.06228089978732
1673611728.833959,-1.038385,77.07102590954348
1673611728.8349662,-1.055886,77.07977091929962
1673611728.835973,-1.055141,77.08851385874095
1673611728.83698,-1.028264,77.1009748512515
1673611728.8379872,-0.988477,77.12712182498808
1673611728.838994,-0.900416,77.10417199928469
1673611728.840001,-0.791993,77.15317654112037
1673611728.8410091,-0.738215,77.15953966714353
1673611728.8420162,-0.760116,77.1296580791607
1673611728.843023,-0.767159,77.20784203862661
1673611728.8440301,-0.814279,77.22606045363528
1673611728.8450372,-1.008959,77.240799
1673611728.846044,-1.184864,77.23948708601861
1673611728.8470511,-1.172892,77.23285052954274
1673611728.8480582,-1.079374,77.22621397306686
1673611728.849065,-0.997155,77.21957898774546
1673611728.8500721,-0.964725,77.21294243126958
1673611728.8510792,-0.977346,77.20630587479371
1673611728.852086,-1.027975,77.1996708894723
1673611728.853094,-1.032206,77.19302804837857
1673611728.8541012,-1.02574,77.18639149190268
1673611728.855108,-1.031052,77.17975650658128
1673611728.856115,-1.031293,77.1731199501054
1673611728.8571222,-1.026124,77.16648339362953
1673611728.858129,-1.014849,77.15984840830812
1673611728.859136,-0.965037,77.15321185183225
1673611728.8601432,-0.901185,77.14657529535639
1673611728.86115,-0.886112,77.13994031003497
1673611728.862157,-0.914143,77.1333037535591
1673611728.8631642,-0.968331,77.12666719708322
1673611728.864171,-0.995737,77.12003221176182
1673611728.865178,-0.946838,77.11339565528594
1673611728.8661861,-0.870486,77.1067528141922
1673611728.8671932,-0.786873,77.10011625771632
1673611728.8682,-0.67881,77.09348127239492
1673611728.8692071,-0.626041,77.08684471591904
1673611728.8702142,-0.697995,77.08020815944317
1673611728.871221,-0.866807,77.07357317412176
1673611728.8722281,-1.038168,77.0669366176459
1673611728.8732352,-1.13724,77.06030006117003
1673611728.874242,-1.129619,77.05366507584861
1673611728.8752491,-1.067113,77.04702851937274
1673611728.8762562,-1.018984,77.04572895112064
1673611728.877263,-1.001867,77.059906
1673611728.878271,-1.007493,77.04736768526466
1673611728.8792782,-0.959412,76.99701668240344
1673611728.880285,-0.89544,76.96057844958284
1673611728.881292,-0.849114,76.93782491106343
1673611728.8822992,-0.839137,76.93728983166429
1673611728.883306,-0.846325,76.89227476543503
1673611728.884313,-0.769972,76.8691208051979
1673611728.8853202,-0.876664,76.83395036585803
1673611728.886327,-1.133345,76.80207611736306
1673611728.887334,-1.191547,76.77019432109437
1673611728.8883412,-1.09577,76.73831252482566
1673611728.889348,-0.997588,76.7064382763307
1673611728.890355,-0.978428,76.674556480062
1673611728.8913631,-0.99879,76.64264449269834
1673611728.8923702,-1.017397,76.61076269642965
1673611728.893377,-0.976505,76.5956585589988
1673611728.8943841,-0.983236,76.59520314663806
1673611728.8953912,-0.982154,76.55241220886981
1673611728.896398,-0.984534,76.55607406962328
1673611728.8974051,-0.990232,76.59931546507747
1673611728.8984122,-1.028648,76.53318453838817
1673611728.899419,-1.024417,76.48539907010014
1673611728.9004261,-1.005473,76.462936
1673611728.9014332,-1.012613,76.4487056096805
1673611728.90244,-1.002084,76.41784148064517
1673611728.903448,-0.935587,76.39541262258065
1673611728.9044552,-0.87277,76.37300498387097
1673611728.905462,-0.874765,76.35746038626608
1673611728.906469,-0.846133,76.36927021459226
1673611728.9074762,-0.747855,76.354385
1673611728.908483,-0.780935,76.33711097854076
1673611728.90949,-0.828703,76.263939
1673611728.9104972,-0.963234,76.25502654973297
1673611728.911504,-1.121084,76.21131310318519
1673611728.912511,-1.09851,76.16758930535953
1673611728.9135182,-0.987828,76.12386550753385
1673611728.914525,-0.909071,76.08015206098608
1673611728.915532,-0.865485,76.04250874225083
1673611728.9165401,-0.894262,76.028763
1673611728.9175472,-0.980038,76.0103046070577
1673611728.918554,-0.931428,75.96589128540772
1673611728.9195611,-0.814183,75.98284698068669
1673611728.9205682,-0.804663,75.95141534779499
1673611728.921575,-0.830699,75.92808449761564
1673611728.9225821,-0.912485,75.88114435050072
1673611728.9235892,-1.019874,75.82439588843862
1673611728.924596,-1.086899,75.80343531037796
1673611728.9256032,-1.031173,75.77610788687723
1673611728.9266102,-0.922509,75.74878046337648
1673611728.927617,-0.883083,75.72145950943622
1673611728.928625,-0.896858,75.69410620769351
1673611728.9296322,-0.864115,75.66677878419276
1673611728.930639,-0.876856,75.6394578302525
1673611728.931646,-0.904022,75.61213040675175
1673611728.9326532,-0.896449,75.58480298325101
1673611728.93366,-0.935804,75.55748202931075
1673611728.934667,-0.941862,75.53015460581
1673611728.9356742,-0.908638,75.50282718230925
1673611728.936681,-0.967874,75.47550622836899
1673611728.937688,-1.032447,75.44817880486823
1673611728.9386952,-1.054708,75.42085138136748
1673611728.939702,-1.036894,75.39353042742722
1673611728.940709,-0.991458,75.36620300392647
1673611728.9417171,-0.988284,75.33884970218378
1673611728.9427242,-0.996674,75.31152227868303
1673611728.943731,-1.002709,75.28420132474277
1673611728.9447381,-1.008935,75.25687390124202
1673611728.9457452,-0.994896,75.22954647774127
1673611728.946752,-0.966768,75.202225523801
1673611728.9477592,-0.931284,75.17489810030025
1673611728.9487662,-0.934434,75.14757067679952
1673611728.949773,-0.941405,75.12024972285926
1673611728.9507802,-0.924697,75.0929222993585
1673611728.9517872,-0.921067,75.06559487585776
1673611728.952794,-0.877674,75.0382739219175
1673611728.953802,-0.898517,75.01092062017479
1673611728.9548092,-0.93239,74.98359319667405
1673611728.955816,-0.829737,74.95627224273379
1673611728.956823,-0.679484,74.943359
1673611728.9578302,-0.616978,74.93362440939437
1673611728.958837,-0.687417,74.92527
1673611728.959844,-0.936645,74.92527
1673611728.9608512,-1.119882,74.89492701955174
1673611728.961858,-1.123633,74.89148100476872
1673611728.962865,-1.048963,74.91754961134954
1673611728.9638722,-1.010858,74.9042784181168
1673611728.964879,-0.998934,74.86785346161183
1673611728.965886,-0.955229,74.84714073208478
1673611728.9668941,-0.899382,74.83734733371178
1673611728.9679012,-0.839906,74.82756320061631
1673611728.968908,-0.810985,74.81778138384024
1673611728.9699152,-0.818246,74.80799725074478
1673611728.9709222,-0.847118,74.79821311764933
1673611728.971929,-0.960397,74.78843130087324
1673611728.9729362,-1.096659,74.77864716777779
1673611728.9739432,-1.119546,74.76886303468233
1673611728.97495,-1.060286,74.75908121790626
1673611728.9759572,-1.053578,74.74929708481079
1673611728.9769642,-1.040548,74.73951295171534
1673611728.977971,-0.981745,74.72973113493927
1673611728.978979,-0.906402,74.71993773656625
1673611728.9799862,-0.873202,74.7101536034708
1673611728.980993,-0.854379,74.70037178669472
1673611728.982,-0.836829,74.69058765359927
1673611728.9830072,-0.817717,74.6808035205038
1673611728.984014,-0.798965,74.67102170372773
1673611728.985021,-0.820025,74.66123757063227
1673611728.9860282,-0.881953,74.65145343753682
1673611728.987035,-0.976336,74.64167162076075
1673611728.988042,-1.071393,74.63188748766528
1673611728.9890492,-1.081057,74.62210335456982
1673611728.990056,-1.046198,74.61232153779375
1673611728.991063,-1.000785,74.6025374046983
1673611728.9920712,-0.988116,74.59274400632528
1673611728.9930782,-0.931549,74.58295987322983
1673611728.994085,-0.842935,74.57317805645374
1673611728.9950922,-0.924409,74.56339392335829
1673611728.9960992,-1.028576,74.55360979026283
1673611728.997106,-1.001194,74.54382797348676
1673611728.9981132,-0.942415,74.53404384039129
1673611728.9991202,-0.912292,74.52425970729584
1673611729.000127,-0.917172,74.51447789051977
1673611729.0011342,-0.969797,74.5046937574243
1673611729.0021412,-0.962441,74.49490962432884
1673611729.003148,-0.900224,74.48512780755277
1673611729.004156,-0.88265,74.47533440917977
1673611729.0051632,-0.882987,74.4655502760843
1673611729.00617,-0.883564,74.45576845930823
1673611729.007177,-0.930491,74.44598432621277
1673611729.0081842,-0.950925,74.43620019311732
1673611729.009191,-0.867961,74.42641837634125
1673611729.010198,-0.829352,74.41663424324578
1673611729.0112052,-0.783603,74.40685011015032
1673611729.012212,-0.735714,74.39706829337425
1673611729.013219,-0.801369,74.3872841602788
1673611729.0142262,-0.92287,74.37750002718333
1673611729.015233,-0.985808,74.36771821040726
1673611729.0162401,-1.08084,74.3579340773118
1673611729.0172482,-1.04514,74.34814067893879
1673611729.0182552,-1.018792,74.33835654584333
1673611729.019262,-0.991458,74.32857472906726
1673611729.0202692,-0.926019,74.31879059597179
1673611729.0212762,-0.891497,74.30797402145923
1673611729.022283,-0.912292,74.28740525435042
1673611729.0232902,-0.961768,74.255936
1673611729.0242972,-0.953281,74.25071819957083
1673611729.025304,-0.838969,74.21703101668653
1673611729.0263112,-0.739657,74.19309267525036
1673611729.027318,-0.735113,74.14440151311398
1673611729.028325,-0.792763,74.12618970846245
1673611729.029333,-0.865461,74.111214
1673611729.0303402,-0.995905,74.11052501596235
1673611729.031347,-1.106323,74.1068185451458
1673611729.032354,-0.955277,74.10311119664257
1673611729.0333612,-0.790743,74.09940384813935
1673611729.034368,-0.750764,74.0956973773228
1673611729.035375,-0.672392,74.08197903671912
1673611729.0363822,-0.762183,74.06834974725798
1673611729.037389,-0.97386,74.09062677884012
1673611729.0383961,-1.059324,74.08281903481397
1673611729.0394032,-1.058074,74.0750112907878
1673611729.04041,-1.094664,74.0672053951859
1673611729.0414171,-1.110627,74.05939765115974
1673611729.0424252,-1.101371,74.05158251343659
1673611729.0434322,-1.075311,74.04377476941043
1673611729.044439,-0.971576,74.03596887380851
1673611729.0454462,-0.897026,74.02816112978236
1673611729.0464532,-0.922293,74.02035338575621
1673611729.04746,-0.990664,74.01254749015429
1673611729.0484672,-1.061896,74.00473974612814
1673611729.049474,-1.076874,73.99693385052623
1673611729.050481,-1.06781,73.98912610650007
1673611729.0514882,-1.018864,73.98131836247391
1673611729.052495,-0.935347,73.973512466872
1673611729.053502,-0.911258,73.96570472284584
1673611729.05451,-0.843536,73.95788958512269
1673611729.0555172,-0.734993,73.95008184109653
1673611729.056524,-0.646524,73.94227594549463
1673611729.057531,-0.652678,73.93446820146846
1673611729.0585382,-0.72843,73.92666045744231
1673611729.059545,-0.938833,73.91885456184039
1673611729.0605521,-0.934434,73.91104681781424
1673611729.0615592,-0.862648,73.90323907378809
1673611729.062566,-0.822933,73.89543317818617
1673611729.0635731,-0.848537,73.88762543416001
1673611729.0645802,-0.898902,73.87981769013386
1673611729.065587,-0.970615,73.87201179453194
1673611729.0665941,-0.957633,73.86420405050579
1673611729.0676022,-0.906018,73.85638891278263
1673611729.0686092,-0.888035,73.84858116875648
1673611729.069616,-0.967441,73.84077527315456
1673611729.0706232,-0.948257,73.83296752912841
1673611729.07163,-0.928712,73.8251616335265
1673611729.072637,-0.909912,73.81735388950034
1673611729.0736442,-0.935275,73.80954614547419
1673611729.074651,-0.960638,73.80174024987228
1673611729.075658,-0.972273,73.79393250584612
1673611729.0766652,-0.942247,73.78612476181996
1673611729.077672,-0.867457,73.77831886621806
1673611729.078679,-0.879405,73.77051112219189
1673611729.079687,-0.956286,73.76269598446873
1673611729.0806942,-1.043433,73.75488824044258
1673611729.081701,-1.067426,73.74708234484068
1673611729.0827081,-1.02723,73.73927460081451
1673611729.0837152,-0.978308,73.73146685678836
1673611729.084722,-0.940732,73.72366096118645
1673611729.0857291,-0.944795,73.71585321716029
1673611729.0867362,-0.974004,73.713234
1673611729.087743,-0.989607,73.713234
1673611729.0887501,-0.980351,73.73794855293276
1673611729.0897572,-0.956719,73.76189932689556
1673611729.090764,-0.933111,73.75489360047676
1673611729.0917711,-0.936573,73.80035964306151
1673611729.0927792,-0.983524,73.78311990081068
1673611729.093786,-1.016724,73.81952314707986
1673611729.094793,-1.026461,73.87925958655222
1673611729.0958002,-0.981962,73.9159676057207
1673611729.096807,-0.877626,73.94596203757712
1673611729.097814,-0.70838,73.97596357206955
1673611729.0988212,-0.581518,74.00596510656197
1673611729.099828,-0.613252,74.05767010515022
1673611729.100835,-0.796681,74.11183459871245
1673611729.1018422,-0.967225,74.11033813206198
1673611729.102849,-1.017037,74.06430840414878
1673611729.103856,-1.011868,74.09726131473533
1673611729.1048641,-0.988332,74.12763106412396
1673611729.1058712,-0.899046,74.12122031378159
1673611729.106878,-0.853633,74.16983753218884
1673611729.1078851,-0.887723,74.19140361787842
1673611729.1088922,-0.882915,74.17923597736011
1673611729.109899,-0.8814,74.17164751531348
1673611729.1109061,-0.862985,74.16405725633054
1673611729.1119132,-0.807788,74.1564669973476
1673611729.11292,-0.862985,74.14887853530097
1673611729.1139271,-0.916139,74.14128827631802
1673611729.1149342,-0.941117,74.13369801733508
1673611729.115941,-0.933135,74.12610955528844
1673611729.1169481,-0.984077,74.1185192963055
1673611729.1179562,-0.996939,74.11092184957731
1673611729.118963,-0.988308,74.10333338753068
1673611729.11997,-1.009296,74.09574312854774
1673611729.1209772,-1.000425,74.0881528695648
1673611729.121984,-0.943088,74.08056440751815
1673611729.122991,-0.827429,74.07297414853521
1673611729.1239982,-0.795119,74.06538388955228
1673611729.125005,-0.842599,74.05779542750564
1673611729.126012,-0.895344,74.0502051685227
1673611729.1270192,-0.965806,74.04261490953975
1673611729.128026,-1.010906,74.03502644749312
1673611729.129033,-1.019705,74.02743618851018
1673611729.1300411,-1.020835,74.019838741782
1673611729.1310482,-0.955397,74.01224848279905
1673611729.132055,-0.912052,74.00466002075241
1673611729.1330621,-0.938641,74.01613907987601
1673611729.1340692,-0.981649,74.00717976781884
1673611729.135076,-0.981096,73.9752547665713
1673611729.1360831,-0.994294,73.98034039484979
1673611729.1370902,-0.98677,74.01252904339533
1673611729.138097,-0.949795,73.96439925840286
1673611729.1391041,-0.909071,73.9341898204578
1673611729.1401112,-0.859595,73.90160916452075
1673611729.141118,-0.767905,73.8796558
1673611729.1421251,-0.704991,73.90524956533143
1673611729.1431332,-0.67006,73.9269781888412
1673611729.14414,-0.681431,73.9154522705602
1673611729.145147,-0.818246,73.89722203290415
1673611729.1461542,-0.950997,73.83362246995708
1673611729.147161,-1.059228,73.85227200476871
1673611729.148168,-1.1351,73.84257127199047
1673611729.1491752,-1.104496,73.82435352670481
1673611729.150182,-1.034803,73.82177
1673611729.151189,-0.989679,73.82177
1673611729.1521962,-0.979966,73.81551154975342
1673611729.153203,-0.97047,73.80833548801264
1673611729.15421,-0.955349,73.8011577269913
1673611729.1552181,-0.916235,73.7939731688478
1673611729.1562252,-0.86123,73.78679540782647
1673611729.157232,-0.785839,73.7796193460857
1673611729.1582391,-0.737638,73.77244158506437
1673611729.1592462,-0.702058,73.76526382404305
1673611729.160253,-0.662511,73.75808776230225
1673611729.1612601,-0.626835,73.75091000128093
1673611729.1622672,-0.663112,73.7437322402596
1673611729.163274,-0.736388,73.73655617851882
1673611729.1642811,-0.851734,73.72937841749749
1673611729.1652882,-1.041606,73.72220065647616
1673611729.166295,-1.118632,73.71502459473538
1673611729.1673021,-1.101251,73.70784683371406
1673611729.1683102,-1.10089,73.70066227557055
1673611729.169317,-1.084567,73.69348621382976
1673611729.170324,-1.049924,73.68630845280843
1673611729.1713312,-0.982491,73.67913069178711
1673611729.172338,-0.87914,73.67195463004633
1673611729.173345,-0.888083,73.664776869025
1673611729.1743522,-1.00141,73.65759910800367
1673611729.175359,-1.099159,73.65042304626289
1673611729.176366,-1.075768,73.64324528524156
1673611729.1773732,-0.98826,73.63606752422024
1673611729.17838,-0.888997,73.62889146247944
1673611729.179387,-0.78168,73.62171370145812
1673611729.1803951,-0.675421,73.61452914331461
1673611729.1814022,-0.6916,73.60735138229329
1673611729.182409,-0.82101,73.60017532055251
1673611729.1834161,-1.0290570000000001,73.59299755953118
1673611729.1844232,-1.144644,73.58581979850985
1673611729.18543,-1.03925,73.57864373676907
1673611729.1864371,-0.928688,73.57146597574774
1673611729.1874442,-0.761125,73.56428821472642
1673611729.188451,-0.663304,73.55711215298562
1673611729.1894581,-0.656525,73.5499343919643
1673611729.1904652,-0.65828,73.542756630942975
1673611729.191472,-0.804927,73.5355805692022
1673611729.1924791,-0.94881,73.52840280818087
1673611729.1934872,-1.081538,73.52121825003736
1673611729.194494,-1.203784,73.51404218829657
1673611729.195501,-1.167675,73.50686442727525
1673611729.1965082,-1.108343,73.49968666625392
1673611729.197515,-1.076874,73.49251060451314
1673611729.198522,-0.955782,73.4853328434918
1673611729.1995292,-0.832309,73.47815508247048
1673611729.200536,-0.791897,73.4709790207297
1673611729.201543,-0.814447,73.46380125970838
1673611729.2025502,-0.839233,73.45662349868705
1673611729.203557,-0.824664,73.44944743694626
1673611729.204564,-0.772857,73.44226967592493
1673611729.2055721,-0.816899,73.43508511778143
1673611729.2065792,-0.871736,73.4279073567601
1673611729.207586,-0.92525,73.42379
1673611729.2085931,-1.011219,73.42379
1673611729.2096002,-0.887362,73.44784441392466
1673611729.210607,-0.548847,73.4536341659118
1673611729.2116141,-0.334622,73.42379
1673611729.2126212,-0.345633,73.43218754005723
1673611729.213628,-0.499372,73.407799947795
1673611729.2146351,-0.846902,73.36953
1673611729.2156422,-1.221502,73.3783032081545
1673611729.216649,-1.357956,73.3874122780677
1673611729.2176561,-1.287469,73.3870055913225
1673611729.2186642,-1.232176,73.3865985194573
1673611729.219671,-1.194624,73.3861919289921
1673611729.220678,-1.148491,73.38578524224691
1673611729.2216852,-1.112838,73.38537855550172
1673611729.222692,-1.039322,73.38497196503654
1673611729.223699,-0.954099,73.38456527829135
1673611729.2247062,-0.903109,73.38415859154615
1673611729.225713,-0.891689,73.38375200108096
1673611729.22672,-0.902892,73.38334531433577
1673611729.2277272,-0.902099,73.38293862759058
1673611729.228734,-0.886401,73.3825320371254
1673611729.229741,-0.861567,73.3821253503802
1673611729.2307491,-0.854066,73.38171827851498
1673611729.2317562,-0.858898,73.3813115917698
1673611729.232763,-0.839618,73.38090500130461
1673611729.2337701,-0.88995899999999994,73.38049831455942
1673611729.2347772,-0.960013,73.38009162781422
1673611729.235784,-1.030692,73.37968503734903
1673611729.2367911,-1.060791,73.37927835060385
1673611729.2377982,-1.050093,73.37887166385866
1673611729.238805,-0.954507,73.37846507339347
1673611729.2398121,-0.888588,73.37805838664828
1673611729.2408192,-0.823823,73.37765169990308
1673611729.241826,-0.800263,73.37724510943791
1673611729.2428331,-0.857985,73.37683842269271
1673611729.2438412,-0.876448,73.37643135082749
1673611729.244848,-0.851157,73.37602476036231
1673611729.245855,-0.818654,73.37561807361712
1673611729.2468622,-0.796008,73.37521138687192
1673611729.247869,-0.852215,73.37480479640674
1673611729.248876,-0.924505,73.37439810966154
1673611729.2498832,-1.010378,73.37399142291636
1673611729.25089,-0.994343,73.37358483245117
1673611729.251897,-0.833319,73.37317814570598
1673611729.2529042,-0.650827,73.37277145896078
1673611729.253911,-0.708164,73.3723648684956
1673611729.254918,-0.81238,73.37195818175041
1673611729.2559261,-0.94554,73.37155110988519
1673611729.2569332,-1.082788,73.37114442314
1673611729.25794,-1.120772,73.37073783267482
1673611729.2589471,-1.141495,73.37033114592963
1673611729.2599542,-1.031437,73.36992445918443
1673611729.260961,-0.957561,73.37278739113863
1673611729.2619681,-0.94328,73.47740257020263
1673611729.2629752,-0.899791,73.46231099499285
1673611729.263982,-0.88116,73.514236
1673611729.2649891,-0.911042,73.65894770576341
1673611729.2659962,-0.929649,73.7479035335019
1673611729.267003,-0.931164,73.81852825537838
1673611729.2680101,-0.955397,73.81770036476239
1673611729.2690182,-0.961479,73.83539500303414
1673611729.270025,-0.916475,73.69799368353893
1673611729.271032,-0.844378,73.72884711756058
1673611729.2720392,-0.759466,73.75970055158223
1673611729.273046,-0.739873,73.79054668128711
1673611729.274053,-0.793676,73.82140011530876
1673611729.2750602,-0.794998,73.8522535493304
1673611729.276067,-0.781656,73.88309967903528
1673611729.277074,-0.899406,73.91395311305693
1673611729.2780812,-1.041101,73.94480654707858
1673611729.279088,-1.053891,73.97565267678347
1673611729.280095,-1.048241,74.00650611080512
1673611729.2811031,-1.018503,74.03738876209383
1673611729.2821102,-0.9973,74.06824219611548
1673611729.283117,-0.998261,74.09908832582036
1673611729.2841241,-0.987972,74.12994175984201
1673611729.2851312,-0.978957,74.16079519386366
1673611729.286138,-0.948113,74.19164132356855
1673611729.2871451,-0.851422,74.22249475759018
1673611729.2881522,-0.711506,74.25334819161183
1673611729.289159,-0.676094,74.28419432131672
1673611729.2901661,-0.745956,74.31504775533837
1673611729.2911732,-0.816923,74.34590118936002
1673611729.29218,-0.842863,74.3767473190649
1673611729.2931871,-0.909936,74.40760075308654
1673611729.2941952,-0.879669,74.43848340437526
1673611729.295202,-0.886665,74.46932953408015
1673611729.296209,-0.918374,74.5001829681018
1673611729.2972162,-0.918975,74.53103640212345
1673611729.298223,-0.931789,74.56188253182832
1673611729.29923,-0.941333,74.59273596584997
1673611729.3002372,-0.967225,74.62358939987162
1673611729.301244,-0.989847,74.6544355295765
1673611729.302251,-0.93816,74.68528896359815
1673611729.3032582,-0.83279,74.7161423976198
1673611729.304265,-0.847767,74.74698852732469
1673611729.305272,-0.915177,74.77784196134633
1673611729.3062801,-0.914768,74.80872461263505
1673611729.3072872,-0.819856,74.8395780466567
1673611729.308294,-0.830362,74.87042417636158
1673611729.3093011,-0.867649,74.90127761038323
1673611729.3103082,-0.87176,74.93213104440487
1673611729.311315,-0.857985,74.96297717410975
1673611729.3123221,-0.921067,74.9938306081314
1673611729.3133292,-1.046631,75.02468404215305
1673611729.314336,-1.063459,75.05553017185794
1673611729.3153431,-0.990977,75.08638360587959
1673611729.3163502,-0.943809,75.11923959084406
1673611729.317357,-0.926548,75.15566494183551
1673611729.318365,-0.923183,75.18532970553171
1673611729.3193722,-0.904936,75.1688922267525
1673611729.320379,-0.861519,75.18776675822605
1673611729.321386,-0.815553,75.29424785554231
1673611729.3223932,-0.808774,75.32709140844064
1673611729.3234,-0.847767,75.36687172627563
1673611729.324407,-0.847479,75.39265204791418
1673611729.3254142,-0.826275,75.43648402025433
1673611729.326421,-0.775862,75.49043804467051
1673611729.327428,-0.703428,75.54440484531791
1673611729.3284352,-0.686119,75.59837164596532
1673611729.329442,-0.799037,75.6523256703815
1673611729.330449,-0.994222,75.7062924710289
1673611729.3314571,-1.101635,75.76031037660115
1673611729.3324642,-1.138394,75.81427717724856
1673611729.333471,-1.056439,75.86823120166474
1673611729.3344781,-0.954748,75.92219800231213
1673611729.3354852,-0.945733,75.97616480295953
1673611729.336492,-0.989054,76.03011882737572
1673611729.3374991,-0.998598,76.08408562802312
1673611729.3385062,-0.975952,76.13805242867052
1673611729.339513,-0.939097,76.1920064530867
1673611729.3405201,-0.918663,76.2459732537341
1673611729.3415272,-0.908638,76.2999400543815
1673611729.342534,-0.893925,76.35389407879768
1673611729.343542,-0.881953,76.40791198436993
1673611729.3445492,-0.879958,76.46187878501733
1673611729.345556,-0.883516,76.51583280943352
1673611729.346563,-0.903686,76.56979961008092
1673611729.3475702,-0.922029,76.62376641072832
1673611729.348577,-0.927654,76.67772043514451
1673611729.349584,-0.890632,76.73168723579191
1673611729.3505912,-0.865101,76.7856540364393
1673611729.351598,-0.842839,76.83960806085548
1673611729.352605,-0.845123,76.89357486150288
1673611729.3536122,-0.855581,76.94754166215029
1673611729.354619,-0.906787,77.00149568656647
1673611729.355626,-0.94203,77.05546248721387
1673611729.3566341,-0.954003,77.10948039278612
1673611729.3576412,-0.956695,77.16344719343353
1673611729.358648,-0.9215,77.21740121784971
1673611729.3596551,-0.892579,77.2713680184971
1673611729.3606622,-0.878539,77.3253348191445
1673611729.361669,-0.848681,77.37928884356069
1673611729.3626761,-0.81589,77.43325564420809
1673611729.3636832,-0.758817,77.48722244485549
1673611729.36469,-0.736027,77.54117646927168
1673611729.3656971,-0.730089,77.59514326991908
1673611729.3667042,-0.733046,77.64911007056646
1673611729.367711,-0.778098,77.70306409498265
1673611729.368719,-0.898902,77.75708200055492
1673611729.3697262,-0.952873,77.8110488012023
1673611729.370733,-0.966383,77.86500282561849
1673611729.37174,-0.992948,77.91896962626589
1673611729.3727472,-1.048145,77.9729364269133
1673611729.373754,-1.078124,78.02689045132948
1673611729.374761,-1.046006,78.08085725197688
1673611729.3757682,-0.876712,78.13482405262428
1673611729.376775,-0.793412,78.18877807704047
1673611729.377782,-0.736748,78.24274487768785
1673611729.3787892,-0.645322,78.29671167833526
1673611729.379796,-0.57923500000000006,78.35066570275144
1673611729.380803,-0.591591,78.40463250339884
1673611729.3818111,-0.609838,78.45480777353993
1673611729.3828182,-0.632436,78.47718974821173
1673611729.383825,-0.866519,78.52962360324274
1673611729.3848321,-1.061247,78.56605237854589
1673611729.3858392,-1.099255,78.59509423915117
1673611729.386846,-1.084543,78.58464367954221
1673611729.3878531,-1.065142,78.62379830512515
1673611729.3888602,-0.951911,78.66993
1673611729.389867,-0.813437,78.66993
1673611729.3908741,-0.714342,78.66972457348292
1673611729.3918812,-0.639769,78.66851604756637
1673611729.392888,-0.7248,78.66730780775916
1673611729.3949032,-1.11743,78.66488961148862
1673611729.39591,-1.133657,78.6636813716814
1673611729.396917,-1.125219,78.66247284576485
1673611729.3979242,-1.135557,78.66126431984829
1673611729.398931,-1.051727,78.66005608004109
1673611729.399938,-0.974774,78.65884755412452
1673611729.4009452,-0.92412,78.65763902820797
1673611729.401952,-0.921812,78.65643078840075
1673611729.402959,-0.928544,78.6552222624842
1673611729.4039662,-0.924673,78.65401373656763
1673611729.404973,-0.885295,78.65280549676044
1673611729.40598,-0.884646,78.65870306819265
1673611729.4069881,-0.92977,78.688019
1673611729.4079952,-0.972658,78.688019
1673611729.409002,-0.942655,78.69177347747886
1673611729.4100091,-0.866255,78.70961252457754
1673611729.4110162,-0.843777,78.72745157167621
1673611729.412023,-0.874164,78.74528639551563
1673611729.4130301,-0.863177,78.76312544261431
1673611729.4140372,-0.854787,78.780964489713
1673611729.415044,-0.865942,78.79879931355242
1673611729.4160511,-0.782666,78.8166383606511
1673611729.4170582,-0.646163,78.83447740774977
1673611729.418065,-0.559545,78.8523122315892
1673611729.419073,-0.563704,78.8701681717249
1673611729.4200802,-0.771775,78.88800721882357
1673611729.421087,-1.098582,78.905842042663
1673611729.422094,-1.181258,78.92368108976167
1673611729.4231012,-1.127599,78.94152013686035
1673611729.424108,-1.052112,78.95935496069977
1673611729.425115,-0.977105,78.97719400779845
1673611729.4261222,-0.956935,78.99503305489712
1673611729.427129,-0.958306,79.01286787873654
1673611729.428136,-0.927245,79.03070692583522
1673611729.4291432,-0.849018,79.04854597293391
1673611729.43015,-0.761919,79.06638079677333
1673611729.431157,-0.763601,79.084219843872
1673611729.4321651,-0.879333,79.10207578400771
1673611729.4331722,-0.939362,79.11991483110639
1673611729.434179,-0.976432,79.13774965494581
1673611729.4351861,-1.006363,79.15558870204448
1673611729.4361932,-0.982683,79.17342774914316
1673611729.4372,-0.942535,79.19126257298258
1673611729.4382071,-0.934409,79.20910162008126
1673611729.4392142,-0.925947,79.22694066717993
1673611729.440221,-0.904239,79.24477549101935
1673611729.4412282,-0.921091,79.26261453811803
1673611729.4422352,-0.971071,79.28045358521672
1673611729.443242,-0.943353,79.29828840905614
1673611729.44425,-0.809759,79.31614434919183
1673611729.4452572,-0.697394,79.33398339629052
1673611729.446264,-0.678546,79.35181822012994
1673611729.447271,-0.67369,79.36965726722862
1673611729.4482782,-0.651693,79.3874963143273
1673611729.449285,-0.800215,79.40533113816672
1673611729.450292,-0.918807,79.42317018526539
1673611729.4512992,-0.994607,79.44100923236407
1673611729.452306,-1.076104,79.45884405620349
1673611729.453313,-1.123536,79.47668310330216
1673611729.4543202,-1.076633,79.49452215040084
1673611729.455327,-0.962297,79.51235697424026
1673611729.456334,-0.85147,79.53019602133894
1673611729.4573421,-0.831372,79.56824489090043
1673611729.4583492,-0.845772,79.60263804147796
1673611729.459356,-0.852287,79.63109000476872
1673611729.4603631,-0.874549,79.6779255293556
1673611729.4613702,-0.90508,79.7220630495356
1673611729.462377,-0.867769,79.737236
1673611729.4633842,-0.790431,79.76952078186157
1673611729.4643912,-0.769732,79.80240083234104
1673611729.465398,-0.764106,79.79860968097282
1673611729.4664052,-0.73795,79.791519
1673611729.4674122,-0.842022,79.791519
1673611729.468419,-0.911643,79.791519
1673611729.469427,-0.859163,79.791519
1673611729.4704342,-0.914264,79.791519
1673611729.471441,-0.951118,79.791519
1673611729.472448,-0.895199,79.791519
1673611729.4734552,-0.818799,79.791519
1673611729.474462,-0.901426,79.791519
1673611729.475469,-0.933929,79.791519
1673611729.4764762,-0.859571,79.791519
1673611729.477483,-0.732301,79.791519
1673611729.47849,-0.606376,79.791519
1673611729.4794972,-0.664194,79.791519
1673611729.480504,-0.877746,79.791519
1673611729.481511,-1.05704,79.791519
1673611729.4825191,-1.119185,79.791519
1673611729.4835262,-1.073147,79.791519
1673611729.484533,-1.019874,79.791519
1673611729.4855402,-1.009176,79.791519
1673611729.4865472,-0.992588,79.791519
1673611729.487554,-0.925515,79.791519
1673611729.4885612,-0.8413,79.791519
1673611729.4895682,-0.783267,79.791519
1673611729.490575,-0.768987,79.791519
1673611729.4915822,-0.864548,79.791519
1673611729.4925892,-1.002516,79.791519
1673611729.493596,-1.024273,79.791519
1673611729.494604,-1.011195,79.791519
1673611729.4956112,-0.963066,79.791519
1673611729.496618,-0.926284,79.791519
1673611729.497625,-0.889261,79.791519
1673611729.4986322,-0.88096699999999994,79.791519
1673611729.499639,-0.859163,79.791519
1673611729.500646,-0.824208,79.791519
1673611729.5016532,-0.844041,79.791519
1673611729.50266,-0.834954,79.791519
1673611729.503667,-0.80334,79.791519
1673611729.5046742,-0.778098,79.791519
1673611729.505681,-0.801489,79.791519
1673611729.506688,-0.850051,79.791519
1673611729.5076962,-0.897291,79.791519
1673611729.5087032,-0.932246,79.791519
1673611729.50971,-0.955301,79.791519
1673611729.5107172,-0.884285,79.791519
1673611729.5117242,-0.80637,79.791519
1673611729.512731,-0.831877,79.81099243337306
1673611729.5137382,-0.88616,79.85888146924178
1673611729.5147452,-0.859884,79.85091092274678
1673611729.515752,-0.856783,79.8743717909416
1673611729.5167592,-0.848945,79.91617753886504
1673611729.5177662,-0.843849,79.954323
1673611729.518773,-0.848777,79.93744105959476
1673611729.519781,-0.922918,79.90582588268956
1673611729.5207882,-0.921692,79.92994487553648
1673611729.521795,-0.919985,79.95287120324096
1673611729.522802,-0.937463,79.94848151855217
1673611729.5238092,-0.9597,79.9440918338634
1673611729.524816,-0.967129,79.93970318839922
1673611729.525823,-0.942824,79.93531350371043
1673611729.5268302,-0.90294,79.93092381902166
1673611729.527837,-0.872313,79.92653517355748
1673611729.528844,-0.891353,79.9221454888687
1673611729.5298512,-0.862648,79.91775580417992
1673611729.530858,-0.818294,79.91336715871574
1673611729.5318651,-0.800624,79.90897747402695
1673611729.5328732,-0.779516,79.9045836324398
1673611729.5338802,-0.78144,79.90019394775102
1673611729.534887,-0.840219,79.89580530228685
1673611729.5358942,-0.860196,79.89141561759806
1673611729.5369012,-0.891762,79.88702593290928
1673611729.537908,-0.972971,79.8826372874451
1673611729.5389152,-0.966648,79.87824760275632
1673611729.5399222,-0.962729,79.87385791806754
1673611729.540929,-0.881881,79.86946927260337
1673611729.5419362,-0.759274,79.86507958791458
1673611729.542943,-0.760909,79.8606909424504
1673611729.54395,-0.802066,79.85630125776163
1673611729.544958,-0.822741,79.85190741617447
1673611729.5459652,-0.948954,79.8475177314857
1673611729.546972,-1.022518,79.8431290860215
1673611729.547979,-1.029514,79.83873940133273
1673611729.5489862,-1.018359,79.83434971664396
1673611729.549993,-0.956214,79.82996107117977
1673611729.551,-0.832021,79.82557138649099
1673611729.5520072,-0.557742,79.82118170180222
1673611729.553014,-0.335584,79.81679305633803
1673611729.5540211,-0.321279,79.81240337164925
1673611729.5550282,-0.432227,79.80801368696048
1673611729.556035,-0.540722,79.80362504149629
1673611729.5570421,-0.89092,79.79923535680751
1673611729.5580502,-1.265544,79.79484151522036
1673611729.5590572,-1.232416,79.79045183053158
1673611729.560064,-1.018239,79.78606318506739
1673611729.5610712,-0.874933,79.78167350037862
1673611729.5620782,-0.868082,79.77728381568984
1673611729.563085,-0.912388,79.77289517022565
1673611729.5640922,-0.934986,79.76850548553688
1673611729.565099,-0.986698,79.76411684007269
1673611729.566106,-0.966648,79.75972715538391
1673611729.5671132,-0.913158,79.75533747069514
1673611729.56812,-0.840531,79.70091039070323
1673611729.569127,-0.8313,79.66468059895088
1673611729.570135,-0.955806,79.6460998903195
1673611729.5711422,-1.023167,79.610611
1673611729.572149,-1.019753,79.60941222026223
1673611729.573156,-0.973692,79.57588123032905
1673611729.5741632,-0.969989,79.610611
1673611729.57517,-0.941742,79.61158983265793
1673611729.5761771,-0.892146,79.6287
1673611729.5771842,-0.874549,79.6287
1673611729.578191,-0.878107,79.6287
1673611729.5791981,-0.888276,79.6287
1673611729.5802052,-0.878684,79.6287
1673611729.581212,-0.862721,79.6287
1673611729.5822191,-0.843128,79.61134853433477
1673611729.5832272,-0.820602,79.48813698808105
1673611729.5842342,-0.845171,79.6425972360515
1673611729.585241,-0.874669,79.64679
1673611729.5862482,-0.876472,79.7004101942789
1673611729.587255,-0.84457,79.68305857439199
1673611729.588262,-0.863033,79.70109581048868
1673611729.5892692,-0.895945,79.71931089651885
1673611729.590276,-0.893973,79.7375662530526
1673611729.591283,-0.884357,79.75838698281684
1673611729.5922902,-0.87777,79.7792077125811
1673611729.593297,-0.933063,79.80002351319531
1673611729.594304,-0.966744,79.82084424295957
1673611729.595312,-0.941766,79.84168468932397
1673611729.5963192,-0.872842,79.86250541908822
1673611729.597326,-0.847815,79.88332121970242
1673611729.5983331,-0.875606,79.90414194946668
1673611729.5993402,-0.905681,79.92496267923093
1673611729.600347,-0.934001,79.94577847984513
1673611729.6013541,-0.927534,79.96659920960938
1673611729.6023612,-0.891834,79.98741993937364
1673611729.603368,-0.864452,80.00823573998785
1673611729.6043751,-0.87676,80.02905646975209
1673611729.6053822,-0.897868,80.04987719951635
1673611729.606389,-0.876111,80.07069300013056
1673611729.6073961,-0.87176,80.09151372989481
1673611729.6084042,-0.843488,80.11235417625922
1673611729.609411,-0.823198,80.13316997687342
1673611729.610418,-0.822549,80.15399070663767
1673611729.6114252,-0.88229,80.17481143640192
1673611729.612432,-0.99167400000000006,80.19562723701614
1673611729.613439,-0.982034,80.21644796678038
1673611729.6144462,-0.92412,80.23726869654463
1673611729.615453,-0.898252,80.25808449715885
1673611729.61646,-0.835988,80.2789052269231
1673611729.6174672,-0.806898,80.29972595668734
1673611729.618474,-0.806418,80.32054175730156
1673611729.619481,-0.815241,80.34136248706581
1673611729.6204891,-0.846373,80.36220293343021
1673611729.6214962,-0.912581,80.38302366319446
1673611729.622503,-0.959676,80.40383946380867
1673611729.6235101,-0.913687,80.42466019357292
1673611729.6245172,-0.832117,80.44548092333717
1673611729.625524,-0.755812,80.46629672395139
1673611729.6265311,-0.63936,80.48711745371563
1673611729.6275382,-0.648111,80.50793818347988
1673611729.628545,-0.75711,80.5287539840941
1673611729.6295521,-0.832502,80.54957471385835
1673611729.6305592,-0.852575,80.57039544362259
1673611729.631566,-0.787955,80.5912112442368
1673611729.6325731,-0.741725,80.61122806509299
1673611729.6335812,-0.741316,80.62947470028612
1673611729.634588,-0.805672,80.64768736448153
1673611729.635595,-0.92162,80.65378314186934
1673611729.6366022,-0.974774,80.65413284239389
