measure_time,emg_ch_1,grip_force_inter
1673611762.100842,-0.804542,-0.130658
1673611762.1018488,-0.824833,-0.11268610441001191
1673611762.102856,-0.833872,-0.13090815784453982
1673611762.103863,-0.825915,-0.14836745016690508
1673611762.1048698,-0.819977,-0.1311625084624553
1673611762.105877,-0.813678,-0.148747
1673611762.106884,-0.810553,-0.15102429899856937
1673611762.1078908,-0.796465,-0.2021298214115403
1673611762.108898,-0.782017,-0.1828983420738975
1673611762.109906,-0.780021,-0.15105880352885073
1673611762.1109128,-0.792041,-0.18620598068669528
1673611762.1119199,-0.819808,-0.1987838905840286
1673611762.112927,-0.822573,-0.14721154840247971
1673611762.1139338,-0.806754,-0.13397906103958035
1673611762.114941,-0.797571,-0.166836
1673611762.115948,-0.808702,-0.16492099856938486
1673611762.1169548,-0.813173,-0.15078708035288507
1673611762.117962,-0.809278,-0.15815715116833573
1673611762.118969,-0.807716,-0.10596459809296782
1673611762.1199758,-0.819207,-0.18411845057419501
1673611762.120983,-0.821924,-0.1780456078387221
1673611762.121991,-0.824352,-0.1719670143052042
1673611762.122998,-0.82654,-0.16589417156973124
1673611762.1240048,-0.82827,-0.15982276653376956
1673611762.125012,-0.827766,-0.15374992379829663
1673611762.126019,-0.824184,-0.14767708106282368
1673611762.1270258,-0.817332,-0.141605676026862
1673611762.128033,-0.814303,-0.13553283329138907
1673611762.12904,-0.810889,-0.12945999055591612
1673611762.1300468,-0.804975,-0.12338858551995444
1673611762.131054,-0.803773,-0.11731574278448151
1673611762.132061,-0.800985,-0.11124290004900858
1673611762.1330678,-0.794518,-0.10517149501304689
1673611762.134075,-0.78656,-0.09909865227757395
1673611762.135083,-0.781031,-0.09302005874405607
1673611762.1360898,-0.780742,-0.08694865370809436
1673611762.137097,-0.781944,-0.08087581097262143
1673611762.138104,-0.785286,-0.076383
1673611762.1391108,-0.796489,-0.06666134859322842
1673611762.140118,-0.802571,-0.040205
1673611762.141125,-0.815769,-0.055563829041487836
1673611762.1421318,-0.821371,-0.09971543837902265
1673611762.143139,-0.818582,-0.0964516974248927
1673611762.144146,-0.821635,-0.058294
1673611762.1451528,-0.831901,-0.058294
1673611762.14616,-0.838632,-0.06979263471626132
1673611762.147168,-0.834088,-0.09304499791094388
1673611762.148175,-0.824184,-0.08863559277255835
1673611762.1491818,-0.818726,-0.08422723152743473
1673611762.150189,-0.805432,-0.07981782638904919
1673611762.151196,-0.794421,-0.07540842125066366
1673611762.1522028,-0.782473,-0.07100006000554004
1673611762.15321,-0.771006,-0.0665906548671545
1673611762.154217,-0.777809,-0.062181249728768956
1673611762.1552238,-0.803413,-0.05777288848364535
1673611762.156231,-0.824448,-0.05336348334525981
1673611762.157238,-0.824664,-0.048954078206874266
1673611762.1582448,-0.813029,-0.04454571696175065
1673611762.159252,-0.812428,-0.04013631182336511
1673611762.16026,-0.812211,-0.03572273111193186
1673611762.1612668,-0.814255,-0.031314369866808245
1673611762.162274,-0.820097,-0.0269049647284227
1673611762.163281,-0.82327,-0.02249555959003717
1673611762.1642878,-0.82315,-0.018087198344913555
1673611762.165295,-0.822669,-0.01367779320652801
1673611762.166302,-0.816803,-0.009268388068142466
1673611762.1673088,-0.809879,-0.004860026823018851
1673611762.168316,-0.803653,-0.048356695278969956
1673611762.169323,-0.800047,-0.04338804291845493
1673611762.1703298,-0.799422,-0.055232452920143026
1673611762.171337,-0.78769,-0.058294
1673611762.172345,-0.763457,-0.058294
1673611762.173352,-0.740763,-0.08915094493444577
1673611762.1743588,-0.747182,-0.094472
1673611762.175366,-0.777377,-0.07878969098712446
1673611762.176373,-0.786272,-0.06057129899856939
1673611762.1773798,-0.783315,-0.058294
1673611762.178387,-0.7843,-0.058294
1673611762.179394,-0.803701,-0.1392574148783977
1673611762.1804008,-0.817837,-0.13243455971394516
1673611762.181408,-0.811659,-0.16354081735813067
1673611762.182415,-0.796273,-0.13369439866475918
1673611762.1834219,-0.785863,-0.11395871823599522
1673611762.184429,-0.780454,-0.112561
1673611762.185437,-0.785599,-0.112561
1673611762.1864438,-0.794782,-0.044206571394517266
1673611762.187451,-0.804591,-0.07464052122079161
1673611762.188458,-0.817765,-0.07746711625862404
1673611762.1894648,-0.817476,-0.0786054113755234
1673611762.190472,-0.806177,-0.07974397603898137
1673611762.191479,-0.811442,-0.08088254070243932
1673611762.1924858,-0.824352,-0.0820208358193387
1673611762.193493,-0.825963,-0.08315940048279664
1673611762.1945,-0.820578,-0.08429796514625461
1673611762.1955068,-0.826419,-0.08543626026315398
1673611762.196514,-0.83404,-0.08657482492661193
1673611762.197522,-0.821323,-0.08771446777630422
1673611762.198529,-0.81702,-0.08885303243976218
1673611762.1995358,-0.826996,-0.08999132755666156
1673611762.200543,-0.831636,-0.09112989222011951
1673611762.20155,-0.83154,-0.09226845688357746
1673611762.2025568,-0.820626,-0.09340675200047684
1673611762.203564,-0.807427,-0.09564515402956604
1673611762.204571,-0.800263,-0.10995590796375775
1673611762.2055779,-0.801177,-0.07923756924910608
1673611762.206585,-0.807043,-0.10479748068669527
1673611762.207592,-0.803076,-0.02716228755364807
1673611762.2085989,-0.799302,-0.07457582522651407
1673611762.209606,-0.802619,-0.06603927675804529
1673611762.210614,-0.806706,-0.12857818264186932
1673611762.2116208,-0.805095,-0.10815304625655699
1673611762.212628,-0.806778,-0.07648505067000366
1673611762.213635,-0.802235,-0.07728183815631681
1673611762.2146418,-0.796248,-0.07807843700922885
1673611762.215649,-0.787354,-0.078875224495542
1673611762.216656,-0.786584,-0.07967201198185515
1673611762.2176628,-0.78769,-0.0804686108347672
1673611762.21867,-0.793772,-0.08126539832108036
1673611762.219677,-0.809471,-0.08206218580739351
1673611762.2206838,-0.811394,-0.08285878466030555
1673611762.221691,-0.810384,-0.0836555721466187
1673611762.222699,-0.827429,-0.08445311416653632
1673611762.223706,-0.840627,-0.08524990165284947
1673611762.2247128,-0.838969,-0.08604650050576151
1673611762.22572,-0.835242,-0.08684328799207466
1673611762.226727,-0.828847,-0.08764007547838783
1673611762.2277339,-0.816731,-0.08843667433129987
1673611762.228741,-0.807403,-0.08923346181761302
1673611762.229748,-0.803773,-0.09003024930392617
1673611762.2307549,-0.806658,-0.09082684815683821
1673611762.231762,-0.796585,-0.09162363564315136
1673611762.232769,-0.782906,-0.09242042312946452
1673611762.2337759,-0.770357,-0.09321702198237655
1673611762.234783,-0.769275,-0.09401380946868972
1673611762.235791,-0.766342,-0.0634351750119218
1673611762.2367978,-0.763722,-0.03788457033857892
1673611762.237805,-0.76877,-0.018231179499404046
1673611762.238812,-0.781536,0.024017194563662372
1673611762.2398188,-0.789349,0.022329946590367192
1673611762.240826,-0.795744,0.006982146364719905
1673611762.241833,-0.796537,-0.005079388173581306
1673611762.2428398,-0.802667,-0.011868154506437764
1673611762.243847,-0.80800399999999994,-0.013892943265792608
1673611762.244854,-0.805119,0.018510941008174388
1673611762.2458608,-0.802138,0.02761800735694823
1673611762.246868,-0.784805,0.03672723024523161
1673611762.247876,-0.758505,0.04584507929155314
1673611762.248883,-0.7317,0.05495430217983652
1673611762.2498899,-0.719391,0.06406136852861037
1673611762.250897,-0.718525,0.07317059141689375
1673611762.251904,-0.743455,0.08227981430517713
1673611762.2529109,-0.786079,0.09138688065395097
1673611762.253918,-0.782858,0.10049610354223436
1673611762.254925,-0.755091,0.10960532643051774
1673611762.2559319,-0.747446,0.11871239277929158
1673611762.256939,-0.755692,0.12782161566757497
1673611762.257946,-0.775622,0.13693083855585833
1673611762.2589529,-0.789084,0.119318443490701
1673611762.25996,-0.785118,0.11533317024320458
1673611762.260968,-0.780069,0.1335662009535161
1673611762.2619748,-0.793724,0.140694
1673611762.262982,-0.804446,0.163126904148784
1673611762.263989,-0.784132,0.16553432419547082
1673611762.2649958,-0.780983,0.14731886981402004
1673611762.266003,-0.7981,0.15228752217453506
1673611762.26701,-0.810961,0.158783
1673611762.2680168,-0.811899,0.16637130487246068
1673611762.269024,-0.803893,0.17804391950511686
1673611762.270031,-0.778314,0.18971653413777304
1673611762.2710378,-0.748768,0.20138638536734382
1673611762.272045,-0.750283,0.213059
1673611762.273053,-0.775165,0.21377065593705294
1673611762.27406,-0.801994,0.3036426345774884
1673611762.2750669,-0.812548,0.3129355523669114
1673611762.276074,-0.820818,0.3222306707051834
1673611762.277081,-0.82226,0.3315257890434554
1673611762.2780879,-0.797451,0.3408187068328784
1673611762.279095,-0.764827,0.35011382517115036
1673611762.280102,-0.74723,0.3594089435094224
1673611762.2811089,-0.738046,0.36870186129884536
1673611762.282116,-0.732661,0.37799697963711737
1673611762.283123,-0.746052,0.3872920979753894
1673611762.2841299,-0.776583,0.3965850157648123
1673611762.285138,-0.80096,0.40588893629848044
1673611762.286145,-0.823366,0.41518405463675245
1673611762.2871518,-0.845099,0.42447697242617544
1673611762.288159,-0.829977,0.43377209076444745
1673611762.289166,-0.807499,0.4430672091027194
1673611762.2901728,-0.785262,0.4523601268921424
1673611762.29118,-0.78079,0.46165524523041435
1673611762.292187,-0.778074,0.47095036356868636
1673611762.2931938,-0.751822,0.48024328135810934
1673611762.294201,-0.723117,0.48953839969638135
1673611762.295208,-0.696793,0.49883351803465337
1673611762.2962148,-0.678065,0.5081264358240764
1673611762.297222,-0.673642,0.5174215541623484
1673611762.29823,-0.656092,0.5267254746960164
1673611762.299237,-0.667247,0.5360205930342885
1673611762.3002439,-0.725064,0.5453135108237115
1673611762.301251,-0.767208,0.5546086291619834
1673611762.302258,-0.794974,0.5639037475002554
1673611762.3032649,-0.795744,0.5731966652896784
1673611762.304272,-0.766222,0.5824917836279504
1673611762.305279,-0.752254,0.5917869019662223
1673611762.3062859,-0.742638,0.6010798197556454
1673611762.307293,-0.768602,0.6103749380939174
1673611762.3083,-0.803725,0.6196700564321894
1673611762.3093069,-0.854403,0.6289629742216123
1673611762.310315,-0.886761,0.6382668947552805
1673611762.311322,-0.881833,0.6475620130935524
1673611762.3123288,-0.864115,0.6568549308829754
1673611762.313336,-0.8388,0.6661500492212474
1673611762.314343,-0.821683,0.6754451675595194
1673611762.3153498,-0.818077,0.6847380853489424
1673611762.316357,-0.829064,0.6940332036872143
1673611762.317364,-0.831396,0.7033283220254865
1673611762.3183708,-0.833175,0.7126212398149094
1673611762.319378,-0.827814,0.7219163581531813
1673611762.320385,-0.821948,0.7312114764914535
1673611762.3213918,-0.825073,0.7405043942808764
1673611762.322399,-0.79572,0.7497995126191483
1673611762.323407,-0.725449,0.755763
1673611762.324414,-0.669867,0.7624380350417163
1673611762.3254209,-0.649361,0.7670546075345732
1673611762.326428,-0.642894,0.7626963971360382
1673611762.327435,-0.667343,0.7667853111005241
1673611762.3284419,-0.733599,0.7701220870083433
1673611762.329449,-0.794998,0.8065536685741536
1673611762.330456,-0.819568,0.8504298783977111
1673611762.3314629,-0.884045,0.8597142305125149
1673611762.33247,-0.92049,0.8335208336777437
1673611762.333477,-0.905657,0.8463251801731361
1673611762.3344839,-0.873347,0.8591264953364982
1673611762.335492,-0.854018,0.8719429671600112
1673611762.336499,-0.83517,0.8880387811416016
1673611762.3375058,-0.834281,0.9187522962975083
1673611762.338513,-0.828992,0.9494730843672573
1673611762.33952,-0.798412,0.9801938724370063
1673611762.3405268,-0.779877,1.0109073875929129
1673611762.341534,-0.773266,1.041628175662662
1673611762.342541,-0.767448,1.0723489637324108
1673611762.3435478,-0.760957,1.1030624788883174
1673611762.344555,-0.721795,1.1337832669580665
1673611762.345562,-0.671166,1.1645040550278154
1673611762.3465688,-0.635105,1.195217570183722
1673611762.347576,-0.670444,1.225938358253471
1673611762.348584,-0.733623,1.256688237978589
1673611762.349591,-0.766679,1.287409026048338
1673611762.3505979,-0.756798,1.3181225412042448
1673611762.351605,-0.741244,1.3488433292739936
1673611762.352612,-0.726723,1.3795641173437427
1673611762.3536189,-0.720425,1.4102776324996493
1673611762.354626,-0.66328,1.4409984205693984
1673611762.355633,-0.634985,1.4717192086391473
1673611762.3566399,-0.665107,1.5024327237950539
1673611762.357647,-0.726964,1.533153511864803
1673611762.358654,-0.728646,1.5638742999345518
1673611762.3596609,-0.717972,1.5945878150904584
1673611762.360669,-0.730642,1.6253376948155767
1673611762.361676,-0.751172,1.6560584828853255
1673611762.3626828,-0.79697,1.6867719980412321
1673611762.36369,-0.856302,1.7174927861109812
1673611762.364697,-0.916956,1.7482135741807303
1673611762.3657038,-0.930948,1.7789270893366367
1673611762.366711,-0.941093,1.8096478774063858
1673611762.367718,-0.94203,1.8403686654761349
1673611762.3687248,-0.870462,1.8710821806320417
1673611762.369732,-0.776271,1.9018029687017903
1673611762.370739,-0.723117,1.9325237567715394
1673611762.3717458,-0.70963,1.963237271927446
1673611762.372753,-0.668641,1.9939580599971949
1673611762.373761,-0.613612,2.0247079397223127
1673611762.374768,-0.63133,2.055428727792062
1673611762.3757749,-0.640273,2.0861422429479686
1673611762.376782,-0.664554,2.1168630310177177
1673611762.377789,-0.711914,2.1475838190874663
1673611762.3787959,-0.730546,2.178297334243373
1673611762.379803,-0.770429,2.2090181223131222
1673611762.38081,-0.842166,2.2397389103828713
1673611762.3818169,-0.880655,2.270452425538778
1673611762.382824,-0.847046,2.301173213608527
1673611762.383831,-0.833247,2.3318940016782754
1673611762.3848379,-0.85659,2.3626075168341822
1673611762.385846,-0.861158,2.3933573965593005
1673611762.386853,-0.896498,2.4240781846290496
1673611762.3878598,-0.947175,2.4677623719599424
1673611762.388867,-0.903013,2.512416001430615
1673611762.389874,-0.820145,2.579239367580453
1673611762.3908808,-0.755957,2.690813210777301
1673611762.391888,-0.714366,2.78720120219361
1673611762.392895,-0.740426,2.860079999761564
1673611762.3939018,-0.785719,2.9116629721096543
1673611762.394909,-0.827189,2.9803842610872677
1673611762.395916,-0.83178,3.0823753726752505
1673611762.3969228,-0.816611,3.1713111215151275
1673611762.39793,-0.824785,3.246961277067163
1673611762.398938,-0.819135,3.3226830710240773
1673611762.399945,-0.811634,3.398333226576113
1673611762.4009519,-0.820049,3.473965472526929
1673611762.401959,-0.810913,3.549615628078964
1673611762.402966,-0.75925,3.625265783631
1673611762.4039729,-0.759899,3.7008980295818157
1673611762.40498,-0.798244,3.776548185133851
1673611762.405987,-0.814712,3.852198340685886
1673611762.4069939,-0.76651,3.927830586636702
1673611762.408001,-0.690831,4.003480742188738
1673611762.409008,-0.636884,4.079130897740773
1673611762.4100149,-0.617098,4.154763143691589
1673611762.411023,-0.675781,4.230484937648503
1673611762.41203,-0.742446,4.306135093200538
1673611762.4130368,-0.8125,4.381767339151354
1673611762.414044,-0.868707,4.45741749470339
1673611762.415051,-0.853249,4.5330676502554255
1673611762.4160578,-0.853778,4.608699896206241
1673611762.417065,-0.865269,4.684350051758276
1673611762.418072,-0.809158,4.760000207310312
1673611762.4190788,-0.806586,4.835632453261128
1673611762.420086,-0.813678,4.911282608813163
1673611762.421093,-0.685662,5.010225556509298
1673611762.4220998,-0.528677,5.119515660944206
1673611762.423107,-0.405445,5.215957886293206
1673611762.424115,-0.391406,5.346150628755365
1673611762.425122,-0.465763,5.5050401158798286
1673611762.4261289,-0.572215,5.589419097281831
1673611762.427136,-0.686287,5.737769242669844
1673611762.428143,-0.909095,5.892927416547448
1673611762.4291499,-1.036221,6.038648356223176
1673611762.430157,-1.062185,6.201599785790917
1673611762.431164,-1.126782,6.370110900822506
1673611762.4321709,-1.090745,6.53858212212421
1673611762.433178,-1.012373,6.707093237155799
1673611762.434185,-0.952127,6.900594400572246
1673611762.4351919,-0.892363,7.072163504530281
1673611762.4362,-0.848777,7.207205852646638
1673611762.437207,-0.804206,7.408073431466031
1673611762.4382138,-0.735113,7.5378729041487835
1673611762.439221,-0.724199,7.751660571292322
1673611762.440228,-0.781944,7.973421300357569
1673611762.4412348,-0.776103,8.19199195565093
1673611762.442242,-0.748047,8.380016205531712
1673611762.443249,-0.767232,8.618313596904938
1673611762.4442558,-0.791561,8.866681701915992
1673611762.445263,-0.790815,9.115108620117908
1673611762.44627,-0.764082,9.363535538319823
1673611762.4472768,-0.739272,9.611903643330878
1673611762.448284,-0.724439,9.860330561532793
1673611762.449292,-0.710352,10.108992732498159
1673611762.450299,-0.776728,10.357419650700074
1673611762.4513059,-0.909672,10.605787755711129
1673611762.452313,-0.895127,10.854214673913045
1673611762.45332,-0.764924,11.10264159211496
1673611762.4543269,-0.647654,11.390831127801622
1673611762.455334,-0.626594,11.682342590367192
1673611762.456341,-0.644721,11.973788770917759
1673611762.4573479,-0.692273,12.265228302813544
1673611762.458355,-0.80435,12.574086896995707
1673611762.459362,-0.885487,12.883825377682403
1673611762.4603689,-0.861903,13.123013314898689
1673611762.461377,-0.869404,13.484308597997138
1673611762.462384,-0.859908,13.795073690987126
1673611762.4633908,-0.799422,14.149910012983057
1673611762.464398,-0.71278,14.505371823392938
1673611762.465405,-0.707058,14.860833633802818
1673611762.4664118,-0.748768,15.216211291321976
1673611762.467419,-0.727444,15.571673101731855
1673611762.468426,-0.690951,15.927134912141737
1673611762.4694328,-0.741508,16.282512569660895
1673611762.47044,-0.841276,16.637974380070773
1673611762.471447,-0.86048500000000006,16.993436190480654
1673611762.4724538,-0.813846,17.348813847999814
1673611762.473461,-0.852575,17.704275658409692
1673611762.474469,-0.815241,18.060074080382464
1673611762.475476,-0.690085,18.41553589079234
1673611762.4764829,-0.657006,18.7709135483115
1673611762.47749,-0.681383,19.126375358721383
1673611762.478497,-0.675036,19.48183716913126
1673611762.4795039,-0.6822,19.83721482665042
1673611762.480511,-0.795575,20.192676637060302
1673611762.481518,-0.806514,20.54813844747018
1673611762.4825249,-0.80225900000000006,20.90351610498934
1673611762.483532,-0.88116,21.251704092989986
1673611762.484539,-0.915922,21.511420170679383
1673611762.4855459,-0.870269,21.820819343109203
1673611762.486554,-0.826996,22.090403123748214
1673611762.487561,-0.912845,22.419468385312353
1673611762.4885678,-0.970831,22.750567406436232
1673611762.489575,-0.897171,23.033356634477826
1673611762.490582,-0.864163,23.397723939914165
1673611762.4915888,-0.824256,23.703665313468413
1673611762.492596,-0.736628,24.03737482891418
1673611762.493603,-0.664795,24.3787298004919
1673611762.4946098,-0.577552,24.72000395886612
1673611762.495617,-0.551924,25.061358930443838
1673611762.496624,-0.555603,25.402713902021556
1673611762.4976308,-0.660227,25.74398806039578
1673611762.498638,-0.806201,26.085343031973498
1673611762.499646,-0.892459,26.427021256365208
1673611762.500653,-0.906691,26.76837622794293
1673611762.5016599,-0.937679,27.10965038631715
1673611762.502667,-0.974798,27.451005357894868
1673611762.503674,-0.952296,27.792360329472586
1673611762.5046809,-0.886833,28.133634487846805
1673611762.505688,-0.785647,28.474989459424528
1673611762.506695,-0.690783,28.816344431002246
1673611762.5077019,-0.702803,29.157618589376465
1673611762.508709,-0.710953,29.498973560954184
1673611762.5097158,-0.675998,29.840247719328403
1673611762.5107229,-0.669026,30.181602690906125
1673611762.511731,-0.764707,30.59940566317044
1673611762.512738,-0.9027,30.928461530758224
1673611762.5137448,-0.957128,31.31066797377831
1673611762.514752,-0.989895,31.73180871886121
1673611762.515759,-0.906042,32.14141389964413
1673611762.5167658,-0.780622,32.586070362989325
1673611762.517773,-0.704702,33.03233750177936
1673611762.51878,-0.689533,33.42273039857651
1673611762.5197868,-0.699557,33.58936374828525
1673611762.520794,-0.767159,34.005353100224866
1673611762.521801,-0.838271,34.421342452164474
1673611762.5228078,-0.889454,34.83723332177645
1673611762.523815,-0.882987,35.25322267371606
1673611762.524823,-0.823222,35.66960595496622
1673611762.52583,-0.794469,36.08559530690583
1673611762.5268369,-0.783795,36.50148617651781
1673611762.527844,-0.784829,36.91747552845742
1673611762.528851,-0.761366,37.33346488039703
1673611762.5298579,-0.759587,37.74935575000901
1673611762.530865,-0.770549,38.16534510194862
1673611762.5318718,-0.778891,38.581235971560595
1673611762.5328789,-0.801537,38.9972253235002
1673611762.533886,-0.828295,39.41321467543982
1673611762.5348928,-0.888083,39.82910554505179
1673611762.5358999,-0.912725,40.245094896991404
1673611762.536908,-0.886473,40.661478178241566
1673611762.537915,-0.83416,41.077467530181174
1673611762.5389218,-0.760765,41.49335839979315
1673611762.539929,-0.721482,41.90934775173276
1673611762.540936,-0.753985,42.325337103672375
1673611762.5419428,-0.841709,42.74122797328435
1673611762.54295,-0.866471,43.15721732522396
1673611762.543957,-0.826924,43.57320667716357
1673611762.5449638,-0.772136,43.98909754677555
1673611762.545971,-0.783795,44.405086898715155
1673611762.546978,-0.77466,44.82107625065477
1673611762.5479848,-0.723886,45.23696712026675
1673611762.548992,-0.593875,45.652956472206355
1673611762.55,-0.340921,46.06933975345652
1673611762.551007,-0.119099,46.48532910539613
1673611762.5520139,0.018413,46.901219975008104
1673611762.553021,-0.166218,47.31720932694772
1673611762.5540278,-0.663304,47.73310019655969
1673611762.5550349,-1.055502,48.149089548499305
1673611762.556042,-1.221814,48.56507890043892
1673611762.5570488,-1.288166,48.98096977005089
1673611762.5580559,-1.234387,49.396959121990506
1673611762.559063,-1.0355239999999999,49.81294847393011
1673611762.5600698,-0.906835,50.22883934354209
1673611762.5610769,-0.882121,50.6448286954817
1673611762.562085,-0.890608,51.06121197673186
1673611762.563092,-0.917773,51.47720132867147
1673611762.5640988,-1.021244,51.89309219828345
1673611762.565106,-1.077547,52.309081550223056
1673611762.566113,-1.098558,52.72263839856973
1673611762.5671198,-1.061344,53.067142206723894
1673611762.568127,-0.919889,53.37864322412971
1673611762.569134,-0.785599,53.724810241773966
1673611762.5701408,-0.803124,54.07203613468415
1673611762.571148,-0.793772,54.43255678040057
1673611762.572155,-0.690374,54.745075597043396
1673611762.5731618,-0.635321,55.09115400882003
1673611762.574169,-0.632003,55.4323229055794
1673611762.575177,-0.725858,55.70875814920666
1673611762.5761838,-0.782906,55.843987250651736
1673611762.5771909,-0.768914,55.9792483741431
1673611762.578198,-0.717347,56.11450949763445
1673611762.5792048,-0.6609,56.24973859907953
1673611762.5802119,-0.781752,56.38499972257089
1673611762.581219,-0.956503,56.52026084606225
1673611762.5822258,-0.987082,56.65548994750733
1673611762.5832329,-0.931597,56.87957181954708
1673611762.58424,-0.878419,57.202823228898424
1673611762.5852468,-0.840748,57.52138284120172
1673611762.586254,-0.83868,57.78938756519666
1673611762.587262,-0.858081,58.086796494039106
1673611762.588269,-0.856783,58.339869171196945
1673611762.5892758,-0.82678,58.61953565665236
1673611762.590283,-0.842454,58.9109942340882
1673611762.59129,-0.848753,59.187947756795424
1673611762.5922968,-0.807067,59.411653469226096
1673611762.593304,-0.762736,59.623440270170235
1673611762.594311,-0.742446,59.835227071114375
1673611762.5953178,-0.758817,60.04696373313783
1673611762.596325,-0.793171,60.25875053408197
1673611762.597332,-0.798076,60.47053733502611
1673611762.5983388,-0.821347,60.68227399704957
1673611762.599346,-0.83606,60.89406079799371
1673611762.600354,-0.820241,61.10604815462056
1673611762.6013608,-0.743768,61.31778481664402
1673611762.6023679,-0.672608,61.529571617588154
1673611762.603375,-0.655731,61.74135841853229
1673611762.6043818,-0.64912,61.953095080555755
1673611762.6053889,-0.702082,62.164881881499895
1673611762.606396,-0.754995,62.376668682444034
1673611762.6074028,-0.749009,62.58840534446749
1673611762.60841,-0.697274,62.80019214541163
1673611762.609417,-0.620272,63.01197894635577
1673611762.6104238,-0.612627,63.22371560837923
1673611762.611431,-0.697298,63.43550240932336
1673611762.612439,-0.777954,63.64748976595022
1673611762.613446,-0.799662,63.85927656689435
1673611762.6144528,-0.890656,64.07101322891782
1673611762.61546,-0.954844,64.28280002986196
1673611762.616467,-0.920658,64.4945868308061
1673611762.6174738,-0.902916,64.70632349282955
1673611762.618481,-0.929241,64.9181102937737
1673611762.619488,-0.871207,65.12989709471783
1673611762.6204948,-0.787041,65.34163375674129
1673611762.621502,-0.656284,65.55342055768543
1673611762.622509,-0.499973,65.76520735862957
1673611762.6235158,-0.467061,65.97694402065302
1673611762.624523,-0.60003,66.18873082159716
1673611762.625531,-0.765116,66.40071817822401
1673611762.6265378,-0.777016,66.61245484024748
1673611762.6275449,-0.800383,66.82424164119162
1673611762.628552,-0.830074,67.03602844213574
1673611762.6295588,-0.782377,67.24776510415921
1673611762.630566,-0.795095,67.45955190510335
1673611762.631573,-0.831828,67.67350027413588
1673611762.6325798,-0.930275,67.90347100214593
1673611762.633587,-1.02384,68.07292572103005
1673611762.634594,-1.094616,69.59374851872076
1673611762.6356008,-1.080336,69.7638565652626
1673611762.636608,-0.954604,69.88638678081124
1673611762.637616,-0.891665,70.09480458034321
1673611762.638623,-0.879525,70.21657150598024
1673611762.6396298,-0.859283,70.39223959126365
1673611762.640637,-0.803124,70.65020889914163
1673611762.641644,-0.7749,70.82559473659119
1673611762.6426508,-0.747374,70.91666099046256
1673611762.643658,-0.702106,71.01419056437767
1673611762.644665,-0.699293,71.17469345172826
1673611762.6456718,-0.739561,71.29547431345516
1673611762.646679,-0.786584,71.35741631817585
1673611762.647686,-0.855412,71.41935832289654
1673611762.6486928,-0.903037,71.48128566331688
1673611762.6497,-0.895752,71.54322766803757
1673611762.650708,-0.869764,71.6052283299597
1673611762.6517148,-0.861062,71.66715567038004
1673611762.652722,-0.848873,71.72909767510073
1673611762.653729,-0.774684,71.79103967982142
1673611762.6547358,-0.714943,71.85296702024175
1673611762.655743,-0.759058,71.91490902496244
1673611762.65675,-0.90746,71.97685102968315
1673611762.6577568,-0.988308,72.03877837010347
1673611762.658764,-0.923327,72.10072037482416
1673611762.659771,-0.926332,72.16266237954486
1673611762.6607778,-0.912557,72.2245897199652
1673611762.661785,-0.844426,72.28653172468589
1673611762.662793,-0.808173,72.34853238660801
1673611762.6638,-0.845459,72.4104743913287
1673611762.6648068,-0.866952,72.47240173174904
1673611762.665814,-0.882434,72.53434373646974
1673611762.666821,-0.884093,72.59628574119043
1673611762.6678278,-0.931044,72.65821308161075
1673611762.668835,-0.985087,72.72015508633145
1673611762.669842,-0.981,72.78209709105214
1673611762.6708488,-0.805793,72.84402443147248
1673611762.671856,-0.660251,72.90596643619317
1673611762.672863,-0.671358,72.96790844091386
1673611762.6738698,-0.689172,73.0298357813342
1673611762.674877,-0.72004,73.09177778605489
1673611762.675885,-0.830578,73.15377844797702
1673611762.6768918,-0.885968,73.21570578839736
1673611762.677899,-0.867216,73.27764779311805
1673611762.678906,-0.882434,73.33958979783874
1673611762.6799128,-0.891377,73.40151713825907
1673611762.68092,-0.868154,73.46345914297976
1673611762.681927,-0.790166,73.52540114770045
1673611762.6829338,-0.696072,73.58732848812079
1673611762.683941,-0.631739,73.64927049284148
1673611762.684948,-0.605174,73.71121249756217
1673611762.6859548,-0.67833,73.7563915412494
1673611762.686962,-0.764419,73.80304205913208
1673611762.68797,-0.779709,73.90147190512515
1673611762.688977,-0.751846,74.01815741082498
1673611762.6899838,-0.649842,74.1156357167382
1673611762.690991,-0.586639,74.16264961501788
1673611762.691998,-0.756702,74.23012552956605
1673611762.6930048,-0.955157,74.30788300619933
1673611762.694012,-0.969725,74.35232874350417
1673611762.695019,-0.96309,74.41502382744216
1673611762.6960258,-0.925418,74.48767381169665
1673611762.697033,-0.754851,74.56034099935732
1673611762.69804,-0.643254,74.63300818701799
1673611762.6990469,-0.629984,74.70565817127249
1673611762.700054,-0.630297,74.77832535893316
1673611762.701062,-0.654169,74.85106136021851
1673611762.7020688,-0.734512,74.923711344473
1673611762.703076,-0.825386,74.99637853213368
1673611762.704083,-0.895368,75.06904571979435
1673611762.7050898,-0.934458,75.14169570404884
1673611762.706097,-0.95268,75.21436289170951
1673611762.707104,-0.890463,75.28703007937018
1673611762.7081108,-0.884886,75.35968006362468
1673611762.709118,-0.888805,75.43234725128535
1673611762.710125,-0.861014,75.50501443894602
1673611762.7111318,-0.901907,75.57766442320052
1673611762.712139,-0.957849,75.65033161086119
1673611762.713147,-0.961864,75.72306761214652
1673611762.714154,-0.890247,75.79573479980719
1673611762.7151608,-0.792114,75.8683847840617
1673611762.716168,-0.766727,75.94105197172236
1673611762.717175,-0.793147,76.01371915938303
1673611762.7181818,-0.836925,76.08636914363753
1673611762.719189,-0.859788,76.1590363312982
1673611762.720196,-0.841926,76.23170351895887
1673611762.7212029,-0.81964,76.30435350321336
1673611762.72221,-0.842983,76.37702069087403
1673611762.723217,-0.899959,76.4496878785347
1673611762.7242239,-0.907244,76.5223378627892
1673611762.725231,-0.861999,76.59500505044987
1673611762.726239,-0.845003,76.66774105173522
1673611762.7272458,-0.831997,76.74039103598972
1673611762.728253,-0.778266,76.81305822365039
1673611762.72926,-0.75086,76.88572541131106
1673611762.7302668,-0.757976,76.95837539556555
1673611762.731274,-0.811947,77.03104258322622
1673611762.732281,-0.856494,77.1037097708869
1673611762.7332878,-0.875871,77.17635975514139
1673611762.734295,-0.895464,77.24902694280206
1673611762.735302,-0.917533,77.32169413046273
1673611762.7363088,-0.89919,77.39434411471723
1673611762.737316,-0.839473,77.4670113023779
1673611762.738324,-0.877433,77.53974730366325
1673611762.739331,-0.884093,77.61241449132392
1673611762.7403378,-0.807692,77.68506447557841
1673611762.741345,-0.812404,77.75773166323908
1673611762.742352,-0.831179,77.83039885089975
1673611762.7433589,-0.828703,77.90304883515425
1673611762.744366,-0.805456,77.97571602281492
1673611762.745373,-0.79971,78.04838321047558
1673611762.7463799,-0.815914,78.12103319473009
1673611762.747387,-0.787594,78.19370038239074
1673611762.748394,-0.696144,78.26636757005141
1673611762.7494009,-0.565147,78.33901755430593
1673611762.750408,-0.459585,78.3949967851693
1673611762.751416,-0.42362,78.4837885085837
1673611762.7524228,-0.563416,78.54051568414779
1673611762.75343,-0.738215,78.56058043562233
1673611762.754437,-0.898421,78.61364038721983
1673611762.7554438,-1.00581,78.6682865988081
1673611762.756451,-1.038168,78.70527126514068
1673611762.757458,-0.997396,78.79511009084406
1673611762.7584648,-0.964821,78.796555
1673611762.759472,-0.871303,78.79070892625701
1673611762.760479,-0.814399,78.78480837297377
1673611762.7614858,-0.755572,78.77890921660182
1673611762.762493,-0.736748,78.77300866331858
1673611762.763501,-0.756702,78.76710252239019
1673611762.764508,-0.829737,78.76120196910695
1673611762.7655149,-0.900681,78.755302812735
1673611762.766522,-0.995376,78.74940225945176
1673611762.767529,-1.056728,78.74350170616852
1673611762.7685359,-1.04151,78.73760254979656
1673611762.769543,-0.963811,78.73170199651332
1673611762.77055,-0.903734,78.72580144323008
1673611762.7715569,-0.897099,78.71990228685813
1673611762.772564,-0.911307,78.71400173357489
1673611762.773571,-0.871736,78.70810118029165
1673611762.7745779,-0.81238,78.7022020239197
1673611762.775585,-0.77906,78.69630147063646
1673611762.776593,-0.753649,78.69039532970805
1673611762.7775998,-0.753096,78.6844961733361
1673611762.778607,-0.805745,78.67859562005286
1673611762.779614,-0.830915,78.67269506676962
1673611762.7806208,-0.865101,78.66679591039767
1673611762.781628,-0.847864,78.66089535711443
1673611762.782635,-0.766607,78.65499480383119
1673611762.7836418,-0.721002,78.64909564745923
1673611762.78767,-0.892699,78.62549483123756
1673611762.788678,-0.994679,78.61958869030917
1673611762.789685,-1.067258,78.61368813702593
1673611762.7906919,-1.055574,78.60778898065398
1673611762.791699,-0.957128,78.60188842737074
1673611762.792706,-0.855797,78.5959878740875
1673611762.7937129,-0.780045,78.59008871771555
1673611762.79472,-0.733527,78.5841881644323
1673611762.795727,-0.696504,78.57828761114907
1673611762.7967339,-0.685758,78.57238845477711
1673611762.797741,-0.743047,78.56648790149387
1673611762.798748,-0.772809,78.56381933047211
1673611762.7997549,-0.738287,78.57433644420601
1673611762.800763,-0.736364,78.54058472800953
1673611762.80177,-0.753889,78.52236984549357
1673611762.8027768,-0.707779,78.50119184692419
1673611762.803784,-0.65965,78.46475636638856
1673611762.804791,-0.690686,78.43797854744874
1673611762.8057978,-0.716602,78.4561928111588
1673611762.806805,-0.760861,78.46052375298045
1673611762.807812,-0.807596,78.41235004286669
1673611762.8088188,-0.841204,78.39049180936487
1673611762.809826,-0.826828,78.3686283998665
1673611762.810833,-0.864115,78.34676499036811
1673611762.8118398,-0.898445,78.3249067568663
1673611762.812847,-0.874068,78.30388964806868
1673611762.813855,-0.8908,78.28565428128725
1673611762.814862,-0.913134,78.27644484120171
1673611762.8158689,-0.760236,78.27151906366238
1673611762.816876,-0.615079,78.2224315751073
1673611762.817883,-0.577672,78.24064953921335
1673611762.8188899,-0.595702,78.24884553004293
1673611762.819897,-0.650034,78.22548999213161
1673611762.820904,-0.700255,78.18378971323004
1673611762.8219109,-0.818077,78.1420011362058
1673611762.822918,-0.940852,78.13078719812198
1673611762.823925,-0.973379,78.11957326003815
1673611762.8249319,-0.976793,78.1083619767692
1673611762.82594,-1.026605,78.09713741942582
1673611762.826947,-1.034779,78.08273134740105
1673611762.8279538,-1.020955,78.08137072252681
1673611762.828961,-1.0192,78.08248126079214
1673611762.829968,-1.038529,78.06426302054301
1673611762.8309748,-0.966407,78.04604909332424
1673611762.831982,-0.74634,78.02783085307512
1673611762.832989,-0.510671,78.009612612826
1673611762.8339958,-0.4285,77.99139868560724
1673611762.835003,-0.468672,77.97318044535811
1673611762.83601,-0.63847,77.95496220510898
1673611762.8370168,-0.895632,77.93674827789023
1673611762.838024,-1.115218,77.9185300376411
1673611762.839032,-1.162554,77.90029454527053
1673611762.840039,-1.013286,77.8820763050214
1673611762.8410459,-0.837911,77.86386237780265
1673611762.842053,-0.840291,77.84564413755352
1673611762.84306,-0.857432,77.8274258973044
1673611762.8440669,-0.828102,77.80921197008563
1673611762.845074,-0.736099,77.79099372983652
1673611762.846081,-0.642918,77.77277548958739
1673611762.8470879,-0.676022,77.75456156236862
1673611762.848095,-0.650034,77.7363433221195
1673611762.849102,-0.515647,77.71812508187038
1673611762.8501089,-0.47699,77.69991115465162
1673611762.851117,-0.545385,77.68167566228104
1673611762.852124,-0.741244,77.66345742203193
1673611762.8531308,-0.977851,77.64524349481316
1673611762.854138,-1.025475,77.62702525456403
1673611762.855145,-0.982442,77.6088070143149
1673611762.8561518,-0.928111,77.59059308709615
1673611762.857159,-0.953426,77.57237484684703
1673611762.858166,-0.953281,77.5541566065979
1673611762.8591728,-0.970182,77.53594267937913
1673611762.86018,-0.890439,77.51772443913
1673611762.861187,-0.797402,77.4995061988809
1673611762.8621938,-0.897844,77.48129227166213
1673611762.863201,-1.01634,77.463074031413
1673611762.864209,-1.073845,77.44483853904244
1673611762.865216,-1.134018,77.42662029879331
1673611762.8662229,-1.191114,77.40840637157454
1673611762.86723,-1.07084,77.39018813132542
1673611762.868237,-0.840363,77.3719698910763
1673611762.8692439,-0.723526,77.35375596385754
1673611762.870251,-0.647678,77.33553772360841
1673611762.871258,-0.666165,77.31731948335928
1673611762.8722649,-0.702106,77.29910555614053
1673611762.873272,-0.758433,77.2808873158914
1673611762.874279,-0.79132,77.26266907564228
1673611762.8752859,-0.738984,77.24445514842351
1673611762.876294,-0.676454,77.22621965605295
1673611762.877301,-0.736796,77.20800141580382
1673611762.8783078,-0.866807,77.18979090083432
1673611762.879315,-0.884982,77.23140496852646
1673611762.880322,-0.879188,77.25588610586551
1673611762.8813288,-0.916235,77.27411001072706
1673611762.882336,-0.927029,77.29233026371006
1673611762.883343,-0.952031,77.32601616642823
1673611762.8843498,-0.99177,77.37802591537545
1673611762.885357,-0.950156,77.4169626270863
1673611762.886364,-0.832381,77.43755320553171
1673611762.8873708,-0.768121,77.51475211147417
1673611762.888378,-0.745523,77.6002543029046
1673611762.889386,-0.775045,77.68583746231934
1673611762.890393,-0.829232,77.77133965374978
1673611762.8913999,-0.863754,77.85682160318413
1673611762.892407,-0.834257,77.94232379461455
1673611762.893414,-0.801465,78.02782598604499
1673611762.8944209,-0.764563,78.11330793547934
1673611762.895428,-0.707707,78.19881012690978
1673611762.896435,-0.692538,78.28431231834021
1673611762.8974419,-0.70124,78.36979426777457
1673611762.898449,-0.702082,78.45529645920499
1673611762.899456,-0.836997,78.54079865063542
1673611762.9004629,-0.961888,78.62628060006978
1673611762.901471,-0.922221,78.71186375948452
1673611762.902478,-0.882434,78.79736595091495
1673611762.9034848,-0.792955,78.8828479003493
1673611762.904492,-0.771968,78.96835009177974
1673611762.905499,-0.802836,79.05385228321016
1673611762.9065058,-0.808437,79.13933423264452
1673611762.907513,-0.813053,79.22483642407495
1673611762.90852,-0.848585,79.31033861550539
1673611762.9095268,-0.823631,79.39582056493974
1673611762.910534,-0.732613,79.48132275637016
1673611762.911541,-0.677801,79.5668249478006
1673611762.9125478,-0.735762,79.65230689723495
1673611762.913555,-0.801682,79.73780908866539
1673611762.914563,-0.859163,79.82339224808013
1673611762.91557,-0.911571,79.90889443951056
1673611762.9165769,-0.888155,79.99437638894491
1673611762.917584,-0.841685,80.07987858037534
1673611762.918591,-0.89342,80.16538077180577
1673611762.9195979,-0.94393,80.25086272124013
1673611762.920605,-0.892194,80.33636491267056
1673611762.921612,-0.82113,80.42186710410098
1673611762.9226189,-0.835002,80.50734905353535
1673611762.923626,-0.834713,80.59285124496577
1673611762.924633,-0.784445,80.67835343639621
1673611762.9256399,-0.775405,80.76383538583056
1673611762.926648,-0.806177,80.8494185452453
1673611762.927655,-0.801658,80.93492073667574
1673611762.9286618,-0.75925,81.02040268611009
1673611762.929669,-0.765885,81.10590487754052
1673611762.930676,-0.830025,81.19140706897095
1673611762.9316828,-0.915442,81.2768890184053
1673611762.93269,-0.949218,81.36239120983574
1673611762.933697,-0.9359,81.44789340126617
1673611762.9347038,-0.895247,81.53337535070052
1673611762.935711,-0.844209,81.61887754213095
1673611762.936718,-0.820962,81.70437973356138
1673611762.9377248,-0.785839,81.78986168299573
1673611762.938732,-0.762327,81.87536387442617
1673611762.93974,-0.786536,81.96094703384091
1673611762.940747,-0.793532,82.04644922527135
1673611762.9417539,-0.772496,82.1319311747057
1673611762.942761,-0.780045,82.22723758464473
1673611762.943768,-0.78906,82.35040205770147
1673611762.9447749,-0.77329,82.46869422746781
1673611762.945782,-0.780887,82.84320930647614
1673611762.946789,-0.84344,82.97092704288322
1673611762.9477959,-0.855749,83.0791825620438
1673611762.948803,-0.821347,82.94310604457688
1673611762.94981,-0.885944,83.06827701573677
1673611762.9508169,-0.935059,83.1569255312351
1673611762.951825,-0.936405,83.26066657036328
1673611762.952832,-0.978428,83.30762091263956
1673611762.9538388,-1.029442,83.35456413883104
1673611762.954846,-0.999199,83.40151848110732
1673611762.955853,-0.853441,83.44847282338361
1673611762.9568598,-0.599116,83.49541604957508
1673611762.957867,-0.518869,83.54237039185136
1673611762.958874,-0.516561,83.58932473412766
1673611762.9598808,-0.477735,83.63626796031912
1673611762.960888,-0.569354,83.68322230259541
1673611762.961895,-0.753985,83.73017664487169
1673611762.9629018,-0.835699,83.77711987106316
1673611762.963909,-0.807187,83.82407421333944
1673611762.964917,-0.814159,83.87107301995502
1673611762.965924,-0.80661,83.9180273622313
1673611762.9669309,-0.790599,83.96497058842277
1673611762.967938,-0.727613,84.01192493069905
1673611762.968945,-0.755812,84.05887927297535
1673611762.9699519,-0.818534,84.1058224991668
1673611762.970959,-0.8269,84.1527768414431
1673611762.971966,-0.930683,84.19973118371938
1673611762.9729729,-1.035981,84.24667440991085
1673611762.97398,-0.980495,84.29362875218715
1673611762.974987,-0.853826,84.34058309446343
1673611762.9759939,-0.721002,84.3875263206549
1673611762.977002,-0.685662,84.43452512727046
1673611762.978009,-0.733935,84.48147946954674
1673611762.9790158,-0.785358,84.52842269573821
1673611762.980023,-0.882073,84.5753770380145
1673611762.98103,-1.005954,84.62233138029079
1673611762.9820368,-1.018888,84.66927460648226
1673611762.983044,-0.880679,84.71622894875854
1673611762.984051,-0.761414,84.76318329103484
1673611762.9850578,-0.734993,84.8101265172263
1673611762.986065,-0.832021,84.85708085950259
1673611762.987072,-0.919961,84.90403520177887
1673611762.9880788,-0.960758,84.95097842797034
1673611762.989086,-0.939771,84.99793277024663
1673611762.990094,-0.918062,85.0449315768622
1673611762.991101,-0.945252,85.09188591913848
1673611762.9921079,-0.948641,85.13882914532995
1673611762.993115,-0.920803,85.18578348760623
1673611762.994122,-0.952344,85.23273782988252
1673611762.9951289,-0.946574,85.27968105607398
1673611762.996136,-0.89342,85.32663539835028
1673611762.997143,-0.799686,85.37358974062656
1673611762.9981499,-0.70249,85.41175362073896
1673611762.999157,-0.628373,85.40222898855508
1673611763.000164,-0.576951,85.39946
1673611763.0011709,-0.525239,85.39946
1673611763.002179,-0.507834,85.39946
1673611763.003186,-0.491535,85.4153062055317
1673611763.0041928,-0.407561,85.38560643109204
1673611763.0052,-0.387631,85.381371
1673611763.006207,-0.546107,85.39759675536482
1673611763.0072138,-0.92061,85.39545449445266
1673611763.008221,-1.320308,85.3909914885355
1673611763.009228,-1.390915,85.38652848261835
1673611763.0102348,-1.238883,85.38206653328403
1673611763.011242,-1.066825,85.37760352736687
1673611763.012249,-0.998069,85.37314052144971
1673611763.0132558,-0.990424,85.36867857211539
1673611763.014263,-0.978163,85.36421556619823
1673611763.015271,-0.94554,85.35974833394971
1673611763.016278,-0.934121,85.35528532803255
1673611763.0172849,-0.929962,85.35082337869824
1673611763.018292,-0.895127,85.34636037278108
1673611763.019299,-0.842575,85.38535211492609
1673611763.0203059,-0.771318,85.34540884171633
1673611763.021313,-0.740763,85.3407256695279
1673611763.02232,-0.765356,85.38649110014306
1673611763.0233269,-0.799806,85.39946
1673611763.024334,-0.875053,85.3854425345732
1673611763.0253408,-0.956431,85.39551354434907
1673611763.0263479,-0.983933,85.38519146579262
1673611763.027356,-0.870125,85.42457259933302
1673611763.028363,-0.746749,85.47382252448296
1673611763.0293698,-0.724295,85.52170056690917
1673611763.030377,-0.747518,85.56958994678328
1673611763.031384,-0.756966,85.6174793266574
1673611763.0323908,-0.821154,85.66535736908362
1673611763.033398,-0.840243,85.71324674895773
1673611763.034405,-0.81976,85.76113612883185
1673611763.0354118,-0.899983,85.80901417125807
1673611763.036419,-0.917533,85.85690355113218
1673611763.037426,-0.912533,85.9047929310063
1673611763.0384328,-0.90996,85.95267097343252
1673611763.03944,-0.921067,86.00056035330662
1673611763.040448,-0.914143,86.04849508297228
1673611763.041455,-0.910225,86.0963844628464
1673611763.0424619,-0.923784,86.14426250527262
1673611763.043469,-0.967417,86.19215188514673
1673611763.044476,-1.02384,86.24004126502085
1673611763.0454829,-0.994006,86.28791930744707
1673611763.04649,-0.837238,86.33580868732118
1673611763.0474968,-0.762303,86.38368672974741
1673611763.0485039,-0.807427,86.43157610962152
1673611763.049511,-0.790479,86.47946548949562
1673611763.0505178,-0.733743,86.52734353192184
1673611763.0515249,-0.618469,86.57523291179596
1673611763.052533,-0.4636,86.62316764146162
1673611763.05354,-0.40922,86.67105702133573
1673611763.0545468,-0.508075,86.71893506376196
1673611763.055554,-0.658857,86.76682444363607
1673611763.056561,-0.876255,86.81471382351017
1673611763.0575678,-0.991818,86.8625918659364
1673611763.058575,-1.040933,86.91048124581052
1673611763.059582,-1.031509,86.95837062568462
1673611763.0605888,-1.02872,87.00624866811084
1673611763.061596,-0.999824,87.05413804798496
1673611763.062603,-0.929097,87.10311791259824
1673611763.0636098,-0.794854,87.17589621551312
1673611763.064617,-0.685566,87.24988536051501
1673611763.065625,-0.620584,87.33630043456496
1673611763.066632,-0.60289,87.35979355364807
1673611763.0676389,-0.587024,87.44941358869815
1673611763.068646,-0.759827,87.52228666269369
1673611763.0696528,-0.962369,87.59512327131968
1673611763.0706599,-1.035716,87.66976559999999
1673611763.071667,-1.047929,87.753481596927
1673611763.0726738,-1.051463,87.77505895415166
1673611763.0736809,-1.032663,87.7966414208618
1673611763.074688,-0.966888,87.81822388757196
1673611763.0756948,-0.884141,87.8398012447966
1673611763.0767019,-0.860196,87.86138371150676
1673611763.07771,-0.867336,87.88298661615886
1673611763.078717,-0.794325,87.904569082869
1673611763.0797238,-0.800047,87.92614644009366
1673611763.080731,-0.854691,87.94772890680382
1673611763.081738,-0.859595,87.96931137351396
1673611763.0827448,-0.834954,87.99088873073862
1673611763.083752,-0.804807,88.01247119744876
1673611763.084759,-0.700856,88.0340536641589
1673611763.0857658,-0.619959,88.05563102138356
1673611763.086773,-0.620921,88.0772134880937
1673611763.08778,-0.726291,88.09879595480385
1673611763.0887868,-0.91347,88.1203733120285
1673611763.089794,-1.000882,88.14195577873866
1673611763.090802,-0.915562,88.16355868339076
1673611763.0918088,-0.788868,88.18513604061542
1673611763.0928159,-0.720569,88.20671850732556
1673611763.093823,-0.737493,88.2283009740357
1673611763.0948298,-0.822933,88.24987833126036
1673611763.0958369,-0.848032,88.27146079797052
1673611763.096844,-0.903782,88.29304326468066
1673611763.0978508,-0.910681,88.31462062190532
1673611763.0988579,-0.883155,88.33620308861546
1673611763.099865,-0.895584,88.3577855553256
1673611763.1008718,-0.897772,88.37936291255026
1673611763.101879,-0.846662,88.4009453792604
1673611763.102887,-0.781343,88.42254828391252
1673611763.103894,-0.741508,88.44413075062266
1673611763.1049008,-0.739032,88.46570810784732
1673611763.105908,-0.747206,88.48729057455746
1673611763.106915,-0.789108,88.5088730412676
1673611763.1079218,-0.860028,88.53045039849226
1673611763.108929,-0.884718,88.5520328652024
1673611763.109936,-0.863249,88.57361533191256
1673611763.1109428,-0.783579,88.5951926891372
1673611763.11195,-0.731339,88.61677515584736
1673611763.112957,-0.712347,88.6383576225575
1673611763.1139638,-0.762712,88.65993497978216
1673611763.114971,-0.827068,88.68151744649231
1673611763.115979,-0.894815,88.70312035114442
1673611763.1169858,-0.929024,88.72469770836906
1673611763.1179929,-0.90496,88.74625707892227
1673611763.119,-0.863923,88.76243988915375
1673611763.1200068,-0.881015,88.63795623676681
1673611763.1210139,-0.900176,88.65314682832619
1673611763.122021,-0.933207,88.56395622574493
1673611763.1230278,-0.957104,88.5297997865999
1673611763.124035,-0.959965,88.54448146423462
1673611763.125042,-0.940299,88.48982606078665
1673611763.1260488,-0.926596,88.436314327134
1673611763.127056,-0.905272,88.40000821642467
1673611763.128064,-0.893781,88.36542254763101
1673611763.129071,-0.869813,88.33086959943225
1673611763.1300778,-0.868611,88.29632483138221
1673611763.131085,-0.899695,88.26177188318344
1673611763.132092,-0.865605,88.22721893498468
1673611763.1330988,-0.750884,88.19267416693464
1673611763.134106,-0.66691,88.15812121873587
1673611763.135113,-0.618637,88.1235682705371
1673611763.1361198,-0.645586,88.08902350248707
1673611763.137127,-0.745355,88.0544705542883
1673611763.138134,-0.818654,88.01991760608954
1673611763.1391408,-0.872794,87.9853728380395
1673611763.140148,-0.877986,87.95081988984073
1673611763.141156,-0.853176,87.91623422104708
1673611763.1421628,-0.869764,87.88168945299704
1673611763.1431699,-0.864836,87.84713650479827
1673611763.144177,-0.877193,87.8125835565995
1673611763.1451838,-0.915442,87.77803878854947
1673611763.146191,-0.849114,87.7390168683834
1673611763.147198,-0.714943,87.69272063504172
1673611763.1482048,-0.586639,87.66160568812589
1673611763.149212,-0.569618,87.59757871697663
1673611763.150219,-0.622099,87.56570008893657
1673611763.1512258,-0.686191,87.52875511513707
1673611763.152233,-0.707587,87.45690934009546
1673611763.153241,-0.787402,87.42872904430682
1673611763.154248,-1.009152,87.37920018140643
1673611763.1552548,-1.057858,87.33892710592869
1673611763.156262,-0.957729,87.28899538715716
1673611763.157269,-0.919144,87.23906366838564
1673611763.1582758,-0.934482,87.18914377057027
1673611763.159283,-0.893108,87.13921205179874
1673611763.16029,-0.838872,87.08928033302722
1673611763.1612968,-0.829953,87.03936043521185
1673611763.162304,-0.853657,86.98942871644032
1673611763.163311,-0.919168,86.9394969976688
1673611763.1643178,-1.023552,86.88957709985341
1673611763.165325,-1.072018,86.8396453810819
1673611763.166333,-0.903229,86.78966637848578
1673611763.1673398,-0.550434,86.7397464806704
1673611763.168347,-0.346017,86.68981476189887
1673611763.169354,-0.434967,86.63988304312736
1673611763.1703608,-0.618541,86.58996314531198
1673611763.171368,-0.77115,86.54003142654045
1673611763.172375,-0.889814,86.49009970776893
1673611763.1733818,-1.004608,86.44017980995356
1673611763.174389,-0.944747,86.39024809118203
1673611763.175396,-0.89181,86.34031637241051
1673611763.1764028,-0.883876,86.29039647459514
1673611763.17741,-0.926428,86.24046475582361
1673611763.178418,-0.922774,86.19048575322749
1673611763.179425,-0.880511,86.14055403445597
1673611763.1804318,-0.87935700000000006,86.09063413664059
1673611763.181439,-0.905296,86.04070241786907
1673611763.182446,-0.89794,85.97118610586553
1673611763.1834528,-0.865389,85.88890477926103
1673611763.18446,-0.830098,85.82495418311873
1673611763.185467,-0.763866,85.78837886563245
1673611763.1864738,-0.723285,85.74262967460696
1673611763.187481,-0.694845,85.67908651418355
1673611763.188488,-0.651957,85.60558122985218
1673611763.1894948,-0.578129,85.53361230901288
1673611763.190502,-0.477158,85.48864303790226
1673611763.19151,-0.540938,85.41196454948187
1673611763.1925168,-0.834112,85.30096020229782
1673611763.193524,-1.017253,85.18992956945259
1673611763.194531,-0.987179,85.07889893660735
1673611763.1955378,-1.007493,84.9678945894233
1673611763.196545,-1.00141,84.85686395657805
1673611763.197552,-0.978933,84.74583332373282
1673611763.1985588,-0.964773,84.63482897654877
1673611763.199566,-0.92186,84.52379834370353
1673611763.200573,-0.785142,84.4127677108583
1673611763.2015798,-0.59075,84.30176336367425
1673611763.202587,-0.436434,84.19073273082901
1673611763.203595,-0.384626,84.07959695533904
1673611763.204602,-0.466076,83.9685663224938
1673611763.2056088,-0.675541,83.85756197530975
1673611763.206616,-1.020427,83.74653134246452
1673611763.207623,-1.115675,83.63550070961928
1673611763.2086298,-0.958811,83.52449636243523
1673611763.209637,-0.808533,83.41346572959
1673611763.210644,-0.801345,83.30243509674476
1673611763.2116508,-0.805216,83.19143074956071
1673611763.212658,-0.865125,83.07182993325387
1673611763.213665,-1.002877,82.97313339151168
1673611763.2146719,-1.102501,82.89054100572247
1673611763.215679,-1.059541,82.80930963337306
1673611763.216687,-1.017782,82.776382
1673611763.2176938,-0.979317,82.70549132284215
1673611763.218701,-1.023648,82.61899491990465
1673611763.219708,-1.002589,82.57471771626133
1673611763.2207148,-0.850628,82.49625506151645
1673611763.221722,-0.742614,82.42168855862673
1673611763.222729,-0.725882,82.37189222109195
1673611763.2237358,-0.788171,82.32210767246285
1673611763.224743,-0.890415,82.27231133492808
1673611763.22575,-0.97612,82.22251499739332
1673611763.2267568,-0.970615,82.17273044876421
1673611763.227764,-0.903565,82.12293411122944
1673611763.228772,-0.858513,82.073090618072
1673611763.229779,-0.794782,82.02329428053724
1673611763.2307858,-0.69059,81.97350973190814
1673611763.231793,-0.581855,81.92371339437337
1673611763.2328,-0.4974,81.8739170568386
1673611763.2338068,-0.520696,81.82413250820949
1673611763.234814,-0.73521,81.77433617067473
1673611763.235821,-1.072162,81.72453983313996
1673611763.2368279,-1.249148,81.709061
1673611763.237835,-1.254629,81.68369946924177
1673611763.238842,-1.163179,81.66007524672229
1673611763.2398489,-1.076393,81.654793
1673611763.240856,-0.960614,81.58949173247497
1673611763.241864,-0.708356,81.55114253921334
1673611763.2428708,-0.529158,81.53292962517882
1673611763.243878,-0.576374,81.51471048927039
1673611763.244885,-0.68898,81.46931722526817
1673611763.2458918,-0.776728,81.46122247756334
1673611763.246899,-0.854835,81.46843634327372
1673611763.247906,-0.886208,81.47565020898409
1673611763.2489128,-0.875294,81.48286236686641
1673611763.24992,-0.853152,81.4900762325768
1673611763.250927,-0.80923,81.491989
1673611763.2519338,-0.758,81.491989
1673611763.252941,-0.700639,81.51620282953567
1673611763.253949,-0.594957,81.54857982867445
1673611763.254956,-0.51745,81.58092619678281
1673611763.2559628,-0.554401,81.61326490713358
1673611763.25697,-0.601833,81.64561127524195
1673611763.257977,-0.744321,81.67795764335033
1673611763.2589839,-0.842527,81.71029635370108
1673611763.259991,-0.892098,81.74264272180946
1673611763.260998,-1.008767,81.77498908991782
1673611763.2620049,-1.060815,81.8073278002686
1673611763.263012,-1.013286,81.83967416837696
1673611763.264019,-0.958378,81.87202053648532
1673611763.2650259,-0.920923,81.9043592468361
1673611763.266033,-0.941357,81.93670561494446
1673611763.267041,-0.975591,81.96908261408323
1673611763.2680478,-0.971192,82.001421324434
1673611763.269055,-0.925178,82.03376769254237
1673611763.270062,-0.876352,82.06611406065075
1673611763.2710688,-0.808798,82.0984527710015
1673611763.272076,-0.73795,82.13079913910988
1673611763.273083,-0.745956,82.16314550721825
1673611763.2740898,-0.786945,82.19548421756902
1673611763.275097,-0.789878,82.22783058567738
1673611763.276104,-0.808942,82.26017695378575
1673611763.2771108,-0.845411,82.29251566413652
1673611763.278118,-0.850772,82.32486203224488
1673611763.279126,-0.865774,82.35723903138366
1673611763.280133,-0.876448,82.38958539949202
1673611763.2811399,-0.872649,82.42192410984279
1673611763.282147,-0.847046,82.45427047795117
1673611763.283154,-0.867216,82.48661684605953
1673611763.2841609,-0.842118,82.5189555564103
1673611763.285168,-0.749105,82.55130192451867
1673611763.286175,-0.712275,82.58364829262703
1673611763.2871819,-0.720425,82.6159870029778
1673611763.288189,-0.754105,82.64833337108617
1673611763.289196,-0.806514,82.68067973919455
1673611763.2902029,-0.874645,82.7130184495453
1673611763.29121,-0.877001,82.74536481765368
1673611763.292218,-0.809495,82.77774181679244
1673611763.2932248,-0.753072,82.81008052714321
1673611763.294232,-0.780935,82.84242689525159
1673611763.295239,-0.814832,82.87477326335996
1673611763.2962458,-0.839954,82.90711197371073
1673611763.297253,-0.90407,82.93945834181909
1673611763.29826,-0.943809,82.97180470992745
1673611763.2992668,-0.924673,83.00414342027823
1673611763.300274,-0.87652,83.03648978838659
1673611763.301281,-0.887074,83.0709171382928
1673611763.3022878,-0.906667,83.12738632188841
1673611763.303295,-0.909287,83.22752288905868
1673611763.304303,-0.945276,83.243527184653
1673611763.30531,-1.00367,83.3314044804401
1673611763.3063169,-1.004969,83.34619318918092
1673611763.307324,-0.877794,83.3581356383369
1673611763.308331,-0.623782,83.38116958035287
1673611763.3093379,-0.360321,83.43036452014303
1673611763.310345,-0.16992,83.44865700883288
1673611763.311352,-0.147851,83.4673715546185
1673611763.3123589,-0.370635,83.48608166987717
1673611763.313366,-0.766486,83.50479621566278
1673611763.314373,-1.155967,83.52351076144839
1673611763.3153799,-1.325381,83.54222087670708
1673611763.316388,-1.30824,83.56095314460045
1673611763.317395,-1.069662,83.57966769038606
1673611763.3184018,-0.870894,83.59837780564473
1673611763.319409,-0.848248,83.61709235143034
1673611763.320416,-0.924072,83.63580689721596
1673611763.3214228,-0.989414,83.65451701247464
1673611763.32243,-0.956671,83.67323155826026
1673611763.323437,-0.908325,83.69194610404587
1673611763.3244438,-0.881713,83.71065621930455
1673611763.325451,-0.846373,83.72937076509017
1673611763.326458,-0.833247,83.74808531087578
1673611763.3274648,-0.843416,83.76679542613445
1673611763.328472,-0.826347,83.78550997192006
1673611763.32948,-0.807307,83.80424223981343
1673611763.330487,-0.831155,83.82295678559905
1673611763.3314939,-0.897676,83.84166690085773
1673611763.332501,-0.927029,83.86038144664334
1673611763.333508,-0.891593,83.87909599242896
1673611763.3345149,-0.845604,83.89780610768763
1673611763.335522,-0.791344,83.91652065347326
1673611763.336529,-0.759539,83.93523519925887
1673611763.3375359,-0.781584,83.95394531451754
1673611763.338543,-0.819928,83.97265986030315
1673611763.33955,-0.883347,83.99137440608877
1673611763.3405569,-0.923327,84.01008452134745
1673611763.341565,-0.88503,84.02881678924082
1673611763.342572,-0.825698,84.04753133502643
1673611763.3435788,-0.67518,84.0662414502851
1673611763.344586,-0.445593,84.08495599607072
1673611763.345593,-0.395372,84.10367054185633
1673611763.3465998,-0.476317,84.12238065711502
1673611763.347607,-0.62609,84.14109520290063
1673611763.348614,-0.878395,84.15980974868624
1673611763.3496208,-1.208496,84.17851986394491
1673611763.350628,-1.199384,84.19723440973054
1673611763.351635,-0.955709,84.21594895551615
1673611763.3526418,-0.840387,84.23465907077482
1673611763.353649,-0.875775,84.25337361656044
1673611763.354657,-0.902436,84.27210588445381
1673611763.355664,-0.91573,84.29047709275154
1673611763.3566709,-0.860942,84.33415621888412
1673611763.357678,-0.866543,84.2859184706724
1673611763.358685,-0.930275,84.28575671775924
1673611763.3596919,-0.931909,84.33529488936576
1673611763.360699,-0.935828,84.36346884549357
1673611763.361706,-0.949555,84.368317
1673611763.3627129,-0.963499,84.368317
1673611763.36372,-0.967129,84.368317
1673611763.364727,-0.925226,84.36923531985605
1673611763.3657339,-0.822525,84.37045177680463
1673611763.366742,-0.738984,84.37166967402902
1673611763.367749,-0.748119,84.37288641903275
1673611763.3687558,-0.822741,84.37410287598134
1673611763.369763,-0.900128,84.37531962098508
1673611763.37077,-0.923351,84.37653636598883
1673611763.3717768,-0.877818,84.3777528229374
1673611763.372784,-0.833824,84.37896956794114
1673611763.373791,-0.764924,84.38018631294489
1673611763.3747978,-0.706265,84.38140276989347
1673611763.375805,-0.662679,84.3826195148972
1673611763.376812,-0.671959,84.38383625990095
1673611763.3778188,-0.732301,84.38505271684953
1673611763.378826,-0.816827,84.38626946185326
1673611763.379834,-0.888732,84.3540303227652
1673611763.380841,-0.919096,84.38286056151645
1673611763.3818479,-1.008935,84.32063945636624
1673611763.382855,-1.000689,84.36375046746127
1673611763.383862,-0.922533,84.3516201974249
1673611763.3848689,-0.891257,84.40069080543634
1673611763.385876,-0.879188,84.38754464949928
1673611763.386883,-0.884622,84.35225371394517
1673611763.3878899,-0.859355,84.34382682993541
1673611763.388897,-0.762808,84.33704791359818
1673611763.389904,-0.668497,84.33026899726096
1673611763.3909109,-0.702202,84.32349168578082
1673611763.391919,-0.733887,84.31670635001525
1673611763.392926,-0.811202,84.30992743367803
1673611763.3939328,-0.898277,84.30315012219789
1673611763.39494,-0.907244,84.29637120586067
1673611763.395947,-0.873347,84.28959228952344
1673611763.3969538,-0.850893,84.2828149780433
1673611763.397961,-0.85284,84.27603606170608
1673611763.398968,-0.85546,84.26925714536885
1673611763.3999748,-0.788195,84.26247983388872
1673611763.400982,-0.709462,84.2557009175515
1673611763.401989,-0.677705,84.24892200121427
1673611763.4029958,-0.683715,84.24214468973413
1673611763.404003,-0.723213,84.23536577339691
1673611763.405011,-0.834353,84.22858043763134
1673611763.406018,-0.910008,84.22180152129411
1673611763.4070249,-0.996843,84.21502420981398
1673611763.408032,-1.009103,84.20824529347675
1673611763.409039,-0.899094,84.20146637713954
1673611763.4100459,-0.866567,84.19468906565939
1673611763.411053,-0.875654,84.18791014932218
1673611763.41206,-0.914047,84.18113123298495
1673611763.4130669,-0.90847,84.17435392150482
1673611763.414074,-0.852792,84.16757500516759
1673611763.415081,-0.777064,84.16079608883037
1673611763.4160879,-0.734032,84.15401877735023
1673611763.417096,-0.723261,84.14723344158466
1673611763.418103,-0.69071,84.14045452524743
1673611763.4191098,-0.68458,84.1336772137673
1673611763.420117,-0.724007,84.12689829743007
1673611763.421124,-0.766534,84.12011938109285
1673611763.4221308,-0.839473,84.11334206961271
1673611763.423138,-0.954892,84.10656315327549
1673611763.424145,-1.034731,84.09978423693826
1673611763.4251518,-1.027422,84.09300692545813
1673611763.426159,-0.991337,84.0862280091209
1673611763.427166,-0.95256,84.07944909278368
1673611763.4281728,-0.978404,84.07267178130354
1673611763.42918,-0.995448,84.06589286496632
1673611763.430188,-0.888588,84.060783
1673611763.431195,-0.769828,84.06541548927039
1673611763.4322019,-0.733455,84.06936038092968
1673611763.433209,-0.825386,84.05245905197901
1673611763.434216,-0.908446,84.03114452421796
1673611763.4352229,-0.938088,83.9395063660444
1673611763.43623,-0.857696,83.94387152611658
1673611763.437237,-0.648351,83.93066637052932
1673611763.4382439,-0.495453,83.89090549845054
1673611763.439251,-0.526441,83.9062608393674
1673611763.440258,-0.587216,83.87463521970984
1673611763.4412649,-0.681383,83.84301708717815
1673611763.442273,-0.83368,83.81136151901713
1673611763.44328,-0.955661,83.77973589935957
1673611763.4442868,-0.937679,83.74811776682786
1673611763.445294,-0.874933,83.7164921471703
1673611763.446301,-0.824448,83.68486652751274
1673611763.4473078,-0.813558,83.65324839498105
1673611763.448315,-0.835555,83.62162277532349
1673611763.449322,-0.849138,83.58999715566593
1673611763.4503288,-0.75074,83.54821076567342
1673611763.451336,-0.6202,83.50990828755366
1673611763.452343,-0.559113,83.47508358321411
1673611763.4533498,-0.557526,83.42886154840248
1673611763.454357,-0.605703,83.38386527604291
1673611763.455365,-0.698452,83.355263
1673611763.456372,-0.860461,83.32877597186456
1673611763.4573789,-0.887915,83.29204320882002
1673611763.458386,-0.83142,83.27382649356223
1673611763.459393,-0.910393,83.2419659233527
1673611763.4603999,-1.066633,83.1967687928227
1673611763.461407,-1.045958,83.1515609596807
1673611763.462414,-0.994944,83.10635312653868
1673611763.4634209,-0.9265,83.0611559960087
1673611763.464428,-0.879621,83.01594816286668
1673611763.465435,-0.839954,82.97074032972466
1673611763.4664419,-0.805456,82.92554319919468
1673611763.46745,-0.798917,82.88029255560461
1673611763.468457,-0.790238,82.8350847224626
1673611763.4694638,-0.772448,82.78988759193261
1673611763.470471,-0.791753,82.7446797587906
1673611763.471478,-0.90532,82.6994719256486
1673611763.4724848,-1.000112,82.6542747951186
1673611763.473492,-1.034057,82.60906696197658
1673611763.474499,-1.051198,82.56385912883458
1673611763.4755058,-1.047424,82.51866199830458
1673611763.476513,-1.017854,82.47345416516256
1673611763.47752,-0.953786,82.42824633202056
1673611763.4785268,-0.912004,82.38304920149056
1673611763.479534,-0.877818,82.33784136834855
1673611763.480542,-0.857744,82.2925907247585
1673611763.481549,-0.881376,82.24738289161648
1673611763.483563,-0.885751,82.15697792794448
1673611763.48457,-0.805119,82.11177009480247
1673611763.4855769,-0.772617,82.06657296427248
1673611763.486584,-0.822429,82.01479077091776
1673611763.487591,-0.821443,81.96013722412971
1673611763.4885979,-0.818077,81.93132296566523
1673611763.489605,-0.848705,81.91310428755365
1673611763.490612,-0.86926,81.85538141406437
1673611763.4916189,-0.85623,81.74211720355105
1673611763.492627,-0.848008,81.70776487333755
1673611763.493634,-0.79733,81.68518107122507
1673611763.4946408,-0.729007,81.61438141027267
1673611763.495648,-0.73456,81.5188167553648
1673611763.496655,-0.707058,81.50060916884972
1673611763.4976618,-0.645755,81.49816501308686
1673611763.498669,-0.587288,81.50990555281632
1673611763.499676,-0.551035,81.5216460925458
1673611763.5006828,-0.583273,81.53338385279143
1673611763.50169,-0.684196,81.54512439252089
1673611763.502697,-0.882362,81.55686493225036
1673611763.5037038,-0.893108,81.56860269249599
1673611763.504711,-0.797763,81.58034323222546
1673611763.505719,-0.717107,81.59209488989028
1673611763.506726,-0.593683,81.60383542961975
1673611763.5077329,-0.503098,81.61557318986537
1673611763.50874,-0.602386,81.62731372959485
1673611763.509747,-0.75925,81.6390542693243
1673611763.5107539,-0.953786,81.65079202956994
1673611763.511761,-1.064974,81.6625325692994
1673611763.512768,-0.988212,81.67427310902887
1673611763.5137749,-0.749634,81.68601086927451
1673611763.514782,-0.712371,81.69775140900397
1673611763.515789,-0.868058,81.70949194873344
1673611763.5167959,-1.035788,81.72122970897907
1673611763.517804,-1.113247,81.73298136664388
1673611763.518811,-0.980447,81.74472190637336
1673611763.5198178,-0.834737,81.75645966661898
1673611763.520825,-0.781271,81.76820020634845
1673611763.521832,-0.764707,81.77994074607793
1673611763.5228388,-0.6728,81.79167850632355
1673611763.523846,-0.635706,81.80341904605302
1673611763.524853,-0.812644,81.81515958578248
1673611763.5258598,-0.964821,81.82689734602812
1673611763.526867,-1.078124,81.83863788575758
1673611763.527874,-1.055117,81.85037842548705
1673611763.5288808,-0.988332,81.86211618573269
1673611763.529888,-1.035163,81.87385672546215
1673611763.530896,-1.024826,81.88560838312696
1673611763.531903,-0.941045,81.89734892285644
1673611763.5329099,-0.96434,81.90908668310206
1673611763.533917,-0.843969,81.92082722283153
1673611763.534924,-0.645418,81.932567762561
1673611763.5359309,-0.429943,81.94430552280663
1673611763.536938,-0.316255,81.9560460625361
1673611763.537945,-0.33241,81.96778660226556
1673611763.5389519,-0.334358,81.9795243625112
1673611763.539959,-0.414413,81.99126490224066
1673611763.5409658,-0.684171,82.0030026624863
1673611763.5419729,-0.929818,82.01474320221577
1673611763.542981,-1.208688,82.00122822791141
1673611763.543988,-1.312591,82.02948450357654
1673611763.5449948,-1.298744,82.01905424630073
1673611763.546002,-1.173084,82.016586
1673611763.547009,-0.980327,82.06420537437485
1673611763.5480158,-0.892074,82.05487319976135
1673611763.549023,-0.855076,82.06892318097282
1673611763.55003,-0.811971,82.08712220576328
1673611763.5510368,-0.847503,82.088966
1673611763.552044,-0.818967,82.08526428544707
1673611763.553051,-0.697802,82.0811807016728
1673611763.5540578,-0.683378,82.07709808465609
1673611763.555065,-0.740282,82.07301450088183
1673611763.556073,-0.853513,82.09697199761564
1673611763.55708,-1.022807,82.09865387649022
1673611763.5580869,-1.164357,82.09772890941596
1673611763.559094,-1.223449,82.10698250429185
1673611763.560101,-1.178181,82.0981708330949
1673611763.5611079,-1.057329,82.1395118919653
1673611763.562115,-0.96922,82.20287948885135
1673611763.5631218,-0.831732,82.26623208393889
1673611763.5641289,-0.731868,82.32959968082493
1673611763.565136,-0.717588,82.39296727771098
1673611763.5661428,-0.757928,82.45631987279852
1673611763.5671499,-0.807956,82.51968746968457
1673611763.568158,-0.816923,82.58311507376463
1673611763.569165,-0.844738,82.64648267065068
1673611763.5701718,-0.850748,82.70983526573822
1673611763.571179,-0.772424,82.77320286262426
1673611763.572186,-0.673497,82.83657045951031
1673611763.5731928,-0.572503,82.89992305459785
1673611763.5742,-0.555362,82.9632906514839
1673611763.575207,-0.632965,83.02665824836994
1673611763.5762138,-0.721771,83.09001084345749
1673611763.577221,-0.813125,83.15337844034353
1673611763.578228,-0.903397,83.21674603722958
1673611763.5792348,-0.892723,83.28009863231712
1673611763.580242,-0.890728,83.34346622920316
1673611763.58125,-0.870053,83.40689383328323
1673611763.582257,-0.863778,83.47026143016927
1673611763.5832639,-0.934049,83.53361402525682
1673611763.584271,-0.966311,83.59698162214286
1673611763.5852778,-0.86349,83.6603342172304
1673611763.5862849,-0.839834,83.72370181411645
1673611763.587292,-0.864548,83.78706941100249
1673611763.5882988,-0.890487,83.85042200609004
1673611763.5893059,-0.862216,83.91378960297608
1673611763.590313,-0.849306,83.97715719986213
1673611763.5913198,-0.857311,84.04050979494967
1673611763.5923269,-0.851325,84.10387739183572
1673611763.593335,-0.82654,84.16730499591579
1673611763.594342,-0.800624,84.23067259280184
1673611763.5953488,-0.766871,84.29402518788937
1673611763.596356,-0.640514,84.35739278477541
1673611763.597363,-0.472855,84.42076038166147
1673611763.5983698,-0.404075,84.484112976749
1673611763.599377,-0.540625,84.54748057363506
1673611763.600384,-0.759058,84.6108481705211
1673611763.6013908,-0.904479,84.67420076560865
1673611763.602398,-0.898252,84.73756836249468
1673611763.603405,-0.833824,84.80093595938072
1673611763.6044118,-0.922005,84.86428855446827
1673611763.605419,-1.04978,84.92765615135431
1673611763.606427,-1.073051,84.99108375543439
1673611763.6074338,-0.973019,85.15373821764004
1673611763.6084409,-0.920706,85.28985630948975
1673611763.609448,-0.898469,85.40191599952313
1673611763.6104548,-0.820602,85.54241658059132
1673611763.6114619,-0.713212,85.68814780476758
1673611763.612469,-0.658328,85.78630404291846
1673611763.6134758,-0.660227,85.95733327706247
1673611763.6144829,-0.776247,86.12336945125149
1673611763.61549,-0.859355,86.23861731092036
1673611763.6164968,-0.725858,86.30233483024512
1673611763.617504,-0.531538,86.3609252499962
1673611763.618512,-0.490813,86.41957115309931
1673611763.619519,-0.492184,86.4781615728504
1673611763.6205258,-0.579691,86.53673812176346
1673611763.621533,-0.899767,86.59532854151455
1673611763.62254,-1.059324,86.65391896126562
1673611763.6235468,-0.939939,86.7124955101787
1673611763.624554,-0.86611,86.77108592992977
1673611763.625561,-0.855677,86.82967634968085
1673611763.6265678,-0.916499,86.88825289859392
1673611763.627575,-0.888083,86.946843318345
1673611763.628582,-0.894815,87.00543373809609
1673611763.6295888,-0.980327,87.06401028700915
1673611763.630596,-1.04764,87.12260070676024
1673611763.631604,-1.075335,87.18124660986335
1673611763.6326108,-1.0249220000000001,87.23982315877642
1673611763.6336179,-0.913662,87.2984135785275
1673611763.634625,-0.766126,87.35700399827859
1673611763.6356318,-0.731507,87.41558054719165
1673611763.6366389,-0.65263,87.47417096694274
1673611763.637646,-0.678282,87.53276138669382
1673611763.6386528,-0.748576,87.59133793560689
1673611763.63966,-0.721579,87.64992835535797
1673611763.640667,-0.800239,87.70851877510904
1673611763.6416738,-0.949868,87.76709532402212
1673611763.642681,-0.900705,87.82568574377319
1673611763.643689,-0.841445,87.88433164687632
1673611763.644696,-0.89818,87.94292206662739
1673611763.6457028,-0.936886,88.00149861554047
1673611763.64671,-0.906955,88.06008903529154
1673611763.647717,-0.892146,88.11867945504262
1673611763.6487238,-0.974221,88.17725600395569
1673611763.649731,-1.022494,88.235846423706775
1673611763.650738,-1.010065,88.29443684345786
1673611763.6517448,-0.983933,88.35301339237093
1673611763.652752,-0.999079,88.41160381212201
1673611763.653759,-0.869572,88.4701942318731
1673611763.6547658,-0.556059,88.52877078078616
1673611763.655773,-0.461075,88.58736120053725
1673611763.656781,-0.553655,88.64600710364036
1673611763.6577878,-0.679796,88.70458365255342
1673611763.6587949,-0.808221,88.76317407230451
1673611763.659802,-0.870005,88.82176449205559
1673611763.6608088,-0.883011,88.88034104096866
1673611763.661816,-0.865077,88.93893146071974
1673611763.662823,-0.874332,88.9661538583691
1673611763.6638298,-0.877866,88.92185486626937
1673611763.664837,-0.856518,88.89834281640438
1673611763.665844,-0.838872,88.85103263102624
1673611763.6668508,-0.822765,88.8004
1673611763.667858,-0.79358,88.78904177759237
1673611763.668866,-0.744105,88.74674793133048
1673611763.669873,-0.705928,88.69803360801144
1673611763.6708798,-0.69761,88.66160767651967
1673611763.671887,-0.711962,88.63657963917808
1673611763.672894,-0.724776,88.63363822880827
1673611763.6739008,-0.770645,88.63069751479507
1673611763.674908,-0.842791,88.62775610442526
1673611763.675915,-0.930683,88.62481469405544
1673611763.6769218,-0.947944,88.62187398004225
1673611763.677929,-0.886352,88.61893256967244
1673611763.678936,-0.843128,88.61599115930264
1673611763.6799428,-0.823342,88.61305044528945
1673611763.68095,-0.820049,88.61010903491963
1673611763.681958,-0.80399,88.60716483912333
1673611763.6829648,-0.755332,88.60422412511014
1673611763.683972,-0.717828,88.60128271474032
1673611763.684979,-0.732277,88.5983413043705
1673611763.6859858,-0.758192,88.59540059035733
1673611763.686993,-0.790046,88.59245917998751
1673611763.688,-0.896137,88.5895177696177
1673611763.6890068,-1.006627,88.58657705560451
1673611763.690014,-0.959917,88.5836356452347
1673611763.691021,-0.843176,88.58069423486488
1673611763.6920278,-0.864187,88.57775352085169
1673611763.693035,-0.858081,88.57481211048187
1673611763.694043,-0.7198,88.57186791468558
1673611763.69505,-0.63496,88.56892650431577
1673611763.6960568,-0.462614,88.56598579030258
1673611763.697064,-0.360345,88.56304437993276
1673611763.698071,-0.448574,88.56010296956295
1673611763.6990778,-0.749033,88.55716225554976
1673611763.700085,-1.011099,88.55422084517994
1673611763.701092,-1.056439,88.55127943481013
1673611763.7020988,-1.04865,88.54833872079693
1673611763.703106,-1.064517,88.54539731042713
1673611763.704113,-1.049804,88.54245590005732
1673611763.7051198,-0.957945,88.53951518604413
1673611763.706127,-0.813269,88.53657377567431
1673611763.707135,-0.806249,88.53362957987801
1673611763.7081418,-0.781271,88.53068886586482
1673611763.709149,-0.72694,88.527747455495
1673611763.710156,-0.738431,88.5248060451252
1673611763.7111628,-0.80173,88.52186533111201
1673611763.71217,-0.714198,88.5189239207422
1673611763.713177,-0.645154,88.51598251037238
1673611763.7141838,-0.641019,88.51304179635919
1673611763.715191,-0.723862,88.51010038598938
1673611763.716198,-0.91436,88.50715897561956
1673611763.7172048,-1.023912,88.50421826160637
1673611763.718212,-0.967826,88.50127685123655
1673611763.71922,-0.931092,88.49833265544027
1673611763.720227,-0.896065,88.49539124507045
1673611763.7212338,-0.81952,88.49245053105726
1673611763.722241,-0.78882,88.48950912068744
1673611763.723248,-0.826251,88.48656771031763
1673611763.7242548,-0.965398,88.48362699630444
1673611763.725262,-0.98713,88.48068558593462
1673611763.726269,-0.951574,88.47774417556482
1673611763.7272758,-0.921908,88.47480346155163
1673611763.728283,-0.886761,88.474777
1673611763.72929,-0.903782,88.565224
1673611763.7302969,-0.834834,88.56500838617401
1673611763.731304,-0.761943,88.54679326776348
1673611763.732312,-0.742181,88.529045
1673611763.7333188,-0.804278,88.52720803790226
1673611763.734326,-0.850772,88.4725637446352
1673611763.735333,-0.787426,88.42396252002862
1673611763.7363398,-0.770958,88.49111562751702
1673611763.737347,-0.780742,88.45895129113372
1673611763.738354,-0.806153,88.42678695475043
1673611763.7393608,-0.805696,88.3946302330301
1673611763.740368,-0.743191,88.3624658966468
1673611763.741375,-0.610704,88.330301560263507
1673611763.7423818,-0.496054,88.29814483854318
1673611763.743389,-0.460715,88.26598050215988
1673611763.744397,-0.536683,88.23378570712471
1673611763.745404,-0.683378,88.2016213707414
1673611763.7464108,-0.905585,88.16946464902108
1673611763.747418,-0.929481,88.13730031263779
1673611763.748425,-0.854475,88.1051359762545
1673611763.7494318,-0.859475,88.07297925453418
1673611763.750439,-0.995328,88.04081491815087
1673611763.751446,-0.970783,88.00865058176758
1673611763.7524529,-0.841276,87.97649386004726
1673611763.75346,-0.82928,87.94432952366395
1673611763.754467,-0.823246,87.91216518728066
1673611763.7554739,-0.855965,87.88000846556034
1673611763.756481,-0.980712,87.84784412917703
1673611763.757489,-0.987467,87.81564933414187
1673611763.7584958,-0.940852,87.78349261242154
1673611763.759503,-0.839834,87.75132827603825
1673611763.76051,-0.744994,87.71916393965495
1673611763.7615168,-0.713429,87.68700721793462
1673611763.762524,-0.65263,87.65484288155133
1673611763.763531,-0.624695,87.62267854516803
1673611763.7645378,-0.717516,87.5905218234477
1673611763.765545,-0.826011,87.55835748706441
1673611763.766552,-0.848729,87.52619315068111
1673611763.7675588,-0.842118,87.49403642896078
1673611763.768566,-0.870894,87.4618720925775
1673611763.769574,-0.829761,87.42967729754231
1673611763.770581,-0.752687,87.39751296115902
1673611763.7715878,-0.706433,87.3653562394387
1673611763.772595,-0.672127,87.33319190305541
1673611763.773602,-0.692441,87.3010275666721
1673611763.7746089,-0.782858,87.26887084495178
1673611763.775616,-0.840291,87.23670650856849
1673611763.776623,-0.68934,87.20454217218519
1673611763.7776299,-0.682465,87.17238545046486
1673611763.778637,-0.686624,87.14022111408157
1673611763.779644,-0.682368,87.10805677769827
1673611763.7806509,-0.746172,87.07590005597794
1673611763.781658,-0.883804,87.04239920123987
1673611763.782666,-0.996073,86.99260822389127
1673611763.7836728,-0.942343,87.00675996519666
1673611763.78468,-1.007517,86.97476846351931
1673611763.785687,-1.006988,86.991379
1673611763.7866938,-0.927077,86.98964505150214
1673611763.787701,-0.96184,86.97515190345649
1673611763.788708,-1.01658,86.98740224296614
1673611763.7897148,-0.978788,86.95942692179304
1673611763.790722,-0.917196,86.9918590190515
1673611763.791729,-0.982322,86.99575825073144
1673611763.7927358,-1.020667,86.99965655929782
1673611763.793743,-0.923784,87.00355579097774
1673611763.794751,-0.810168,87.00745871511192
1673611763.795758,-0.802138,87.01135794679186
1673611763.7967649,-0.813317,87.01525625535824
1673611763.797772,-0.863995,87.01915548703818
1673611763.798779,-0.881616,87.0230547187181
1673611763.7997859,-0.82416,87.02695302728448
1673611763.800793,-0.78338699999999994,87.03085225896442
1673611763.8018,-0.841036,87.03475149064435
1673611763.8028069,-0.860918,87.03864979921073
1673611763.803814,-0.7724,87.04254903089065
1673611763.804821,-0.75538,87.04190305150215
1673611763.8058279,-0.678378,87.02368448615752
1673611763.806835,-0.678041,87.00815683294651
1673611763.807843,-0.649072,87.00220236001186
1673611763.8088498,-0.676527,86.99625492879073
1673611763.809857,-0.825241,86.99030608922689
1673611763.810864,-1.034731,86.98435724966305
1673611763.8118708,-1.023552,86.9784098184419
1673611763.812878,-0.881881,86.97246097887808
1673611763.813885,-0.814087,86.96651213931423
1673611763.8148918,-0.775862,86.96056470809309
1673611763.815899,-0.742494,86.95461586852925
1673611763.816906,-0.65965,86.9486670289654
1673611763.8179128,-0.681263,86.94271959774427
1673611763.81892,-0.821635,86.93677075818043
1673611763.819928,-0.968186,86.93081628524578
1673611763.820935,-1.023119,86.92486744568194
1673611763.8219419,-1.075167,86.91892001446081
1673611763.822949,-1.171209,86.91297117489697
1673611763.823956,-1.180777,86.90702233533312
1673611763.8249629,-1.027807,86.90107490411198
1673611763.82597,-0.790479,86.89512606454815
1673611763.826977,-0.614262,86.88917722498431
1673611763.8279839,-0.550867,86.88322979376316
1673611763.828991,-0.622868,86.87728095419932
1673611763.829998,-0.739801,86.87133211463548
1673611763.8310049,-0.87301,86.86538468341435
1673611763.832013,-0.900633,86.8594302104797
1673611763.83302,-0.840387,86.85348137091586
1673611763.8340268,-0.815361,86.84753393969473
1673611763.835034,-0.811634,86.84158510013089
1673611763.836041,-0.773939,86.83563626056704
1673611763.8370478,-0.722973,86.8296888293459
1673611763.838055,-0.748672,86.82373998978207
1673611763.839062,-0.807644,86.81779115021823
1673611763.8400688,-0.799085,86.81184371899708
1673611763.841076,-0.777112,86.80589487943324
1673611763.842083,-0.757014,86.7999460398694
1673611763.8430898,-0.733983,86.79399860864827
1673611763.844097,-0.74473,86.78804976908442
1673611763.845105,-0.782906,86.78209529614978
1673611763.846112,-0.830554,86.77614645658593
1673611763.8471189,-0.895872,86.7701990253648
1673611763.848126,-0.967778,86.76425018580096
1673611763.849133,-0.977803,86.75830134623712
1673611763.8501399,-0.908374,86.75235391501597
1673611763.851147,-1.02723,86.74640507545215
1673611763.852154,-1.076681,86.7404562358883
1673611763.8531609,-1.044972,86.73450880466716
1673611763.854168,-0.91799,86.72855996510332
1673611763.855175,-0.841805,86.72261112553947
1673611763.8561819,-0.721651,86.70974527792332
1673611763.85719,-0.536683,86.76444111945636
1673611763.858197,-0.511729,86.810486
1673611763.8592038,-0.573801,86.75703706437768
1673611763.860211,-0.690134,86.763251312217193
1673611763.861218,-0.774107,86.78147139914162
1673611763.8622248,-0.854859,86.79642886109785
1673611763.863232,-0.882506,86.78811860681114
1673611763.864239,-0.848248,86.78561217167382
1673611763.8652458,-0.800696,86.80681665644856
1673611763.866253,-0.795936,86.82980104468962
1673611763.86726,-0.798725,86.85278543293066
1673611763.8682668,-0.758745,86.8757643797919
1673611763.869274,-0.775213,86.89874876803296
1673611763.870282,-0.85046,86.92175492179317
1673611763.871289,-0.882794,86.94473931003421
1673611763.8722959,-0.85195,86.96771825689547
1673611763.873303,-0.809639,86.99070264513651
1673611763.87431,-0.847094,87.01368703337755
1673611763.8753169,-0.873467,87.03666598023881
1673611763.876324,-0.704053,87.05965036847985
1673611763.877331,-0.613901,87.08263475672089
1673611763.8783379,-0.716722,87.10561370358215
1673611763.879345,-0.740931,87.12859809182319
1673611763.880352,-0.749658,87.15158248006423
1673611763.8813589,-0.748672,87.1745614269255
1673611763.882367,-0.758865,87.1975675806857
1673611763.883374,-0.860509,87.22055196892674
1673611763.8843808,-0.903301,87.243530915788
1673611763.885388,-0.948305,87.26651530402904
1673611763.886395,-0.921211,87.28949969227008
1673611763.8874018,-0.884093,87.31247863913134
1673611763.888409,-0.842334,87.33546302737238
1673611763.889416,-0.801393,87.35844741561344
1673611763.8904228,-0.798172,87.38142636247468
1673611763.89143,-0.759659,87.40441075071573
1673611763.892437,-0.675517,87.42739513895678
1673611763.8934438,-0.678546,87.45037408581803
1673611763.894451,-0.753841,87.47335847405907
1673611763.895459,-0.797979,87.49636462781929
1673611763.896466,-0.851398,87.51934901606033
1673611763.8974729,-0.931909,87.54232796292159
1673611763.89848,-0.930803,87.56531235116263
1673611763.899487,-0.845411,87.58829673940367
1673611763.9004939,-0.817837,87.61127568626493
1673611763.901501,-0.820938,87.63426007450597
1673611763.902508,-0.840555,87.65724446274702
1673611763.9035149,-0.878491,87.68022340960827
1673611763.904522,-0.940636,87.70320779784932
1673611763.905529,-0.992251,87.72619218609036
1673611763.9065359,-1.051271,87.74917113295162
1673611763.907544,-1.104328,87.77217728671182
1673611763.908551,-1.033913,87.79516167495287
1673611763.9095578,-0.771487,87.78529298044826
1673611763.910565,-0.57784,87.77945740176442
1673611763.911572,-0.593058,87.76668584144015
1673611763.9125788,-0.647774,87.76161995828366
1673611763.913586,-0.701697,87.73751656032427
1673611763.914593,-0.712443,87.714989
1673611763.9155998,-0.677416,87.7258208398093
1673611763.916607,-0.648688,87.67827988698141
1673611763.917614,-0.710616,87.65372089341918
1673611763.9186208,-0.863442,87.66459634724781
1673611763.919628,-0.904551,87.67089229600735
1673611763.920636,-0.88241,87.67719420683957
1673611763.921643,-0.835795,87.68349015559912
1673611763.9226499,-0.853345,87.68978461384047
1673611763.923657,-0.8507,87.6960805626
1673611763.924664,-0.847407,87.70237651135955
1673611763.9256709,-0.846397,87.7086709696009
1673611763.926678,-0.811082,87.71496691836045
1673611763.927685,-0.78394,87.72126286711998
1673611763.9286919,-0.773698,87.72755732536135
1673611763.929699,-0.753048,87.73385327412088
1673611763.930706,-0.760188,87.7401492228804
1673611763.9317129,-0.787666,87.74644368112178
1673611763.932721,-0.805937,87.752745591954
1673611763.933728,-0.806153,87.75904154071353
1673611763.9347348,-0.818726,87.7653359989549
1673611763.935742,-0.801778,87.77163194771443
1673611763.936749,-0.810625,87.77792789647397
1673611763.9377558,-0.803485,87.78422235471533
1673611763.938763,-0.778675,87.79051830347487
1673611763.93977,-0.755139,87.7968142522344
1673611763.9407768,-0.781704,87.80310871047575
1673611763.941784,-0.812548,87.8094046592353
1673611763.942791,-0.825289,87.81570060799483
1673611763.9437978,-0.895776,87.8219950662362
1673611763.944805,-0.990736,87.82829101499573
1673611763.945813,-0.978524,87.83459292582795
1673611763.94682,-0.782185,87.84088887458749
1673611763.9478269,-0.622075,87.84718333282885
1673611763.948834,-0.544183,87.85347928158839
1673611763.949841,-0.512546,87.85977523034792
1673611763.9508479,-0.471389,87.86606968858928
1673611763.951855,-0.586927,87.87236563734882
1673611763.952862,-0.823727,87.87866158610835
1673611763.9538689,-0.909552,87.88495604434972
1673611763.954876,-0.943232,87.89125199310925
1673611763.955883,-0.895776,87.8975479418688
1673611763.9568899,-0.846181,87.90384240011015
1673611763.957898,-0.811226,87.91014431094237
1673611763.958905,-0.780334,87.91644025970191
1673611763.9599118,-0.81726,87.92273471794327
1673611763.960919,-0.882891,87.92903066670281
1673611763.961926,-0.904191,87.93532661546234
1673611763.9629328,-0.965254,87.9416210737037
1673611763.96394,-0.932054,87.94791702246324
1673611763.964947,-0.886064,87.95421297122277
1673611763.9659538,-0.860317,87.96050742946414
1673611763.966961,-0.839017,87.96680337822367
1673611763.967968,-0.866591,87.9730993269832
1673611763.9689748,-0.880799,87.97939378522457
1673611763.969982,-0.942607,87.9856897339841
1673611763.97099,-0.96696,87.99199164481634
1673611763.971997,-0.945083,87.99828759357587
1673611763.9730039,-0.931308,88.00486389566461
1673611763.974011,-0.8764,88.02306531680571
1673611763.975018,-0.792931,88.03994247472579
1673611763.9760249,-0.750692,88.022522
1673611763.977032,-0.770164,88.02064369040247
1673611763.978039,-0.805216,87.984246849785407
1673611763.9790459,-0.854379,87.95251354797136
1673611763.980053,-0.877433,87.98502477327936
1673611763.98106,-0.875534,87.96397104625656
1673611763.9820669,-0.87176,87.9117160602047
1673611763.983075,-0.871616,87.88505687838651
1673611763.984082,-0.876207,87.8584229181216
1673611763.9850888,-0.868418,87.83179526324503
1673611763.986096,-0.85647,87.80516130298012
1673611763.987103,-0.865365,87.77852734271522
1673611763.9881098,-0.904984,87.75189968783864
1673611763.989117,-0.932943,87.72526572757374
1673611763.990124,-0.868562,87.69863176730885
1673611763.9911308,-0.819087,87.67200411243226
1673611763.992138,-0.807019,87.64537015216737
1673611763.993145,-0.787906,87.61873619190247
1673611763.9941518,-0.783723,87.59210853702588
1673611763.995159,-0.751798,87.56547457676099
1673611763.996167,-0.769515,87.5388153949428
1673611763.997174,-0.742398,87.5121814346779
1673611763.9981809,-0.706457,87.48555377980132
1673611763.999188,-0.739849,87.45891981953642
1673611764.000195,-0.794542,87.43228585927152
1673611764.0012019,-0.837238,87.40565820439494
1673611764.002209,-0.916307,87.37902424413004
1673611764.003216,-0.960902,87.35239028386515
1673611764.0042229,-0.948473,87.32576262898856
1673611764.00523,-0.937631,87.29912866872367
1673611764.006237,-0.870341,87.27249470845877
1673611764.0072439,-0.762207,87.24586705358219
1673611764.008252,-0.702659,87.219207871764
1673611764.009259,-0.543895,87.1925739114991
1673611764.0102658,-0.46021,87.16594625662252
1673611764.011273,-0.494107,87.13931229635762
1673611764.01228,-0.658616,87.11070569069213
1673611764.0132868,-0.746773,87.08563649833094
1673611764.014294,-0.746076,87.09600978328173
1673611764.015301,-0.877433,87.07780806008583
1673611764.0163078,-0.837767,87.06791299522672
1673611764.017315,-0.698259,87.0603147539342
1673611764.018322,-0.757014,86.991379
1673611764.0193288,-0.834906,87.00500428305489
1673611764.020336,-0.898661,87.04096275107297
1673611764.021344,-0.952392,87.0317836903098
1673611764.022351,-0.985952,87.04772435090673
1673611764.0233579,-0.892771,87.06366123767305
1673611764.024365,-0.705303,87.07960189826998
1673611764.025372,-0.573946,87.09554255886692
1673611764.0263789,-0.470042,87.11147944563322
1673611764.027386,-0.352148,87.12742010623016
1673611764.028393,-0.469417,87.1433607668271
1673611764.0293999,-0.776295,87.15929765359341
1673611764.030407,-0.994583,87.17523831419035
1673611764.031414,-1.124835,87.19117897478729
1673611764.0324209,-1.131326,87.20711586155359
1673611764.033429,-1.007974,87.22307161747307
1673611764.034436,-0.911523,87.23901227807
1673611764.0354428,-0.936044,87.25494916483632
1673611764.03645,-0.993237,87.27088982543326
1673611764.037457,-1.008286,87.280815
1673611764.0384638,-1.018623,87.30175988268955
1673611764.039471,-0.919504,87.3422207188544
1673611764.040478,-0.841685,87.353195
1673611764.0414848,-0.827573,87.3753047547035
1673611764.042492,-0.799782,87.39996036897375
1673611764.043499,-0.803172,87.44548865118318
1673611764.0445058,-0.843993,87.47598413496932
1673611764.045513,-0.882867,87.47621406719367
1673611764.046521,-0.919432,87.47315428834355
1673611764.047528,-0.911186,87.49621990414877
1673611764.0485349,-0.852383,87.497902
1673611764.049542,-0.800816,87.4823273453752
1673611764.050549,-0.800672,87.46529722859157
1673611764.0515559,-0.834305,87.44827114355907
1673611764.052563,-0.87935700000000006,87.43124102677544
1673611764.05357,-0.996458,87.41421090999181
1673611764.0545769,-0.989967,87.39718482495931
1673611764.055584,-0.905128,87.38015470817568
1673611764.0565908,-0.860341,87.36312862314318
1673611764.0575979,-0.824977,87.34609850635955
1673611764.058606,-0.783315,87.3290522625714
1673611764.059613,-0.695951,87.31202214578776
1673611764.0606198,-0.586062,87.29499606075527
1673611764.061627,-0.573272,87.27796594397164
1673611764.062634,-0.611761,87.260935827188
1673611764.0636408,-0.737974,87.24390974215551
1673611764.064648,-0.867649,87.22687962537188
1673611764.065655,-0.976553,87.20984950858825
1673611764.0666618,-0.980327,87.19282342355575
1673611764.067669,-0.855989,87.17579330677212
1673611764.068676,-0.784108,87.15876318998849
1673611764.0696828,-0.847455,87.141737104956
1673611764.07069,-0.941357,87.12470698817236
1673611764.071698,-0.888372,87.1076607443842
1673611764.072705,-0.860605,87.09063062760058
1673611764.0737119,-0.918014,87.07360454256808
1673611764.074719,-0.956815,87.05657442578445
1673611764.075726,-0.950709,87.03954430900082
1673611764.0767329,-1.02985,87.02251822396832
1673611764.07774,-0.948401,87.00548810718469
1673611764.0787468,-0.702971,86.98846202215219
1673611764.0797539,-0.637509,86.97143190536856
1673611764.080761,-0.726483,86.95440178858493
1673611764.0817678,-0.757519,86.93737570355243
1673611764.0827749,-0.717756,86.9203455867688
1673611764.083783,-0.763626,86.90329934298065
1673611764.08479,-0.786608,86.88626922619702
1673611764.0857968,-0.675204,86.86924314116452
1673611764.086804,-0.663641,86.85221302438089
1673611764.087811,-0.727252,86.83518290759726
1673611764.0888178,-0.787402,86.81815682256476
1673611764.089825,-0.738383,86.80112670578113
1673611764.090832,-0.692682,86.7840965889975
1673611764.0918388,-0.777305,86.767070503965
1673611764.092846,-0.816803,86.75004038718137
1673611764.093853,-0.743167,86.73301027039774
1673611764.0948598,-0.686696,86.71570333778307
1673611764.095867,-0.689172,86.7152755598474
1673611764.096875,-0.725786,86.76080022460658
1673611764.097882,-0.767568,86.76958027610873
1673611764.0988889,-0.795672,86.74650927032181
1673611764.099896,-0.669266,86.72997020577014
1673611764.1009028,-0.504444,86.76640359799714
1673611764.1019099,-0.436866,86.792397
1673611764.102917,-0.490886,86.7870441888412
1673611764.1039238,-0.771968,86.7796292367374
1673611764.1049309,-1.195562,86.79733091231127
1673611764.105938,-1.2942,86.81503258788513
1673611764.1069448,-1.078172,86.8327300727214
1673611764.1079519,-0.881953,86.85043174829528
1673611764.10896,-0.780887,86.86815018681949
1673611764.109967,-0.793364,86.88585186239335
1673611764.1109738,-0.989751,86.90354934722963
1673611764.111981,-1.088053,86.9212510228035
1673611764.112988,-1.044708,86.93895269837736
1673611764.1139948,-1.010979,86.95665018321364
1673611764.115002,-0.858562,86.9743518587875
1673611764.116009,-0.829545,86.992053534361375
1673611764.1170158,-0.870966,87.00975101919765
1673611764.118023,-0.911499,87.02745269477151
1673611764.11903,-0.848489,87.04515437034537
1673611764.1200368,-0.743936,87.06285185518165
1673611764.121044,-0.767063,87.08055353075551
1673611764.122052,-0.896449,87.09827196927974
1673611764.1230588,-0.958763,87.11596945411601
1673611764.1240659,-0.834785,87.13367112968987
1673611764.125073,-0.763265,87.15137280526375
1673611764.1260798,-0.733238,87.16907029010002
1673611764.1270869,-0.71064,87.18677196567388
1673611764.128094,-0.610223,87.16136460738974
1673611764.1291008,-0.645683,87.18345784167859
1673611764.1301079,-0.67869,87.17561668717215
1673611764.131115,-0.688379,87.23182844553038
1673611764.1321218,-0.76877,87.15458551645207
1673611764.133129,-0.895223,87.16638656223175
1673611764.134137,-1.020475,87.14171514115402
1673611764.135144,-1.029442,87.15152007628129
1673611764.1361508,-0.942127,87.16973366475918
1673611764.137158,-0.86801,87.1710820840333
1673611764.138165,-0.829136,87.16968077207204
1673611764.1391718,-0.807668,87.16827979186075
1673611764.140179,-0.827429,87.1668784798995
1673611764.141186,-0.869212,87.16547716793822
1673611764.1421928,-0.886232,87.16407618772695
1673611764.1432,-0.844498,87.16267487576569
1673611764.144207,-0.830098,87.16127356380441
1673611764.1452138,-0.803653,87.15987258359314
1673611764.146221,-0.770934,87.15847127163188
1673611764.147229,-0.766126,87.15706863267064
1673611764.1482358,-0.772208,87.15566765245937
1673611764.1492429,-0.794974,87.15426634049811
1673611764.15025,-0.846157,87.1195372412971
1673611764.1512568,-0.875414,87.10056818164482
1673611764.1522639,-0.896329,87.09993
1673611764.153271,-0.906763,87.09993
1673611764.1542778,-0.854619,87.15342181883193
1673611764.155285,-0.816971,87.1182777911302
1673611764.156292,-0.834713,87.154198
1673611764.1572988,-0.825049,87.20796578974971
1673611764.158306,-0.751773,87.13635976515579
1673611764.159314,-0.720352,87.1547125768575
1673611764.160321,-0.77841,87.17304802544503
1673611764.1613278,-0.833511,87.191379133254
1673611764.162335,-0.835074,87.20971458184154
1673611764.163342,-0.78757,87.22805003042906
1673611764.1643488,-0.761702,87.24638113823804
1673611764.165356,-0.77716,87.26471658682556
1673611764.166363,-0.847936,87.28305203541309
1673611764.1673698,-0.924096,87.30138314322207
1673611764.168377,-0.89294,87.31971859180959
1673611764.169384,-0.831348,87.33805404039713
1673611764.1703908,-0.738599,87.3563851482061
1673611764.171398,-0.597313,87.37472059679362
1673611764.172406,-0.436313,87.39307340849534
1673611764.1734128,-0.419461,87.41140451630432
1673611764.1744199,-0.541779,87.42973996489184
1673611764.175427,-0.669074,87.44807541347937
1673611764.1764338,-0.863153,87.46640652128835
1673611764.177441,-1.015594,87.48474196987587
1673611764.178448,-1.094183,87.50307741846339
1673611764.1794548,-1.09863,87.52140852627238
1673611764.180462,-0.98915,87.5397439748599
1673611764.181469,-0.908085,87.55807942344742
1673611764.1824758,-0.888564,87.5764105312564
1673611764.183483,-0.808076,87.59474597984394
1673611764.184491,-0.720665,87.61309879154565
1673611764.185498,-0.655563,87.63143424013317
1673611764.1865048,-0.613324,87.64976534794215
1673611764.187512,-0.571061,87.66810079652967
1673611764.188519,-0.592168,87.6864362451172
1673611764.1895258,-0.660131,87.70476735292618
1673611764.190533,-0.711337,87.7231028015137
1673611764.19154,-0.720905,87.74143825010123
1673611764.1925468,-0.719631,87.75976935791022
1673611764.193554,-0.812548,87.77810480649774
1673611764.194561,-0.904359,87.79644025508526
1673611764.1955678,-0.985255,87.81477136289423
1673611764.196575,-1.064204,87.83310681148177
1673611764.197583,-1.097428,87.85145962318349
1673611764.1985898,-1.044034,87.86979073099246
1673611764.199597,-0.981914,87.88812617957998
1673611764.200604,-0.910609,87.9064616281675
1673611764.2016108,-0.773362,87.9247927359765
1673611764.202618,-0.686239,87.94312818456402
1673611764.203625,-0.724319,87.96146363315154
1673611764.2046318,-0.783579,87.97979474096051
1673611764.205639,-0.894214,87.99813018954805
1673611764.206646,-0.976841,87.95660906008584
1673611764.2076528,-0.706481,87.95623779732952
1673611764.20866,-0.56582,87.91942380524435
1673611764.209668,-0.637389,87.88353345207439
1673611764.210675,-0.787402,87.89028505436337
1673611764.2116818,-0.97874,87.87067767651966
1673611764.212689,-1.054131,87.859703
1673611764.213696,-0.989462,87.79539447067239
1673611764.2147028,-0.923255,87.78224364258465
1673611764.21571,-0.858562,87.7217800102503
1673611764.216717,-0.80399,87.48278561921708
1673611764.2177238,-0.745595,87.4472178699525
1673611764.218731,-0.744105,87.38924918972685
1673611764.219738,-0.795335,87.31957023131672
1673611764.2207448,-0.822933,87.2992872645487
1673611764.221752,-0.820337,87.17447360570071
1673611764.22276,-0.81512,87.18668574970344
1673611764.2237668,-0.788363,87.076179554038
1673611764.224774,-0.707587,87.04145786300116
1673611764.225781,-0.688619,87.01868489790245
1673611764.2267878,-0.724536,86.99591732413072
1673611764.227795,-0.807764,86.97314435903202
1673611764.228802,-0.928712,86.95037139393331
1673611764.2298088,-1.084134,86.92760382016158
1673611764.230816,-1.076489,86.90483085506288
1673611764.231823,-0.955469,86.88205788996417
1673611764.2328298,-0.809783,86.85929031619244
1673611764.233837,-0.735714,86.83651735109375
1673611764.234845,-0.744513,86.81372282068719
1673611764.235852,-0.797691,86.79094985558848
1673611764.2368588,-0.883395,86.76818228181675
1673611764.237866,-0.895728,86.74540931671805
1673611764.238873,-0.889526,86.72263635161936
1673611764.2398798,-0.876448,86.69986877784761
1673611764.240887,-0.711626,86.67709581274892
1673611764.241894,-0.58474,86.65432284765022
1673611764.2429008,-0.534183,86.63155527387848
1673611764.243908,-0.573753,86.60878230877978
1673611764.244915,-0.646187,86.58600934368108
1673611764.2459219,-0.719631,86.56324176990934
1673611764.246929,-0.805793,86.54046880481064
1673611764.247937,-0.919144,86.51767427440409
1673611764.2489438,-1.004992,86.49490670063236
1673611764.249951,-1.021797,86.47213373553365
1673611764.250958,-0.928207,86.44936077043495
1673611764.2519648,-0.835963,86.42659319666322
1673611764.252972,-0.886304,86.40382023156451
1673611764.253979,-0.877097,86.38104726646581
1673611764.2549858,-0.805264,86.35827969269408
1673611764.255993,-0.71891,86.33550672759539
1673611764.257,-0.740474,86.31273376249668
1673611764.2580068,-0.788604,86.28996618872495
1673611764.259014,-0.815313,86.26719322362625
1673611764.260022,-0.815168,86.2443986932197
1673611764.261029,-0.828535,86.22162572812098
1673611764.2620358,-0.848008,86.19885815434925
1673611764.263043,-0.86599,86.17608518925056
1673611764.26405,-0.83755,86.15331222415185
1673611764.2650568,-0.836805,86.13054465038012
1673611764.266064,-0.790022,86.10777168528142
1673611764.267071,-0.752735,86.08499872018271
1673611764.2680779,-0.820602,86.05830982352941
1673611764.269085,-0.894767,86.05401835693849
1673611764.270092,-0.859355,86.09399071885441
1673611764.2710989,-0.844979,86.08566002622794
1673611764.272106,-0.828703,86.11730790307216
1673611764.273114,-0.835555,86.13438725799523
1673611764.2741208,-0.847936,86.195412
1673611764.275128,-0.844642,86.20155510883544
1673611764.276135,-0.87527,86.22603500811455
1673611764.2771418,-0.872529,86.25661029732063
1673611764.278149,-0.856927,86.27629373120364
1673611764.279156,-0.831973,86.29597716508663
1673611764.2801628,-0.783002,86.31565593906576
1673611764.28117,-0.757615,86.33533937294875
1673611764.282177,-0.762039,86.35502280683176
1673611764.2831838,-0.762904,86.37470158081089
1673611764.284191,-0.735378,86.39438501469388
1673611764.285199,-0.692153,86.41408708819229
1673611764.286206,-0.73682,86.43377052207529
1673611764.2872128,-0.778458,86.45344929605443
1673611764.28822,-0.745162,86.47313272993742
1673611764.289227,-0.710592,86.49281616382041
1673611764.2902339,-0.805336,86.51249493779954
1673611764.291241,-0.88027,86.53217837168255
1673611764.292248,-0.886761,86.55186180556554
1673611764.2932549,-0.887386,86.57154057954467
1673611764.294262,-0.940756,86.59122401342766
1673611764.295269,-0.936213,86.61090744731067
1673611764.2962759,-0.887266,86.6305862212898
1673611764.297283,-0.885896,86.65026965517279
1673611764.298291,-0.878131,86.6699717286712
1673611764.2992978,-0.821251,86.68965050265034
1673611764.300305,-0.880511,86.70933393653334
1673611764.301312,-0.93465,86.72901737041633
1673611764.3023188,-0.932222,86.74869614439547
1673611764.303326,-0.933664,86.76837957827846
1673611764.304333,-0.876808,86.78806301216146
1673611764.3053398,-0.720593,86.8077417861406
1673611764.306347,-0.600679,86.82742522002358
1673611764.307354,-0.617459,86.84710865390657
1673611764.3083608,-0.734272,86.86678742788571
1673611764.309368,-0.839329,86.88647086176871
1673611764.310376,-0.881112,86.90617293526712
1673611764.311383,-0.903614,86.92585636915011
1673611764.3123899,-0.923183,86.94553514312925
1673611764.313397,-0.941285,86.96521857701225
1673611764.314404,-0.820674,86.98490201089524
1673611764.3154109,-0.701577,87.00458078487438
1673611764.316418,-0.610271,87.02426421875737
1673611764.317425,-0.512354,87.04394765264037
1673611764.3184319,-0.391117,87.0636264266195
1673611764.319439,-0.336714,87.0833098605025
1673611764.320446,-0.503988,87.10299329438548
1673611764.3214529,-0.794518,87.12267206836462
1673611764.32246,-0.968739,87.14235550224763
1673611764.323468,-1.065911,87.16205757574603
1673611764.3244748,-1.079927,87.18173634972517
1673611764.325482,-0.930924,87.20141978360816
1673611764.326489,-0.998381,87.22110321749116
1673611764.3274958,-1.026124,87.2407819914703
1673611764.328503,-0.922101,87.26046542535329
1673611764.32951,-0.826828,87.28014885923628
1673611764.3305168,-0.740883,87.29982763321541
1673611764.331524,-0.701096,87.31951106709842
1673611764.332531,-0.735306,87.3391945009814
1673611764.3335378,-0.760067,87.35887327496054
1673611764.334545,-0.777425,87.37855670884353
1673611764.335553,-0.77668,87.398258782341955
1673611764.33656,-0.74372,87.41794221622494
1673611764.3375669,-0.833223,87.43762099020408
1673611764.338574,-0.923711,87.45730442408707
1673611764.339581,-0.923135,87.47698785797007
1673611764.3405879,-0.933352,87.49666663194921
1673611764.341595,-0.959941,87.5163500658322
1673611764.342602,-0.954195,87.54130291114816
1673611764.3436089,-0.904215,87.61027335465394
1673611764.344616,-0.857792,87.64881693705294
1673611764.345623,-0.825794,87.70128015184744
1673611764.3466299,-0.829352,87.73770173485933
1673611764.347638,-0.836949,87.77171544778254
1673611764.348645,-0.882073,87.77958418831943
1673611764.3496518,-0.939338,87.74932993323796
1673611764.350659,-0.967345,87.841614
1673611764.351666,-0.916163,87.84545419127807
1673611764.3526728,-0.784709,87.86902559791653
1673611764.35368,-0.727973,87.89260258622836
1673611764.354687,-0.722204,87.9161795745402
1673611764.3556938,-0.751822,87.93975098117865
1673611764.356701,-0.753649,87.96332796949048
1673611764.357708,-0.755788,87.98690495780231
1673611764.3587148,-0.788123,88.01047636444078
1673611764.359722,-0.837045,88.03405335275261
1673611764.36073,-0.831372,88.05765266775792
1673611764.361737,-0.761462,88.08122965606975
1673611764.3627439,-0.642173,88.1048010627082
1673611764.363751,-0.624839,88.12837805102004
1673611764.364758,-0.730546,88.15195503933187
1673611764.3657649,-0.839642,88.17552644597033
1673611764.366772,-0.883227,88.19910343428216
1673611764.367779,-0.897748,88.222680422594
1673611764.3687859,-0.918519,88.24625182923245
1673611764.369793,-0.923495,88.26982881754428
1673611764.3708,-0.883155,88.29340580585611
1673611764.3718069,-0.850652,88.31697721249458
1673611764.372815,-0.838752,88.34057652749989
1673611764.373822,-0.799085,88.36415351581172
1673611764.3748288,-0.749201,88.38772492245018
1673611764.375836,-0.71677,88.411301910762
1673611764.376843,-0.715544,88.43487889907384
1673611764.3778498,-0.69749,88.4584503057123
1673611764.378857,-0.768698,88.48202729402414
1673611764.379864,-0.84106,88.50560428233597
1673611764.3808708,-0.808629,88.52917568897442
1673611764.381878,-0.706169,88.55275267728625
1673611764.382885,-0.72218,88.57632966559808
1673611764.3838918,-0.702394,88.59990107223655
1673611764.384899,-0.709823,88.62347806054838
1673611764.385907,-0.851902,88.64707737555368
1673611764.386914,-0.981144,88.67065436386551
1673611764.3879209,-1.07697,88.69422577050398
1673611764.388928,-0.957585,88.71780275881581
1673611764.389935,-0.806538,88.74137974712764
1673611764.3909419,-0.751605,88.7649511537661
1673611764.391949,-0.738022,88.78852814207794
1673611764.392956,-0.733575,88.81210513038977
1673611764.3939629,-0.718598,88.83567653702822
1673611764.39497,-0.647894,88.85925352534005
1673611764.395977,-0.576614,88.88283051365188
1673611764.3969839,-0.613829,88.90640192029035
1673611764.397992,-0.725329,88.89267309861839
1673611764.398999,-0.806634,88.9072522052506
1673611764.4000058,-0.835627,88.87587111993324
1673611764.401013,-0.89294,88.9393875342074
1673611764.40202,-0.954123,88.97868783595612
1673611764.4030268,-0.993814,89.03204255722461
1673611764.404034,-0.995833,89.0014796705602
1673611764.405041,-0.960301,89.06806079065332
1673611764.4060478,-0.92876,89.071754
1673611764.407055,-0.950589,89.06004721599321
1673611764.408062,-0.973644,89.04780422128049
1673611764.4090688,-0.930202,89.035564125004
1673611764.410076,-0.872697,89.02332113029128
1673611764.411084,-0.900945,89.01106654183356
1673611764.412091,-0.903397,88.99882354712084
1673611764.4130979,-0.906787,88.98658345084436
1673611764.414105,-0.898252,88.97434045613163
1673611764.415112,-0.890103,88.9620974614189
1673611764.4161189,-0.908878,88.94985736514244
1673611764.417126,-0.939891,88.93761437042971
1673611764.418133,-0.881568,88.92537137571698
1673611764.4191399,-0.767857,88.9131312794405
1673611764.420147,-0.670565,88.90088828472778
1673611764.421154,-0.692778,88.88864529001506
1673611764.4221609,-0.793965,88.87640519373858
1673611764.423169,-0.920057,88.86415060528087
1673611764.424176,-0.957801,88.85190761056813
1673611764.4251828,-0.912677,88.83966751429166
1673611764.42619,-0.891689,88.82742451957894
1673611764.427197,-0.849138,88.81518152486622
1673611764.4282038,-0.830795,88.80294142858973
1673611764.429211,-0.868538,88.79069843387701
1673611764.430218,-0.868611,88.77845543916429
1673611764.4312248,-0.82827,88.7662153428878
1673611764.432232,-0.790503,88.75397234817508
1673611764.433239,-0.763842,88.74172935346236
1673611764.4342458,-0.73057,88.72948925718589
1673611764.435253,-0.737998,88.71724626247315
1673611764.436261,-0.782666,88.70499167401545
1673611764.437268,-0.834954,88.69274867930272
1673611764.4382749,-0.788267,88.68050858302624
1673611764.439282,-0.72504,88.66826558831352
1673611764.440289,-0.710929,88.6560225936008
1673611764.4412959,-0.75675,88.64378249732431
1673611764.442303,-0.899503,88.63153950261159
1673611764.44331,-1.025836,88.61929650789887
1673611764.4443169,-0.990256,88.6070564116224
1673611764.445324,-0.87926,88.59481341690966
1673611764.446331,-0.802739,88.58257042219694
1673611764.4473379,-0.807427,88.57033032592047
1673611764.448346,-0.827621,88.55807573746274
1673611764.449353,-0.829857,88.54583274275002
1673611764.4503598,-0.806562,88.53359264647355
1673611764.451367,-0.779324,88.51759653873658
1673611764.452374,-0.76615,88.47622655030996
1673611764.4533808,-0.763361,88.48009134453982
1673611764.454388,-0.778771,88.46921050488677
1673611764.455395,-0.796585,88.42080996566524
1673611764.4564018,-0.810024,88.37824253481163
1673611764.457409,-0.839161,88.37843337997616
1673611764.458416,-0.805552,88.39665105150215
1673611764.4594228,-0.771775,88.3774834141631
1673611764.46043,-0.775742,88.3502417087026
1673611764.461438,-0.831155,88.32708940188334
1673611764.462445,-0.893348,88.30395899885482
1673611764.4634519,-0.914528,88.280834071774
1673611764.464459,-0.949435,88.25770366874548
1673611764.465466,-0.915201,88.23457326571697
1673611764.4664729,-0.801393,88.21144833863615
1673611764.46748,-0.751245,88.18831793560763
1673611764.468487,-0.77353,88.16518753257913
1673611764.4694939,-0.750259,88.1420626054983
1673611764.470501,-0.68583,88.11893220246978
1673611764.471508,-0.638374,88.09580179944128
1673611764.4725149,-0.716915,88.07267687236045
1673611764.473523,-0.948786,88.04952456554119
1673611764.47453,-1.078412,88.02639416251267
1673611764.4755368,-1.07822,88.00326923543184
1673611764.476544,-0.934626,87.98013883240334
1673611764.477551,-0.81113,87.95700842937482
1673611764.4785578,-0.78406,87.933883502294
1673611764.479565,-0.813269,87.91075309926548
1673611764.480572,-0.910249,87.88762269623697
1673611764.4815788,-0.910657,87.86449776915615
1673611764.482586,-0.791392,87.84136736612763
1673611764.483593,-0.751581,87.81823696309912
1673611764.4845998,-0.756389,87.7951120360183
1673611764.485607,-0.808798,87.77198163298978
1673611764.486615,-0.845147,87.74882932617052
1673611764.487622,-0.868635,87.725698923142
1673611764.4886289,-0.889213,87.70257399606119
1673611764.489636,-0.873827,87.67944359303267
1673611764.490643,-0.865605,87.65631319000416
1673611764.4916499,-0.908446,87.63318826292333
1673611764.492657,-0.892891,87.61005785989482
1673611764.493664,-0.874308,87.5869274568663
1673611764.4946709,-0.926741,87.56380252978548
1673611764.495678,-0.981649,87.54067212675697
1673611764.496685,-0.975759,87.51754172372846
1673611764.4976919,-0.878539,87.49441679664763
1673611764.4987,-0.755428,87.47126448982837
1673611764.499707,-0.664314,87.44813408679985
1673611764.5007138,-0.61068,87.42500915971904
1673611764.501721,-0.624912,87.40187875669052
1673611764.502728,-0.688379,87.378748353662
1673611764.5037348,-0.778939,87.35562342658118
1673611764.504742,-0.862047,87.33249302355267
1673611764.505749,-0.908253,87.30936262052415
1673611764.5067558,-0.945636,87.28623769344333
1673611764.507763,-0.940059,87.26310729041482
1673611764.50877,-0.950012,87.2399768873863
1673611764.5097768,-0.944146,87.21685196030548
1673611764.510784,-0.86813,87.19372155727697
1673611764.511792,-0.825674,87.1705692504577
1673611764.512799,-0.796032,87.1474388474292
1673611764.5138059,-0.758313,87.12431392034837
1673611764.514813,-0.751749,87.10118351731985
1673611764.51582,-0.770525,87.07805311429135
1673611764.5168269,-0.811586,87.05492818721052
1673611764.517834,-0.923351,87.031797784182
1673611764.518841,-1.001483,87.0086673811535
1673611764.5198479,-0.895872,86.98554245407267
1673611764.520855,-0.794758,86.96241205104415
1673611764.521862,-0.831997,86.93928164801564
1673611764.5228689,-0.918639,86.91615672093482
1673611764.523877,-0.867961,86.89300441411555
1673611764.524884,-0.870462,86.86987401108705
1673611764.5258908,-0.902027,86.864754
1673611764.526898,-0.777833,86.80752744563662
1673611764.527905,-0.588442,86.76351256556985
1673611764.5289118,-0.441578,86.69678260788129
1673611764.529919,-0.375587,86.66885902919708
1673611764.530926,-0.232618,86.68680209327813
1673611764.5319328,-0.252836,86.65620784067137
1673611764.53294,-0.461772,86.70465055060828
1673611764.533947,-0.711602,86.66832455090112
1673611764.5349538,-0.876376,86.66975440821363
1673611764.535961,-1.006531,86.67450927203527
1673611764.536969,-1.081754,86.67926863856884
1673611764.537976,-1.046006,86.68402350239046
1673611764.5389829,-1.094664,86.6887772405341
1673611764.53999,-1.131903,86.69353210435571
1673611764.540997,-1.142552,86.69828696817734
1673611764.5420039,-1.141735,86.70304070632098
1673611764.543011,-1.199264,86.7077955701426
1673611764.544018,-1.113584,86.71255043396422
1673611764.5450249,-0.956815,86.71730417210786
1673611764.546032,-0.858489,86.72205903592948
1673611764.547039,-0.754202,86.72681389975111
1673611764.5480459,-0.700327,86.73156763789474
1673611764.549054,-0.660588,86.73632700442832
1673611764.550061,-0.694677,86.74108186824994
1673611764.5510678,-0.824472,86.74583560639357
1673611764.552075,-0.948233,86.75059047021519
1673611764.553082,-0.977154,86.75534533403682
1673611764.5540888,-0.959748,86.76009907218045
1673611764.555096,-1.019249,86.76485393600207
1673611764.556103,-1.119401,86.7696087998237
1673611764.5571098,-1.113632,86.77436253796733
1673611764.558117,-1.058915,86.77911740178895
1673611764.559124,-1.04127,86.78387226561057
1673611764.5601308,-1.002012,86.78862600375422
1673611764.561138,-0.915297,86.79338086757583
1673611764.562146,-0.757736,86.79814023410941
1673611764.563153,-0.63936,86.80289509793103
1673611764.5641599,-0.583033,86.80764883607466
1673611764.565167,-0.629503,86.8124036998963
1673611764.566174,-0.787065,86.81715856371791
1673611764.5671809,-1.020715,86.82191230186154
1673611764.568188,-0.917749,86.82666716568318
1673611764.569195,-0.700543,86.8314220295048
1673611764.5702019,-0.650707,86.83617576764843
1673611764.571209,-0.741508,86.84093063147004
1673611764.5722158,-0.840651,86.84568436961368
1673611764.5732229,-0.871856,86.85043923343531
1673611764.574231,-0.892411,86.85519859996889
1673611764.575238,-0.910633,86.8599534637905
1673611764.5762448,-0.844738,86.86470720193414
1673611764.577252,-0.777064,86.86946206575577
1673611764.578259,-0.77365,86.87421692957739
1673611764.5792658,-0.721482,86.87897066772102
1673611764.580273,-0.73069,86.87271056084782
1673611764.58128,-0.85034,86.828575
1673611764.5822868,-0.976024,86.828575
1673611764.583294,-0.960181,86.83609719551741
1673611764.584301,-0.853345,86.86086803191236
1673611764.5853078,-0.809567,86.8346823018598
1673611764.586315,-0.676334,86.792397
1673611764.587323,-0.601761,86.792397
1673611764.58833,-0.726579,86.78800174248926
1673611764.5893369,-0.853321,86.77328265100961
1673611764.590344,-0.935756,86.76915397721628
1673611764.591351,-0.900993,86.76502530342296
1673611764.5923579,-0.932198,86.76089760706186
1673611764.593365,-0.937318,86.75676893326855
1673611764.5943718,-0.858105,86.756203
1673611764.5953789,-0.819255,86.7754053822998
1673611764.596386,-0.844834,86.79745836295079
1673611764.5973928,-0.884165,86.81950612272567
1673611764.5983999,-0.855196,86.84155910337667
1673611764.599408,-0.818726,86.86363296753206
1673611764.600415,-0.823559,86.88568594818305
1673611764.6014218,-0.846445,86.90773370795793
1673611764.602429,-0.836276,86.92978668860893
1673611764.603436,-0.832982,86.95183966925991
1673611764.6044428,-0.820818,86.9738874290348
1673611764.60545,-0.780237,86.9959404096858
1673611764.606457,-0.736748,87.01799339033678
1673611764.6074638,-0.746244,87.04004115011168
1673611764.608471,-0.753817,87.06209413076266
1673611764.609478,-0.752302,87.08414711141366
1673611764.6104848,-0.838752,87.10619487118855
1673611764.611492,-0.898709,87.12824785183953
1673611764.6125,-0.878203,87.15032171599493
1673611764.613507,-0.848945,87.17237469664592
1673611764.6145139,-0.840724,87.19442245642081
1673611764.615521,-0.886112,87.2164754370718
1673611764.6165278,-0.881761,87.23852319684669
1673611764.6175349,-0.842695,87.26057617749768
1673611764.618542,-0.833295,87.28262915814867
1673611764.6195488,-0.838247,87.30467691792356
1673611764.6205559,-0.838608,87.32672989857454
1673611764.621563,-0.85909,87.34878287922554
1673611764.6225698,-0.856422,87.37083063900042
1673611764.6235769,-0.843656,87.39288361965141
1673611764.624585,-0.830699,87.4149574838068
1673611764.625592,-0.828583,87.4370104644578
1673611764.6265988,-0.816106,87.45905822423269
1673611764.627606,-0.829136,87.48111120488367
1673611764.628613,-0.869284,87.50316418553467
1673611764.6296198,-0.916187,87.52521194530955
1673611764.630627,-0.951671,87.54726492596055
1673611764.631634,-0.954315,87.56931790661153
1673611764.6326408,-0.928832,87.59334087159904
1673611764.633648,-0.886352,87.62718174248927
1673611764.634655,-0.788027,87.65646060966897
1673611764.6356618,-0.702611,87.74456816738198
1673611764.636669,-0.565507,87.80843975990454
1673611764.637677,-0.426962,87.81719241869338
1673611764.6386838,-0.448141,87.7939199018814
1673611764.6396909,-0.63085,87.83032806968974
1673611764.640698,-0.824111,87.859703
1673611764.6417048,-0.90972,87.8670444051498
1673611764.6427119,-0.883275,87.90348400015894
1673611764.643719,-0.791416,87.93992359516808
1673611764.6447258,-0.709342,87.98038966372945
1673611764.6457329,-0.708332,88.03084576038185
1673611764.64674,-0.806538,88.0543963218884
1673611764.6477468,-0.935275,88.040611
1673611764.648754,-0.938496,88.040611
1673611764.649762,-0.897147,88.04529972076372
1673611764.650769,-0.85546,88.0635316342394
1673611764.6517758,-0.801153,88.06194029006906
1673611764.652783,-0.705159,88.04786414892601
1673611764.65379,-0.695254,88.10511604148986
1673611764.6547968,-0.750379,88.0776666865327
1673611764.655804,-0.762784,88.05021083160987
1673611764.656811,-0.768241,88.02275497668704
1673611764.6578178,-0.827549,87.99530562172987
1673611764.658825,-0.860461,87.96784976680703
1673611764.659832,-0.953546,87.94039391188421
1673611764.6608388,-1.050838,87.91294455692704
1673611764.661846,-1.06745,87.88548870200421
1673611764.662854,-1.006796,87.85800684721877
1673611764.6638608,-0.9334,87.83055749226159
1673611764.6648679,-0.871327,87.80310163733877
1673611764.665875,-0.828198,87.77564578241594
1673611764.6668818,-0.808798,87.74819642745877
1673611764.6678889,-0.817837,87.72074057253595
1673611764.668896,-0.812644,87.69328471761311
1673611764.6699028,-0.824496,87.66583536265594
1673611764.67091,-0.847984,87.6383795077331
1673611764.671917,-0.826203,87.61092365281029
1673611764.6729238,-0.811634,87.58347429785312
1673611764.673931,-0.813486,87.55601844293028
1673611764.674939,-0.794878,87.52853658814485
1673611764.675946,-0.79221,87.50108073322201
1673611764.6769528,-0.865918,87.47363137826484
1673611764.67796,-0.862264,87.446175523342
1673611764.678967,-0.840387,87.41871966841919
1673611764.6799738,-0.842238,87.39127031346202
1673611764.680981,-0.852551,87.36381445853918
1673611764.681988,-0.857961,87.33635860361636
1673611764.6829948,-0.867505,87.30890924865918
1673611764.684002,-0.910706,87.28145339373636
1673611764.685009,-0.918182,87.25399753881352
1673611764.6860158,-0.883083,87.22654818385635
1673611764.687023,-0.87039,87.19909232893353
1673611764.688031,-0.860749,87.17161047414808
1673611764.6890378,-0.847407,87.14416111919091
1673611764.6900449,-0.842935,87.11670526426808
1673611764.691052,-0.840243,87.08924940934526
1673611764.6920588,-0.830146,87.06180005438809
1673611764.693066,-0.801177,87.03434419946525
1673611764.694073,-0.788676,87.00688834454243
1673611764.6950798,-0.801874,86.97943898958525
1673611764.696087,-0.8056,86.95198313466243
1673611764.697094,-0.802667,86.92452727973959
1673611764.6981008,-0.798604,86.89707792478242
1673611764.699108,-0.816154,86.85653045840286
1673611764.700116,-0.846686,86.81965989198855
1673611764.701123,-0.850292,86.7833445
1673611764.7021298,-0.830771,86.73786333524082
1673611764.703137,-0.831877,86.76651650822407
1673611764.704144,-0.8507,86.77278094396758
1673611764.7051508,-0.85784,86.77631848927038
1673611764.706158,-0.824592,86.79113303790226
1673611764.707165,-0.809928,86.73508392989986
1673611764.7081718,-0.836228,86.701935
1673611764.709179,-0.865485,86.701935
1673611764.710186,-0.865365,86.701935
1673611764.7111928,-0.841805,86.701935
1673611764.7122,-0.778242,86.701935
1673611764.713208,-0.739128,86.701935
1673611764.7142148,-0.750115,86.701935
1673611764.715222,-0.736436,86.701935
1673611764.716229,-0.652847,86.701935
1673611764.7172358,-0.549905,86.701935
1673611764.718243,-0.569282,86.701935
1673611764.71925,-0.670685,86.701935
1673611764.7202568,-0.800888,86.701935
1673611764.721264,-0.862648,86.701935
1673611764.722271,-0.939266,86.6693224545888
1673611764.7232778,-0.944747,86.6806496256557
1673611764.724285,-0.852984,86.74643843061516
1673611764.725293,-0.775598,86.74049496686531
1673611764.7263,-0.793003,86.720024
1673611764.7273068,-0.792883,86.74306503695756
