measure_time,emg_ch_1,grip_force_inter
1673606363.664774,-0.824881,-0.56482
1673606363.665781,-0.831901,-0.510545
1673606363.666788,-0.836853,-0.5110540543633763
1673606363.667795,-0.844137,-0.5471105498330948
1673606363.668802,-0.845147,-0.5632933134684148
1673606363.669809,-0.843296,-0.5105590883794366
1673606363.670816,-0.84457,-0.5109638178104619
1673606363.671823,-0.842839,-0.511368643080803
1673606363.672831,-0.835579,-0.5117738517084077
1673606363.6738381,-0.826516,-0.5121786769787489
1673606363.674845,-0.819111,-0.5125834064097742
1673606363.675852,-0.825097,-0.5129882316801153
1673606363.6768591,-0.830939,-0.51339305695045645
1673606363.677866,-0.834112,-0.5137977863814818
1673606363.678873,-0.831035,-0.5142026116518229
1673606363.6798801,-0.832117,-0.514607436922164
1673606363.680887,-0.833151,-0.5150121663531892
1673606363.681894,-0.830699,-0.5154169916235305
1673606363.6829011,-0.830338,-0.5158218168938716
1673606363.683908,-0.831155,-0.5162265463248968
1673606363.684915,-0.834112,-0.516631371595238
1673606363.685923,-0.842142,-0.5170365802228427
1673606363.68693,-0.842478,-0.517441309653868
1673606363.687937,-0.840748,-0.5178461349242092
1673606363.688944,-0.841974,-0.5182509601945503
1673606363.689951,-0.845123,-0.5186556896255755
1673606363.690958,-0.848513,-0.5190605148959168
1673606363.691965,-0.850292,-0.5194653401662579
1673606363.692972,-0.856158,-0.5198700695972831
1673606363.693979,-0.85772,-0.5202748948676242
1673606363.694986,-0.850412,-0.5206797201379654
1673606363.695993,-0.844666,-0.5210844495689907
1673606363.697,-0.839329,-0.5214892748393318
1673606363.698008,-0.835723,-0.5218944834669366
1673606363.6990151,-0.828607,-0.5222993087372777
1673606363.700022,-0.821972,-0.522704038168303
1673606363.701029,-0.825506,-0.5231088634386442
1673606363.7020361,-0.829256,-0.5235136887089853
1673606363.703043,-0.829953,-0.5239184181400105
1673606363.70405,-0.830675,-0.5243232434103516
1673606363.7050571,-0.83416,-0.5247280686806929
1673606363.706064,-0.838055,-0.5251327981117181
1673606363.707071,-0.835026,-0.5255376233820592
1673606363.7080781,-0.835627,-0.5259424486524004
1673606363.709085,-0.834785,-0.5263471780834257
1673606363.710092,-0.832478,-0.5267520033537668
1673606363.7111,-0.831155,-0.5271572119813716
1673606363.712107,-0.8338,-0.5275619414123968
1673606363.713114,-0.833487,-0.5279667666827379
1673606363.714121,-0.830458,-0.5283715919530791
1673606363.715128,-0.829473,-0.528634
1673606363.716135,-0.833776,-0.528634
1673606363.717142,-0.842647,-0.5219746256556986
1673606363.718149,-0.848873,-0.4997792046916383
1673606363.719156,-0.854114,-0.5428782997728994
1673606363.720163,-0.856494,-0.5414148970476912
1673606363.72117,-0.848921,-0.4709691139451728
1673606363.722177,-0.8388,-0.4600562460658083
1673606363.723185,-0.828222,-0.492456
1673606363.7241921,-0.825818,-0.49262178070496276
1673606363.725199,-0.829352,-0.4930209209085304
1673606363.726206,-0.835314,-0.4934201556278934
1673606363.7272131,-0.837622,-0.49381939034725636
1673606363.72822,-0.835795,-0.494218530550824
1673606363.729227,-0.834882,-0.49461776527018697
1673606363.7302341,-0.83957,-0.4950169999895499
1673606363.731241,-0.84594,-0.4954161401931176
1673606363.732248,-0.845844,-0.49581537491248057
1673606363.7332551,-0.843248,-0.4962146096318435
1673606363.734262,-0.842839,-0.4966137498354112
1673606363.735269,-0.842166,-0.4970129845547741
1673606363.736277,-0.840074,-0.4974125973373183
1673606363.737284,-0.838848,-0.497811737540886
1673606363.738291,-0.832838,-0.4982109722602489
1673606363.739298,-0.828174,-0.4986102069796119
1673606363.740305,-0.824424,-0.4990093471831796
1673606363.741312,-0.828487,-0.4994085819025425
1673606363.742319,-0.833223,-0.4998078166219055
1673606363.743326,-0.833103,-0.5002069568254731
1673606363.744333,-0.837069,-0.5006061915448361
1673606363.74534,-0.836805,-0.5010054262641991
1673606363.746347,-0.832333,-0.5014045664677668
1673606363.747354,-0.834425,-0.5018038011871296
1673606363.748362,-0.838488,-0.5022034139696738
1673606363.7493691,-0.84005,-0.5026026486890368
1673606363.750376,-0.8388,-0.5030017888926045
1673606363.751383,-0.835242,-0.5034010236119675
1673606363.7523901,-0.832502,-0.5038002583313305
1673606363.753397,-0.835338,-0.504199398534898
1673606363.754404,-0.836156,-0.504598633254261
1673606363.7554111,-0.836877,-0.504997867973624
1673606363.756418,-0.836348,-0.5053970081771917
1673606363.757425,-0.841204,-0.5057962428965547
1673606363.7584321,-0.844137,-0.5061954776159175
1673606363.759439,-0.842334,-0.5065946178194852
1673606363.760446,-0.837526,-0.5069938525388482
1673606363.761454,-0.836925,-0.5073934653213924
1673606363.762461,-0.833271,-0.5077926055249601
1673606363.763468,-0.834353,-0.5081918402443231
1673606363.764475,-0.833415,-0.5085910749636859
1673606363.765482,-0.837622,-0.5089902151672536
1673606363.766489,-0.837286,-0.5093894498866166
1673606363.767496,-0.836925,-0.5097886846059796
1673606363.768503,-0.835939,-0.5101878248095473
1673606363.76951,-0.838824,-0.5163024195470799
1673606363.770517,-0.839065,-0.5586859155937053
1673606363.771524,-0.833728,-0.5083755276585599
1673606363.772531,-0.830843,-0.4970537286599905
1673606363.773539,-0.834882,-0.5261890743742551
1673606363.7745461,-0.836516,-0.513115587505961
1673606363.775553,-0.839017,-0.5313308586075346
1673606363.77656,-0.838969,-0.5552043110846245
1673606363.7775671,-0.835194,-0.5980486995708154
1673606363.778574,-0.835963,-0.582909
1673606363.779581,-0.83892,-0.582909
1673606363.7805882,-0.840002,-0.582909
1673606363.781595,-0.836372,-0.582909
1673606363.782602,-0.842863,-0.582909
1673606363.7836092,-0.841926,-0.582909
1673606363.784616,-0.841829,-0.582909
1673606363.785623,-0.84231,-0.582909
1673606363.786631,-0.840675,-0.582909
1673606363.787638,-0.839714,-0.582909
1673606363.788645,-0.837887,-0.582909
1673606363.789652,-0.834713,-0.582909
1673606363.790659,-0.834136,-0.582909
1673606363.791666,-0.833704,-0.582909
1673606363.792673,-0.835362,-0.582909
1673606363.79368,-0.839449,-0.582909
1673606363.794687,-0.842767,-0.582909
1673606363.795694,-0.84219,-0.582909
1673606363.796701,-0.84481,-0.582909
1673606363.797708,-0.847335,-0.582909
1673606363.798716,-0.847527,-0.582909
1673606363.7997231,-0.844402,-0.582909
1673606363.80073,-0.84332,-0.582909
1673606363.801737,-0.841373,-0.582909
1673606363.8027442,-0.840411,-0.582909
1673606363.803751,-0.833055,-0.582909
1673606363.804758,-0.829545,-0.582909
1673606363.8057652,-0.833151,-0.582909
1673606363.806772,-0.834737,-0.582909
1673606363.807779,-0.83606,-0.582909
1673606363.8087862,-0.837526,-0.582909
1673606363.809793,-0.835651,-0.582909
1673606363.8108,-0.830771,-0.582909
1673606363.811808,-0.823054,-0.582909
1673606363.812815,-0.820289,-0.582909
1673606363.813822,-0.816274,-0.582909
1673606363.814829,-0.815914,-0.582909
1673606363.815836,-0.827718,-0.582909
1673606363.816843,-0.832309,-0.582909
1673606363.81785,-0.836877,-0.582909
1673606363.818857,-0.840579,-0.582909
1673606363.819864,-0.842719,-0.582909
1673606363.820871,-0.848176,-0.582909
1673606363.821878,-0.84195,-0.582909
1673606363.822885,-0.845892,-0.582909
1673606363.823893,-0.85671,-0.582909
1673606363.8249002,-0.855388,-0.582909
1673606363.825907,-0.846613,-0.582909
1673606363.826914,-0.844882,-0.582909
1673606363.8279212,-0.84219,-0.582909
1673606363.828928,-0.842695,-0.582909
1673606363.829935,-0.842238,-0.582909
1673606363.8309422,-0.834617,-0.582909
1673606363.831949,-0.831756,-0.582909
1673606363.832956,-0.833704,-0.582909
1673606363.8339632,-0.839786,-0.582909
1673606363.83497,-0.841445,-0.582909
1673606363.835977,-0.838079,-0.582909
1673606363.836985,-0.835723,-0.6174662422508345
1673606363.837992,-0.836949,-0.5842888903456496
1673606363.838999,-0.840219,-0.6003409977616115
1673606363.840006,-0.841637,-0.5834152972292191
1673606363.841013,-0.842166,-0.5658983733557235
1673606363.84202,-0.840748,-0.5650325735870173
1673606363.843027,-0.843128,-0.6008167397145255
1673606363.844034,-0.842118,-0.5824138099838969
1673606363.845041,-0.836949,-0.596972664516129
1673606363.846048,-0.829689,-0.5782088784266984
1673606363.847055,-0.826636,-0.5832779114246902
1673606363.848062,-0.828727,-0.5837015878406476
1673606363.84907,-0.831997,-0.5841256654653323
1673606363.8500772,-0.833992,-0.5845493418812897
1673606363.851084,-0.835387,-0.5849729179950653
1673606363.852091,-0.836973,-0.5853965944110227
1673606363.8530982,-0.837141,-0.5858202708269801
1673606363.854105,-0.838536,-0.5862438469407557
1673606363.855112,-0.838007,-0.5866675233567131
1673606363.8561192,-0.839882,-0.5870911997726705
1673606363.857126,-0.842406,-0.5875147758864462
1673606363.858133,-0.842767,-0.5879384523024036
1673606363.8591402,-0.84445,-0.588362128718361
1673606363.860147,-0.846854,-0.5887857048321367
1673606363.861154,-0.850219,-0.5892093812480941
1673606363.862162,-0.852023,-0.5896334588727786
1673606363.863169,-0.851061,-0.5900570349865543
1673606363.864176,-0.847839,-0.5904807114025117
1673606363.865183,-0.844306,-0.5909043878184691
1673606363.86619,-0.842767,-0.5913279639322447
1673606363.867197,-0.844089,-0.5917516403482022
1673606363.868204,-0.846445,-0.5921753167641596
1673606363.869211,-0.849234,-0.5925988928779352
1673606363.870218,-0.850748,-0.5930225692938926
1673606363.871225,-0.849498,-0.5934462457098499
1673606363.872232,-0.849282,-0.5938698218236256
1673606363.873239,-0.847359,-0.594293498239583
1673606363.874247,-0.842887,-0.5947175758642677
1673606363.8752542,-0.836781,-0.5951412522802251
1673606363.876261,-0.837117,-0.5955648283940007
1673606363.877268,-0.836829,-0.5959885048099581
1673606363.8782752,-0.829737,-0.5964121812259155
1673606363.879282,-0.821972,-0.5968357573396911
1673606363.880289,-0.816899,-0.5972594337556485
1673606363.8812962,-0.800576,-0.5976831101716059
1673606363.882303,-0.791248,-0.5981066862853816
1673606363.88331,-0.799109,-0.598530362701339
1673606363.8843172,-0.808125,-0.5989540391172964
1673606363.885324,-0.81964,-0.599377615231072
1673606363.886331,-0.828607,-0.5998012916470294
1673606363.887339,-0.837887,-0.6002253692717141
1673606363.888346,-0.851614,-0.6006489453854896
1673606363.889353,-0.855797,-0.5978330343347639
1673606363.89036,-0.85046,-0.5796138173581307
1673606363.891367,-0.84695,-0.5614005537544696
1673606363.892374,-0.843945,-0.5538216809728183
1673606363.8933811,-0.838031,-0.5718831773962805
1673606363.894388,-0.833343,-0.5438315125148987
1673606363.895395,-0.839882,-0.5970738927038626
1673606363.8964021,-0.840531,-0.582909
1673606363.897409,-0.841276,-0.5870875959475567
1673606363.898416,-0.832141,-0.6021120662802885
1673606363.899424,-0.823054,-0.6068275414637153
1673606363.9004312,-0.820674,-0.6115385554596461
1673606363.901438,-0.825217,-0.6162484541587028
1673606363.902445,-0.827165,-0.6046129494515975
1673606363.9034522,-0.827213,-0.59027436829559
1673606363.904459,-0.825097,-0.5860236199332379
1673606363.905466,-0.821251,-0.56482
1673606363.9064732,-0.822525,-0.5415777730090605
1673606363.90748,-0.827982,-0.54202635876042915
1673606363.908487,-0.831997,-0.5749125751072961
1673606363.9094942,-0.829376,-0.5729458168812589
1673606363.910501,-0.824376,-0.5664111420738975
1673606363.911509,-0.821323,-0.546731
1673606363.912516,-0.821058,-0.5296819928469242
1673606363.913523,-0.829232,-0.5278400965435042
1673606363.91453,-0.835218,-0.5291815665236052
1673606363.9155371,-0.836564,-0.510545
1673606363.916544,-0.834834,-0.510545
1673606363.917551,-0.827718,-0.5041892731366809
1673606363.9185581,-0.819928,-0.4915377225850034
1673606363.919565,-0.812957,-0.47888916719207386
1673606363.920572,-0.816539,-0.4662376166403963
1673606363.9215791,-0.823727,-0.45358606608871876
1673606363.922586,-0.825578,-0.44093751069578924
1673606363.923593,-0.823895,-0.4282859601441117
1673606363.924601,-0.821683,-0.41562242895744206
1673606363.9256082,-0.825722,-0.4029708784057645
1673606363.926615,-0.826131,-0.390322323012835
1673606363.927622,-0.822357,-0.37767077246115743
1673606363.9286292,-0.81637,-0.3650192219094799
1673606363.929636,-0.813678,-0.35237066651655036
1673606363.930643,-0.823126,-0.3397191159648728
1673606363.9316502,-0.830699,-0.32706756541319526
1673606363.932657,-0.835819,-0.31441901002026573
1673606363.933664,-0.835963,-0.3017674594685882
1673606363.9346712,-0.839834,-0.28911590891691064
1673606363.935678,-0.840603,-0.2764673535239811
1673606363.936686,-0.843801,-0.2638038223373114
1673606363.9376931,-0.845411,-0.2511522717856339
1673606363.9387,-0.850075,-0.2385037163927044
1673606363.939707,-0.851013,-0.2258521658410268
1673606363.9407141,-0.855124,-0.2132006152893493
1673606363.941721,-0.859788,-0.20055205989641972
1673606363.942728,-0.855629,-0.18790050934474223
1673606363.9437351,-0.846734,-0.17524895879306462
1673606363.944742,-0.826275,-0.1626004034001351
1673606363.945749,-0.802114,-0.14994885284845755
1673606363.9467561,-0.788387,-0.13729730229678
1673606363.947763,-0.796128,-0.12464874690385053
1673606363.94877,-0.812524,-0.11199719635217292
1673606363.949778,-0.821034,-0.0993336651655033
1673606363.9507852,-0.828102,-0.08668211461382569
1673606363.951792,-0.829232,-0.07403355922089622
1673606363.952799,-0.836949,-0.06138200866921867
1673606363.9538062,-0.844041,-0.0720623377830751
1673606363.954813,-0.84808,-0.02081345398187888
1673606363.95582,-0.849667,0.00999477849308536
1673606363.9568272,-0.845676,-8.579713945172825e-5
1673606363.957834,-0.838103,0.05306784620886981
1673606363.958841,-0.832045,0.11154198497854077
1673606363.9598482,-0.834713,0.06449597401668652
1673606363.960855,-0.839521,0.06490048617072007
1673606363.961863,-0.845435,0.09793426084883167
1673606363.9628701,-0.840868,0.12727554606496508
1673606363.963877,-0.841012,0.15504600634590918
1673606363.964884,-0.840651,0.18282304262976137
1673606363.9658911,-0.842959,0.2106000789136136
1673606363.966898,-0.843681,0.23837053919455767
1673606363.967905,-0.838392,0.2661475754784099
1673606363.9689121,-0.835387,0.2939246117622621
1673606363.969919,-0.835771,0.3216950720432062
1673606363.970926,-0.847431,0.3494721083270584
1673606363.9719331,-0.864283,0.3772491446109106
1673606363.97294,-0.869548,0.4050196048918547
1673606363.973947,-0.863875,0.4327966411757069
1673606363.974955,-0.839353,0.4605999814711915
1673606363.9759622,-0.824208,0.4883770177550437
1673606363.976969,-0.835194,0.5161474780359878
1673606363.977976,-0.846301,0.54392451431984
1673606363.9789832,-0.850917,0.5717015506036922
1673606363.97999,-0.844858,0.5994720108846363
1673606363.980997,-0.816322,0.6272490471684886
1673606363.9820042,-0.790359,0.6550260834523407
1673606363.983011,-0.799806,0.6827965437332848
1673606363.984018,-0.816298,0.7105735800171371
1673606363.9850252,-0.823534,0.7383506163009892
1673606363.986032,-0.824977,0.7661210765819333
1673606363.98704,-0.827165,0.793924416877418
1673606363.9880471,-0.834497,0.8217014531612701
1673606363.989054,-0.832213,0.8494719134422144
1673606363.990061,-0.824977,0.8772489497260665
1673606363.9910681,-0.846613,0.9050259860099188
1673606363.992075,-0.855268,0.9327964462908629
1673606363.993082,-0.85397,0.960573482574715
1673606363.9940891,-0.848296,0.9883505188585673
1673606363.995096,-0.84582,1.0161209791395114
1673606363.996103,-0.851253,1.0438980154233635
1673606363.9971101,-0.851758,1.0716750517072158
1673606363.998117,-0.856302,1.0994455119881599
1673606363.999124,-0.854931,1.1272225482720122
1673606364.000132,-0.841204,1.1550258885674967
1673606364.0011392,-0.834521,1.182802924851349
1673606364.002146,-0.837694,1.210573385132293
1673606364.003153,-0.836589,1.2383504214161452
1673606364.0041602,-0.806225,1.2661274576999975
1673606364.005167,-0.811322,1.2938979179809416
1673606364.006174,-0.828799,1.3216749542647939
1673606364.0071812,-0.837502,1.349451990548646
1673606364.008188,-0.843705,1.370824
1673606364.009195,-0.842863,1.370824
1673606364.0102022,-0.830362,1.3975522286054827
1673606364.011209,-0.834473,1.4747864680190932
1673606364.012217,-0.856374,1.4660135433539783
1673606364.0132241,-0.865125,1.4842180429082241
1673606364.014231,-0.883275,1.5074019308536002
1673606364.015238,-0.91936,1.5438409713876966
1673606364.0162451,-0.953281,1.5645871845053636
1673606364.017252,-0.979942,1.5634843406609367
1673606364.018259,-1.007156,1.6035164945302327
1673606364.0192661,-1.021965,1.643548648399529
1673606364.020273,-1.021412,1.6835713249596704
1673606364.02128,-0.997444,1.7236034788289667
1673606364.0222871,-0.943016,1.7636356326982627
1673606364.023294,-0.906042,1.8036583092584042
1673606364.024301,-0.882266,1.8436904631277005
1673606364.025309,-0.823246,1.8837605262336155
1673606364.0263162,-0.805624,1.9237926801029115
1673606364.027323,-0.822813,1.963815356663053
1673606364.02833,-0.85534,2.003847510532349
1673606364.0293372,-0.882193,2.0438796644016453
1673606364.030344,-0.862985,2.083902340961787
1673606364.031351,-0.832934,2.123934494831083
1673606364.0323582,-0.82803,2.163966648700379
1673606364.033365,-0.828871,2.2039893252605207
1673606364.034372,-0.820289,2.2440214791298168
1673606364.0353792,-0.806538,2.284053632999113
1673606364.036386,-0.798028,2.3240763095592545
1673606364.037394,-0.801465,2.3641463726651692
1673606364.0384011,-0.812788,2.4041785265344653
1673606364.039408,-0.819784,2.444201203094607
1673606364.040415,-0.830386,2.4842333569639035
1673606364.0414221,-0.843079,2.5242655108331995
1673606364.042429,-0.85034,2.5642881873933407
1673606364.043436,-0.854162,2.6043203412626372
1673606364.0444431,-0.862817,2.6443524951319333
1673606364.04545,-0.858994,2.684375171692075
1673606364.046457,-0.848705,2.724407325561371
1673606364.0474641,-0.869404,2.764439479430667
1673606364.048471,-0.90508,2.8044621559908087
1673606364.049478,-0.934578,2.8444943098601048
1673606364.050486,-0.939506,2.884564372966019
1673606364.0514932,-0.931236,2.9245965268353156
1673606364.0525,-0.920466,2.964619203395457
1673606364.053507,-0.900128,3.0046513572647533
1673606364.0545142,-0.867601,3.04468351113405
1673606364.055521,-0.840147,3.0847061876941906
1673606364.056528,-0.824111,3.1247383415634875
1673606364.0575352,-0.803797,3.1647704954327835
1673606364.058542,-0.78031,3.204793171992925
1673606364.059549,-0.758216,3.2448253258622213
1673606364.0605562,-0.765404,3.2848574797315173
1673606364.061563,-0.772833,3.324880156291659
1673606364.062571,-0.771559,3.3649502193975733
1673606364.0635781,-0.777136,3.378825
1673606364.064585,-0.781175,3.4630343130662853
1673606364.065592,-0.794782,3.5297733189511322
1673606364.0665991,-0.800985,3.627634401049118
1673606364.067606,-0.800432,3.7303184585121603
1673606364.068613,-0.80225900000000006,3.808877879828326
1673606364.0696201,-0.808461,3.9070770371871277
1673606364.070627,-0.810625,4.016356449213162
1673606364.071634,-0.816202,4.138590861707201
1673606364.0726411,-0.817645,4.2139305148986885
1673606364.073648,-0.816106,4.281739893419171
1673606364.074655,-0.820842,5.125237209748892
1673606364.075663,-0.824737,5.276178997932053
1673606364.0766702,-0.829617,5.3476695821513
1673606364.077677,-0.829785,5.459595626292467
1673606364.078684,-0.823174,5.594885094534712
1673606364.0796912,-0.82565,5.710152831610044
1673606364.080698,-0.83416,5.877545326144756
1673606364.081705,-0.840796,5.958239267946825
1673606364.0827122,-0.843296,6.126387586075346
1673606364.083719,-0.841445,6.21826828111588
1673606364.084726,-0.839762,6.361004608761304
1673606364.0857332,-0.846036,6.504147521528602
1673606364.08674,-0.851926,6.6472565462957185
1673606364.087748,-0.849811,6.790535011063743
1673606364.0887551,-0.83743,6.933677923831041
1673606364.089762,-0.831612,7.076786948598158
1673606364.090769,-0.825169,7.219929861365456
1673606364.0917761,-0.820169,7.363072774132754
1673606364.092783,-0.823438,7.5061817988998705
1673606364.09379,-0.847287,7.649324711667168
1673606364.0947971,-0.877025,7.792467624434466
1673606364.095804,-0.894526,7.9355766492015825
1673606364.096811,-0.917172,8.078719561968882
1673606364.0978181,-0.954267,8.221862474736179
1673606364.098825,-1.003574,8.364971499503296
1673606364.099832,-1.054324,8.508114412270594
1673606364.10084,-1.087932,8.651392877038617
1673606364.1018472,-1.080263,8.794535789805916
1673606364.102854,-1.048867,8.937644814573034
1673606364.103861,-1.025547,9.080787727340331
1673606364.1048682,-1.055382,9.223930640107628
1673606364.105875,-1.099568,9.367039664874746
1673606364.106882,-1.090336,9.510182577642045
1673606364.1078892,-1.028336,9.653325490409342
1673606364.108896,-0.998886,9.796434515176458
1673606364.109903,-1.004319,9.939577427943757
1673606364.1109102,-0.953906,10.082720340711054
1673606364.111917,-0.828535,10.22582936547817
1673606364.112925,-0.780334,10.369107830246197
1673606364.1139321,-0.776944,10.512250743013492
1673606364.114939,-0.776944,10.65535976778061
1673606364.115946,-0.77353,10.798502680547909
1673606364.1169531,-0.77204,10.941645593315208
1673606364.11796,-0.779781,11.084754618082323
1673606364.118967,-0.794734,11.22789753084962
1673606364.1199741,-0.819039,11.37104044361692
1673606364.120981,-0.850532,11.514149468384035
1673606364.121988,-0.900969,11.657292381151333
1673606364.1229951,-0.935732,11.800435293918632
1673606364.124002,-0.934145,11.943544318685749
1673606364.125009,-0.930707,12.086687231453046
1673606364.126017,-0.946742,12.230708614302742
1673606364.1270242,-0.981914,12.381814102050548
1673606364.128031,-0.98826,12.556747490701001
1673606364.129038,-0.974509,12.757161356223175
1673606364.1300452,-0.939819,12.963319715137068
1673606364.131052,-0.854619,13.175986327610872
1673606364.132059,-0.747735,13.388419306628517
1673606364.1330662,-0.702779,13.61297909964243
1673606364.134073,-0.697033,13.813316618741059
1673606364.13508,-0.700399,14.01472173934041
1673606364.136087,-0.729151,14.217921148681775
1673606364.137094,-0.787113,14.421168675335318
1673606364.138102,-0.833704,14.624608671237588
1673606364.1391091,-0.876616,14.827856197891132
1673606364.140116,-0.884045,15.031055607232496
1673606364.141123,-0.871904,15.234303133886039
1673606364.1421301,-0.905945,15.437550660539584
1673606364.143137,-0.891641,15.640750069880946
1673606364.144144,-0.862673,15.843997596534491
1673606364.1451511,-0.816515,16.047245123188034
1673606364.146158,-0.790431,16.250444532529396
1673606364.147165,-0.842863,16.45369205918294
1673606364.1481721,-0.874885,16.656939585836486
1673606364.149179,-0.885655,16.86013899517785
1673606364.150186,-0.924553,17.063386521831394
1673606364.151194,-0.938569,17.266826517733662
1673606364.1522012,-0.957681,17.470074044387207
1673606364.153208,-0.956984,17.67327345372857
1673606364.154215,-0.879188,17.876520980382114
1673606364.1552222,-0.746605,18.07976850703566
1673606364.156229,-0.668545,18.28296791637702
1673606364.157236,-0.66054,18.486215443030567
1673606364.158243,-0.697418,18.68941485237193
1673606364.15925,-0.743576,18.89266237902547
1673606364.160257,-0.741797,19.095909905679015
1673606364.161264,-0.770333,19.29910931502038
1673606364.162271,-0.826011,19.502356841673922
1673606364.163279,-0.891665,19.705796837576194
1673606364.1642861,-0.960518,19.909044364229736
1673606364.165293,-1.026028,20.112243773571098
1673606364.1663,-1.084302,20.315491300224643
1673606364.1673071,-1.107357,20.518738826878188
1673606364.168314,-1.120435,20.72193823621955
1673606364.216654,-0.893372,32.03365537595419
1673606364.2176611,-0.803821,32.33878921315871
1673606364.218668,-0.830891,32.6438508122389
1673606364.219675,-0.883131,32.948984649443425
1673606364.2206821,-0.873683,33.25411848664795
1673606364.221689,-0.847647,33.55918008572814
1673606364.222696,-0.829833,33.86431392293266
1673606364.2237031,-0.821852,34.16944776013718
1673606364.22471,-0.802956,34.47450935921737
1673606364.225717,-0.766558,34.779643196421894
1673606364.226725,-0.763553,35.08506598612377
1673606364.227732,-0.7843,35.390127585203956
1673606364.228739,-0.849426,35.69526142240848
1673606364.229746,-0.946237,36.00039525961301
1673606364.230753,-1.011171,36.30545685869319
1673606364.23176,-1.092741,36.61059069589771
1673606364.232767,-1.114233,36.91572453310224
1673606364.233774,-1.084495,37.220786132182425
1673606364.234781,-1.02396,37.52591996938695
1673606364.235788,-0.968475,37.83105380659148
1673606364.236795,-0.902027,38.13611540567166
1673606364.237802,-0.833992,38.44124924287618
1673606364.23881,-0.829304,38.74667203257806
1673606364.2398171,-0.812716,39.051805869782584
1673606364.240824,-0.763241,39.356867468862774
1673606364.241831,-0.756173,39.662001306067296
1673606364.2428381,-0.781391,39.96713514327182
1673606364.243845,-0.793965,40.27219674235201
1673606364.244852,-0.794782,40.57733057955653
1673606364.2458591,-0.796248,40.88246441676105
1673606364.246866,-0.777906,41.18752601584124
1673606364.247873,-0.766006,41.492659853045765
1673606364.2488801,-0.770645,41.79779369025029
1673606364.249887,-0.792498,42.10285528933048
1673606364.250894,-0.815481,42.407989126535
1673606364.251902,-0.827549,42.71341191623688
1673606364.252909,-0.807235,43.01847351531706
1673606364.253916,-0.817548,43.32360735252159
1673606364.254923,-0.877385,43.60401721862348
1673606364.25593,-0.901859,43.848948977110155
1673606364.256937,-0.91799,44.11448411097852
1673606364.257944,-0.966023,44.402215939914164
1673606364.258951,-1.037447,44.66439711121696
1673606364.259958,-1.054588,44.904977533174225
1673606364.260965,-0.922678,45.12710522389128
1673606364.261972,-0.781824,45.419840609907126
1673606364.262979,-0.769924,45.68471051026253
1673606364.263987,-0.887891,45.923617609922445
1673606364.2649941,-0.979702,46.158925786398235
1673606364.266001,-0.988765,46.39417825544589
1673606364.267008,-0.99968,46.62948643192168
1673606364.2680151,-0.972778,46.864794608397474
1673606364.269022,-0.92138,47.10004707744512
1673606364.270029,-0.852575,47.33535525392091
1673606364.2710361,-0.853681,47.570663430396706
1673606364.272043,-0.935131,47.80591589944435
1673606364.27305,-0.905344,48.04122407592015
1673606364.2740571,-0.789637,48.27653225239594
1673606364.275064,-0.800888,48.51178472144359
1673606364.276071,-0.838007,48.74709289791938
1673606364.277079,-0.840603,48.98262390410774
1673606364.278086,-0.805264,49.21787637315539
1673606364.279093,-0.749538,49.45318454963118
1673606364.2801,-0.69172,49.68849272610697
1673606364.281107,-0.669675,49.92374519515462
1673606364.282114,-0.67518,50.159053371630414
1673606364.283121,-0.686095,50.39436154810621
1673606364.284128,-0.709967,50.629614017153855
1673606364.285135,-0.735378,50.86492219362965
1673606364.286142,-0.759707,51.10023037010544
1673606364.287149,-0.77567,51.33548283915309
1673606364.288156,-0.735859,51.570791015628885
1673606364.289164,-0.749129,51.806322021817245
1673606364.2901711,-0.831877,52.041630198293035
1673606364.291178,-0.899911,52.276882667340686
1673606364.292185,-0.945372,52.51219084381648
1673606364.2931921,-0.960566,52.747499020292274
1673606364.294199,-0.94792,52.98275148933992
1673606364.295206,-0.926572,53.218059665815716
1673606364.2962132,-0.909672,53.453367842291506
1673606364.29722,-0.926717,53.68862031133915
1673606364.298227,-0.976793,53.92392848781495
1673606364.2992342,-0.984967,54.15923666429074
1673606364.300241,-1.036173,54.39448913333839
1673606364.301248,-1.105602,54.62979730981418
1673606364.302256,-1.20626,54.86532831600255
1673606364.303263,-1.16568,55.10058078505019
1673606364.30427,-1.063411,55.33588896152598
1673606364.305277,-1.082211,55.57119713800178
1673606364.306284,-1.07822,55.80644960704942
1673606364.307291,-1.002661,56.04175778352521
1673606364.308298,-0.934193,56.27706596000101
1673606364.309305,-0.86575,56.51231842904866
1673606364.310312,-0.734969,56.747626605524445
1673606364.311319,-0.61342,56.98293478200024
1673606364.312326,-0.59224,57.218187251047894
1673606364.313333,-0.622868,57.453495427523684
1673606364.314341,-0.678161,57.689026433712044
1673606364.3153481,-0.718309,57.92433461018784
1673606364.316355,-0.738239,58.159587079235486
1673606364.317362,-0.763097,58.394895255711276
1673606364.3183692,-0.790455,58.63020343218707
1673606364.319376,-0.822813,58.865455901234725
1673606364.320383,-0.848825,59.06712013876967
1673606364.3213902,-0.832838,59.24930992846924
1673606364.322397,-0.864283,60.49843962561577
1673606364.323404,-0.867961,60.64173133497537
1673606364.3244112,-0.846229,60.79064372413793
1673606364.325418,-0.907436,60.94086064137931
1673606364.326425,-0.96705700000000006,61.12136334975369
1673606364.327433,-0.993958,60.42164411158799
1673606364.32844,-0.968908,60.60250780472103
1673606364.329447,-0.988837,60.78598141892949
1673606364.330454,-0.986481,60.977919432361794
1673606364.331461,-0.944651,61.1698120059235
1673606364.332468,-0.890608,61.3617500193558
1673606364.333475,-0.837502,61.553688032788116
1673606364.334482,-0.824737,61.74558060634982
1673606364.335489,-0.809639,61.937518619782125
1673606364.336496,-0.863033,62.12945663321443
1673606364.337503,-0.896666,62.32134920677614
1673606364.33851,-0.812764,62.51328722020845
1673606364.339518,-0.818534,62.70540699312317
1673606364.3405252,-0.837646,62.89734500655548
1673606364.341532,-0.832838,63.089237580117185
1673606364.342539,-0.83719,63.28117559354949
1673606364.3435462,-0.809038,63.4731136069818
1673606364.344553,-0.776968,63.66500618054351
1673606364.34556,-0.809879,63.856944193975814
1673606364.3465672,-0.903253,64.04888220740813
1673606364.347574,-0.999151,64.24077478096983
1673606364.348581,-1.077859,64.43271279440214
1673606364.3495882,-1.128393,64.62465080783444
1673606364.350595,-1.056295,64.81654338139614
1673606364.351602,-0.861398,65.00848139482845
1673606364.35261,-0.727685,65.20060116774317
1673606364.353617,-0.748576,65.39249374130489
1673606364.354624,-0.820097,65.5844317547372
1673606364.355631,-0.896546,65.7763697681695
1673606364.356638,-0.974485,65.9682623417312
1673606364.357645,-0.990544,66.16020035516351
1673606364.358652,-0.881064,66.35213836859582
1673606364.359659,-0.793604,66.54403094215752
1673606364.360666,-0.815962,66.73596895558983
1673606364.361673,-0.747735,66.92790696902215
1673606364.36268,-0.591183,67.11979954258385
1673606364.363687,-0.572575,67.31173755601615
1673606364.364695,-0.643471,67.50385732893088
1673606364.3657022,-0.69761,67.69579534236318
1673606364.366709,-0.715761,67.88768791592489
1673606364.367716,-0.732805,68.07962592935719
1673606364.3687232,-0.765957,68.2715639427895
1673606364.36973,-0.785022,68.46345651635121
1673606364.370737,-0.788676,68.65539452978352
1673606364.3717442,-0.770838,68.84733254321583
1673606364.372751,-0.733839,69.03922511677753
1673606364.373758,-0.701553,69.22635738054363
1673606364.3747652,-0.719247,69.38117779976162
1673606364.375772,-0.764587,69.52715713137816
1673606364.376779,-0.867673,69.67238837744397
1673606364.377787,-0.927678,69.83809471942789
1673606364.378794,-0.949507,69.9805955751073
1673606364.379801,-0.967441,70.10100384120172
1673606364.380808,-0.95821,70.24674286769964
1673606364.381815,-0.898902,70.40246893848355
1673606364.382822,-0.823919,70.4924216393233
1673606364.383829,-0.830771,70.52352025917098
1673606364.384836,-0.851494,70.55461151665601
1673606364.385843,-0.843608,70.58571013650369
1673606364.38685,-0.814567,70.68119517978063
1673606364.387857,-0.78983,70.80931204291845
1673606364.388864,-0.769251,70.94580902932061
1673606364.389872,-0.746845,71.09125156294706
1673606364.3908792,-0.769011,71.2099263197425
1673606364.391886,-0.859956,71.31845482312276
1673606364.392893,-0.921211,71.41915121864568
1673606364.3939002,-0.931837,71.52846631473534
1673606364.394907,-0.92275,71.6377572832618
1673606364.395914,-0.896738,71.71639440137714
1673606364.3969212,-0.908878,71.76974775518417
1673606364.397928,-0.903902,71.82308847798889
1673606364.398935,-0.934842,71.87644183179592
1673606364.3999422,-0.980736,71.92979518560294
1673606364.400949,-0.899719,71.98313590840765
1673606364.401956,-0.827141,72.03648926221467
1673606364.402964,-0.809062,72.089893140031
1673606364.403971,-0.795648,72.1432338628357
1673606364.404978,-0.770333,72.19658721664273
1673606364.405985,-0.783026,72.24994057044975
1673606364.406992,-0.792089,72.30328129325447
1673606364.407999,-0.781151,72.3566346470615
1673606364.4090061,-0.772689,72.40998800086852
1673606364.410013,-0.787714,72.46332872367323
1673606364.41102,-0.855196,72.51668207748025
1673606364.4120271,-0.87935700000000006,72.5700354312873
1673606364.413034,-0.90532,72.623376154092
1673606364.414041,-0.958186,72.67672950789903
1673606364.415049,-1.007517,72.73013338571533
1673606364.4160562,-0.998405,72.78348673952237
1673606364.417063,-0.925539,72.83682746232708
1673606364.41807,-0.8645,72.8901808161341
1673606364.4190772,-0.922533,72.94353416994113
1673606364.420084,-0.903181,72.99687489274584
1673606364.421091,-0.875414,73.05022824655288
1673606364.4220982,-0.827189,73.1035816003599
1673606364.423105,-0.790286,73.15692232316461
1673606364.424112,-0.77954,73.21027567697163
1673606364.4251192,-0.738142,73.26362903077866
1673606364.426126,-0.692297,73.31696975358338
1673606364.427134,-0.709823,73.37037363139969
1673606364.428141,-0.726579,73.42372698520671
1673606364.429148,-0.749418,73.47706770801142
1673606364.430155,-0.797787,73.53042106181846
1673606364.4311621,-0.862047,73.58377441562548
1673606364.432169,-0.879309,73.63711513843019
1673606364.433176,-0.852383,73.69046849223722
1673606364.4341831,-0.873659,73.74382184604426
1673606364.43519,-0.874669,73.79716256884896
1673606364.436197,-0.802547,73.85051592265599
1673606364.4372041,-0.800432,73.90386927646301
1673606364.438211,-0.902171,73.9275906781116
1673606364.439218,-0.962248,73.89933824576877
1673606364.440226,-0.962272,73.894127
1673606364.4412332,-0.947103,73.83108635193133
1673606364.44224,-0.938881,73.85353247294398
1673606364.443247,-0.958618,73.86254100515995
1673606364.4442542,-0.949218,73.80368
1673606364.445261,-0.855845,73.79972244788442
1673606364.446268,-0.779035,73.82007055793991
1673606364.4472752,-0.744658,73.82837210101862
1673606364.448282,-0.74021,73.83565165000076
1673606364.449289,-0.781007,73.84293292276907
1673606364.4502962,-0.85195,73.85021419553736
1673606364.451303,-0.924649,73.8574937445195
1673606364.452311,-0.994054,73.86478191243248
1673606364.4533181,-1.026076,73.87206318520079
1673606364.454325,-0.973307,73.87934273418293
1673606364.455332,-0.840026,73.88662400695124
1673606364.4563391,-0.795599,73.89390527971955
1673606364.457346,-0.800119,73.90118482870169
1673606364.458353,-0.782786,73.90846610147
1673606364.4593601,-0.743768,73.9157473742383
1673606364.460367,-0.736339,73.92302692322043
1673606364.461374,-0.881809,73.93030819598874
1673606364.4623811,-1.042736,73.93758946875705
1673606364.463388,-1.100409,73.9448690177392
1673606364.464395,-1.104641,73.9521502905075
1673606364.465403,-1.034659,73.95943845842048
1673606364.4664102,-0.965061,73.96671973118879
1673606364.467417,-0.904551,73.97399928017093
1673606364.468424,-0.857888,73.981280552939225
1673606364.4694312,-0.783122,73.98856182570754
1673606364.470438,-0.724896,73.99584137468968
1673606364.471445,-0.727805,74.00312264745799
1673606364.4724522,-0.725377,74.0104039202263
1673606364.473459,-0.742806,74.01768346920844
1673606364.474466,-0.788628,74.02496474197675
1673606364.4754732,-0.807091,74.03224601474504
1673606364.47648,-0.793003,74.0395255637272
1673606364.477488,-0.805264,74.04681373164016
1673606364.4784951,-0.830122,74.05409500440847
1673606364.479502,-0.824328,74.0613745533906
1673606364.480509,-0.800287,74.06865582615892
1673606364.4815161,-0.781295,74.07593709892723
1673606364.482523,-0.771607,74.08321664790937
1673606364.48353,-0.806033,74.09049792067768
1673606364.4845371,-0.774227,74.09777919344599
1673606364.485544,-0.727372,74.10505874242813
1673606364.486551,-0.734488,74.11234001519642
1673606364.4875581,-0.737974,74.11962128796473
1673606364.488565,-0.740763,74.12690083694687
1673606364.489572,-0.757062,74.13418210971518
1673606364.49058,-0.777208,74.14147027762816
1673606364.4915872,-0.785743,74.14875155039647
1673606364.492594,-0.784493,74.15603109937861
1673606364.493601,-0.759731,74.16331237214692
1673606364.4946082,-0.752639,74.20392041630902
1673606364.495615,-0.787065,74.219765
1673606364.496622,-0.805648,74.25894343623361
1673606364.4976292,-0.835988,74.32678315593705
1673606364.498636,-0.864091,74.35969643562231
1673606364.499643,-0.853417,74.364471
1673606364.5006502,-0.840892,74.44589719122555
1673606364.501657,-0.835266,74.52779945588937
1673606364.502665,-0.829617,74.586902654268
1673606364.5036721,-0.817308,74.60418988147286
1673606364.504679,-0.843392,74.61011157503876
1673606364.505686,-0.939819,74.61603467085271
1673606364.5066931,-1.047688,74.62195776666667
1673606364.5077,-1.084735,74.62787946023255
1673606364.508707,-1.085745,74.6338025560465
1673606364.5097141,-1.09863,74.6118367253219
1673606364.510721,-1.101563,74.7208572226991
1673606364.511728,-1.055357,74.75605279141836
1673606364.5127351,-0.953161,74.75674644825942
1673606364.513742,-0.919793,74.79996448927038
1673606364.514749,-0.950805,74.84199201430616
1673606364.515757,-0.923639,74.87931496521215
1673606364.5167642,-0.853369,74.91696584335396
1673606364.517771,-0.760861,74.95460780793562
1673606364.518778,-0.711097,74.99225868607743
1673606364.5197852,-0.793243,75.02990956421927
1673606364.520792,-0.936717,75.06755152880092
1673606364.521799,-0.953858,75.10520240694274
1673606364.5228062,-0.801465,75.14285328508456
1673606364.523813,-0.718405,75.18049524966621
1673606364.52482,-0.731363,75.21814612780804
1673606364.5258272,-0.75062,75.25579700594986
1673606364.526834,-0.765885,75.29343897053151
1673606364.527842,-0.778098,75.331125502914
1673606364.5288491,-0.78055,75.36877638105582
1673606364.529856,-0.815673,75.40641834563748
1673606364.530863,-0.842334,75.4440692237793
1673606364.5318701,-0.879405,75.48172010192111
1673606364.532877,-0.936213,75.51936206650278
1673606364.533884,-0.966047,75.5570129446446
1673606364.5348911,-0.965085,75.59466382278642
1673606364.535898,-0.9334,75.63230578736807
1673606364.536905,-0.907532,75.6699566655099
1673606364.5379121,-0.852479,75.70760754365172
1673606364.538919,-0.769563,75.74524950823337
1673606364.539926,-0.746412,75.78290038637519
1673606364.540934,-0.733791,75.82058691875768
1673606364.5419412,-0.710135,75.8582377968995
1673606364.542948,-0.73194,75.89587976148115
1673606364.543955,-0.816827,75.93353063962297
1673606364.5449622,-0.893685,75.9711815177648
1673606364.545969,-0.957633,76.00882348234646
1673606364.546976,-0.964845,76.04647436048828
1673606364.5479832,-0.88128,76.0841252386301
1673606364.54899,-0.867913,76.12176720321175
1673606364.549997,-0.915321,76.15941808135358
1673606364.5510042,-0.934722,76.1970689594954
1673606364.552011,-0.925971,76.23471092407705
1673606364.553019,-0.918014,76.27239745645954
1673606364.5540261,-0.906234,76.31004833460136
1673606364.555033,-0.86599,76.34769029918301
1673606364.55604,-0.723406,76.38534117732483
1673606364.5570471,-0.623157,76.42299205546665
1673606364.558054,-0.660876,76.46063402004832
1673606364.559061,-0.701505,76.49828489819014
1673606364.5600681,-0.719631,76.53591508154506
1673606364.561075,-0.724824,76.5727785716329
1673606364.562082,-0.74384,76.6285440200286
1673606364.5630891,-0.759971,76.71827230996661
1673606364.564096,-0.77353,76.77128497520859
1673606364.565103,-0.798604,76.79514042727706
1673606364.566111,-0.82654,76.91734984549356
1673606364.5671182,-0.867841,76.95743611656735
1673606364.568125,-0.920009,77.04582822556031
1673606364.569132,-0.933135,77.09747853007818
1673606364.5701392,-0.814207,77.11479109199048
1673606364.571146,-0.710977,77.13209955528492
1673606364.572153,-0.70136,77.14941211719723
1673606364.5731602,-0.722252,77.16672467910955
1673606364.574167,-0.714463,77.13562728469242
1673606364.575174,-0.723285,77.16731968902081
1673606364.5761812,-0.759971,77.20594239492168
1673606364.577188,-0.79132,77.24455595718952
1673606364.578196,-0.807091,77.28321523762249
1673606364.5792031,-0.828823,77.32183794352335
1673606364.58021,-0.864908,77.36045150579119
1673606364.581217,-0.883323,77.39907421169205
1673606364.5822241,-0.875101,77.43769691759292
1673606364.5953162,-0.847263,77.93979209430417
1673606364.596323,-0.87539,77.97840565657201
1673606364.59733,-0.942127,78.01702836247287
1673606364.5983372,-0.922533,78.05565106837373
1673606364.599344,-0.85998,78.09426463064158
1673606364.600351,-0.837526,78.13288733654245
1673606364.6013582,-0.829424,78.17151004244332
1673606364.602365,-0.832598,78.21012360471116
1673606364.603373,-0.876592,78.24878288514412
1673606364.6043801,-0.919528,78.28740559104499
1673606364.605387,-0.895608,78.32601915331283
1673606364.606394,-0.845988,78.36464185921369
1673606364.6074011,-0.810072,78.40326456511455
1673606364.608408,-0.803124,78.4418781273824
1673606364.609415,-0.794782,78.48050083328326
1673606364.6104221,-0.73521,78.51912353918412
1673606364.611429,-0.698043,78.55773710145196
1673606364.612436,-0.733503,78.59635980735283
1673606364.6134431,-0.748696,78.6349825132537
1673606364.61445,-0.736748,78.67359607552154
1673606364.615457,-0.798845,78.71221878142241
1673606364.616465,-0.936814,78.75087806185537
1673606364.6174722,-0.983356,78.78950076775624
1673606364.618479,-0.918783,78.82811433002408
1673606364.619486,-0.930178,78.86673703592494
1673606364.6204932,-0.907749,78.9053597418258
1673606364.6215,-0.872144,78.94397330409365
1673606364.622507,-0.844762,78.98259600999451
1673606364.6235142,-0.790311,79.02121871589537
1673606364.624521,-0.790767,79.03565469368296
1673606364.625528,-0.804639,79.0100959275155
1673606364.6265352,-0.808293,79.0416209795758
1673606364.627542,-0.834521,79.0426933503535
1673606364.62855,-0.869428,79.05771217859953
1673606364.6295571,-0.841445,79.05058734721132
1673606364.630564,-0.889478,79.031731
1673606364.631571,-0.940924,79.031731
1673606364.6325781,-0.961647,79.031731
1673606364.633585,-0.971168,79.03436680163128
1673606364.634592,-0.946742,79.04253527271754
1673606364.6355991,-0.875077,79.05070374380381
1673606364.636606,-0.77353,79.05887028106643
1673606364.637613,-0.752158,79.06703875215268
1673606364.6386201,-0.747951,79.07520722323895
1673606364.639627,-0.721218,79.08337376050157
1673606364.640634,-0.732685,79.09154223158784
1673606364.641642,-0.750139,79.09971843796868
1673606364.6426492,-0.745162,79.10788690905494
1673606364.643656,-0.72218,79.11605344631757
1673606364.644663,-0.73182,79.12422191740383
1673606364.6456702,-0.762135,79.13239038849008
1673606364.646677,-0.757904,79.1405569257527
1673606364.647684,-0.753288,79.14872539683897
1673606364.6486912,-0.774468,79.15689386792523
1673606364.649698,-0.799686,79.16506040518784
1673606364.650705,-0.810817,79.17322887627411
1673606364.651712,-0.791609,79.18139541353672
1673606364.652719,-0.831492,79.18956388462298
1673606364.653727,-0.882025,79.19774009100384
1673606364.6547341,-0.878058,79.2059085620901
1673606364.655741,-0.864115,79.21407509935271
1673606364.656748,-0.869212,79.22224357043898
1673606364.6577551,-0.868923,79.23041204152524
1673606364.658762,-0.870077,79.23857857878785
1673606364.659769,-0.876664,79.24674704987412
1673606364.6607761,-0.867024,79.25491552096038
1673606364.661783,-0.861543,79.26308205822299
1673606364.66279,-0.86135,79.27125052930926
1673606364.6637971,-0.752759,79.27941900039552
1673606364.664804,-0.694269,79.28758553765813
1673606364.665811,-0.682705,79.2957540087444
1673606364.666819,-0.739922,79.30393021512525
1673606364.6678262,-0.805384,79.31209868621151
1673606364.668833,-0.810024,79.32026522347414
1673606364.66984,-0.800047,79.32843369456039
1673606364.6708472,-0.824929,79.33660216564665
1673606364.671854,-0.817308,79.34476870290928
1673606364.672861,-0.807427,79.35293717399554
1673606364.673868,-0.82666,79.36110371125815
1673606364.674875,-0.853537,79.36927218234442
1673606364.675882,-0.868442,79.37744065343068
1673606364.676889,-0.869789,79.38560719069329
1673606364.677896,-0.88592,79.393532
1673606364.678904,-0.92626,79.39420022961373
1673606364.6799111,-0.939578,79.41241172315036
1673606364.680918,-0.972129,79.429703
1673606364.681925,-1.009993,79.43077136675399
1673606364.6829321,-1.007781,79.4501469992847
1673606364.683939,-0.967561,79.48788352171837
1673606364.684946,-0.897123,79.538254
1673606364.6859531,-0.834088,79.54136803385789
1673606364.68696,-0.781319,79.57486122066071
1673606364.687967,-0.770333,79.57951001058588
1673606364.6889741,-0.848657,79.58415880051105
1673606364.689981,-0.966696,79.58880648987042
1673606364.690988,-1.058242,79.592522
1673606364.691996,-1.092572,79.5811223557463
1673606364.6930032,-1.095072,79.55790023414401
1673606364.69401,-1.110915,79.62464668414779
1673606364.695017,-1.067065,79.60643163876968
1673606364.696024,-1.012133,79.60543555841679
1673606364.697031,-1.007685,79.65161787566227
1673606364.698038,-0.937871,79.67145537254694
1673606364.699045,-0.703476,79.6912881730545
1673606364.700052,-0.493987,79.71112566993918
1673606364.701059,-0.540097,79.73096316682384
1673606364.702066,-0.61919,79.75079596733141
1673606364.703073,-0.655635,79.77063346421608
1673606364.704081,-0.644408,79.79048974660915
1673606364.7050881,-0.720569,79.81032724349383
1673606364.706095,-0.859716,79.83016004400139
1673606364.707102,-0.941021,79.84999754088606
1673606364.7081091,-0.970542,79.86983503777073
1673606364.709116,-0.980471,79.8896678382783
1673606364.710123,-0.92549,79.90950533516298
1673606364.7111301,-0.816322,79.92934283204764
1673606364.712137,-0.761173,79.94917563255521
1673606364.713144,-0.72516099999999994,79.96901312943987
1673606364.7141511,-0.705808,79.98885062632455
1673606364.715158,-0.707755,80.0086834268321
1673606364.716165,-0.690182,80.02852092371678
1673606364.717173,-0.693667,80.04837720610986
1673606364.71818,-0.751028,80.06821000661742
1673606364.719187,-0.781343,80.0880475035021
1673606364.720194,-0.81738,80.10788500038676
1673606364.721201,-0.878467,80.12771780089433
1673606364.722208,-0.916932,80.14755529777901
1673606364.723215,-0.938809,80.16739279466367
1673606364.724222,-0.9002,80.18722559517124
1673606364.725229,-0.777473,80.2070630920559
1673606364.726236,-0.693475,80.22690058894058
1673606364.727243,-0.735017,80.24673338944814
1673606364.72825,-0.763698,80.26657088633281
1673606364.729258,-0.787354,80.2864271687259
1673606364.7302651,-0.783411,80.30626466561056
1673606364.731272,-0.75199,80.32609746611813
1673606364.732279,-0.692345,80.34593496300279
1673606364.7332861,-0.663232,80.36577245988747
1673606364.734293,-0.700808,80.38560526039504
1673606364.7353,-0.744609,80.4054427572797
1673606364.7363071,-0.775718,80.42528025416438
1673606364.737314,-0.802908,80.44511305467194
1673606364.738321,-0.816971,80.46495055155661
1673606364.7393281,-0.843897,80.48478804844127
1673606364.740335,-0.885391,80.50462084894885
1673606364.741342,-0.931669,80.52445834583351
1673606364.74235,-0.976913,80.51279357033857
1673606364.743357,-0.988549,80.54866222765196
1673606364.744364,-0.963499,80.56656067668098
1673606364.745371,-0.908229,80.57248132362768
1673606364.746378,-0.847383,80.60890812264824
1673606364.747385,-0.82803,80.61282099427754
1673606364.748392,-0.840411,80.61654398806682
1673606364.749399,-0.821323,80.64585612672701
1673606364.750406,-0.77841,80.68227484243147
1673606364.751413,-0.764539,80.70102056394659
1673606364.75242,-0.761438,80.70904677518097
1673606364.753427,-0.740811,80.71707488701001
1673606364.754435,-0.769275,80.72511060121768
1673606364.7554421,-0.805408,80.73313871304673
1673606364.756449,-0.832886,80.74116492428111
1673606364.757456,-0.91073,80.74919303611014
1673606364.7584631,-1.000882,80.75722114793919
1673606364.75947,-1.04591,80.76524735917357
1673606364.760477,-0.998117,80.77327547100262
1673606364.7614841,-0.981505,80.78130358283165
1673606364.762491,-0.937246,80.78932979406605
1673606364.763498,-0.828391,80.79735790589508
1673606364.767527,-0.905248,80.82947605499523
1673606364.768534,-0.956743,80.8375022662296
1673606364.769541,-0.981265,80.84553037805864
1673606364.770548,-0.961167,80.85355848988769
1673606364.771555,-0.943329,80.86158470112207
1673606364.772562,-0.944338,80.86961281295112
1673606364.773569,-0.916812,80.87764092478015
1673606364.774576,-0.803557,80.88566713601455
1673606364.775583,-0.746989,80.89369524784358
1673606364.77659,-0.771655,80.90172335967263
1673606364.777597,-0.797571,80.90974957090701
1673606364.778604,-0.799494,80.91777768273604
1673606364.779612,-0.817885,80.92581339694372
1673606364.7806191,-0.855316,80.93384150877276
1673606364.781626,-0.866952,80.94186772000714
1673606364.782633,-0.789277,80.94989583183619
1673606364.7836401,-0.742638,80.95792394366522
1673606364.784647,-0.724487,80.96595015489962
1673606364.785654,-0.687778,80.97397826672865
1673606364.7866611,-0.683787,80.9820063785577
1673606364.787668,-0.683426,80.99003258979208
1673606364.788675,-0.692514,80.99806070162111
1673606364.7896821,-0.72016,81.00608881345016
1673606364.790689,-0.774348,81.01411502468454
1673606364.791696,-0.815793,81.02214313651359
1673606364.792704,-0.856662,81.03017885072126
1673606364.793711,-0.908975,81.03820506195564
1673606364.794718,-0.944074,81.04623317378469
1673606364.795725,-0.975519,81.05426128561372
1673606364.796732,-1.011459,81.03756504481525
1673606364.797739,-1.042231,81.03190147162613
1673606364.798746,-1.029923,81.01896169861708
1673606364.799753,-0.954291,81.04558932872467
1673606364.80076,-0.878611,81.05463995708155
1673606364.801767,-0.833848,81.01820257796852
1673606364.802774,-0.810793,81.01444349821216
1673606364.803781,-0.762904,81.021645
1673606364.804789,-0.732709,80.98815773628993
1673606364.8057961,-0.705784,80.98995783514125
1673606364.806803,-0.671286,81.0263821540112
1673606364.80781,-0.657775,80.9820238969957
1673606364.8088171,-0.698235,80.9609588025751
1673606364.809824,-0.784348,80.90395497020185
1673606364.810831,-0.847503,80.858826
1673606364.8118382,-0.894166,80.88070719416854
1673606364.812845,-0.927318,80.8167964896
1673606364.813852,-0.962152,80.9434988650453
1673606364.8148592,-1.022398,80.91198523414401
1673606364.815866,-1.108343,80.88244866404386
1673606364.816873,-1.119401,80.87436367819043
1673606364.817881,-0.919504,80.87069588199499
1673606364.818888,-0.705087,80.86703242330687
1673606364.819895,-0.699726,80.86336809711727
1673606364.820902,-0.762928,80.8597037709277
1673606364.821909,-0.782065,80.85604031223957
1673606364.822916,-0.754827,80.85237598604998
1673606364.823923,-0.725112,80.84871165986038
1673606364.82493,-0.712515,80.84504820117226
1673606364.825937,-0.715256,80.84138387498268
1673606364.826944,-0.743696,80.83771954879309
1673606364.827951,-0.775886,80.83405609010497
1673606364.828958,-0.796657,80.83039176391539
1673606364.829966,-0.76853,80.82672396771993
1673606364.8309731,-0.742999,80.82305964153035
1673606364.83198,-0.7154,80.81939618284223
1673606364.832987,-0.713621,80.81573185665263
1673606364.8339942,-0.725281,80.81206753046304
1673606364.835001,-0.750812,80.80840407177493
1673606364.836008,-0.796321,80.80473974558534
1673606364.8370152,-0.817404,80.80107541939574
1673606364.838022,-0.826948,80.79741196070762
1673606364.839029,-0.822765,80.79374763451804
1673606364.8400362,-0.824857,80.79008330832845
1673606364.841043,-0.840291,80.78641984964032
1673606364.84205,-0.855821,80.78275552345073
1673606364.843058,-0.86373,80.77908772725529
1673606364.844065,-0.867769,80.77542426856716
1673606364.845072,-0.842575,80.77175994237759
1673606364.846079,-0.801537,80.76809561618799
1673606364.847086,-0.769131,80.76443215749987
1673606364.848093,-0.790767,80.76076783131028
1673606364.8491,-0.825915,80.7571035051207
1673606364.850107,-0.852575,80.75344004643257
1673606364.851114,-0.864115,80.74977572024298
1673606364.852121,-0.876736,80.74611139405339
1673606364.853128,-0.877265,80.74244793536528
1673606364.854135,-0.845964,80.73878360917568
1673606364.855143,-0.812211,80.73511581298024
1673606364.8561502,-0.825073,80.73145148679065
1673606364.857157,-0.868731,80.72778802810252
1673606364.858164,-0.882362,80.72412370191293
1673606364.8591712,-0.887963,80.72045937572335
1673606364.860178,-0.893613,80.71679591703523
1673606364.861185,-0.881136,80.71897492236246
1673606364.8621922,-0.870005,80.72721869451074
1673606364.863199,-0.884646,80.703871780639
1673606364.864206,-0.884742,80.65168931609058
1673606364.8652132,-0.84594,80.60359799523128
1673606364.86622,-0.835555,80.641754
1673606364.867227,-0.896185,80.641754
1673606364.868235,-1.000593,80.63598861600762
1673606364.869242,-1.017373,80.60600683078759
1673606364.870249,-0.912605,80.5605164257697
1673606364.871256,-0.930395,80.53371028006549
1673606364.872263,-0.987876,80.5069104805132
1673606364.87327,-0.980543,80.48010433480898
1673606364.874277,-0.990472,80.45329818910476
1673606364.875284,-1.000257,80.42649838955246
1673606364.876291,-0.961984,80.39969224384825
1673606364.877298,-0.966191,80.37288609814404
1673606364.878305,-0.953978,80.34608629859174
1673606364.879312,-0.953065,80.31928015288753
1673606364.88032,-0.939073,80.29244862257563
1673606364.8813272,-0.89681,80.26564247687142
1673606364.882334,-0.817356,80.23884267731913
1673606364.883341,-0.744754,80.21203653161491
1673606364.8843482,-0.683907,80.1852303859107
1673606364.885355,-0.636114,80.15843058635839
1673606364.886362,-0.582696,80.13162444065418
1673606364.8873692,-0.576518,80.10481829494996
1673606364.888376,-0.645394,80.07801849539767
1673606364.889383,-0.710808,80.05121234969346
1673606364.8903902,-0.77793,80.02440620398924
1673606364.891397,-0.809783,79.99760640443695
1673606364.892404,-0.777689,79.97080025873272
1673606364.893412,-0.765813,79.94396872842084
1673606364.894419,-0.75425,79.91716892886855
1673606364.895426,-0.745884,79.89036278316433
1673606364.896433,-0.741388,79.8635566374601
1673606364.89744,-0.723261,79.83675683790781
1673606364.898447,-0.710856,79.8099506922036
1673606364.899454,-0.734104,79.75564849821215
1673606364.900461,-0.780574,79.719147
1673606364.901468,-0.826972,79.71870716400477
1673606364.902475,-0.886833,79.66406381545065
1673606364.903482,-0.934602,79.61100780209824
1673606364.904489,-0.970134,79.6281738059132
1673606364.905497,-0.986698,79.609265606913
1673606364.9065042,-0.994391,79.5720382041011
1673606364.907511,-0.983428,79.51929227412646
1673606364.908518,-0.942271,79.50208587183766
1673606364.9095252,-0.907436,79.48487946954886
1673606364.910532,-0.947536,79.46767714074545
1673606364.911539,-0.969845,79.45047073845664
1673606364.9125462,-0.955854,79.43326433616784
1673606364.913553,-0.896137,79.41606200736443
1673606364.91456,-0.837646,79.39885560507562
1673606364.9155672,-0.824905,79.38164920278683
1673606364.916574,-0.793099,79.36444687398341
1673606364.917581,-0.796248,79.34724047169462
1673606364.918589,-0.872096,79.33001777546426
1673606364.919596,-0.95583,79.31281544666084
1673606364.920603,-1.025475,79.29560904437204
1673606364.92161,-1.003911,79.27840264208324
1673606364.922617,-0.894767,79.26120031327983
1673606364.923624,-0.793147,79.24399391099102
1673606364.924631,-0.748336,79.22678750870222
1673606364.925638,-0.712227,79.21584421554603
1673606364.926645,-0.634143,79.2441159427754
1673606364.9276521,-0.61003,79.2891794821173
1673606364.928659,-0.612747,79.21272185697258
1673606364.929666,-0.638062,79.140266
1673606364.930674,-0.686335,79.13639286647592
1673606364.9316812,-0.728983,79.13018036400476
1673606364.932688,-0.748841,79.14598589794944
1673606364.933695,-0.750451,79.11259336671435
1673606364.9347022,-0.762904,79.1370608641418
1673606364.935709,-0.79108,79.12373872956587
1673606364.936716,-0.846541,79.11041344032867
1673606364.9377232,-0.87313,79.09708815109146
1673606364.93873,-0.852383,79.08376601651553
1673606364.939737,-0.839594,79.07044072727832
1673606364.9407442,-0.828703,79.05711543804111
1673606364.941751,-0.77478,79.04379330346518
1673606364.942759,-0.779372,79.03045539558286
1673606364.943766,-0.817236,79.01713010634566
1673606364.944773,-0.802355,79.00380797176973
1673606364.94578,-0.803941,78.99048268253252
1673606364.9467871,-0.831396,78.97715739329531
1673606364.947794,-0.851542,78.96383525871939
1673606364.948801,-0.833271,78.95050996948217
1673606364.9498081,-0.815192,78.93718468024497
1673606364.950815,-0.829208,78.92386254566904
1673606364.951822,-0.860317,78.91053725643182
1673606364.9528291,-0.870149,78.89721196719462
1673606364.953836,-0.851878,78.88388983261869
1673606364.954843,-0.8457,78.87056454338148
1673606364.955851,-0.876688,78.85722663549916
1673606364.9568582,-0.858201,78.84390134626196
1673606364.957865,-0.838728,78.83057921168603
1673606364.958872,-0.905801,78.81725392244881
1673606364.9598792,-0.985856,78.80392863321161
1673606364.960886,-1.019297,78.79060649863568
1673606364.961893,-0.99867,78.77728120939847
1673606364.9629002,-0.995064,78.76395592016127
1673606364.963907,-1.05454,78.75063378558534
1673606364.964914,-1.07233,78.73730849634812
1673606364.9659212,-1.025667,78.72398320711092
1673606364.966928,-0.919024,78.71066107253499
1673606364.967936,-0.810384,78.69732316465266
1673606364.9689431,-0.742109,78.68399787541546
1673606364.96995,-0.709053,78.67067574083953
1673606364.970957,-0.694124,78.65735045160231
1673606364.9719641,-0.707755,78.64402516236511
1673606364.972971,-0.739248,78.63070302778918
1673606364.973978,-0.771823,78.61737773855197
1673606364.9749851,-0.77817,78.60405244931476
1673606364.975992,-0.752014,78.59073031473883
1673606364.976999,-0.734705,78.57740502550163
1673606364.9780061,-0.740643,78.56407973626442
1673606364.979013,-0.736508,78.55075760168849
1673606364.98002,-0.724343,78.53743231245129
1673606364.981028,-0.749369,78.52216361692491
1673606364.9820352,-0.806129,78.49067659132093
1673606364.983042,-0.829208,78.5053453297568
1673606364.984049,-0.828463,78.48522567723481
1673606364.9850562,-0.833511,78.45082285884597
1673606364.986063,-0.845724,78.42830243609919
1673606364.98707,-0.843608,78.380478
1673606364.9880772,-0.879236,78.38289042812872
1673606364.989084,-0.972225,78.39098445088221
1673606364.990091,-1.058819,78.34260886738774
1673606364.9910982,-1.140749,78.3310381702172
1673606364.992105,-1.190201,78.31947021232155
1673606364.993113,-1.238787,78.3078885580514
1673606364.9941201,-1.233113,78.29631786088086
1673606364.995127,-1.120916,78.28474990298521
1673606364.996134,-0.982923,78.27317920581467
1673606364.9971411,-0.822885,78.26160850864412
1673606364.998148,-0.726339,78.25004055074847
1673606364.999155,-0.631066,78.23846985357793
1673606365.0001621,-0.498699,78.22689915640738
1673606365.001169,-0.493939,78.21533119851173
1673606365.002176,-0.56368,78.20376050134118
1673606365.0031831,-0.635105,78.19218980417064
1673606365.00419,-0.655131,78.18062184627499
1673606365.005197,-0.665756,78.16905114910445
1673606365.006205,-0.6941,78.1574694948343
1673606365.0072122,-0.70689,78.14589879766376
1673606365.008219,-0.70725,78.13433083976811
1673606365.009226,-0.721362,78.12276014259757
1673606365.0102332,-0.746773,78.11118944542702
1673606365.01124,-0.758505,78.09962148753138
1673606365.012247,-0.759058,78.08805079036082
1673606365.0132542,-0.779156,78.07648009319028
1673606365.014261,-0.805384,78.06491213529463
1673606365.015268,-0.829953,78.0533414381241
1673606365.0162752,-0.844882,78.04177074095354
1673606365.017282,-0.870894,78.03020278305789
1673606365.01829,-0.885559,78.01862112878776
1673606365.0192971,-0.901306,78.0070504316172
1673606365.020304,-0.937607,77.99548247372157
1673606365.021311,-0.966287,77.98391177655101
1673606365.0223181,-0.98124,77.97234107938047
1673606365.023325,-0.96797,77.96077312148482
1673606365.024332,-0.94554,77.94920242431428
1673606365.0253391,-0.858658,77.93763172714372
1673606365.026346,-0.767784,77.92606376924809
1673606365.027353,-0.781391,77.91449307207753
1673606365.0283601,-0.806297,77.90292237490699
1673606365.029367,-0.818125,77.89135441701134
1673606365.030374,-0.79257,77.8797837198408
1673606365.031382,-0.763313,77.86820206557066
1673606365.0323892,-0.742157,77.85663136840012
1673606365.033396,-0.728406,77.84506341050447
1673606365.034403,-0.74973,77.83349271333391
1673606365.0354102,-0.793748,77.82192201616337
1673606365.036417,-0.837767,77.81035405826772
1673606365.037424,-0.878924,77.79878336109718
1673606365.0384312,-0.896329,77.78721266392664
1673606365.039438,-0.881112,77.77564470603099
1673606365.040445,-0.848465,77.76407400886043
1673606365.0414522,-0.796128,77.75250331168989
1673606365.042459,-0.79334,77.74093535379424
1673606365.043467,-0.842623,77.72935369952411
1673606365.0444741,-0.8814,77.71778300235356
1673606365.045481,-0.904191,77.69562801907487
1673606365.046488,-0.936189,77.64341773485933
1673606365.0474951,-0.976336,77.61063152205006
1673606365.048502,-1.030211,77.61256579399142
1673606365.049509,-1.092909,77.61088360515022
1673606365.0505161,-1.147409,77.57871941859356
1673606365.051523,-1.172651,77.50468761134955
1673606365.05253,-1.131542,77.475975
1673606365.0535371,-1.087163,77.475975
1673606365.054544,-0.997276,77.475975
1673606365.055551,-0.867216,77.475975
1673606365.056559,-0.787185,77.475975
1673606365.0575662,-0.743167,77.475975
1673606365.058573,-0.686552,77.47021200994348
1673606365.05958,-0.61794,77.44270594214831
1673606365.0605872,-0.581134,77.41519987435312
1673606365.061594,-0.584668,77.3877003184111
1673606365.062601,-0.604477,77.36019425061592
1673606365.0636082,-0.598323,77.33268818282073
1673606365.064615,-0.631739,77.30518862687873
1673606365.065622,-0.693595,77.27768255908354
1673606365.0666292,-0.719319,77.25017649128836
1673606365.067636,-0.739224,77.22267693534634
1673606365.068644,-0.760308,77.19514482013848
1673606365.0696511,-0.77567,77.1676387523433
1673606365.070658,-0.796777,77.14013919640128
1673606365.071665,-0.817957,77.11263312860609
1673606365.0726721,-0.82702,77.0851270608109
1673606365.073679,-0.825458,77.0576275048689
1673606365.074686,-0.867384,77.03012143707372
1673606365.0756931,-0.910369,77.00261536927853
1673606365.0767,-0.931501,76.97511581333652
1673606365.077707,-0.940323,76.94760974554133
1673606365.0787141,-0.889934,76.92010367774616
1673606365.079721,-0.846277,76.89260412180414
1673606365.080728,-0.814014,76.86509805400895
1673606365.081736,-0.847719,76.83756593880108
1673606365.0827432,-0.896017,76.8100598710059
1673606365.08375,-0.892964,76.78256031506389
1673606365.084757,-0.870486,76.7550542472687
1673606365.0857642,-0.839954,76.72754817947352
1673606365.086771,-0.80887,76.7000486235315
1673606365.087778,-0.769395,76.67254255573633
1673606365.0887852,-0.745138,76.64503648794114
1673606365.089792,-0.773218,76.61753693199913
1673606365.090799,-0.818726,76.59003086420394
1673606365.0918062,-0.876159,76.56252479640875
1673606365.092813,-0.90633,76.53502524046675
1673606365.093821,-0.907484,76.50749312525888
1673606365.0948281,-0.892988,76.47998705746369
1673606365.095835,-0.880583,76.45248750152167
1673606365.096842,-0.893805,76.4249814337265
1673606365.0978491,-0.904551,76.39747536593131
1673606365.098856,-0.866206,76.3699758099893
1673606365.099863,-0.792402,76.34246974219411
1673606365.108927,-0.768578,76.09490862018428
1673606365.109934,-0.79959,76.05201332912598
1673606365.1109412,-0.813606,76.0182938293556
1673606365.111948,-0.806947,75.97887296566523
1673606365.112955,-0.794205,75.94568464910607
1673606365.1139622,-0.794734,75.90575543633763
1673606365.114969,-0.810673,75.884056
1673606365.115976,-0.814159,75.90627223456497
1673606365.1169832,-0.81625,75.87528229017644
1673606365.11799,-0.808293,75.85921822031473
1673606365.118998,-0.783627,75.85060411515151
1673606365.1200051,-0.772304,75.82631788066875
1673606365.121012,-0.798196,75.80203739576802
1673606365.122019,-0.847839,75.77775116128527
1673606365.1230261,-0.88503,75.75346492680251
1673606365.124033,-0.875077,75.72918444190178
1673606365.12504,-0.862889,75.70489820741902
1673606365.1260471,-0.914408,75.68061197293626
1673606365.127054,-0.95244,75.65633148803552
1673606365.128061,-0.956671,75.63204525355276
1673606365.1290681,-0.897651,75.60775901907
1673606365.130075,-0.880703,75.58347853416927
1673606365.131082,-0.881857,75.55919229968652
1673606365.13209,-0.800335,75.53488306687565
1673606365.1330972,-0.722276,75.51059683239289
1673606365.134104,-0.731219,75.48631634749216
1673606365.135111,-0.739873,75.4620301130094
1673606365.1361182,-0.739272,75.43774387852665
1673606365.137125,-0.750668,75.41346339362592
1673606365.138132,-0.771318,75.38917715914316
1673606365.1391392,-0.78882,75.3648909246604
1673606365.140146,-0.837238,75.34061043975966
1673606365.141153,-0.933712,75.3163242052769
1673606365.1421602,-0.978909,75.29203797079414
1673606365.143167,-0.980519,75.26775748589341
1673606365.144175,-1.03526,75.24344825308255
1673606365.1451821,-1.09815,75.21916201859979
1673606365.146189,-1.118031,75.19488153369906
1673606365.147196,-1.117863,75.1705952992163
1673606365.1482031,-1.118921,75.14630906473354
1673606365.14921,-1.07084,75.1220285798328
1673606365.150217,-1.009632,75.09774234535004
1673606365.1512241,-0.942752,75.07345611086728
1673606365.152231,-0.848008,75.049175625966555
1673606365.153238,-0.763313,75.0248893914838
1673606365.1542451,-0.681623,75.00060315700104
1673606365.155252,-0.60503,74.97632267210031
1673606365.156259,-0.596616,74.95203643761755
1673606365.157267,-0.633783,74.92772720480669
1673606365.1582742,-0.65102,74.90344097032393
1673606365.159281,-0.659554,74.8791604854232
1673606365.160288,-0.67958,74.85487425094044
1673606365.1612952,-0.694124,74.83058801645768
1673606365.162302,-0.713333,74.80630753155694
1673606365.163309,-0.736388,74.78202129707418
1673606365.1643162,-0.764563,74.75773506259142
1673606365.165323,-0.780478,74.7334545776907
1673606365.16633,-0.820481,74.70916834320793
1673606365.167337,-0.868731,74.6848878583072
1673606365.168344,-0.89104,74.66060162382445
1673606365.169352,-0.84356,74.63629239101358
1673606365.1703591,-0.829424,74.61200615653082
1673606365.171366,-0.825698,74.58772567163008
1673606365.172373,-0.811971,74.56343943714732
1673606365.1733801,-0.798893,74.55004993730631
1673606365.174387,-0.787474,74.55388510181211
1673606365.175394,-0.768914,74.53221148068668
1673606365.1764011,-0.743335,74.53528092753277
1673606365.177408,-0.735883,74.50402963352408
1673606365.178415,-0.753577,74.49641275846447
1673606365.1794221,-0.747855,74.4983403989032
1673606365.180429,-0.747927,74.47857621215734
1673606365.181436,-0.74985,74.4854313776824
1673606365.182444,-0.764587,74.47023712653356
1673606365.1834512,-0.794013,74.4615300165985
1673606365.184458,-0.835988,74.45282496800577
1673606365.185465,-0.845099,74.44411785807073
1673606365.1864722,-0.834954,74.43541074813568
1673606365.187479,-0.818895,74.42670569954294
1673606365.188486,-0.828992,74.41799858960789
1673606365.189493,-0.835795,74.40929354101516
1673606365.1905,-0.835747,74.4005864310801
1673606365.191507,-0.846662,74.39187932114505
1673606365.192514,-0.840796,74.38317427255232
1673606365.193521,-0.830266,74.37446716261728
1673606365.194529,-0.792642,74.36575180731296
1673606365.1955361,-0.759058,74.35704469737792
1673606365.196543,-0.769636,74.34833964878518
1673606365.19755,-0.793676,74.33963253885013
1673606365.1985571,-0.812668,74.33092542891508
1673606365.199564,-0.835891,74.32222038032235
1673606365.200571,-0.840435,74.3135132703873
1673606365.2015781,-0.846541,74.30480616045224
1673606365.202585,-0.861495,74.29610111185951
1673606365.203592,-0.871447,74.28739400192447
1673606365.2045991,-0.89104,74.27868689198941
1673606365.205606,-0.917798,74.26998184339668
1673606365.206613,-0.948161,74.26127473346163
1673606365.207621,-0.972706,74.25255937815733
1673606365.2086282,-0.977995,74.24385226822227
1673606365.209635,-0.967537,74.23514721962954
1673606365.212656,-0.86373,74.2090279511667
1673606365.213663,-0.86724,74.20032084123166
1673606365.21467,-0.841325,74.19161579263893
1673606365.215677,-0.825506,74.18290868270387
1673606365.216684,-0.823342,74.17420157276882
1673606365.217691,-0.810553,74.16549652417609
1673606365.218698,-0.792402,74.15678941424103
1673606365.219706,-0.808413,74.14807405893673
1673606365.2207131,-0.854667,74.13936694900168
1673606365.22172,-0.871423,74.13066190040895
1673606365.222727,-0.878635,74.1219547904739
1673606365.2237341,-0.85623,74.11324768053885
1673606365.224741,-0.795888,74.10454263194612
1673606365.225748,-0.752783,74.09583552201107
1673606365.2267551,-0.746893,74.08712841207601
1673606365.227762,-0.783194,74.07842336348328
1673606365.228769,-0.798917,74.06971625354824
1673606365.2297761,-0.80209,74.06100914361318
1673606365.236826,-0.864692,74.00005731272552
1673606365.237833,-0.859187,73.99135020279047
1673606365.23884,-0.793099,73.98051724034335
1673606365.239847,-0.736195,73.96230238650453
1673606365.240854,-0.767688,73.93543125172825
1673606365.241861,-0.814039,73.8852245851216
1673606365.242868,-0.858249,73.7171702915648
1673606365.243875,-0.890896,73.71921608618582
1673606365.244883,-0.900993,73.64087731437309
1673606365.2458901,-0.88616,73.56543479462103
1673606365.246897,-0.876688,73.69004357687723
1673606365.247904,-0.858393,73.66796743829747
1673606365.2489111,-0.857023,73.63629593612625
1673606365.249918,-0.903686,73.60463193194325
1673606365.250925,-0.883468,73.57296042977204
1673606365.253946,-0.797018,73.47795342124661
1673606365.2549531,-0.804254,73.4462819190754
1673606365.25596,-0.830482,73.41461791489239
1673606365.256967,-0.833343,73.38294641272118
1673606365.257975,-0.814736,73.35124491859716
1673606365.258982,-0.796849,73.31958091441415
1673606365.259989,-0.772376,73.28790941224294
1673606365.260996,-0.739873,73.25623791007173
1673606365.262003,-0.704991,73.22457390588873
1673606365.26301,-0.683811,73.19290240371751
1673606365.264017,-0.697586,73.1612309015463
1673606365.265024,-0.753649,73.1295668973633
1673606365.266031,-0.795696,73.09789539519208
1673606365.267038,-0.800864,73.06622389302088
1673606365.268045,-0.800456,73.03455988883788
1673606365.269052,-0.811586,73.00288838666667
1673606365.27006,-0.850268,72.97118689254263
1673606365.2710671,-0.888107,72.93951539037143
1673606365.272074,-0.88967,72.90785138618843
1673606365.273081,-0.883203,72.87617988401722
1673606365.2740881,-0.912412,72.844508381846
1673606365.275095,-0.93364,72.812844377663
1673606365.276102,-0.903157,72.78117287549179
1673606365.2771091,-0.86123,72.74950137332058
1673606365.278116,-0.857023,72.71783736913757
1673606365.279123,-0.864572,72.68616586696636
1673606365.2801301,-0.840892,72.65449436479516
1673606365.281137,-0.81464,72.62283036061214
1673606365.282144,-0.784805,72.59115885844093
1673606365.283152,-0.731531,72.55945736431691
1673606365.284159,-0.701216,72.5277933601339
1673606365.285166,-0.711409,72.48953739914162
1673606365.286173,-0.742878,72.4166633297568
1673606365.28718,-0.771631,72.35014575303933
1673606365.288187,-0.800191,72.320297
1673606365.289194,-0.837791,72.31003602622795
1673606365.290201,-0.863129,72.25893537911303
1673606365.291208,-0.88354,72.22616194040525
1673606365.292215,-0.918927,72.20414637720553
1673606365.293222,-0.966624,72.16379311206485
1673606365.294229,-1.001723,72.11319314421931
1673606365.295237,-1.018287,72.10190768597997
1673606365.2962441,-1.02574,72.13152172794467
1673606365.297251,-1.026629,71.96697654812563
1673606365.298258,-1.0186,71.94522801046944
1673606365.2992651,-0.980784,71.82137327929753
1673606365.300272,-1.007517,71.75808450591016
1673606365.301279,-0.952103,71.7707664098582
1673606365.3022861,-0.851061,71.75663637386019
1673606365.303293,-0.860821,71.6916349827761
1673606365.3043,-0.87652,71.46684131847437
1673606365.3053071,-0.837767,71.4304070724845
1673606365.306314,-0.762255,71.43761009227468
1673606365.307321,-0.702418,71.42989811659514
1673606365.308329,-0.690542,71.35987853563766
1673606365.309336,-0.662487,71.30272328159275
1673606365.310343,-0.654794,71.31202250953743
1673606365.31135,-0.659818,71.3110311878043
1673606365.312357,-0.692562,71.28850356643076
1673606365.313364,-0.735955,71.26597061055062
1673606365.314371,-0.773314,71.24343765467049
1673606365.315378,-0.796922,71.22091003329695
1673606365.316385,-0.8081,71.19837707741681
1673606365.317392,-0.834377,71.17584412153667
1673606365.318399,-0.859283,71.15331650016313
1673606365.319406,-0.855244,71.13078354428299
1673606365.320414,-0.866206,71.10822925037645
1673606365.3214211,-0.85522,71.08569629449632
1673606365.322428,-0.852503,71.06316867312277
1673606365.323435,-0.833199,71.04063571724264
1673606365.3244421,-0.796008,71.0181027613625
1673606365.325449,-0.758529,70.99557513998896
1673606365.326456,-0.745908,70.97304218410882
1673606365.3274632,-0.769299,70.95050922822868
1673606365.32847,-0.7743,70.92798160685514
1673606365.329477,-0.752639,70.905448650975
1673606365.3304842,-0.726242,70.88291569509487
1673606365.331491,-0.717732,70.86038807372132
1673606365.332498,-0.73206,70.83785511784119
1673606365.333506,-0.767328,70.81530082393465
1673606365.334513,-0.798941,70.79277320256111
1673606365.33552,-0.832021,70.77024024668097
1673606365.336527,-0.835988,70.74770729080083
1673606365.337534,-0.831131,70.72517966942729
1673606365.338541,-0.8269,70.70264671354715
1673606365.339548,-0.805745,70.68011375766702
1673606365.340555,-0.796441,70.65758613629349
1673606365.341562,-0.817356,70.63505318041334
1673606365.342569,-0.873347,70.6125202245332
1673606365.343576,-0.904263,70.58999260315967
1673606365.344583,-0.928207,70.56745964727953
1673606365.345591,-0.951719,70.54490535337298
1673606365.3465981,-0.964148,70.52237239749284
1673606365.347605,-0.955613,70.49984477611932
1673606365.348612,-0.91686,70.47731182023918
1673606365.3496192,-0.878251,70.50795493896041
1673606365.350626,-0.852744,70.49472639761622
1673606365.351633,-0.792354,70.45982882331903
1673606365.3526402,-0.765116,70.42339196137338
1673606365.353647,-0.783435,70.40389596566523
1673606365.354654,-0.79846,70.36862315423123
1673606365.3556612,-0.810024,70.3493744308536
1673606365.356668,-0.818173,70.33115939484978
1673606365.357675,-0.832982,70.3652597284863
1673606365.358683,-0.866495,70.35928669981858
1673606365.35969,-0.873298,70.35175086644452
1673606365.360697,-0.854907,70.34421324859652
1673606365.361704,-0.850292,70.33667563074852
1673606365.362711,-0.851181,70.32913979737444
1673606365.363718,-0.864524,70.32160217952644
1673606365.364725,-0.881112,70.31406456167844
1673606365.365732,-0.899118,70.30652872830437
1673606365.366739,-0.900416,70.29899111045637
1673606365.367746,-0.906643,70.29145349260837
1673606365.368753,-0.927462,70.28391765923429
1673606365.36976,-0.936092,70.27638004138629
1673606365.370768,-0.857864,70.26883528564261
1673606365.3717752,-0.765404,70.26129766779461
1673606365.372782,-0.80298,70.25376183442053
1673606365.373789,-0.838199,70.24622421657253
1673606365.3747962,-0.827742,70.23868659872453
1673606365.375803,-0.840555,70.23115076535046
1673606365.37681,-0.867096,70.22361314750246
1673606365.3778172,-0.859259,70.21607552965446
1673606365.378824,-0.873226,70.20853969628038
1673606365.379831,-0.888131,70.20100207843238
1673606365.3808382,-0.872457,70.19346446058438
1673606365.381845,-0.88128,70.18592862721032
1673606365.382852,-0.87289,70.17839100936231
1673606365.38386,-0.894911,70.17084625361862
1673606365.384867,-0.899022,70.16331042024454
1673606365.385874,-0.914384,70.15577280239654
1673606365.386881,-0.935083,70.14823518454855
1673606365.387888,-0.903373,70.14069935117448
1673606365.388895,-0.796297,70.13316173332647
1673606365.389902,-0.698043,70.12562411547847
1673606365.390909,-0.670997,70.1180882821044
1673606365.391916,-0.689244,70.1105506642564
1673606365.392923,-0.731339,70.1030130464084
1673606365.39393,-0.756173,70.09547721303433
1673606365.394937,-0.792739,70.08793959518633
1673606365.395945,-0.816731,70.08039483944263
1673606365.3969522,-0.825362,70.07285722159465
1673606365.397959,-0.824184,70.06532138822057
1673606365.398966,-0.794974,70.05778377037257
1673606365.412058,-0.796849,69.95979473834858
1673606365.413065,-0.788171,69.95225890497451
1673606365.414072,-0.782834,69.93657984805907
1673606365.415079,-0.781992,70.00257701241051
1673606365.416086,-0.787666,69.98034514258464
1673606365.417093,-0.788604,69.99715982860549
1673606365.4181,-0.785839,69.97591108536004
1673606365.419107,-0.793893,70.02675450214592
1673606365.420114,-0.815793,70.01159989249106
1673606365.421122,-0.81839,70.004761
1673606365.4221292,-0.838151,70.03464454606205
1673606365.423136,-0.862841,70.04552080025583
1673606365.424143,-0.872144,70.05105987417704
1673606365.4251502,-0.865125,70.05659894809824
1673606365.426157,-0.821828,70.06213671068565
1673606365.427164,-0.765116,70.06767578460685
1673606365.4281712,-0.761029,70.07321485852805
1673606365.429178,-0.795071,70.07875262111547
1673606365.430185,-0.82541,70.08429169503667
1673606365.4311922,-0.838512,70.08983076895787
1673606365.432199,-0.838199,70.09536853154528
1673606365.433206,-0.849162,70.10090760546647
1673606365.434214,-0.863418,70.10645192472283
1673606365.435221,-0.874789,70.11198968731024
1673606365.436228,-0.891449,70.11752876123144
1673606365.437235,-0.892363,70.12306783515265
1673606365.438242,-0.889117,70.12860559774006
1673606365.439249,-0.885631,70.13414467166126
1673606365.4402561,-0.871495,70.13968374558246
1673606365.441263,-0.842959,70.14522150816987
1673606365.44227,-0.839738,70.15076058209108
1673606365.4432771,-0.862745,70.15629965601228
1673606365.444284,-0.882915,70.16183741859969
1673606365.445291,-0.884141,70.16737649252089
1673606365.446299,-0.855677,70.17292081177725
1673606365.4473062,-0.849306,70.17845988569844
1673606365.448313,-0.86135,70.18399764828585
1673606365.44932,-0.865702,70.18953672220705
1673606365.4503272,-0.849186,70.19507579612826
1673606365.451334,-0.865918,70.20061355871567
1673606365.452341,-0.898012,70.20615263263687
1673606365.4533482,-0.937198,70.21169170655807
1673606365.454355,-0.948353,70.21722946914548
1673606365.455362,-0.932558,70.22276854306669
1673606365.4563692,-0.900849,70.22830761698789
1673606365.457376,-0.807523,70.2338453795753
1673606365.458384,-0.713886,70.23938969883166
1673606365.459391,-0.662703,70.24492877275286
1673606365.460398,-0.694389,70.25046653534027
1673606365.461405,-0.798845,70.25600560926146
1673606365.4624121,-0.990736,70.26154468318266
1673606365.463419,-1.178133,70.26708244577009
1673606365.464426,-1.252538,70.27262151969128
1673606365.4654331,-1.270424,70.27816059361248
1673606365.46644,-1.221189,70.28369835619989
1673606365.467447,-1.043818,70.28923743012109
1673606365.4684541,-0.791969,70.2947765040423
1673606365.469461,-0.635826,70.30031426662971
1673606365.470468,-0.674796,70.30585334055091
1673606365.471476,-0.738864,70.31139765980727
1673606365.4724832,-0.70814,70.31693673372847
1673606365.47349,-0.650827,70.32247449631588
1673606365.474497,-0.614069,70.32801357023708
1673606365.4755042,-0.58938,70.33355264415827
1673606365.476511,-0.584668,70.3390904067457
1673606365.477518,-0.611689,70.3446294806669
1673606365.4785252,-0.649096,70.33174629582837
1673606365.479532,-0.687008,70.29990256056271
1673606365.480539,-0.706577,70.32783049999999
1673606365.4815462,-0.720954,70.312294
1673606365.482553,-0.73908,70.30794487344991
1673606365.483561,-0.747759,70.32739354132232
1673606365.4845681,-0.755692,70.29189655499046
1673606365.485575,-0.763,70.29337414753577
1673606365.486582,-0.767929,70.33210427849308
1673606365.4875891,-0.784829,70.36550877514053
1673606365.488596,-0.802066,70.36265946791337
1673606365.489603,-0.823583,70.3598094859746
1673606365.4906101,-0.872529,70.3569595040358
1673606365.491617,-0.910393,70.35411019680865
1673606365.492624,-0.930154,70.35126021486987
1673606365.4936311,-0.931957,70.34841023293109
1673606365.494638,-0.919817,70.34556092570394
1673606365.495645,-0.940323,70.34271094376516
1673606365.496653,-0.9741,70.33985826297983
1673606365.4976602,-0.99665,70.33700828104105
1673606365.498667,-0.994391,70.3341589738139
1673606365.499674,-0.954772,70.33130899187512
1673606365.5006812,-0.923183,70.32845900993634
1673606365.501688,-0.85308,70.32560970270919
1673606365.502695,-0.763361,70.3227597207704
1673606365.5037022,-0.73646,70.31990973883161
1673606365.504709,-0.807499,70.31706043160447
1673606365.505716,-0.848368,70.31421044966568
1673606365.5067232,-0.873347,70.3113604677269
1673606365.50773,-0.908734,70.30851116049975
1673606365.508738,-0.897123,70.30565847971444
1673606365.5097451,-0.839377,70.30280849777566
1673606365.510752,-0.83404,70.2999591905485
1673606365.511759,-0.832093,70.29710920860971
1673606365.5127661,-0.790286,70.29425922667093
1673606365.513773,-0.744874,70.29140991944378
1673606365.51478,-0.73218,70.288559937505
1673606365.5157871,-0.746388,70.28570995556622
1673606365.516794,-0.733334,70.28286064833907
1673606365.517801,-0.709654,70.28001066640029
1673606365.5188081,-0.716602,70.27716068446149
1673606365.519815,-0.733022,70.27431137723435
1673606365.520822,-0.759178,70.27146139529556
1673606365.52183,-0.802186,70.26860871451025
1673606365.5228372,-0.853778,70.26575873257147
1673606365.523844,-0.894286,70.26290942534432
1673606365.524851,-0.918663,70.26005944340554
1673606365.5258582,-0.931549,70.25720946146674
1673606365.526865,-0.919504,70.25436015423959
1673606365.527872,-0.874981,70.25151017230081
1673606365.5288792,-0.805624,70.24866019036203
1673606365.529886,-0.80524,70.24581088313488
1673606365.530893,-0.832742,70.2429609011961
1673606365.5319002,-0.826083,70.24011091925732
1673606365.532907,-0.800985,70.239922000000007
1673606365.533915,-0.785647,70.27421950309967
1673606365.5349221,-0.771895,70.20698647067239
1673606365.535929,-0.79608,70.203743
1673606365.536936,-0.852311,70.22127130138293
1673606365.5379431,-0.913687,70.15120025035765
1673606365.53895,-0.947247,70.18504152765856
1673606365.539957,-0.953714,70.2214697887962
1673606365.5409641,-0.939146,70.20379475679543
1673606365.541971,-0.90609,70.19998305237179
1673606365.542978,-0.857239,70.19621149721112
1673606365.5439851,-0.787209,70.19243994205044
1673606365.544992,-0.776247,70.18866927977689
1673606365.545999,-0.789108,70.185654
1673606365.547007,-0.781079,70.17805416714354
1673606365.5480142,-0.746292,70.14161659322842
1673606365.549021,-0.704173,70.13761711918951
1673606365.550028,-0.705255,70.20929368526467
1673606365.5510352,-0.757255,70.17618174463519
1673606365.552042,-0.839545,70.20068863457382
1673606365.553049,-0.899575,70.1881384015386
1673606365.5540562,-0.943881,70.17558816850337
1673606365.555063,-0.963859,70.16304090664075
1673606365.55607,-0.964532,70.15049067360552
1673606365.5570772,-0.960181,70.1379404405703
1673606365.558084,-0.919649,70.12539317870767
1673606365.559092,-0.804783,70.11283106098207
1673606365.5600991,-0.748408,70.10028082794685
1673606365.561106,-0.754178,70.08773356608422
1673606365.562113,-0.752302,70.075183333049
1673606365.5631201,-0.743119,70.06263310001377
1673606365.564127,-0.755163,70.05008583815115
1673606365.565134,-0.771607,70.03753560511592
1673606365.5661411,-0.769948,70.0249853720807
1673606365.567148,-0.750139,70.01243811021807
1673606365.568155,-0.757183,69.99988787718286
1673606365.5691621,-0.775934,69.98733764414763
1673606365.570169,-0.794013,69.974790382285
1673606365.571176,-0.813245,69.96224014924978
1673606365.572184,-0.842382,69.94967803152419
1673606365.5731912,-0.860365,69.93712779848896
1673606365.574198,-0.882266,69.92458053662632
1673606365.575205,-0.865101,69.91203030359111
1673606365.5762122,-0.831636,69.89948007055588
1673606365.577219,-0.814279,69.88693280869326
1673606365.578226,-0.814159,69.87438257565803
1673606365.5792332,-0.808846,69.8618323426228
1673606365.58024,-0.799614,69.84928508076018
1673606365.581247,-0.820457,69.836734847724955
1673606365.5822542,-0.856542,69.82418461468974
1673606365.583261,-0.896257,69.8116373528271
1673606365.584269,-0.917581,69.79907523510151
1673606365.5852761,-0.940011,69.78652500206628
1673606365.586283,-0.959436,69.77397774020366
1673606365.58729,-0.993261,69.76142750716843
1673606365.5882971,-1.016869,69.7488772741332
1673606365.589304,-0.941285,69.73633001227059
1673606365.590311,-0.870341,69.72377977923536
1673606365.5913181,-0.841517,69.71122954620014
1673606365.592325,-0.864716,69.69868228433751
1673606365.593332,-0.874404,69.6861320513023
1673606365.5943391,-0.827093,69.67358181826707
1673606365.595346,-0.788892,69.66103455640443
1673606365.596353,-0.826371,69.64848432336922
1673606365.597361,-0.867048,69.61233729136862
1673606365.5983682,-0.828703,69.63001114469607
1673606365.599375,-0.776848,69.60876605865522
1673606365.600382,-0.788219,69.5811792646638
1673606365.6013892,-0.799566,69.55655009964242
1673606365.602396,-0.779468,69.5127471549833
1673606365.603403,-0.74977799999999994,69.54209386409156
1673606365.6044102,-0.735859,69.52622156080115
1673606365.605417,-0.758914,69.498238
1673606365.606424,-0.79608,69.49226463994043
1673606365.6074312,-0.80209,69.48267092401206
1673606365.608438,-0.801033,69.47307947932325
1673606365.609446,-0.817092,69.4634766784366
1673606365.6104531,-0.817332,69.45388296250823
1673606365.61146,-0.815024,69.44429151781942
1673606365.612467,-0.818438,69.43469780189105
1673606365.6134741,-0.83368,69.42510408596266
1673606365.614481,-0.820097,69.41551264127385
1673606365.615488,-0.791681,69.40591892534547
1673606365.6164951,-0.800576,69.3963252094171
1673606365.617502,-0.844642,69.38673376472829
1673606365.618509,-0.875943,69.37714004879992
1673606365.6195161,-0.870125,69.36754633287154
1673606365.620523,-0.853104,69.35795488818273
1673606365.62153,-0.831083,69.34836117225436
1673606365.622538,-0.780887,69.33875837136772
1673606365.6235452,-0.707779,69.32916465543934
1673606365.624552,-0.709053,69.31957321075053
1673606365.625559,-0.771439,69.30997949482216
1673606365.6265662,-0.813726,69.30038577889378
1673606365.627573,-0.846854,69.29079433420497
1673606365.62858,-0.866759,69.28120061827659
1673606365.6295872,-0.895945,69.27160690234821
1673606365.630594,-0.905224,69.2620154576594
1673606365.631601,-0.859908,69.25242174173103
1673606365.6326082,-0.833992,69.24282802580265
1673606365.633615,-0.847455,69.23323658111384
1673606365.634623,-0.827982,69.2236337802272
1673606365.6356301,-0.775574,69.21404006429883
1673606365.636637,-0.757904,69.20444861961002
1673606365.637644,-0.763169,69.19485490368164
1673606365.6386511,-0.757231,69.18526118775327
1673606365.639658,-0.75098,69.17566974306446
1673606365.640665,-0.752952,69.16607602713609
1673606365.6416721,-0.760019,69.15648231120771
1673606365.642679,-0.768265,69.14689086651889
1673606365.643686,-0.769491,69.13729715059051
1673606365.6446931,-0.774083,69.12770343466214
1673606365.6457,-0.781584,69.11811198997333
1673606365.646707,-0.799181,69.10851827404495
1673606365.647715,-0.824184,69.09891547315831
1673606365.6487222,-0.845676,69.08932175722994
1673606365.649729,-0.90397400000000006,69.07973031254113
1673606365.650736,-0.956911,69.07013659661276
1673606365.6517432,-0.991289,69.06054288068438
1673606365.65275,-1.021508,69.05095143599557
1673606365.653757,-1.052521,69.0413577200672
1673606365.6547642,-1.057786,69.03176400413882
1673606365.655771,-1.009392,69.02217255945001
1673606365.656778,-0.941742,69.01257884352164
1673606365.6577852,-0.901378,69.00298512759325
1673606365.658792,-0.867817,68.99339368290444
1673606365.6598,-0.841974,68.9837908820178
1673606365.6608071,-0.833031,68.97419716608943
1673606365.661814,-0.82101,68.973618
1673606365.662821,-0.864572,68.99085651479714
1673606365.6638281,-0.927438,69.04381411397235
1673606365.664835,-0.91674,68.95853266769964
1673606365.665842,-0.913879,68.99073336422106
1673606365.6668491,-0.985399,68.92072111694512
1673606365.667856,-1.029562,68.97297111158798
1673606365.668863,-0.992708,68.9376623548464
1673606365.6698701,-0.851662,68.95550500331576
1673606365.670877,-0.804759,68.94096067026273
1673606365.671884,-0.839642,68.92641289313364
1673606365.672892,-0.753817,68.91185133970046
1673606365.6738992,-0.685325,68.8973035625714
1673606365.674906,-0.660588,68.88275922951834
1673606365.675913,-0.662463,68.86821145238926
1673606365.6769202,-0.675805,68.85366367526018
1673606365.677927,-0.758457,68.83911934220713
1673606365.678934,-0.815241,68.82457156507806
1673606365.6799412,-0.816899,68.81002378794898
1673606365.680948,-0.820818,68.79547945489593
1673606365.681955,-0.836372,68.78093167776684
1673606365.682962,-0.841565,68.76638734471379
1673606365.683969,-0.851926,68.75183956758472
1673606365.684977,-0.865125,68.73991544253695
1673606365.6859841,-0.869284,68.7517561971898
1673606365.686991,-0.807475,68.70056993556085
1673606365.687998,-0.718405,68.684181
1673606365.6890051,-0.699365,68.67826179447488
1673606365.690012,-0.730882,68.63199201287554
1673606365.691019,-0.753817,68.65242379618138
1673606365.6920261,-0.758601,68.68888539009288
1673606365.693033,-0.748576,68.71052607296137
1673606365.69404,-0.751942,68.64741858849092
1673606365.6950471,-0.758697,68.64330433146694
1673606365.696054,-0.778819,68.63919104846215
1673606365.697061,-0.809879,68.63507679143818
1673606365.698069,-0.824905,68.630958638337475
1673606365.6990762,-0.836949,68.6268443813135
1673606365.700083,-0.86099,68.6227310983087
1673606365.70109,-0.88592,68.61861684128473
1673606365.7020972,-0.890704,68.61450258426076
1673606365.703104,-0.8695,68.61038930125598
1673606365.704111,-0.852624,68.60627504423199
1673606365.705118,-0.861831,68.60216176122721
1673606365.706125,-0.870486,68.59804750420324
1673606365.707132,-0.859042,68.59393324717927
1673606365.708139,-0.891738,68.58981996417447
1673606365.709146,-0.908325,68.5857057071505
1673606365.710154,-0.889189,68.58158755404979
1673606365.7111611,-0.863995,68.57747329702582
1673606365.712168,-0.820289,68.57336001402102
1673606365.713175,-0.775381,68.56924575699705
1673606365.7141821,-0.789349,68.56513149997308
1673606365.715189,-0.814471,68.561018216968293
1673606365.716196,-0.806778,68.55690395994431
1673606365.7172031,-0.796777,68.55278970292034
1673606365.71821,-0.779348,68.54867641991555
1673606365.719217,-0.768434,68.54456216289158
1673606365.7202241,-0.802667,68.5404479058676
1673606365.721231,-0.83154,68.53633462286281
1673606365.722238,-0.835194,68.53222036583884
1673606365.723246,-0.858874,68.52810221273813
1673606365.7242532,-0.896305,68.52398795571416
1673606365.72526,-0.907196,68.49504879709454
1673606365.726267,-0.897147,68.449005
1673606365.727274,-0.942896,68.45583046754177
1673606365.728281,-0.97011,68.46012839794945
1673606365.729288,-0.941453,68.47026502857823
1673606365.730295,-0.857311,68.4960676202864
1673606365.731302,-0.826948,68.485184
1673606365.732309,-0.850364,68.46278665682306
1673606365.733316,-0.874284,68.43850129188544
1673606365.734323,-0.882626,68.44849191614361
1673606365.735331,-0.864043,68.44728068300859
1673606365.7363381,-0.855148,68.4460705957895
1673606365.737345,-0.827405,68.44486079504938
1673606365.738352,-0.783507,68.44365070783029
1673606365.7393591,-0.778507,68.4424406206112
1673606365.740366,-0.79596,68.4412308198711
1673606365.741373,-0.81512,68.440020732652
1673606365.7423801,-0.81589,68.43881064543291
1673606365.743387,-0.765236,68.4376008446928
1673606365.744394,-0.780478,68.4363907574737
1673606365.7454011,-0.867625,68.43518067025461
1673606365.746408,-0.930202,68.4339708695145
1673606365.747415,-0.959412,68.4327607822954
1673606365.748423,-1.005569,68.43154954916038
1673606365.74943,-1.054324,68.43033974842027
1673606365.750437,-1.075239,68.42912966120117
1673606365.751444,-1.078196,68.42791957398208
1673606365.752451,-1.066488,68.42670977324198
1673606365.753458,-1.029249,68.42549968602289
1673606365.754465,-0.994751,68.4242895988038
1673606365.755472,-0.966143,68.42307979806368
1673606365.756479,-0.941069,68.42186971084459
1673606365.757486,-0.914288,68.4206596236255
1673606365.758493,-0.84933,68.41944982288538
1673606365.7595,-0.784685,68.41823973566629
1673606365.760508,-0.746797,68.41702850253127
1673606365.7615151,-0.736941,68.41581841531217
1673606365.762522,-0.730305,68.41460861457206
1673606365.763529,-0.706938,68.41339852735297
1673606365.7645361,-0.691336,68.41218844013387
1673606365.765543,-0.735859,68.41097863939376
1673606365.76655,-0.761029,68.40976855217467
1673606365.7675571,-0.787113,68.40855846495558
1673606365.768564,-0.795527,68.40734866421548
1673606365.769571,-0.800287,68.40613857699638
1673606365.7705781,-0.815817,68.40492848977729
1673606365.771585,-0.76163,68.40371868903718
1673606365.772592,-0.67756,68.40250860181808
1673606365.7736,-0.61919,68.40129736868306
1673606365.774607,-0.692153,68.40008756794295
1673606365.775614,-0.780935,68.39887748072385
1673606365.776621,-0.828319,68.39766739350476
1673606365.777628,-0.83416,68.39645759276465
1673606365.778635,-0.808197,68.39524750554556
1673606365.779642,-0.753552,68.41579757640048
1673606365.780649,-0.70927,68.47352968383404
1673606365.781656,-0.705688,68.52483892751549
1673606365.782663,-0.725329,68.539452
1673606365.78367,-0.731652,68.58359305293276
1673606365.784677,-0.719896,68.63414904816405
1673606365.785685,-0.734104,68.65930916400477
1673606365.7866921,-0.764034,68.71182838698141
1673606365.787699,-0.778362,68.77312669194086
1673606365.788706,-0.780983,68.81303364795647
1673606365.7897131,-0.788147,68.84470062986355
1673606365.79072,-0.792089,68.87636011485256
1673606365.791727,-0.795239,68.90802709675964
1673606365.7927341,-0.795816,68.93969407866672
1673606365.793741,-0.798484,68.97135356365573
1673606365.794748,-0.817116,69.0030205455628
1673606365.7957551,-0.827958,69.03468752746987
1673606365.796762,-0.822933,69.06634701245888
1673606365.797769,-0.805143,69.09801399436596
1673606365.798777,-0.803605,69.1297109639453
1673606365.799784,-0.808677,69.1613704489343
1673606365.800791,-0.80911,69.19303743084139
1673606365.801798,-0.812596,69.22470441274845
1673606365.802805,-0.81637,69.25636389773747
1673606365.803812,-0.821539,69.28803087964454
1673606365.804819,-0.823102,69.31969786155162
1673606365.805826,-0.828751,69.35135734654062
1673606365.806833,-0.829977,69.3830243284477
1673606365.80784,-0.8313,69.41469131035478
1673606365.808847,-0.83243,69.44635079534379
1673606365.809854,-0.825049,69.47801777725087
1673606365.810862,-0.816947,69.5097147468302
1673606365.8118691,-0.834882,69.54138172873728
1673606365.812876,-0.846157,69.57304121372628
1673606365.813883,-0.852984,69.60470819563336
1673606365.8148901,-0.863466,69.63637517754043
1673606365.815897,-0.87301,69.66803466252945
1673606365.816904,-0.869043,69.69970164443652
1673606365.8179111,-0.895464,69.7313686263436
1673606365.818918,-0.9265,69.7630281113326
1673606365.819925,-0.945901,69.79469509323968
1673606365.8209321,-0.945035,69.82636207514676
1673606365.821939,-0.933568,69.85802156013577
1673606365.822946,-0.939242,69.88968854204285
1673606365.823954,-0.933063,69.92138551162218
1673606365.824961,-0.859643,69.95304499661118
1673606365.825968,-0.856109,69.98471197851826
1673606365.826975,-0.906691,70.01637896042534
1673606365.827982,-0.971841,70.04803844541435
1673606365.828989,-1.032158,70.07970542732143
1673606365.829996,-1.061728,70.1113724092285
1673606365.831003,-1.072667,70.14303189421751
1673606365.83201,-1.046462,70.17469887612458
1673606365.833017,-0.98826,70.20636585803166
1673606365.834024,-0.937174,70.24978118454936
1673606365.835031,-0.897387,70.2383260238379
1673606365.836039,-0.87902,70.23250736909871
1673606365.8370461,-0.898445,70.26772833834049
1673606365.838053,-0.898493,70.2564198579261
1673606365.83906,-0.884117,70.2299539527897
1673606365.8400671,-0.896786,70.191540777300915
1673606365.841074,-1.033312,70.167564
1673606365.842081,-1.065575,70.167564
1673606365.8430882,-0.936164,70.17354453500295
1673606365.844095,-0.749442,70.18394214690804
1673606365.845102,-0.66405,70.19434222095187
1673606365.8461092,-0.628974,70.2047422949957
1673606365.849131,-0.701817,70.17420490584028
1673606365.850138,-0.724079,70.185654
1673606365.851145,-0.711578,70.19941718186158
1673606365.852152,-0.673305,70.20076659608965
1673606365.853159,-0.641475,70.17455532596482
1673606365.854166,-0.669218,70.19237751116421
1673606365.855173,-0.760596,70.2101996963636
1673606365.85618,-0.816899,70.22801766229566
1673606365.857187,-0.83755,70.24583984749505
1673606365.858194,-0.859379,70.26366203269444
1673606365.859201,-0.865317,70.2814799986265
1673606365.860208,-0.839449,70.29930218382589
1673606365.861216,-0.826564,70.3171412460946
1673606365.8622231,-0.874236,70.33496343129399
1673606365.86323,-0.890872,70.35278139722605
1673606365.864237,-0.87414,70.37060358242545
1673606365.8652442,-0.860124,70.38842576762484
1673606365.866251,-0.83291,70.40624373355689
1673606365.867258,-0.801561,70.42406591875628
1673606365.8682652,-0.79471,70.44188810395568
1673606365.869272,-0.751701,70.45970606988773
1673606365.870279,-0.67268,70.47752825508712
1673606365.8712862,-0.694317,70.49535044028651
1673606365.872293,-0.732589,70.51316840621858
1673606365.8733,-0.780935,70.53099059141798
1673606365.874308,-0.816635,70.54882965368668
1673606365.875315,-0.817404,70.56664761961873
1673606365.876322,-0.829064,70.58446980481813
1673606365.877329,-0.853753,70.60229199001752
1673606365.878336,-0.866928,70.62010995594959
1673606365.879343,-0.889165,70.63793214114897
1673606365.88035,-0.894454,70.65575432634836
1673606365.881357,-0.872818,70.67357229228043
1673606365.882364,-0.851349,70.69139447747982
1673606365.883371,-0.831588,70.70921666267921
1673606365.884378,-0.802427,70.72703462861126
1673606365.885385,-0.76639,70.74485681381066
1673606365.886393,-0.73432,70.76269587607936
1673606365.8874002,-0.735234,70.78051806127876
1673606365.888407,-0.751605,70.79833602721082
1673606365.889414,-0.785334,70.8161582124102
1673606365.8904212,-0.795143,70.8339803976096
1673606365.891428,-0.781872,70.85179836354166
1673606365.892435,-0.769684,70.86962054874105
1673606365.8934422,-0.781872,70.88744273394045
1673606365.894449,-0.835867,70.9052606998725
1673606365.895456,-0.878299,70.92308288507189
1673606365.8964632,-0.876255,70.94090507027128
1673606365.89747,-0.888925,70.95872303620334
1673606365.898477,-0.915802,70.97654522140273
1673606365.899485,-0.92275,71.0207161893308
1673606365.900492,-0.920706,71.06221518663484
1673606365.901499,-0.913158,71.04547263328564
1673606365.902506,-0.881328,71.04931237473183
1673606365.903513,-0.868899,71.12172743776824
1673606365.90452,-0.869115,71.14444
1673606365.905527,-0.867625,71.1720456681764
1673606365.906534,-0.838295,71.1945323901858
1673606365.907541,-0.810505,71.25491850954653
1673606365.908548,-0.794085,71.28620872757509
1673606365.909555,-0.757663,71.30565292385043
1673606365.910562,-0.741003,71.325101724482
1673606365.91157,-0.728045,71.3445689425384
1673606365.9125772,-0.722612,71.36401774316995
1673606365.913584,-0.739994,71.38346193944531
1673606365.914591,-0.756413,71.40291074007686
1673606365.9155982,-0.766366,71.42235954070843
1673606365.916605,-0.769083,71.44180373698377
1673606365.917612,-0.758024,71.46125253761534
1673606365.9186192,-0.76127,71.4807013382469
1673606365.919626,-0.80161,71.50014553452225
1673606365.920633,-0.817548,71.51959433515381
1673606365.9216402,-0.828511,71.53904313578536
1673606365.922647,-0.824424,71.55848733206072
1673606365.923654,-0.827645,71.57793613269227
1673606365.924662,-0.866807,71.59740335074868
1673606365.925669,-0.89181,71.61684754702402
1673606365.926676,-0.885824,71.63629634765559
1673606365.927683,-0.878395,71.65574514828715
1673606365.92869,-0.875174,71.6751893445625
1673606365.929697,-0.890391,71.69463814519406
1673606365.930704,-0.903638,71.71408694582561
1673606365.931711,-0.900753,71.73353114210097
1673606365.932718,-0.902051,71.75297994273252
1673606365.933725,-0.890439,71.77242874336409
1673606365.934732,-0.864379,71.79187293963943
1673606365.935739,-0.804158,71.811321740271
1673606365.936747,-0.779035,71.8307889583274
1673606365.9377542,-0.868298,71.85023775895895
1673606365.938761,-0.987443,71.86968195523431
1673606365.939768,-1.110699,71.88913075586586
1673606365.9407752,-1.189359,71.90857955649743
1673606365.941782,-1.244653,71.92802375277277
1673606365.942789,-1.278261,71.94747255340434
1673606365.9437962,-1.167915,71.96692135403589
1673606365.944803,-0.91085,71.98636555031125
1673606365.94581,-0.77704,72.0058143509428
1673606365.9468172,-0.711385,72.02526315157436
1673606365.947824,-0.711409,72.04470734784971
1673606365.948831,-0.730594,72.06415614848127
1673606365.949839,-0.735955,72.08362336653768
1673606365.950846,-0.730594,72.10306756281302
1673606365.951853,-0.749009,72.12251636344459
1673606365.95286,-0.758457,72.14196516407614
1673606365.953867,-0.71403,72.1614093603515
1673606365.954874,-0.67167,72.18085816098305
1673606365.9558811,-0.694269,72.20030696161461
1673606365.956888,-0.777329,72.21975115788996
1673606365.957895,-0.824929,72.23919995852152
1673606365.9589021,-0.843873,72.25864875915309
1673606365.959909,-0.860629,72.27809295542843
1673606365.960916,-0.861591,72.29754175606
1673606365.961924,-0.866086,72.31700897411639
1673606365.9629312,-0.860148,72.33645777474796
1673606365.963938,-0.830506,72.37120080829757
1673606365.964945,-0.792859,72.39110129613734
1673606365.9659522,-0.734633,72.44263361954708
1673606365.966959,-0.754178,72.43012761802575
1673606365.967966,-0.794205,72.44574178111588
1673606365.9689732,-0.807908,72.46395617473182
1673606365.96998,-0.81137,72.48217000381497
1673606365.970987,-0.80673,72.51769908965188
1673606365.9719942,-0.783603,72.50185192014303
1673606365.973001,-0.742085,72.5188950119728
1673606365.974009,-0.702635,72.53730366158464
1673606365.975016,-0.683426,72.55569489525551
1673606365.976023,-0.706048,72.57408177494113
1673606365.97703,-0.774324,72.592473008612
1673606365.9780371,-0.874332,72.61086424228289
1673606365.979044,-0.965302,72.62925112196851
1673606365.980051,-1.006555,72.64764235563938
1673606365.9810581,-1.040765,72.66603358931025
1673606365.982065,-1.062209,72.68442046899588
1673606365.983072,-1.082692,72.70281170266675
1673606365.9840791,-1.078052,72.72120293633762
1673606365.985086,-1.028071,72.73958981602324
1673606365.986093,-1.002925,72.75798104969411
1673606365.987101,-0.99629,72.77638969930597
1673606365.9881082,-0.936886,72.79478093297683
1673606365.989115,-0.837863,72.81316781266246
1673606365.990122,-0.739561,72.83155904633333
1673606365.9911292,-0.654505,72.8499502800042
1673606365.992136,-0.597842,72.86833715968983
1673606365.993143,-0.577912,72.8867283933607
1673606365.9941502,-0.580076,72.90511962703157
1673606365.995157,-0.615103,72.92350650671719
1673606365.996164,-0.654674,72.94189774038806
1673606365.9971712,-0.68946,72.96028897405893
1673606365.998178,-0.739897,72.97867585374456
1673606365.999186,-0.771799,72.9970845033564
1673606366.0001931,-0.777256,73.01547573702727
1673606366.0012,-0.774035,73.0338626167129
1673606366.002207,-0.780189,73.05225385038378
1673606366.0032141,-0.793075,73.07064508405465
1673606366.004221,-0.796393,73.08903196374027
1673606366.005228,-0.78406,73.10742319741114
1673606366.0062351,-0.779252,73.125814431082
1673606366.007242,-0.79132,73.14420131076764
1673606366.008249,-0.802884,73.16259254443851
1673606366.0092561,-0.79132,73.18098377810938
1673606366.010263,-0.76276,73.199370657795
1673606366.01127,-0.764467,73.21776189146587
1673606366.012278,-0.790839,73.23617054107773
1673606366.0132852,-0.828174,73.2545617747486
1673606366.014292,-0.878708,73.27294865443422
1673606366.015299,-0.933015,73.29133988810509
1673606366.0163062,-0.988693,73.30973112177595
1673606366.017313,-1.058362,73.32811800146159
1673606366.01832,-1.106924,73.34650923513246
1673606366.0193272,-1.042472,73.36490046880333
1673606366.020334,-0.904191,73.38328734848895
1673606366.021341,-0.852287,73.40167858215982
1673606366.0223482,-0.86248,73.4200698158307
1673606366.023355,-0.859211,73.43845669551632
1673606366.024363,-0.794734,73.45686534512816
1673606366.0253701,-0.770645,73.47525657879903
1673606366.026377,-0.763481,73.49364345848467
1673606366.027384,-0.806971,73.52762462780161
1673606366.0283911,-0.865197,73.57993018979495
1673606366.029398,-0.879789,73.586594
1673606366.030405,-0.883732,73.60271192870768
1673606366.0314121,-0.854186,73.66968665379113
1673606366.032419,-0.81137,73.66068650321812
1673606366.033426,-0.77442,73.6919618690987
1673606366.0344331,-0.75086,73.6618903397711
1673606366.03544,-0.719751,73.72595875041716
1673606366.036447,-0.714775,73.73468230065833
1673606366.037455,-0.783315,73.73831202802441
1673606366.0384622,-0.841757,73.74193832140054
1673606366.039469,-0.846445,73.74556375627918
1673606366.040476,-0.848609,73.74919004965531
1673606366.0414832,-0.854595,73.75281634303144
1673606366.04249,-0.869404,73.75644177791008
1673606366.043497,-0.891738,73.76006807128621
1673606366.0445042,-0.902844,73.76369436466234
1673606366.045511,-0.889694,73.76731979954099
1673606366.046518,-0.873443,73.77094609291711
1673606366.0475252,-0.882722,73.77457238629324
1673606366.048532,-0.860365,73.77819782117189
1673606366.04954,-0.808437,73.78182754853796
1673606366.0505471,-0.813173,73.78545384191409
1673606366.051554,-0.853513,73.78907927679273
1673606366.052561,-0.888516,73.79270557016886
1673606366.0535681,-0.905994,73.79633186354499
1673606366.054575,-0.92025,73.79995729842364
1673606366.055582,-0.917966,73.80358359179976
1673606366.0565891,-0.888252,73.8072098851759
1673606366.057596,-0.807163,73.81083532005454
1673606366.058603,-0.726291,73.81446161343067
1673606366.0596101,-0.704582,73.8180879068068
1673606366.060617,-0.711073,73.82171334168544
1673606366.061624,-0.704462,73.82533963506157
1673606366.062632,-0.709582,73.82896936242764
1673606366.0636392,-0.748384,73.83259565580377
1673606366.064646,-0.78555,73.83622109068241
1673606366.065653,-0.81625,73.83984738405854
1673606366.0666602,-0.842406,73.84347367743467
1673606366.067667,-0.849691,73.84709911231332
1673606366.068674,-0.854955,73.85072540568945
1673606366.0696812,-0.859547,73.85435169906557
1673606366.070688,-0.867577,73.85797713394422
1673606366.071695,-0.923519,73.86160342732035
1673606366.0727022,-0.966095,73.86522972069648
1673606366.073709,-0.944939,73.86885515557512
1673606366.074717,-0.948593,73.8724848829412
1673606366.0757241,-0.946334,73.87611117631732
1673606366.076731,-0.945444,73.87973661119597
1673606366.077738,-0.886713,73.8833629045721
1673606366.0787451,-0.788099,73.88698919794822
1673606366.079752,-0.753552,73.89061463282687
1673606366.080759,-0.764611,73.894240926203
1673606366.0817661,-0.748841,73.89786721957913
1673606366.082773,-0.723838,73.90149265445777
1673606366.08378,-0.685013,73.9051189478339
1673606366.0847871,-0.65388,73.90874524121003
1673606366.085794,-0.686023,73.91237067608867
1673606366.086801,-0.759947,73.9159969694648
1673606366.087809,-0.8551,73.91962669683086
1673606366.0888162,-0.935203,73.92325299020699
1673606366.089823,-1.027735,73.92687842508565
1673606366.09083,-1.115916,73.9293979527897
1673606366.0918372,-1.1855850000000001,73.912231
1673606366.092844,-1.254461,73.912231
1673606366.093851,-1.273093,73.91483616404388
1673606366.0948582,-1.188686,73.98305803076923
1673606366.095865,-1.237344,73.96799551538462
1673606366.096872,-1.268357,73.98458875
1673606366.0978792,-1.194047,74.00685219230769
1673606366.098886,-1.085168,74.03144733076923
1673606366.099894,-0.969581,73.97255104924558
1673606366.1009011,-0.964051,74.02547828736839
1673606366.101908,-0.885223,74.07839299536853
1673606366.102915,-0.709534,74.13132023349134
1673606366.1039221,-0.549112,74.18424747161414
1673606366.104929,-0.443045,74.23716217961429
1673606366.105936,-0.434919,74.2900894177371
1673606366.1069431,-0.46646,74.3430166558599
1673606366.10795,-0.479562,74.39593136386004
1673606366.108957,-0.494972,74.44885860198285
1673606366.1099641,-0.546539,74.50178584010565
1673606366.110971,-0.642437,74.5547005481058
1673606366.111978,-0.697346,74.6076277862286
1673606366.112986,-0.72030400000000006,74.66060514484205
1673606366.1139932,-0.736315,74.71353238296487
1673606366.115,-0.815241,74.76644709096502
1673606366.116007,-0.93352,74.81937432908782
1673606366.1170142,-1.043626,74.87230156721063
1673606366.118021,-1.066392,74.92521627521077
1673606366.119028,-1.049275,74.97814351333358
1673606366.1200352,-1.028672,75.03107075145638
1673606366.121042,-0.983645,75.08398545945653
1673606366.122049,-0.863802,75.13691269757933
1673606366.125071,-0.545866,75.29573200231573
1673606366.1260781,-0.569186,75.34865924043854
1673606366.127085,-0.635201,75.40157394843868
1673606366.128092,-0.691191,75.45450118656149
1673606366.1290991,-0.716578,75.50742842468429
1673606366.130106,-0.72617,75.56034313268444
1673606366.131113,-0.734753,75.61327037080724
1673606366.1321201,-0.730449,75.66619760893006
1673606366.133127,-0.745691,75.7191123169302
1673606366.134134,-0.758337,75.77203955505301
1673606366.1351411,-0.756654,75.82496679317582
1673606366.136148,-0.798869,75.87788150117596
1673606366.137155,-0.83505,75.93080873929877
1673606366.138163,-0.870293,75.98378609791222
1673606366.1391702,-0.89681,76.03671333603502
1673606366.140177,-0.925178,76.08962804403517
1673606366.141184,-0.976048,76.14255528215797
1673606366.1421912,-0.997949,76.19548252028078
1673606366.143198,-1.011796,76.24839722828092
1673606366.144205,-0.977057,76.30132446640373
1673606366.1452122,-0.986457,76.35425170452653
1673606366.146219,-0.975928,76.35627449117787
1673606366.147226,-0.883179,76.31709387505961
1673606366.1482332,-0.793364,76.44433231545064
1673606366.14924,-0.76062,76.57777222479142
1673606366.150248,-0.729584,76.63822235884597
1673606366.1512551,-0.699654,76.661919
1673606366.152262,-0.716746,76.7073826090584
1673606366.153269,-0.774852,76.788559
1673606366.1542761,-0.810865,76.80880623414401
1673606366.155283,-0.833872,76.85432256465276
1673606366.15629,-0.829833,76.88480628930348
1673606366.1572971,-0.837839,76.9152900139542
1673606366.158304,-0.902243,76.94576652181405
1673606366.159311,-0.989366,76.97625024646477
1673606366.1603181,-1.062714,77.0067339711155
1673606366.161325,-1.094519,77.03721047897534
1673606366.162332,-1.115795,77.06769420362606
1673606366.16334,-1.132984,77.09820679544028
1673606366.1643472,-1.057521,77.128690520091
1673606366.165354,-0.971696,77.15916702795084
1673606366.166361,-0.982082,77.18965075260157
1673606366.1673682,-0.965013,77.22013447725229
1673606366.168375,-0.881256,77.25061098511213
1673606366.169382,-0.728863,77.28109470976285
1673606366.1703892,-0.664771,77.31157843441358
1673606366.171396,-0.671887,77.34205494227342
1673606366.172403,-0.707707,77.37253866692414
1673606366.1734102,-0.751437,77.40302239157485
1673606366.174417,-0.772448,77.43349889943471
1673606366.175425,-0.726795,77.46401149124893
1673606366.1764321,-0.692706,77.49449521589965
1673606366.177439,-0.714006,77.52497172375949
1673606366.178446,-0.809543,77.55545544841021
1673606366.1794531,-0.881592,77.58593917306092
1673606366.18046,-0.918182,77.61641568092078
1673606366.181467,-0.920538,77.64689940557149
1673606366.1824741,-0.879621,77.67738313022221
1673606366.183481,-0.810673,77.70785963808206
1673606366.184488,-0.81149,77.73834336273278
1673606366.1854951,-0.859307,77.7688270873835
1673606366.186502,-0.900777,77.79930359524334
1673606366.187509,-0.895824,77.82978731989407
1673606366.188517,-0.829593,77.86029991170828
1673606366.1895242,-0.804086,77.890783636359
1673606366.190531,-0.80334,77.92126014421885
1673606366.191538,-0.777256,77.95174386886957
1673606366.1925452,-0.793604,77.98222759352029
1673606366.193552,-0.838199,78.01270410138014
1673606366.194559,-0.772232,78.04318782603086
1673606366.1955662,-0.756221,78.07367155068158
1673606366.196573,-0.760861,78.10414805854143
1673606366.19758,-0.746364,78.13463178319215
1673606366.198587,-0.719415,78.165108291052
1673606366.199594,-0.703789,78.19559201570272
1673606366.200602,-0.717035,78.22610460751693
1673606366.2016091,-0.76151,78.25658833216765
1673606366.202616,-0.820553,78.2870648400275
1673606366.203623,-0.848224,78.31754856467822
1673606366.2046301,-0.853513,78.34803228932894
1673606366.205637,-0.86147,78.37850879718879
1673606366.206644,-0.888444,78.40899252183951
1673606366.2076511,-0.88378,78.43947624649023
1673606366.208658,-0.797691,78.469952754350075
1673606366.209665,-0.782618,78.5004364790008
1673606366.2106721,-0.808149,78.53092020365152
1673606366.211679,-0.791657,78.58656149499285
1673606366.212686,-0.769203,78.615646
1673606366.213694,-0.7749,78.7854437306235
1673606366.2147012,-0.804254,78.80061143719807
1673606366.215708,-0.839714,78.82168723156444
1673606366.216715,-0.863995,78.73566765554231
1673606366.2177222,-0.863562,78.742287
1673606366.218729,-0.834473,78.76573282832618
1673606366.219736,-0.806874,78.79031513587604
1673606366.220743,-0.79144,78.80084199011071
1673606366.22175,-0.77252,78.80736513356447
1673606366.222757,-0.776367,78.81388827701824
1673606366.223764,-0.811562,78.8204098761672
1673606366.224771,-0.848489,78.82693301962098
1673606366.225779,-0.888059,78.83346234029392
1673606366.2267861,-0.925827,78.83998548374768
1673606366.227793,-0.952776,78.84650708289665
1673606366.2288,-0.932871,78.85303022635041
1673606366.2298071,-0.905633,78.85955336980417
1673606366.230814,-0.926164,78.86607496895316
1673606366.231821,-0.923303,78.87259811240692
1673606366.2328281,-0.923976,78.87912125586068
1673606366.233835,-0.92388,78.88564285500965
1673606366.234842,-0.921956,78.89216599846341
1673606366.2358491,-0.883804,78.89868914191717
1673606366.236856,-0.817452,78.90521074106614
1673606366.237863,-0.802956,78.91173388451992
1673606366.238871,-0.833223,78.91826320519286
1673606366.2398782,-0.891425,78.92478634864662
1673606366.240885,-0.941501,78.93130794779559
1673606366.241892,-0.974317,78.93783109124935
1673606366.242899,-1.026509,78.94435269039832
1673606366.243906,-1.039611,78.9508758338521
1673606366.244913,-1.05543,78.95739897730586
1673606366.24592,-1.030644,78.96392057645483
1673606366.246927,-0.939771,78.97044371990859
1673606366.247934,-0.79846,78.97696686336235
1673606366.248941,-0.727925,78.98348846251132
1673606366.249948,-0.716145,78.99001160596508
1673606366.250956,-0.675517,78.99654092663803
1673606366.2519631,-0.667872,79.0030640700918
1673606366.25297,-0.693115,79.00958566924076
1673606366.253977,-0.691672,79.01610881269453
1673606366.2549841,-0.712491,79.02263195614829
1673606366.255991,-0.791176,79.02915355529726
1673606366.256998,-0.847888,79.031731
1673606366.2580051,-0.88253,79.031731
1673606366.259012,-0.912196,79.0091902925608
1673606366.260019,-0.883011,78.995552
1673606366.2610261,-0.782545,78.94944375393419
1673606366.262033,-0.727949,78.93482959203625
1673606366.26304,-0.779612,78.96483176853397
1673606366.264048,-0.812211,78.95360982498808
1673606366.265055,-0.818726,78.95332538340486
1673606366.266062,-0.822357,78.97154945922746
1673606366.267069,-0.859066,78.96516007508939
1673606366.268076,-0.892988,78.93451080805913
1673606366.269083,-0.902412,78.92318
1673606366.27009,-0.896257,78.89781589058403
1673606366.271097,-0.87935700000000006,78.9382343018598
1673606366.272104,-0.849931,78.98524348664759
1673606366.273111,-0.798725,78.982490836472
1673606366.274118,-0.758048,78.9707023341073
1673606366.275125,-0.782185,78.96136080557253
1673606366.276133,-0.824256,78.95201043089332
1673606366.2771401,-0.862168,78.94266890235855
1673606366.278147,-0.890079,78.92578509203625
1673606366.279154,-0.900392,79.01687447305675
1673606366.2801611,-0.880799,78.93728257330154
1673606366.281168,-0.828295,78.92318
1673606366.282175,-0.792931,78.89119341630901
1673606366.2831821,-0.769011,78.91923868820024
1673606366.284189,-0.744898,78.8744500791607
1673606366.285196,-0.74521,78.868912
1673606366.2862031,-0.710352,78.868912
1673606366.28721,-0.68833,78.85228817401668
1673606366.288217,-0.701673,78.88432682498808
1673606366.289225,-0.718165,78.88024157892855
1673606366.290232,-0.740931,78.8729559650478
1673606366.291239,-0.748841,78.86566862594474
1673606366.292246,-0.76865000000000006,78.85838128684166
1673606366.293253,-0.791272,78.85109567296092
1673606366.29426,-0.783146,78.84380833385785
1673606366.295267,-0.774035,78.83652099475478
1673606366.296274,-0.762423,78.82923538087404
1673606366.297281,-0.783363,78.82194804177097
1673606366.298288,-0.810048,78.81466070266791
1673606366.299295,-0.824977,78.80737508878715
1673606366.300302,-0.849426,78.8000877496841
1673606366.30131,-0.867697,78.79279350969172
1673606366.3023171,-0.878058,78.78550617058865
1673606366.303324,-0.900921,78.77822055670791
1673606366.304331,-0.935251,78.77093321760483
1673606366.3053381,-0.959965,78.76364587850178
1673606366.306345,-0.983236,78.75636026462102
1673606366.307352,-0.987539,78.74907292551796
1673606366.3083591,-0.95583,78.74178558641489
1673606366.309366,-0.878876,78.73449997253415
1673606366.310373,-0.810432,78.72721263343108
1673606366.3113801,-0.800215,78.71992529432801
1673606366.312387,-0.805552,78.71263968044727
1673606366.313394,-0.788339,78.7053523413442
1673606366.314402,-0.758889,78.69805810135183
1673606366.315409,-0.7605,78.6907724874711
1673606366.316416,-0.759875,78.68348514836802
1673606366.317423,-0.768337,78.67619780926495
1673606366.31843,-0.786752,78.66891219538421
1673606366.319437,-0.790719,78.66162485628114
1673606366.320444,-0.822333,78.65433751717806
1673606366.321451,-0.893997,78.64705190329732
1673606366.322458,-0.941333,78.63976456419427
1673606366.323465,-0.915442,78.6324772250912
1673606366.324472,-0.895055,78.62519161121045
1673606366.325479,-0.935612,78.61790427210738
1673606366.326487,-0.996843,78.610610032115
1673606366.3274941,-1.044515,78.60332269301193
1673606366.328501,-1.059661,78.5823628476758
1673606366.329508,-1.143875,78.51343311206486
1673606366.3305151,-1.177267,78.47499428230806
1673606366.331522,-1.056247,78.489029
1673606366.332529,-1.008935,78.47610558355184
1673606366.3335361,-1.030283,78.44362890939436
1673606366.334543,-0.976072,78.46638083690986
1673606366.33555,-0.897603,78.46222463003575
1673606366.3365571,-0.80072,78.47458858798284
1673606366.337564,-0.674002,78.43368005761553
1673606366.338571,-0.577936,78.42969237147405
1673606366.339579,-0.51358,78.42570090911462
1673606366.340586,-0.478865,78.42171416702763
1673606366.341593,-0.555939,78.41772648088615
1673606366.3426,-0.650202,78.41373879474467
1673606366.343607,-0.686431,78.40975205265768
1673606366.344614,-0.721482,78.4057643665162
1673606366.345621,-0.778266,78.40177668037471
1673606366.346628,-0.827694,78.3949612
1673606366.347635,-0.812356,78.37299030996662
1673606366.348642,-0.85385,78.35204548116357
1673606366.349649,-0.935756,78.35649400190702
1673606366.350656,-1.017974,78.271942
1673606366.351664,-1.016484,78.28475204291846
1673606366.3526711,-0.973692,78.33500889842632
1673606366.353678,-0.924625,78.3488187659118
1673606366.354685,-0.87164,78.2895228011445
1673606366.3556921,-0.866327,78.23795968760673
1673606366.367777,-0.738118,78.33840645061184
1673606366.368784,-0.771054,78.34677503252809
1673606366.369791,-0.794662,78.35514559611184
1673606366.370798,-0.817596,78.36351615969559
1673606366.371805,-0.841156,78.37188474161184
1673606366.372812,-0.845363,78.3802553051956
1673606366.373819,-0.844209,78.38862586877936
1673606366.374826,-0.842478,78.3969944506956
1673606366.375833,-0.864884,78.40536501427937
1673606366.376841,-0.88104,78.41374350453319
1673606366.3778481,-0.853802,78.42211406811694
1673606366.378855,-0.83481,78.43048265003318
1673606366.379862,-0.811274,78.43885321361694
1673606366.3808692,-0.791128,78.4472237772007
1673606366.381876,-0.810769,78.45559235911695
1673606366.382883,-0.862624,78.4639629227007
1673606366.3838902,-0.919336,78.47233348628447
1673606366.384897,-0.954435,78.48070206820071
1673606366.385904,-0.992491,78.48907263178447
1673606366.3869112,-0.991626,78.49744319536822
1673606366.387918,-0.948545,78.50581177728446
1673606366.388925,-0.886497,78.51418234086823
1673606366.389933,-0.792546,78.52256083112205
1673606366.39094,-0.732132,78.5309294130383
1673606366.391947,-0.744441,78.53929997662205
1673606366.392954,-0.765044,78.543297
1673606366.393961,-0.764972,78.543297
1673606366.394968,-0.764683,78.543297
1673606366.395975,-0.756245,78.5638905115356
1673606366.396982,-0.752759,78.52031052952853
1673606366.397989,-0.773771,78.5779990230712
1673606366.398996,-0.804711,78.58936632895063
1673606366.400003,-0.825217,78.60823610592905
1673606366.40101,-0.809303,78.59094419057072
1673606366.402018,-0.808413,78.56677077003225
1673606366.4030252,-0.826203,78.59263147830234
1673606366.404032,-0.856566,78.579468
1673606366.405039,-0.885511,78.62650436209773
1673606366.4060462,-0.88729,78.65479678580455
1673606366.407053,-0.909359,78.65935043292087
1673606366.40806,-0.903157,78.66390515833393
1673606366.4090672,-0.844858,78.66845988374699
