measure_time,emg_ch_1,grip_force_inter
1673608294.353123,-7.888858,4.265246
1673608294.3541298,-7.882823,4.229171519313304
1673608294.3551369,-7.874914,4.247857383770882
1673608294.356144,-7.864457,4.301045450166905
1673608294.3571508,-7.852701,4.284344055727554
1673608294.3581579,-7.838493,4.3176748458233885
1673608294.359165,-7.822386,4.2660051416309015
1673608294.3601718,-7.806639,4.2824528254346275
1673608294.3611789,-7.802264,4.268224911694511
1673608294.362186,-7.802192,4.319625145929339
1673608294.3631928,-7.802913,4.3214030597914626
1673608294.3642008,-7.809524,4.323183078690127
1673608294.365208,-7.819284,4.324961413559558
1673608294.3662148,-7.832314,4.326739327421682
1673608294.3672218,-7.845368,4.328517662291113
1673608294.368229,-7.861812,4.330295997160546
1673608294.3692358,-7.875539,4.332073911022669
1673608294.3702428,-7.885612,4.333852245892101
1673608294.37125,-7.88917,4.335630580761532
1673608294.3722568,-7.887536,4.337408494623656
1673608294.3732638,-7.890517,4.2564935625744935
1673608294.374271,-7.886237,4.29621050286123
1673608294.3752778,-7.882318,4.334376826418693
1673608294.3762848,-7.861572,4.237994001191895
1673608294.3772929,-7.847652,4.279311835002384
1673608294.3783,-7.832002,4.2664580386266096
1673608294.3793068,-7.818924,4.282244994040525
1673608294.3803139,-7.810822,4.26620786695279
1673608294.381321,-7.806591,4.317016688602766
1673608294.3823278,-7.808298,4.3190312113646145
1673608294.3833349,-7.806808,4.318525181787476
1673608294.384342,-7.82991,4.318019152210338
1673608294.3853488,-7.850801,4.317513242431868
1673608294.3863559,-7.863855,4.3170072128547305
1673608294.387363,-7.871428,4.316501183277592
1673608294.3883698,-7.883977,4.315995273499122
1673608294.3893778,-7.896262,4.315488764727308
1673608294.390385,-7.900517,4.314982735150171
1673608294.3913918,-7.892969,4.314476825371701
1673608294.3923988,-7.888329,4.313970795794563
1673608294.393406,-7.88316,4.313464766217424
1673608294.3944128,-7.87691,4.3129588564389545
1673608294.3954198,-7.867678,4.312452826861817
1673608294.396427,-7.852989,4.311946797284678
1673608294.3974338,-7.838637,4.311440887506209
1673608294.3984408,-7.824501,4.3109348579290705
1673608294.399448,-7.823107,4.310428828351932
1673608294.4004548,-7.813395,4.309922918573463
1673608294.4014618,-7.808033,4.309416888996324
1673608294.4024699,-7.808418,4.308910380224511
1673608294.403477,-7.814861,4.308404350647373
1673608294.4044838,-7.82652,4.307898440868903
1673608294.4054909,-7.838276,4.307392411291764
1673608294.406498,-7.851763,4.306886381714627
1673608294.4075048,-7.865827,4.306380471936157
1673608294.4085119,-7.876381,4.305874442359019
1673608294.409519,-7.883184,4.30536841278188
1673608294.4105258,-7.889218,4.3048625030034104
1673608294.4115329,-7.894146,4.304356473426273
1673608294.41254,-7.894171,4.303850443849134
1673608294.4135468,-7.881598,4.303344534070664
1673608294.4145548,-7.859552,4.302838025298851
1673608294.415562,-7.844647,4.302331995721713
1673608294.4165688,-7.831161,4.301826085943243
1673608294.4175758,-7.82491,4.3089814921316165
1673608294.418583,-7.821664,4.337603
1673608294.4195898,-7.819621,4.353695968253968
1673608294.4205968,-7.822818,4.371087181688126
1673608294.421604,-7.828444,4.3099973318236
1673608294.4226108,-7.82378,4.337603
1673608294.4236178,-7.82943,4.355754389604196
1673608294.424625,-7.848566,4.395968060786651
1673608294.4256318,-7.857388,4.355692
1673608294.4266388,-7.864937,4.356790748421676
1673608294.4276469,-7.875395,4.360865755725923
1673608294.428654,-7.890661,4.364936907772551
1673608294.4296608,-7.901671,4.369007096004774
1673608294.4306679,-7.903282,4.373078248051402
1673608294.431675,-7.898931,4.3771494000980296
1673608294.4326818,-7.892272,4.381219588330253
1673608294.4336889,-7.891166,4.38529074037688
1673608294.434696,-7.879073,4.3893618924235085
1673608294.4357028,-7.862798,4.393432080655731
1673608294.4367099,-7.847965,4.397503232702359
1673608294.437717,-7.837844,4.4015743847489865
1673608294.4387238,-7.826497,4.40564457298121
1673608294.4397318,-7.819044,4.409719580285457
1673608294.440739,-7.813082,4.413790732332085
1673608294.4417458,-7.809885,4.417860920564308
1673608294.4427528,-7.810606,4.421932072610936
1673608294.44376,-7.815558,4.426003224657563
1673608294.4447668,-7.826593,4.4300734128897865
1673608294.4457738,-7.84181,4.434144564936414
1673608294.446781,-7.854335,4.438215716983042
1673608294.4477878,-7.868952,4.442285905215265
1673608294.4487948,-7.881526,4.446357057261893
1673608294.449802,-7.897608,4.45042820930852
1673608294.4508088,-7.904388,4.4544983975407435
1673608294.4518158,-7.896575,4.458569549587371
1673608294.4528239,-7.894676,4.462644556891619
1673608294.453831,-7.890781,4.4667157089382465
1673608294.4548378,-7.881982,4.47078589717047
1673608294.4558449,-7.863567,4.474857049217098
1673608294.456852,-7.847075,4.4789282012637255
1673608294.4578588,-7.834887,4.482998389495949
1673608294.4588659,-7.822289,4.487069541542576
1673608294.459873,-7.813851,4.4911406935892035
1673608294.4608798,-7.81212,4.495210881821427
1673608294.461887,-7.81652,4.499282033868055
1673608294.462894,-7.81688,4.5033531859146825
1673608294.4639008,-7.81176,4.507423374146906
1673608294.4649088,-7.817169,4.511498381451153
1673608294.465916,-7.827699,4.515569533497781
1673608294.4669228,-7.857124,4.5196397217300035
1673608294.4679298,-7.891983,4.523710873776632
1673608294.468937,-7.901238,4.527782025823259
1673608294.4699438,-7.911648,4.531852214055482
1673608294.4709508,-7.921553,4.53592336610211
1673608294.471958,-7.916024,4.536599
1673608294.4729648,-7.904965,4.567231718951133
1673608294.4739718,-7.893161,4.495543863614688
1673608294.474979,-7.885324,4.497905231282785
1673608294.4759858,-7.868207,4.500421
1673608294.4769928,-7.841161,4.532070280400572
1673608294.4780009,-7.833517,4.5525702844539815
1673608294.479008,-7.826737,4.554688
1673608294.4800148,-7.813202,4.570909442298522
1673608294.481022,-7.801951,4.567939911829019
1673608294.482029,-7.797624,4.562550341680186
1673608294.4830358,-7.802672,4.557162047471256
1673608294.484043,-7.819861,4.525121930615165
1673608294.48505,-7.833901,4.490421747016707
1673608294.4860568,-7.838757,4.53290313622291
1673608294.487064,-7.84645,4.562542093705293
1673608294.488071,-7.858567,4.5551290115965255
1673608294.4890778,-7.870779,4.555904039466742
1673608294.4900858,-7.888305,4.5566799849640836
1673608294.491093,-7.893834,4.557455196359725
1673608294.4920998,-7.893594,4.558230224229941
1673608294.4931068,-7.890613,4.559005435625583
1673608294.494114,-7.883737,4.559780647021224
1673608294.4951208,-7.874506,4.56055567489144
1673608294.4961278,-7.858711,4.561330886287082
1673608294.497135,-7.84246,4.562106097682723
1673608294.4981418,-7.817722,4.56288112555294
1673608294.4991488,-7.784401,4.563656336948581
1673608294.500156,-7.773968,4.564431548344222
1673608294.5011628,-7.779137,4.565206576214439
1673608294.5021698,-7.779233,4.56598178761008
1673608294.503178,-7.793152,4.566757733107423
1673608294.504185,-7.809187,4.567532944503064
1673608294.5051918,-7.829598,4.5683079723732805
1673608294.506199,-7.853855,4.569083183768922
1673608294.507206,-7.861211,4.569858395164563
1673608294.5082128,-7.867293,4.57063342303478
1673608294.50922,-7.882246,4.571408634430421
1673608294.510227,-7.892248,4.572183845826062
1673608294.5112338,-7.894074,4.572958873696279
1673608294.512241,-7.892776,4.57373408509192
1673608294.513248,-7.892175,4.5745092964875615
1673608294.5142548,-7.888665,4.575284324357778
1673608294.5152628,-7.878713,4.57606026985512
1673608294.51627,-7.861235,4.576835481250761
1673608294.5172768,-7.845368,4.577610509120977
1673608294.5182838,-7.836257,4.578385720516619
1673608294.519291,-7.822963,4.57916093191226
1673608294.5202978,-7.810077,4.5799359597824765
1673608294.5213048,-7.806495,4.580711171178118
1673608294.522312,-7.804668,4.581486382573759
1673608294.5233188,-7.8076,4.582261410443976
1673608294.5243258,-7.809115,4.583036621839617
1673608294.525333,-7.823299,4.583811833235258
1673608294.5263398,-7.852581,4.584586861105475
1673608294.5273468,-7.860682,4.585362072501116
1673608294.528355,-7.869265,4.586138017998458
1673608294.529362,-7.878352,4.586913229394099
1673608294.5303688,-7.885324,4.587688257264316
1673608294.531376,-7.892704,4.588463468659957
1673608294.532383,-7.891574,4.589238680055598
1673608294.5333898,-7.886261,4.590013707925815
1673608294.534397,-7.87251,4.590788919321456
1673608294.535404,-7.858206,4.590866
1673608294.5364108,-7.84395,4.607376794040524
1673608294.537418,-7.827579,4.642242898426323
1673608294.538425,-7.816856,4.645142
1673608294.5394318,-7.813082,4.628242200523934
1673608294.5404398,-7.814476,4.627044
1673608294.541447,-7.820703,4.644234940334129
1673608294.5424538,-7.823347,4.627845673731841
1673608294.5434608,-7.816111,4.627044
1673608294.544468,-7.816183,4.6405464685808635
1673608294.5454748,-7.82342,4.654563411751216
1673608294.5464818,-7.836762,4.668583674112467
1673608294.547489,-7.867558,4.682603936473718
1673608294.5484958,-7.882463,4.69662087964407
1673608294.5495028,-7.890036,4.6702173605150215
1673608294.55051,-7.898642,4.6190490629470675
1673608294.5515168,-7.896262,4.623801347318236
1673608294.5525239,-7.890348,4.6420264167858845
1673608294.553532,-7.88167,4.59976964520744
1673608294.554539,-7.866404,4.621360733730631
1673608294.5555458,-7.850176,4.657794334763949
1673608294.556553,-7.832963,4.663934568033422
1673608294.55756,-7.822289,4.664762641314773
1673608294.5585668,-7.808923,4.665590518556048
1673608294.559574,-7.792047,4.666418591837399
1673608294.560581,-7.781276,4.667246665118749
1673608294.5615878,-7.780699,4.668074542360024
1673608294.562595,-7.785387,4.668902615641374
1673608294.563602,-7.79296,4.6697306889227255
1673608294.5646088,-7.805581,4.670558566164
1673608294.5656168,-7.817626,4.671387423605656
1673608294.566624,-7.836449,4.672215496887006
1673608294.5676308,-7.851403,4.673043374128281
1673608294.5686378,-7.865539,4.673871447409631
1673608294.569645,-7.877895,4.674699520690982
1673608294.5706518,-7.881189,4.675527397932257
1673608294.5716588,-7.874914,4.676355471213608
1673608294.572666,-7.853662,4.677183544494958
1673608294.5736728,-7.841786,4.678011421736233
1673608294.5746799,-7.832675,4.678839495017583
1673608294.575687,-7.828636,4.679667568298934
1673608294.5766938,-7.827362,4.680495445540209
1673608294.5777009,-7.817121,4.68132351882156
1673608294.578709,-7.811928,4.682152376263215
1673608294.579716,-7.803033,4.682980449544566
1673608294.5807228,-7.791542,4.68380832678584
1673608294.58173,-7.787599,4.684636400067191
1673608294.582737,-7.792552,4.685464473348542
1673608294.5837438,-7.799547,4.686292350589817
1673608294.584751,-7.812192,4.687120423871168
1673608294.585758,-7.826184,4.687948497152518
1673608294.5867648,-7.843084,4.688776374393792
1673608294.587772,-7.856379,4.689604447675143
1673608294.5887787,-7.869024,4.690432324916418
1673608294.5897858,-7.877679,4.691260398197769
1673608294.5907938,-7.880011,4.692089255639424
1673608294.591801,-7.880684,4.692917328920775
1673608294.5928078,-7.878544,4.693745206162049
1673608294.5938148,-7.873159,4.6945732794434
1673608294.594822,-7.859336,4.695401352724751
1673608294.5958288,-7.84657,4.6962292299660255
1673608294.5968359,-7.83241,4.697057303247377
1673608294.597843,-7.820582,4.697885376528727
1673608294.5988498,-7.809764,4.698713253770002
1673608294.5998569,-7.8045,4.702319625744934
1673608294.600864,-7.800893,4.717498
1673608294.6018708,-7.802721,4.714336522412971
1673608294.6028779,-7.792888,4.709279255303933
1673608294.603886,-7.797503,4.74680959847401
1673608294.604893,-7.809861,4.72818577825465
1673608294.6058998,-7.82378,4.771765
1673608294.606907,-7.839887,4.76794884624553
1673608294.607914,-7.855754,4.761562028612303
1673608294.6089208,-7.867726,4.791116121016064
1673608294.609928,-7.870106,4.796733732014852
1673608294.6109347,-7.872101,4.802350013086792
1673608294.6119418,-7.874193,4.807967624085579
1673608294.612949,-7.877895,4.813585235084366
1673608294.6139557,-7.877511,4.819201516156307
1673608294.6149628,-7.8665,4.824819127155093
1673608294.6159708,-7.85186,4.830442057861266
1673608294.616978,-7.839743,4.836059668860052
1673608294.6179848,-7.827819,4.841675949931993
1673608294.6189919,-7.815799,4.84729356093078
1673608294.619999,-7.802264,4.852911171929566
1673608294.6210058,-7.796109,4.858527453001507
1673608294.6220129,-7.795052,4.864145064000295
1673608294.62302,-7.803658,4.869762674999081
1673608294.6240268,-7.816087,4.875378956071022
1673608294.6250339,-7.829478,4.8809965670698086
1673608294.626041,-7.840368,4.886614178068595
1673608294.6270478,-7.856908,4.892230459140536
1673608294.6280549,-7.860514,4.8978480701393226
1673608294.629063,-7.867053,4.849020017167382
1673608294.63007,-7.870924,4.877305105865522
1673608294.6310768,-7.874794,4.8635978522050065
1673608294.632084,-7.873183,4.811703367668097
1673608294.6330907,-7.875154,4.7909877103004295
1673608294.6340978,-7.875515,4.841140045064377
1673608294.635105,-7.865226,4.82691103170441
1673608294.6361117,-7.848061,4.895411358130663
1673608294.6371188,-7.831425,4.880923768478779
1673608294.638126,-7.818467,4.882067036454235
1673608294.6391327,-7.806038,4.883888314069094
1673608294.6401398,-7.792479,4.8857100229597314
1673608294.6411479,-7.786108,4.887533456953484
1673608294.642155,-7.789594,4.889355165844122
1673608294.6431618,-7.796374,4.89117644345898
1673608294.6441689,-7.800533,4.892998152349618
1673608294.645176,-7.800148,4.894819861240254
1673608294.6461828,-7.812553,4.896641138855113
1673608294.6471899,-7.832098,4.89846284774575
1673608294.648197,-7.848253,4.900284556636388
1673608294.6492038,-7.862606,4.902105834251246
1673608294.6502109,-7.876669,4.903927543141883
1673608294.651218,-7.888041,4.90574925203252
1673608294.6522248,-7.896142,4.907570529647378
1673608294.6532319,-7.894579,4.9093922385380155
1673608294.65424,-7.878088,4.911215672531769
1673608294.6552467,-7.857773,4.913036950146627
1673608294.6562538,-7.834478,4.9148586590372645
1673608294.657261,-7.809813,4.910624940166866
1673608294.6582677,-7.798946,4.862218
1673608294.6592748,-7.795701,4.862218
1673608294.660282,-7.792744,4.859885187365912
1673608294.6612887,-7.783777,4.851491404148784
1673608294.6622958,-7.778031,4.8932289465903676
1673608294.663303,-7.787743,4.870354815971395
1673608294.6643097,-7.800701,4.913651315450643
1673608294.6653168,-7.825294,4.898396
1673608294.6663249,-7.849407,4.898860448167801
1673608294.667332,-7.860826,4.901581431608561
1673608294.6683388,-7.859264,4.9043017708771055
1673608294.6693459,-7.869457,4.907022754317866
1673608294.670353,-7.879722,4.909743737758626
1673608294.6713598,-7.885564,4.912464077027171
1673608294.6723669,-7.887776,4.915185060467932
1673608294.673374,-7.889266,4.906970375774916
1673608294.6743808,-7.886766,4.8694837842669845
1673608294.6753879,-7.883641,4.883188128278493
1673608294.676395,-7.869289,4.906590825941821
1673608294.6774018,-7.852653,4.918434712991656
1673608294.6784089,-7.835199,4.904144957081545
1673608294.679417,-7.80861,4.881890242233063
1673608294.6804237,-7.80022,4.884692435003485
1673608294.6814308,-7.80159,4.887495291328907
1673608294.682438,-7.807841,4.89029814765433
1673608294.6834447,-7.809524,4.893100340424752
1673608294.6844518,-7.813563,4.895903196750174
1673608294.685459,-7.824718,4.898706053075597
1673608294.6864657,-7.836233,4.901508245846019
1673608294.6874728,-7.848301,4.904311102171441
1673608294.68848,-7.864288,4.907113958496864
1673608294.6894867,-7.879674,4.909916151267286
1673608294.6904938,-7.891262,4.912719007592708
1673608294.6915019,-7.896262,4.915524518138136
1673608294.692509,-7.893257,4.9183273744635585
1673608294.6935158,-7.89518,4.92112956723398
1673608294.6945229,-7.885973,4.923932423559403
1673608294.69553,-7.869986,4.926735279884825
1673608294.6965368,-7.852797,4.929537472655247
1673608294.6975439,-7.839455,4.93234032898067
1673608294.698551,-7.829093,4.935143185306092
1673608294.6995578,-7.81914,4.937945378076514
1673608294.7005649,-7.814236,4.940748234401937
1673608294.701572,-7.817794,4.943551090727359
1673608294.7025788,-7.824814,4.946353283497781
1673608294.7035859,-7.831641,4.949156139823204
1673608294.704594,-7.830102,4.951961650368632
1673608294.7056007,-7.84306,4.9547638431390535
1673608294.7066078,-7.86287,4.957566699464476
1673608294.707615,-7.877655,4.960369555789899
1673608294.7086217,-7.881958,4.96317174856032
1673608294.7096288,-7.894651,4.9659746048857425
1673608294.710636,-7.907489,4.9687774612111655
1673608294.7116427,-7.901383,4.971579653981587
1673608294.7126498,-7.895012,4.974382510307009
1673608294.713657,-7.881621,4.977185366632432
1673608294.7146637,-7.86424,4.979987559402854
1673608294.7156708,-7.845104,4.982790415728276
1673608294.7166789,-7.832074,4.985595926273705
1673608294.717686,-7.82039,4.988398782599127
1673608294.7186928,-7.805269,4.98885
1673608294.7196999,-7.797047,5.00426058583691
1673608294.720707,-7.792431,4.9914027265792615
1673608294.7217138,-7.796566,4.957528512637101
1673608294.7227209,-7.803514,5.000042407010015
1673608294.723728,-7.811736,4.975107534445769
1673608294.7247348,-7.820799,4.9386804129709105
1673608294.7257419,-7.830127,4.9830920565092995
1673608294.726749,-7.845368,5.021448154983309
1673608294.7277558,-7.863014,5.008607758760429
1673608294.7287629,-7.869289,4.973840529327611
1673608294.729771,-7.882728,4.987456879589891
1673608294.7307777,-7.888882,5.005666948748511
1673608294.7317848,-7.886502,5.006939
1673608294.732792,-7.886357,5.04108985884597
1673608294.7337987,-7.884603,5.0369248169957075
1673608294.7348058,-7.869,5.030366195879828
1673608294.735813,-7.852917,5.023807574763948
1673608294.7368197,-7.847171,5.017250506351931
1673608294.7378268,-7.842315,5.010691885236051
1673608294.738834,-7.825439,5.022526421554602
1673608294.7398407,-7.805365,5.043117
1673608294.7408478,-7.795316,5.047141203418925
1673608294.7418559,-7.798994,5.056259280618935
1673608294.742863,-7.807433,5.065368731445056
1673608294.7438698,-7.816856,5.074476025677705
1673608294.7448769,-7.828564,5.083585476503826
1673608294.745884,-7.839214,5.092694927329948
1673608294.7468908,-7.847773,5.101802221562597
1673608294.7478979,-7.854768,5.110911672388718
1673608294.748905,-7.874337,5.120021123214839
1673608294.7499118,-7.892464,5.129128417447488
1673608294.7509189,-7.895493,5.133571
1673608294.751926,-7.890685,5.105194814020029
1673608294.7529328,-7.89643,5.127221696232714
1673608294.7539399,-7.887151,5.169749
1673608294.754948,-7.882198,5.150038287076776
1673608294.7559547,-7.866668,5.133571
1673608294.7569618,-7.838925,5.1133513452551265
1673608294.757969,-7.817554,5.107629212634088
1673608294.7589757,-7.810606,5.125841557939914
1673608294.7599828,-7.799691,5.142860285359182
1673608294.76099,-7.787431,5.158994307298815
1673608294.7619967,-7.795941,5.17512450963098
1673608294.7630038,-7.804331,5.191258531570613
1673608294.764011,-7.809115,5.207392553510245
1673608294.7650177,-7.819885,5.223522755842411
1673608294.7660248,-7.841089,5.239656777782043
1673608294.7670329,-7.869289,5.255806078151543
1673608294.76804,-7.895757,5.271940100091175
1673608294.7690468,-7.908018,5.288070302423341
1673608294.7700539,-7.901311,5.304204324362973
1673608294.771061,-7.894291,5.320338346302606
1673608294.7720678,-7.893497,5.336468548634771
1673608294.7730749,-7.894123,5.352602570574404
1673608294.774082,-7.88679,5.368736592514036
1673608294.7750888,-7.871621,5.384866794846202
1673608294.7760959,-7.853109,5.401000816785834
1673608294.777103,-7.842219,5.417134838725467
1673608294.7781098,-7.837074,5.433265041057632
1673608294.7791169,-7.823708,5.449399062997265
1673608294.780125,-7.807312,5.465548363366764
1673608294.7811317,-7.799788,5.48167856569893
1673608294.7821388,-7.796374,5.497812587638562
1673608294.783146,-7.795292,5.513946609578195
1673608294.7841527,-7.800677,5.5300768119103605
1673608294.7851598,-7.816568,5.597751941344779
1673608294.786167,-7.838757,5.637267677473182
1673608294.7871737,-7.865995,5.623297606819266
1673608294.7881808,-7.888329,5.689724076537912
1673608294.789188,-7.895036,5.677305879828326
1673608294.7901947,-7.8972,5.682477551528879
1673608294.7912018,-7.899436,5.648915694507361
1673608294.7922099,-7.89845,5.488388094420602
1673608294.793217,-7.894459,5.51010099427754
1673608294.7942238,-7.884218,5.543158515375447
1673608294.7952309,-7.873208,5.5346690338578926
1673608294.796238,-7.858158,5.5164498068669525
1673608294.7972448,-7.842315,5.589594875089392
1673608294.7982519,-7.827747,5.588556484024798
1673608294.799259,-7.811471,5.599270804537748
1673608294.8002658,-7.794258,5.615090944248864
1673608294.8012729,-7.7857,5.630914830145089
1673608294.80228,-7.784955,5.646738716041313
1673608294.8032868,-7.791926,5.6625588557524305
1673608294.8042939,-7.797744,5.6783827416486545
1673608294.805302,-7.799307,5.694221612285311
1673608294.8063087,-7.815606,5.710041751996428
1673608294.8073158,-7.832915,5.725865637892652
1673608294.808323,-7.851234,5.741689523788877
1673608294.8093297,-7.868303,5.757509663499993
1673608294.8103368,-7.877342,5.773333549396218
1673608294.811344,-7.883593,5.789157435292442
1673608294.8123507,-7.885684,5.8049775750035595
1673608294.8133578,-7.884675,5.820801460899784
1673608294.814365,-7.877487,5.8366253467960085
1673608294.8153718,-7.868976,5.852445486507125
1673608294.8163788,-7.853951,5.86826937240335
1673608294.8173869,-7.841041,5.884108243040006
1673608294.818394,-7.828876,5.89993212893623
1673608294.8194008,-7.810293,5.915752268647347
1673608294.8204079,-7.797792,5.9315761545435715
1673608294.821415,-7.792215,5.947400040439796
1673608294.8224218,-7.792335,5.963220180150913
1673608294.8234289,-7.797696,5.979044066047138
1673608294.824436,-7.80599,5.9948679519433625
1673608294.8254428,-7.815294,6.010688091654479
1673608294.8264499,-7.824092,6.026511977550703
1673608294.827457,-7.834526,6.042335863446928
1673608294.8284638,-7.84657,6.058156003158045
1673608294.8294709,-7.867221,6.073979889054269
1673608294.830479,-7.862101,6.0898187596909255
1673608294.8314857,-7.863832,6.105638899402042
1673608294.8324928,-7.867774,6.121462785298267
1673608294.8335,-7.862894,6.137286671194492
1673608294.8345068,-7.858879,6.153106810905608
1673608294.8355138,-7.859889,6.150112794040524
1673608294.836521,-7.85496,6.130400353600382
1673608294.8375278,-7.847941,6.177684441106342
1673608294.8385348,-7.830728,6.169950757330154
1673608294.839542,-7.809668,6.177429857653791
1673608294.8405488,-7.802624,6.159210153552694
1673608294.8415558,-7.797888,6.17473297544696
1673608294.8425639,-7.798008,6.237069
1673608294.843571,-7.800148,6.225277076776347
1673608294.8445778,-7.809115,6.201749481862995
1673608294.8455849,-7.824333,6.204347065952746
1673608294.846592,-7.842724,6.206944650042495
1673608294.8475988,-7.855754,6.2095416191738915
1673608294.8486059,-7.871549,6.212139203263641
1673608294.849613,-7.890204,6.214736787353392
1673608294.8506198,-7.90172,6.217333756484787
1673608294.8516269,-7.902272,6.225652313543157
1673608294.852634,-7.901094,6.250672411063424
1673608294.8536408,-7.902994,6.294025845292014
1673608294.8546479,-7.902104,6.320467628040057
1673608294.855656,-7.88929,6.319839791302274
1673608294.8566628,-7.882415,6.346191896556622
1673608294.8576698,-7.875539,6.372550241949557
1673608294.858677,-7.860803,6.398908587342492
1673608294.8596838,-7.838757,6.425260692596838
1673608294.8606908,-7.820535,6.451619037989773
1673608294.861698,-7.805317,6.477977383382708
1673608294.8627048,-7.790893,6.5043294886370555
1673608294.8637118,-7.788032,6.53068783402999
1673608294.864719,-7.798657,6.557046179422925
1673608294.8657258,-7.80861,6.583398284677272
1673608294.8667328,-7.813755,6.609756630070207
1673608294.8677409,-7.822049,6.636139936017491
1673608294.868748,-7.835175,6.662498281410426
1673608294.8697548,-7.859192,6.688850386664773
1673608294.8707619,-7.895156,6.715208732057707
1673608294.871769,-7.910038,6.741567077450642
1673608294.8727758,-7.899628,6.76791918270499
1673608294.8737829,-7.89292,6.794277528097925
1673608294.87479,-7.874554,6.820635873490859
1673608294.8757968,-7.851138,6.846987978745206
1673608294.8768039,-7.838156,6.873346324138141
1673608294.877811,-7.83193,6.899704669531076
1673608294.8788178,-7.825943,6.926056774785423
1673608294.8798258,-7.808754,6.952440080732707
1673608294.880833,-7.796446,6.978798426125642
1673608294.8818398,-7.794691,7.005150531379989
1673608294.8828468,-7.802023,7.031508876772924
1673608294.883854,-7.812769,7.057867222165859
1673608294.8848608,-7.835632,7.084219327420206
1673608294.8858678,-7.863735,7.1105776728131405
1673608294.886875,-7.878352,7.136936018206075
1673608294.8878818,-7.886718,7.163288123460423
1673608294.8888888,-7.901575,7.189646468853358
1673608294.889896,-7.901479,7.216004814246292
1673608294.8909028,-7.88304,7.242356919500639
1673608294.8919098,-7.88191,7.268715264893574
1673608294.8929179,-7.884002,7.2950985708408584
1673608294.893925,-7.871837,7.321456916233792
1673608294.8949318,-7.857196,7.34780902148814
1673608294.8959389,-7.854239,7.374167366881075
1673608294.896946,-7.853999,7.40052571227401
1673608294.8979528,-7.84859,7.426877817528357
1673608294.8989599,-7.826497,7.453236162921291
1673608294.899967,-7.816255,7.479594508314226
1673608294.9009738,-7.814524,7.5059466135685735
1673608294.9019809,-7.812793,7.532304958961508
1673608294.902988,-7.810966,7.539556
1673608294.9039948,-7.827218,7.566216643776824
1673608294.9050028,-7.845008,7.6026900381497375
1673608294.90601,-7.859865,7.65272050488677
1673608294.9070168,-7.878616,7.666187
1673608294.9080238,-7.892295,7.707753833571769
1673608294.909031,-7.902513,7.720462
1673608294.9100378,-7.909677,7.748671353516091
1673608294.9110448,-7.916648,7.770873905579399
1673608294.912052,-7.913884,7.811477336968445
1673608294.9130588,-7.904484,7.858079139976777
1673608294.9140658,-7.891406,7.904691978221435
1673608294.915073,-7.881838,7.951304816466093
1673608294.9160798,-7.868495,7.997906619474425
1673608294.9170868,-7.849576,8.044519457719083
1673608294.9180949,-7.835752,8.091176436909048
1673608294.919102,-7.821087,8.137789275153708
1673608294.9201088,-7.811207,8.184391078162038
1673608294.9211159,-7.79498,8.231003916406697
1673608294.922123,-7.783224,8.277616754651355
1673608294.9231298,-7.785892,8.324218557659687
1673608294.9241369,-7.795172,8.370831395904347
1673608294.925144,-7.803826,8.417444234149004
1673608294.9261508,-7.820054,8.464046037157335
1673608294.9271579,-7.839911,8.510658875401994
1673608294.928165,-7.855201,8.557271713646653
1673608294.9291718,-7.876164,8.603873516654984
1673608294.9301798,-7.895589,8.650530495844949
1673608294.931187,-7.89833,8.697143334089608
1673608294.9321938,-7.902345,8.743745137097939
1673608294.9332008,-7.898715,8.790357975342598
1673608294.934208,-7.890372,8.836970813587257
1673608294.9352148,-7.872438,8.883572616595588
1673608294.9362218,-7.856523,8.930185454840245
1673608294.937229,-7.84758,8.976798293084904
1673608294.9382358,-7.840656,9.023400096093237
1673608294.9392428,-7.823708,9.070012934337894
1673608294.94025,-7.815149,9.116625772582553
1673608294.9412568,-7.808202,9.163227575590884
1673608294.9422638,-7.80159,9.209840413835543
1673608294.9432719,-7.803562,9.256497393025509
1673608294.944279,-7.810774,9.303110231270168
1673608294.9452858,-7.823828,9.349712034278499
1673608294.9462929,-7.835248,9.396324872523156
1673608294.9473,-7.8328430000000004,9.442937710767815
1673608294.9483068,-7.83318,9.489539513776148
1673608294.9493139,-7.848782,9.536152352020805
1673608294.950321,-7.86525,9.582765190265464
1673608294.9513278,-7.879867,9.629366993273795
1673608294.9523349,-7.88316,9.675979831518454
1673608294.953342,-7.892608,9.722592669763111
1673608294.9543488,-7.926866,9.769194472771444
1673608294.9553568,-7.955041,9.815851451961409
1673608294.956364,-7.931434,9.87679748796186
1673608294.9573708,-7.909677,9.93957948330949
1673608294.9583778,-7.901671,10.014639572722938
1673608294.959385,-7.8894590000000004,10.0850695613826
1673608294.9603918,-7.862485,10.15016081616595
1673608294.9613988,-7.833156,10.201874318311873
1673608294.962406,-7.81301,10.249017699165673
1673608294.9634128,-7.798177,10.3253185472103
1673608294.9644198,-7.793657,10.394496957081545
1673608294.965427,-7.791157,10.41744190202855
1673608294.9664338,-7.790796,10.419992623641372
1673608294.9674408,-7.796518,10.422543949261208
1673608294.9684489,-7.818659,10.425097690909091
1673608294.969456,-7.851835,10.427649016528926
1673608294.9704628,-7.877198,10.430199738141749
1673608294.9714699,-7.888593,10.432751063761582
1673608294.972477,-7.883593,10.435302389381418
1673608294.9734838,-7.884362,10.43785311099424
1673608294.974491,-7.890492,10.440404436614076
1673608294.975498,-7.88792,10.44295576223391
1673608294.9765048,-7.875419,10.445506483846732
1673608294.977512,-7.894868,10.448057809466567
1673608294.978519,-7.928404,10.4506091350864
1673608294.9795258,-7.933453,10.467688357892227
1673608294.9805338,-7.928645,10.52803655579399
1673608294.981541,-7.896527,10.619127380214541
1673608294.9825478,-7.884314,10.703624508948725
1673608294.9835548,-7.894146,10.78014152303144
1673608294.984562,-7.889002,10.856658537114157
1673608294.9855688,-7.862269,10.933157436373463
1673608294.9865758,-7.845465,11.00967445045618
1673608294.987583,-7.837916,11.086191464538894
1673608294.9885898,-7.831064,11.162690363798202
1673608294.9895968,-7.831882,11.239207377880916
1673608294.990604,-7.833204,11.315724391963633
1673608294.9916108,-7.826713,11.392223291222939
1673608294.9926178,-7.826953,11.468740305305655
1673608294.9936259,-7.84044,11.54532977868201
1673608294.994633,-7.842123,11.621846792764726
1673608294.9956398,-7.843253,11.698345692024033
1673608294.996647,-7.854191,11.774862706106749
1673608294.997654,-7.849479,11.849344470321812
1673608294.9986608,-7.834815,11.963207369337148
1673608294.999668,-7.806519,12.077818344062948
1673608295.000675,-7.773535,12.147884310846246
1673608295.0016818,-7.760962,12.24505266070577
1673608295.002689,-7.758197,12.329545655221745
1673608295.003696,-7.760193,12.427771865045303
1673608295.0047028,-7.765193,12.577286988081049
1673608295.0057108,-7.789883,12.685606609918931
1673608295.006718,-7.818731,12.77917302807387
1673608295.0077248,-7.839478,12.885420977846875
1673608295.0087318,-7.861908,12.991694086973366
1673608295.009739,-7.884963,13.097967196099859
1673608295.0107458,-7.89881,13.204215145872864
1673608295.0117528,-7.9022,13.310488254999354
1673608295.01276,-7.90547,13.416761364125845
1673608295.0137668,-7.919461,13.52300931389885
1673608295.0147738,-7.92213,13.62928242302534
1673608295.015781,-7.905205,13.735555532151833
1673608295.0167878,-7.882271,13.841803481924838
1673608295.0177948,-7.858711,13.94807659105133
1673608295.018803,-7.849455,14.054450337591767
1673608295.01981,-7.842844,14.160723446718258
1673608295.0208168,-7.824597,14.266971396491263
1673608295.021824,-7.81063,14.373244505617754
1673608295.022831,-7.811784,14.479517614744244
1673608295.0238378,-7.81313,14.58576556451725
1673608295.024845,-7.808274,14.692038673643742
1673608295.025852,-7.805605,14.798311782770233
1673608295.0268588,-7.813106,14.904559732543238
1673608295.027866,-7.825943,15.010832841669728
1673608295.028873,-7.854456,15.11710595079622
1673608295.0298798,-7.897993,15.223353900569226
1673608295.0308878,-7.929462,15.289030611442193
1673608295.031895,-7.938069,15.401642335717693
1673608295.0329018,-7.919894,15.499918150691464
1673608295.0339088,-7.90071,15.91003477777778
1673608295.034916,-7.885083,16.043084220430107
1673608295.0359228,-7.873544,16.122418263598327
1673608295.0369298,-7.862798,16.236553234767026
1673608295.037937,-7.861331,16.32350146535245
1673608295.0389438,-7.861644,16.40250858995816
1673608295.0399508,-7.854023,17.033000037470167
1673608295.040958,-7.861547,17.146349449344456
1673608295.0419648,-7.867053,17.2387073204578
1673608295.0429718,-7.863038,17.376950656106573
1673608295.04398,-7.864216,17.495482712970137
1673608295.044987,-7.875852,17.613902629760982
1673608295.0459938,-7.880828,17.732294511533645
1673608295.047001,-7.872751,17.85071442832449
1673608295.048008,-7.860033,17.969134345115336
1673608295.0490148,-7.873208,18.087526226888002
1673608295.050022,-7.921649,18.205946143678844
1673608295.051029,-7.962975,18.327380497735398
1673608295.0520358,-8.022812,18.467142555026204
1673608295.053043,-8.077985,18.631068299522674
1673608295.05405,-8.086014,18.756610307343827
1673608295.0550568,-8.057742,18.837439335876045
1673608295.0560648,-8.004252,18.958386394849786
1673608295.057072,-7.92963,19.088159651645206
1673608295.0580788,-7.853158,19.224312290822407
1673608295.0590858,-7.769016,19.364882031235098
1673608295.060093,-7.719035,19.55241477467623
1673608295.0610998,-7.688648,19.69229696788037
1673608295.0621068,-7.671099,19.83221228497587
1673608295.063114,-7.68961,19.97212760207137
1673608295.0641208,-7.715598,20.112009795275515
1673608295.0651278,-7.736777,20.251925112371016
1673608295.066135,-7.763486,20.391840429466516
1673608295.0671418,-7.794451,20.53172262267066
1673608295.0681489,-7.820631,20.67163793976616
1673608295.069157,-7.843325,20.811685752427092
1673608295.070164,-7.847941,20.951601069522592
1673608295.0711708,-7.851355,21.091483262726733
1673608295.072178,-7.860754,21.231398579822237
1673608295.073185,-7.868471,21.371313896917737
1673608295.0741918,-7.867774,21.511196090121878
1673608295.075199,-7.865226,21.65111140721738
1673608295.076206,-7.856716,21.79102672431288
1673608295.0772128,-7.846955,21.930908917517023
1673608295.07822,-7.822987,22.070824234612523
1673608295.079227,-7.80159,22.210739551708023
1673608295.0802338,-7.806591,22.350621744912168
1673608295.0812418,-7.839046,22.4906695575731
1673608295.082249,-7.832963,22.6305848746686
1673608295.0832558,-7.817073,22.77046706787274
1673608295.0842628,-7.816568,22.910382384968244
1673608295.08527,-7.827338,23.05355175035731
1673608295.0862768,-7.836497,23.19929509116945
1673608295.0872838,-7.843565,23.334455627563187
1673608295.088291,-7.86049,23.505095412395708
1673608295.0892978,-7.882848,23.65092301430615
1673608295.0903049,-7.874626,23.804373724845018
1673608295.091312,-7.851739,23.96422037306317
1673608295.0923188,-7.837627,24.132494427753937
1673608295.0933259,-7.839959,24.25762554506438
1673608295.094334,-7.848999,24.36280217196083
1673608295.095341,-7.86525,24.47595205493193
1673608295.0963478,-7.8878,24.589075150525435
1673608295.097355,-7.892776,24.702225033496536
1673608295.098362,-7.88292,24.815374916467636
1673608295.0993688,-7.871044,24.92849801206114
1673608295.100376,-7.856812,25.04164789503224
1673608295.101383,-7.848518,25.154797778003342
1673608295.1023898,-7.88792,25.267920873596847
1673608295.103397,-7.993747,25.381070756567947
1673608295.1044037,-8.075124,25.49419385216145
1673608295.1054108,-8.112771,25.607343735132552
1673608295.1064188,-8.121234,25.72060076761404
1673608295.107426,-8.109646,25.833750650585145
1673608295.1084328,-8.071398,25.946873746178646
1673608295.1094398,-7.998218,26.060023629149747
1673608295.110447,-7.892872,26.17317351212085
1673608295.1114538,-7.803754,26.286296607714352
1673608295.1124609,-7.783392,26.399446490685456
1673608295.113468,-7.788513,26.512596373656557
1673608295.1144748,-7.829093,26.666834060085836
1673608295.1154819,-7.869818,26.875586974940333
1673608295.116489,-7.913643,27.019059144558227
1673608295.1174958,-7.954849,27.191894166189797
1673608295.1185029,-7.973985,27.42002352267303
1673608295.119511,-7.973937,27.564565123630302
1673608295.120518,-7.961845,27.72309609082241
1673608295.1215248,-7.945473,27.933957545064377
1673608295.122532,-7.925231,28.136986316229116
1673608295.123539,-7.893497,28.324238084646687
1673608295.1245458,-7.877006,28.509517014872362
1673608295.125553,-7.861163,28.694839818867923
1673608295.1265597,-7.879386,28.880118749093597
1673608295.1275668,-7.87965,29.06544155308916
1673608295.128574,-7.862004,29.25076435708472
1673608295.1295807,-7.855514,29.436043287310394
1673608295.1305878,-7.840704,29.621366091305955
1673608295.1315958,-7.819982,29.806864390381058
1673608295.132603,-7.80349,29.992187194376616
1673608295.1336098,-7.780098,30.177466124602294
1673608295.1346169,-7.76666,30.36278892859785
1673608295.135624,-7.766058,30.548111732593412
1673608295.1366308,-7.777791,30.73339066281909
1673608295.1376379,-7.844046,30.918713466814648
1673608295.138645,-7.891935,31.10403627081021
1673608295.1396518,-7.944993,31.289315201035883
1673608295.1406589,-8.038342,31.474638005031444
1673608295.141666,-8.046515,31.659960809027005
1673608295.1426728,-8.018196,31.84523973925268
1673608295.1436799,-7.945762,32.030562543248244
1673608295.144688,-7.888305,32.216060842323344
1673608295.145695,-7.836209,32.401383646318905
1673608295.1467018,-7.802504,32.586662576544576
1673608295.147709,-7.794498,32.77198538054014
1673608295.1487157,-7.766635,32.957264310765815
1673608295.1497228,-7.748125,33.142587114761376
1673608295.15073,-7.727931,33.32790991875694
1673608295.1517367,-7.704419,33.51433846212482
1673608295.1527438,-7.723002,33.71608764338498
1673608295.153751,-7.774209,33.934678974964235
1673608295.1547577,-7.859168,34.14442529594272
1673608295.1557648,-7.998266,34.285447104786854
1673608295.1567729,-8.063897,34.5302935126371
1673608295.15778,-8.062527,34.702972345584726
1673608295.1587868,-7.997088,34.93300740080972
1673608295.1597939,-7.956772,35.10775161516452
1673608295.160801,-7.940352,35.228585015992024
1673608295.1618078,-7.891815,35.30818617933268
1673608295.1628149,-7.832699,35.38780619210818
1673608295.163822,-7.773559,35.46742620488368
1673608295.1648288,-7.753245,35.54702736822434
1673608295.1658359,-7.739974,35.62664738099984
1673608295.166843,-7.728219,35.70626739377534
1673608295.1678498,-7.720983,35.785868557116
1673608295.1688569,-7.727498,35.8654885698915
1673608295.169865,-7.749543,35.94518398040637
1673608295.1708717,-7.78707,36.024785143747025
1673608295.1718788,-7.811471,36.104405156522525
1673608295.172886,-7.83681,36.184025169298025
1673608295.1738927,-7.90898,36.26362633263869
1673608295.1748998,-7.948286,36.34324634541419
1673608295.175907,-7.950762,36.42286635818969
1673608295.1769137,-7.93754,36.50246752153034
1673608295.1779208,-7.907441,36.58208753430584
1673608295.178928,-7.837892,36.66170754708134
1673608295.1799347,-7.724493,36.741308710422
1673608295.1809418,-7.652972,36.8209287231975
1673608295.1819499,-7.650496,36.92495631330472
1673608295.182957,-7.689562,37.13384130989273
1673608295.1839638,-7.739205,37.40694400524559
1673608295.1849709,-7.794403,37.6208794840248
1673608295.185978,-7.82265,37.821279382598334
1673608295.1869848,-7.829862,38.021615317119696
1673608295.1879919,-7.846691,38.227108841678586
1673608295.188999,-7.859985,38.45094156638856
1673608295.1900058,-7.856379,38.69302983547925
1673608295.1910129,-7.840104,38.97645925401246
1673608295.19202,-7.856475,39.326151248442656
1673608295.1930268,-7.911167,39.675760455942346
1673608295.1940339,-7.962133,40.02545245037254
1673608295.195042,-8.031899,40.37547559252474
1673608295.1960487,-8.085413,40.725084800024426
1673608295.1970558,-8.064234,41.07477679445462
1673608295.198063,-8.000478,41.424468788884816
1673608295.1990697,-7.927322,41.77407799638451
1673608295.2000768,-7.83657,42.12376999081471
1673608295.201084,-7.772213,42.4734619852449
1673608295.2020907,-7.828228,42.82307119274459
1673608295.2030978,-7.806182,43.17276318717479
1673608295.204105,-7.749038,43.52245518160498
1673608295.2051117,-7.719853,43.87206438910468
1673608295.2061188,-7.721968,44.221756383534874
1673608295.2071269,-7.760241,44.57177952568706
1673608295.208134,-7.788849,44.92147152011726
1673608295.2091408,-7.883882,45.271080727616955
1673608295.2101479,-7.970956,45.62077272204715
1673608295.211155,-7.968576,45.97046471647734
1673608295.2121618,-7.957036,46.320073923977034
1673608295.2131689,-7.910614,46.66976591840723
1673608295.214176,-7.846739,47.019457912837424
1673608295.2151828,-7.797768,47.36906712033712
1673608295.2161899,-7.763895,47.718759114767316
1673608295.217197,-7.739518,48.06845110919751
1673608295.2182038,-7.720334,48.4180603166972
1673608295.2192109,-7.699683,48.767752311127396
1673608295.220219,-7.687109,49.09218280668258
1673608295.2212257,-7.710934,49.320589280400576
1673608295.2222328,-7.8076,49.53857182186235
1673608295.22324,-7.926073,49.78906183675418
1673608295.2242467,-7.998915,49.98066699308536
1673608295.2252538,-8.076254,48.90101179894355
1673608295.226261,-8.180542,49.112357929986786
1673608295.2272677,-8.232133,49.30192436640212
1673608295.2282748,-8.197682,49.43884003533685
1673608295.229282,-8.136596,49.66298042522284
1673608295.2302887,-8.062022,47.82021963781593
1673608295.2312958,-7.963744,48.05119358035289
1673608295.2323039,-7.8470510000000004,48.251769577354
1673608295.233311,-7.759039,48.495571120171675
1673608295.2343178,-7.779377,48.72488796566524
1673608295.2353249,-7.902561,48.999972864084754
1673608295.236332,-7.995117,49.32287652617951
1673608295.2373388,-8.061709,49.6457037432785
1673608295.2383459,-8.049424,49.96860740537326
1673608295.239353,-7.976005,50.291511067468015
1673608295.2403598,-7.924173,50.614338284567005
1673608295.2413669,-7.896815,50.937241946661764
1673608295.242374,-7.983722,51.26014560875652
1673608295.2433808,-8.056925,51.582972825855514
1673608295.2443879,-8.014254,51.905876487950266
1673608295.245396,-7.924847,52.22908593002806
1673608295.2464027,-7.874578,52.55191314712706
1673608295.2474098,-7.858158,52.87481680922181
1673608295.248417,-7.777093,53.19772047131657
1673608295.2494237,-7.740287,53.52054768841556
1673608295.2504308,-7.837459,53.843451350510314
1673608295.251438,-7.891094,54.166355012605074
1673608295.2524447,-7.897104,54.48918222970406
1673608295.2534518,-7.85573,54.81208589179882
1673608295.254459,-7.822938,55.134989553893575
1673608295.2554657,-7.820342,55.457816770992565
1673608295.2564728,-7.79498,55.780720433087325
1673608295.2574809,-7.764472,56.10392987516512
1673608295.258488,-7.726223,56.42683353725988
1673608295.2594948,-7.698168,56.74966075435887
1673608295.2605019,-7.702688,57.07256441645363
1673608295.261509,-7.689658,57.39546807854838
1673608295.2625158,-7.654366,57.71829529564737
1673608295.2635229,-7.669368,58.041198957742125
1673608295.26453,-7.760962,58.364102619836885
1673608295.2655368,-7.904628,58.686929836935875
1673608295.2665439,-8.033846,59.009833499030634
1673608295.267551,-8.089932,59.33273716112539
1673608295.2685578,-8.061565,59.65556437822438
1673608295.2695649,-8.01697,59.978468040319136
1673608295.270573,-7.915591,60.30167748239693
1673608295.2715797,-7.802216,60.55251019099786
1673608295.2725868,-7.688384,60.81760642918455
1673608295.273594,-7.696798,61.018159262529835
1673608295.2746007,-7.792816,61.24532803862661
1673608295.2756078,-7.839527,61.49188412264825
1673608295.276615,-7.827915,61.69923048281623
1673608295.2776217,-7.821689,61.93401494706724
1673608295.2786288,-7.819428,62.177333897594664
1673608295.279636,-7.770025,62.4142345451074
1673608295.2806427,-7.739879,62.67367250743946
1673608295.2816498,-7.771227,62.945278645814476
1673608295.2826579,-7.83354,63.217141986972045
1673608295.283665,-7.866716,63.48874812534706
1673608295.2846718,-7.835512,63.76028996302643
1673608295.2856789,-7.890396,64.03189610140144
1673608295.286686,-7.991222,64.30350223977646
1673608295.2876928,-8.072095,64.57504407745584
1673608295.2886999,-8.100414,64.84665021583085
1673608295.289707,-8.037067,65.11825635420587
1673608295.2907138,-7.980164,65.38979819188523
1673608295.2917209,-8.040145,65.66140433026025
1673608295.292728,-8.204726,65.93301046863527
1673608295.2937348,-8.311731,66.20455230631464
1673608295.2947419,-8.225617,66.47615844468966
1673608295.29575,-8.104141,66.74802178584723
1673608295.2967567,-8.032091,67.0195636235266
1673608295.2977638,-7.932804,67.29116976190161
1673608295.298771,-7.795003,67.56277590027662
1673608295.2997777,-7.65028,67.834317737956
1673608295.3007848,-7.501084,68.10592387633102
1673608295.301792,-7.424346,68.37753001470602
1673608295.3027987,-7.423265,68.6490718523854
1673608295.3038058,-7.45144,68.92067799076042
1673608295.304813,-7.502887,69.19228412913543
1673608295.3058197,-7.561738,69.46382596681481
1673608295.3068268,-7.619123,69.73543210518983
1673608295.3078349,-7.669656,70.00729544634738
1673608295.308842,-7.75875,70.2789015847224
1673608295.3098488,-7.913812,70.55044342240178
1673608295.3108559,-8.113036,70.82204956077679
1673608295.311863,-8.213309,71.09365569915181
1673608295.3128698,-8.215232,71.36519753683119
1673608295.3138769,-8.132076,71.6368036752062
1673608295.314884,-7.975404,71.90840981358122
1673608295.3158908,-7.823155,72.17995165126058
1673608295.3168979,-7.649342,72.4515577896356
1673608295.317905,-7.495603,72.72316392801062
1673608295.3189118,-7.460648,72.99470576568999
1673608295.3199189,-7.507527,73.266311904065
1673608295.320927,-7.527408,73.53817524522258
1673608295.3219337,-7.514907,73.80971708290194
1673608295.3229408,-7.561666,74.08132322127696
1673608295.323948,-7.642418,74.35292935965197
1673608295.3249547,-7.734541,74.62447119733135
1673608295.3259618,-7.888978,74.89607733570637
1673608295.326969,-7.989468,75.16614175250358
1673608295.3279757,-8.123133,75.41932881358761
1673608295.3289828,-8.200567,75.91921084479718
1673608295.32999,-8.201433,76.19740595873016
1673608295.3309968,-8.108564,76.41550514985896
1673608295.3320038,-7.899484,76.68087142857144
1673608295.3330119,-7.699514,76.94117882222223
1673608295.334019,-7.595227,77.15959572214386
1673608295.3350258,-7.584889,77.39681768818342
1673608295.3360329,-7.653116,77.62162705573192
1673608295.33704,-7.798802,79.13826870274136
1673608295.3380468,-7.960306,79.32936153004292
1673608295.3390539,-8.08147,79.52977087625179
1673608295.340061,-8.207972,79.76709493204578
1673608295.3410678,-8.241532,80.00289778808104
1673608295.3420749,-8.142533,80.18433583118741
1673608295.343082,-8.026177,80.36751902575108
1673608295.3440888,-7.90208,80.57287383715446
1673608295.3450959,-7.764039,80.78262808544365
1673608295.346104,-7.646096,80.99258096464979
1673608295.3471107,-7.569142,81.20228555520974
1673608295.3481178,-7.567652,81.41203980349894
1673608295.349125,-7.56258,81.62179405178813
1673608295.3501318,-7.547722,81.8314986423481
1673608295.3511388,-7.56883,82.04125289063728
1673608295.352146,-7.615036,82.25100713892648
1673608295.3531528,-7.684393,82.46071172948643
1673608295.3541598,-7.731008,82.67046597777563
1673608295.355167,-7.775915,82.88022022606482
1673608295.3561738,-7.792864,83.08992481662479
1673608295.3571808,-7.794883,83.29967906491399
1673608295.3581889,-7.802432,83.50963194412012
1673608295.359196,-7.766491,83.7193861924093
1673608295.3602028,-7.743556,83.92909078296927
1673608295.3612099,-7.812096,84.13884503125846
1673608295.362217,-7.839887,84.34859927954766
1673608295.3632238,-7.827795,84.55830387010761
1673608295.3642309,-7.761804,84.76805811839681
1673608295.365238,-7.715958,84.97781236668601
1673608295.3662448,-7.659078,85.18751695724596
1673608295.3672519,-7.656338,85.39727120553516
1673608295.368259,-7.673887,85.60702545382435
1673608295.3692658,-7.711655,85.81673004438431
1673608295.3702729,-7.75411,86.0264842926735
1673608295.371281,-7.776468,86.23643717187964
1673608295.3722878,-7.851066,86.4461417624396
1673608295.3732948,-7.978961,86.6558960107288
1673608295.374302,-8.038125,86.86565025901798
1673608295.3753088,-7.981967,87.07535484957795
1673608295.3763158,-7.920904,87.28510909786714
1673608295.377323,-7.871188,87.49486334615634
1673608295.3783298,-7.832002,87.70456793671629
1673608295.3793368,-7.812962,87.91432218500549
1673608295.380344,-7.841883,88.12407643329468
1673608295.3813508,-7.892127,88.2974376137339
1673608295.3823578,-7.975211,88.51980374248927
1673608295.3833659,-8.07445,88.69790417501191
1673608295.384373,-8.147655,88.93619414374254
1673608295.3853798,-8.148327,89.1462165193133
1673608295.3863869,-8.057863,89.31639254077254
1673608295.387394,-8.001247,89.55658115137068
1673608295.3884008,-7.946483,89.765459
1673608295.3894079,-7.827747,89.93486801144493
1673608295.390415,-7.706583,90.00672560624538
1673608295.3914218,-7.704611,90.06331847467092
1673608295.3924289,-7.685907,90.11992474420195
1673608295.393436,-7.68872,90.17653101373298
1673608295.3944428,-7.739013,90.32136253563766
1673608295.3954508,-7.777622,90.52209177529981
1673608295.396458,-7.858062,90.73014386153112
1673608295.3974648,-7.850224,90.93814669300717
1673608295.3984718,-7.798826,91.14619877923849
1673608295.399479,-7.760169,91.35425086546981
1673608295.4004858,-7.702231,91.56225369694586
1673608295.4014928,-7.630542,91.77030578317716
1673608295.4025,-7.599843,91.97835786940848
1673608295.4035068,-7.545631,92.18636070088453
1673608295.4045138,-7.516614,92.39441278711584
1673608295.405521,-7.495651,92.60246487334716
1673608295.4065278,-7.581043,92.81046770482321
1673608295.4075348,-7.731513,93.01851979105453
1673608295.4085429,-7.805437,93.2267688963069
1673608295.40955,-7.892079,93.4348209825382
1673608295.4105568,-7.937444,93.64282381401425
1673608295.4115639,-7.891382,93.85087590024557
1673608295.412571,-7.805221,94.05892798647689
1673608295.4135778,-7.708818,94.26693081795294
1673608295.4145849,-7.618233,94.47498290418424
1673608295.415592,-7.617704,94.68303499041556
1673608295.4165988,-7.661554,94.89103782189162
1673608295.4176059,-7.680426,95.09908990812292
1673608295.418613,-7.640639,95.30714199435424
1673608295.4196198,-7.60703,95.51514482583029
1673608295.4206278,-7.65415,95.72339393108265
1673608295.421635,-7.826352,95.93144601731397
1673608295.4226418,-8.009662,96.13944884879002
1673608295.4236488,-8.057718,96.34750093502133
1673608295.424656,-8.079908,96.55555302125265
1673608295.4256628,-8.095967,96.7635558527287
1673608295.4266698,-8.006248,96.97160793896002
1673608295.427677,-7.802144,97.17966002519132
1673608295.4286838,-7.698168,97.38766285666738
1673608295.4296908,-7.645327,97.5957149428987
1673608295.430698,-7.683407,97.80376702913
1673608295.4317048,-7.725334,98.01176986060605
1673608295.4327118,-7.749807,98.21982194683737
1673608295.4337199,-7.787239,98.42807105208973
1673608295.434727,-7.836522,98.63612313832105
1673608295.4357338,-7.863038,98.8441259697971
1673608295.4367409,-7.912081,99.05217805602841
1673608295.437748,-7.924822,99.26023014225973
1673608295.4387548,-7.92725,99.46823297373578
1673608295.4397619,-7.971894,99.67628505996709
1673608295.440769,-7.918043,99.8843371461984
1673608295.4417758,-7.741393,100.09233997767446
1673608295.4427829,-7.631865,100.30039206390578
1673608295.44379,-7.582172,100.50844415013708
1673608295.4447968,-7.546881,100.71821326752503
1673608295.4458048,-7.638596,100.95150454172628
1673608295.446812,-7.807985,101.13509605744935
1673608295.4478188,-7.908114,101.33693730042918
1673608295.4488258,-7.963648,101.54733958297568
1673608295.449833,-7.949055,101.68551708128724
1673608295.4508398,-7.851955,101.92037354721029
1673608295.4518468,-7.778632,102.13090674296615
1673608295.452854,-7.897176,102.27881072014303
1673608295.4538608,-7.994516,102.44395666382815
1673608295.4548678,-7.964033,102.61794750255707
1673608295.455875,-7.850778,102.79193834128598
1673608295.4568818,-7.763607,102.96588798900194
1673608295.4578888,-7.685018,103.13987882773087
1673608295.4588969,-7.578518,103.31403443051161
1673608295.459904,-7.443987,103.48802526924052
1673608295.4609108,-7.346792,103.6619749169565
1673608295.4619179,-7.302172,103.83596575568541
1673608295.462925,-7.369053,104.00995659441432
1673608295.4639318,-7.45495,104.18390624213029
1673608295.4649389,-7.542554,104.3578970808592
1673608295.465946,-7.634677,104.53188791958812
1673608295.4669528,-7.720934,104.70583756730409
1673608295.4679599,-7.819236,104.879828406033
1673608295.468967,-7.821496,105.05381924476193
1673608295.4699738,-7.887896,105.22776889247788
1673608295.4709818,-7.972639,105.40192449525863
1673608295.471989,-7.958575,105.57591533398754
1673608295.4729958,-7.892464,105.7498649817035
1673608295.4740028,-7.880828,105.92385582043242
1673608295.47501,-7.858879,106.09784665916133
1673608295.4760168,-7.793297,106.2717963068773
1673608295.4770238,-7.769833,106.44578714560622
1673608295.478031,-7.757645,106.61977798433513
1673608295.4790378,-7.766876,106.7937276320511
1673608295.4800448,-7.864962,106.96771847078001
1673608295.481052,-7.953527,107.14170930950894
1673608295.4820588,-8.014229,107.3156589572249
1673608295.4830658,-8.03101,107.48964979595381
1673608295.4840739,-7.923091,107.66380539873455
1673608295.485081,-7.770795,107.83779623746348
1673608295.4860878,-7.639461,108.01174588517944
1673608295.4870949,-7.584312,108.18573672390835
1673608295.488102,-7.699971,108.35972756263727
1673608295.4891088,-7.798417,108.53367721035323
1673608295.490116,-7.89845,108.70766804908214
1673608295.491123,-7.9567,108.88165888781107
1673608295.4921298,-8.103996,109.05560853552703
1673608295.493137,-8.136259,109.22959937425594
1673608295.494144,-7.976702,109.40359021298487
1673608295.4951508,-7.816592,109.57753986070082
1673608295.4961588,-7.704515,109.75169546348157
1673608295.497166,-7.573494,109.9256863022105
1673608295.4981728,-7.451031,110.09963594992645
1673608295.4991798,-7.423385,110.27362678865536
1673608295.500187,-7.422471,110.44761762738429
1673608295.5011938,-7.429587,110.62156727510025
1673608295.5022008,-7.523441,110.79555811382916
1673608295.503208,-7.65415,110.96954895255809
1673608295.513279,-7.598929,112.71956962660944
1673608295.5142858,-7.553877,112.9058545601432
1673608295.515293,-7.560729,113.07707041662697
1673608295.5163,-7.575321,113.24449303241956
1673608295.5173068,-7.581259,112.997625283904
1673608295.518314,-7.609819,112.1832231247902
1673608295.519321,-7.650448,111.3688209656764
1673608295.5203278,-7.638692,111.15091598807821
1673608295.5213358,-7.588351,111.35152682069624
1673608295.522343,-7.570585,111.50799535756853
1673608295.5233498,-7.559815,111.6465950944206
1673608295.5243568,-7.577028,111.81480876251788
1673608295.525364,-7.624796,111.98561747818832
1673608295.5263708,-7.739999,112.11509292942299
1673608295.5273778,-7.923524,112.3056912632332
1673608295.528385,-8.0701,112.42512775232419
1673608295.5293918,-8.032644,112.60712277974733
1673608295.5303988,-7.992977,112.85739828143923
1673608295.531406,-7.91725,113.10767378313113
1673608295.5324128,-7.821761,113.35789003399404
1673608295.5334198,-7.783752,113.60816553568594
1673608295.534428,-7.803874,113.85867804069385
1673608295.535435,-7.871885,114.10895354238575
1673608295.5364418,-7.968095,114.35916979324865
1673608295.537449,-7.951868,114.60944529494056
1673608295.538456,-7.836834,114.85972079663246
1673608295.5394628,-7.778103,115.10993704749536
1673608295.54047,-7.716848,115.36021254918727
1673608295.541477,-7.630206,115.61048805087918
1673608295.5424838,-7.481707,115.86070430174208
1673608295.543491,-7.448916,116.11097980343399
1673608295.544498,-7.607584,116.3612553051259
1673608295.5455048,-7.713098,116.6114715559888
1673608295.5465128,-7.845224,116.86198406099669
1673608295.54752,-7.963167,117.11225956268859
1673608295.5485268,-8.003171,117.3624758135515
1673608295.5495338,-8.052141,117.61275131524341
1673608295.550541,-8.045001,117.86302681693532
1673608295.5515478,-8.042957,118.11324306779822
1673608295.5525548,-8.225738,118.36351856949013
1673608295.553562,-8.226074,118.61379407118203
1673608295.5545688,-8.02399,118.86401032204493
1673608295.5555758,-7.822578,119.11428582373684
1673608295.556583,-7.644678,119.36456132542874
1673608295.5575898,-7.495026,119.61477757629164
1673608295.5585968,-7.444661,119.86505307798355
1673608295.559605,-7.378429,120.11556558299145
1673608295.560612,-7.374847,120.36584108468335
1673608295.5616188,-7.384992,120.61605733554626
1673608295.562626,-7.452642,120.86633283723816
1673608295.563633,-7.552795,121.11660833893006
1673608295.5646398,-7.629196,121.30299266142107
1673608295.565647,-7.719901,121.4533428796186
1673608295.566654,-7.838084,121.61281061516453
1673608295.5676608,-7.89857,121.77686894701671
1673608295.568668,-7.812986,121.91275934198619
1673608295.569675,-7.742451,122.0684843969957
1673608295.5706818,-7.768222,122.21829222673031
1673608295.5716898,-7.79522,122.37848862696522
1673608295.572697,-7.780339,122.5424077010727
1673608295.5737038,-7.78618,122.58359331055901
1673608295.5747108,-7.79498,122.5947165652174
1673608295.575718,-7.720165,122.60583981987578
1673608295.5767248,-7.607199,122.6169604411879
1673608295.5777318,-7.54979,122.62808369584627
1673608295.578739,-7.615517,122.63920695050466
1673608295.5797458,-7.639149,122.65032757181677
1673608295.5807528,-7.646168,122.66145082647516
1673608295.58176,-7.774593,122.67257408113355
1673608295.5827668,-7.959994,122.68369470244565
1673608295.5837739,-8.007305,122.69481795710404
1673608295.584782,-7.984756,122.70595174514752
1673608295.585789,-7.999084,122.7170749998059
1673608295.5867958,-7.955138,122.72819562111802
1673608295.587803,-7.779401,122.76783200810682
1673608295.58881,-7.665593,122.94686564091559
1673608295.5898168,-7.787406,123.10421068772348
1673608295.590824,-7.942564,123.23172769527898
1673608295.591831,-7.988578,123.36000651715602
1673608295.5928378,-7.964441,123.49137940882251
1673608295.593845,-7.891718,123.62278340939066
1673608295.594852,-7.796686,123.7541874099588
1673608295.5958588,-7.747523,123.8855603016253
1673608295.5968668,-7.675979,124.01708873780005
1673608295.597874,-7.648188,124.1484927383682
1673608295.5988808,-7.673599,124.27986563003469
1673608295.5998878,-7.700861,124.41126963060285
1673608295.600895,-7.731488,124.54267363117098
1673608295.6019018,-7.829165,124.67404652283749
1673608295.6029088,-7.924702,124.80545052340564
1673608295.603916,-7.955739,124.93685452397378
1673608295.6049228,-7.962951,125.06822741564028
1673608295.6059299,-7.937973,125.19963141620843
1673608295.606937,-7.927683,125.33103541677657
1673608295.6079438,-7.866067,125.46240830844307
1673608295.6089509,-7.731224,125.59381230901121
1673608295.609959,-7.578278,125.72534074518596
1673608295.610966,-7.501276,125.85674474575411
1673608295.6119728,-7.458003,125.98811763742061
1673608295.61298,-7.428385,126.11952163798875
1673608295.613987,-7.463196,126.25092563855691
1673608295.6149938,-7.53801,126.38229853022341
1673608295.616001,-7.614435,126.51370253079155
1673608295.617008,-7.691268,126.6451065313597
1673608295.6180148,-7.793008,126.77647942302619
1673608295.619022,-7.811207,126.90788342359434
1673608295.6200287,-7.802552,127.03925631526084
1673608295.6210358,-7.75863,127.17066031582898
1673608295.6220438,-7.754255,127.30218875200373
1673608295.623051,-7.765722,127.43359275257188
1673608295.6240578,-7.692759,127.56496564423837
1673608295.6250648,-7.637057,127.69636964480652
1673608295.626072,-7.637105,127.82777364537468
1673608295.6270788,-7.812673,127.95914653704116
1673608295.6280859,-8.179532,128.09055053760932
1673608295.629093,-8.372025,128.22195453817747
1673608295.6300998,-8.394767,128.35332742984397
1673608295.6311069,-8.355412,128.4847314304121
1673608295.632114,-8.417149,128.61613543098025
1673608295.6331208,-8.366182,128.74750832264675
1673608295.6341279,-8.168473,128.8789123232149
1673608295.635136,-8.089957,129.01044075938964
1673608295.636143,-8.136716,129.1418447599578
1673608295.6371498,-8.111666,129.2732176516243
1673608295.638157,-7.917995,129.40462165219245
1673608295.639164,-7.752861,129.51484182383788
1673608295.6401708,-7.624027,129.63498228683835
1673608295.641178,-7.428121,129.76108965450643
1673608295.6421847,-7.225339,129.89025737425507
1673608295.6431918,-7.144202,130.0158561721507
1673608295.644199,-7.164155,130.11497208392942
1673608295.6452057,-7.171512,130.68658498839906
1673608295.6462128,-7.251783,130.74780448608246
1673608295.6472208,-7.404513,130.88255774381443
1673608295.648228,-7.509642,131.42136995994278
1673608295.6492348,-7.586812,131.50533998281622
1673608295.6502419,-7.651409,131.6039654465349
1673608295.651249,-7.714227,131.66704943919885
1673608295.6522558,-7.733027,131.72172027684965
1673608295.6532629,-7.757861,131.79639981205335
1673608295.6562839,-7.782502,131.92503116365506
1673608295.657291,-7.752332,131.95954939886062
1673608295.6582978,-7.746129,131.99405946213545
1673608295.6593049,-7.683431,132.028577697341
1673608295.660313,-7.597847,132.06312862026928
1673608295.66132,-7.552867,132.09764685547484
1673608295.6623268,-7.582774,132.13215691874967
1673608295.663334,-7.647034,132.16667515395523
1673608295.6643407,-7.660449,132.2011852172301
1673608295.6653478,-7.681051,132.23570345243562
1673608295.666355,-7.711054,132.27022168764117
1673608295.6673617,-7.711439,132.30473175091603
1673608295.6683688,-7.699058,132.33924998612156
1673608295.669376,-7.703794,132.3737682213271
1673608295.6703827,-7.731633,132.40827828460198
1673608295.6713898,-7.762837,132.4427965198075
1673608295.6723979,-7.858326,132.47734744273578
1673608295.673405,-7.980284,132.51186567794133
1673608295.6744118,-8.016657,132.5463757412162
1673608295.6754189,-7.950305,132.58089397642172
1673608295.676426,-7.854696,132.61541221162727
1673608295.6774328,-7.843493,132.64992227490214
1673608295.6784399,-7.859721,132.68444051010766
1673608295.679447,-7.926145,132.71895874531322
1673608295.6804538,-7.937059,132.75346880858808
1673608295.6814609,-7.892055,132.7879870437936
1673608295.682468,-7.789474,132.82250527899916
1673608295.6834748,-7.663237,132.857015342274
1673608295.6844819,-7.577413,132.89153357747955
1673608295.68549,-7.541664,132.92608450040782
1673608295.6864967,-7.494352,132.9605945636827
1673608295.6875038,-7.591404,132.99511279888821
1673608295.688511,-7.689946,133.02963103409377
1673608295.6895177,-7.789234,133.06414109736863
1673608295.6905248,-7.949752,133.09865933257416
1673608295.691532,-8.125705,133.1331775677797
1673608295.6925387,-8.167367,133.16926726561755
1673608295.6935458,-8.151861,133.175461
1673608295.694553,-8.087914,133.09923261063426
1673608295.6955597,-7.909966,133.1004024887828
1673608295.6965668,-7.744061,133.1806242338652
1673608295.6975749,-7.6742,133.14662177038628
1673608295.698582,-7.564262,133.1235010412888
1673608295.6995888,-7.399272,133.121201
1673608295.7005959,-7.303639,133.13721744719905
1673608295.701603,-7.33304,133.1318097625193
1673608295.7026098,-7.354268,133.1233837921906
1673608295.7036169,-7.383478,133.1149558266049
1673608295.704624,-7.484592,133.1065278610192
1673608295.7056308,-7.613834,133.07066901502145
1673608295.7066379,-7.702544,133.05978101478303
1673608295.707645,-7.800629,133.05586028152564
1673608295.7086518,-7.877078,133.03764564306152
1673608295.7096589,-7.850778,133.01605184836555
1673608295.710667,-7.834286,132.99238446813303
1673608295.7116737,-7.807048,132.96874507676074
1673608295.7126808,-7.740095,132.94510008761642
1673608295.713688,-7.699731,132.92145509847208
1673608295.7146947,-7.64737,132.8978157070998
1673608295.7157018,-7.680811,132.87417071795548
1673608295.716709,-7.721848,132.85052572881114
1673608295.7177157,-7.716848,132.82688633743888
1673608295.7187228,-7.675618,132.80324134829453
1673608295.71973,-7.668454,132.77959635915022
1673608295.7207367,-7.816568,132.75595696777793
1673608295.7217438,-8.067792,132.7323119786336
1673608295.7227519,-8.239201,132.70864459840107
1673608295.723759,-8.272016,132.68499960925675
1673608295.7247658,-8.296922,132.66136021788446
1673608295.7257729,-8.238191,132.63771522874012
1673608295.72678,-7.996439,132.6140702395958
1673608295.7277868,-7.768294,132.59043084822352
1673608295.7287939,-7.629773,132.5667858590792
1673608295.729801,-7.545943,132.54314086993486
1673608295.7308078,-7.467595,132.51950147856257
1673608295.7318149,-7.463532,132.49585648941826
1673608295.732822,-7.619243,132.47221150027391
1673608295.7338288,-7.842171,132.44857210890166
1673608295.7348359,-8.166574,132.4249271197573
1673608295.735844,-8.350821,132.4012597395248
1673608295.7368507,-8.413783,132.3776203481525
1673608295.7378578,-8.423808,132.35397535900816
1673608295.738865,-8.288051,132.33033036986384
1673608295.7398717,-8.127508,132.30669097849156
1673608295.7408788,-7.910879,132.28304598934724
1673608295.741886,-7.773511,132.2594010002029
1673608295.7428927,-7.661194,132.23576160883061
1673608295.7438998,-7.467018,132.2121166196863
1673608295.744907,-7.41824,132.18847163054195
1673608295.7459137,-7.435141,132.1648322391697
1673608295.7469208,-7.454806,132.14118725002535
1673608295.7479289,-7.486251,132.11751986979283
1673608295.748936,-7.451993,132.09387488064849
1673608295.7499428,-7.410186,132.07023548927623
1673608295.7509499,-7.408648,132.04659050013188
1673608295.751957,-7.45733,132.02294551098757
1673608295.7529638,-7.520653,131.99930611961528
1673608295.7539709,-7.628378,131.97566113047094
1673608295.754978,-7.735383,131.95201614132662
1673608295.7559848,-7.785676,131.92837674995434
1673608295.7569919,-7.718795,131.927246
1673608295.757999,-7.646505,131.927246
1673608295.7590058,-7.656987,131.94485109299
1673608295.7600129,-7.659968,131.98079738483548
1673608295.761021,-7.633716,131.91004368009536
1673608295.7620277,-7.659198,131.8911629241774
1673608295.7630348,-7.693817,131.89113699261023
1673608295.764042,-7.718939,131.92644813567
1673608295.7650487,-7.763366,131.8368256383258
1673608295.7660558,-7.850008,131.838018491176
1673608295.767063,-7.960498,131.83921134402624
1673608295.7680697,-8.043871,131.84040391447758
1673608295.7690768,-8.026875,131.84159676732781
1673608295.770084,-7.981077,131.84278962017802
1673608295.7710907,-7.884026,131.8439821906294
1673608295.7720978,-7.77291,131.8451750434796
1673608295.7731059,-7.724421,131.84636902592533
1673608295.774113,-7.682013,131.84756187877556
1673608295.7751198,-7.718314,131.8487544492269
1673608295.7761269,-7.8001,131.84994730207714
1673608295.777134,-7.872221,131.85114015492738
1673608295.7781408,-7.987472,131.85233272537872
1673608295.7791479,-7.978986,131.85352557822895
1673608295.780155,-7.862437,131.85471843107916
1673608295.7811618,-7.755794,131.87050116758044
1673608295.7821689,-7.689225,131.84117636891182
1673608295.783176,-7.674056,131.8043441644939
1673608295.7841828,-7.772862,131.7675206798214
1673608295.7851899,-7.780988,131.73068847540347
1673608295.786198,-7.746346,131.6938213920041
1673608295.7872047,-7.694105,131.65699790733157
1673608295.7882118,-7.644269,131.62016570291368
1673608295.789219,-7.580898,131.5833334984958
1673608295.7902257,-7.524066,131.54651001382325
1673608295.7912328,-7.561306,131.50967780940536
1673608295.79224,-7.632032,131.47284560498744
1673608295.7932467,-7.670979,131.43602212031493
1673608295.7942538,-7.69824,131.399189915897
1673608295.795261,-7.773463,131.36235771147912
1673608295.7962677,-7.865875,131.32553422680658
1673608295.7972748,-7.913355,131.2887020223887
1673608295.7982829,-7.950354,131.25183493898933
1673608295.79929,-8.002545,131.2150027345714
1673608295.8002968,-8.094044,131.1781792498989
1673608295.8013039,-8.208717,131.14134704548098
1673608295.802311,-8.190085,131.1045148410631
1673608295.8033178,-8.05529,131.06769135639055
1673608295.8043249,-7.932876,131.03085915197266
1673608295.805332,-7.767477,130.99402694755477
1673608295.8063388,-7.542361,130.95720346288223
1673608295.8073459,-7.456801,130.92037125846431
1673608295.808353,-7.496059,130.88353905404642
1673608295.8093598,-7.505628,130.84671556937388
1673608295.8103669,-7.504954,130.809883364956
1673608295.811375,-7.521061,130.77301628155664
1673608295.8123817,-7.581403,130.7361927968841
1673608295.8133888,-7.652924,130.6993605924662
1673608295.814396,-7.725166,130.6625283880483
1673608295.8154027,-7.771901,130.62570490337578
1673608295.8164098,-7.805437,130.58887269895786
1673608295.817417,-7.812962,130.55204049453997
1673608295.8184237,-7.859696,130.51521700986743
1673608295.8194308,-7.99615,130.47838480544954
1673608295.820438,-8.122892,130.44155260103162
1673608295.8214447,-8.212564,130.4047291163591
1673608295.8224518,-8.205352,130.3678969119412
1673608295.8234599,-8.071566,130.33102982854183
1673608295.824467,-7.915543,130.29181035813068
1673608295.8254738,-7.816953,130.24743766984506
1673608295.8264809,-7.695091,130.25488183261803
1673608295.827488,-7.53426,130.21151365379114
1673608295.8284948,-7.475673,130.22088575589987
1673608295.8295019,-7.542794,130.190598
1673608295.830509,-7.632489,130.27995430128203
1673608295.8315158,-7.787888,130.3015398121302
1673608295.8325229,-8.078609,130.28348240236687
1673608295.83353,-8.302595,130.26876039349114
1673608295.8345368,-8.410057,130.63423750810682
1673608295.8355439,-8.432414,130.60223119504053
1673608295.836552,-8.24437,130.56570315518474
1673608295.8375587,-7.989227,130.4934392532189
1673608295.8385658,-7.748341,130.47038909084407
1673608295.839573,-7.53462,130.46864403147353
1673608295.8405797,-7.395137,130.51579020924717
1673608295.8415868,-7.310947,130.44935798162416
1673608295.842594,-7.307389,130.38292575400118
1673608295.8436007,-7.355134,130.3165092537048
1673608295.8446078,-7.475986,130.25007702608178
1673608295.845615,-7.672998,130.1836447984588
1673608295.8466218,-7.818707,130.136337
1673608295.8476288,-7.964153,130.1417046895565
1673608295.8486369,-8.117315,130.154419
1673608295.849644,-8.269948,130.13749172103005
1673608295.8506508,-8.288387,130.11168123986647
1673608295.8516579,-8.11294,130.14812643814065
1673608295.852665,-7.91136,130.172516
1673608295.8536718,-7.756418,130.15407458369097
1673608295.8546789,-7.607848,130.11824
1673608295.855686,-7.536423,130.11752808590956
1673608295.8566928,-7.607295,130.1155035652335
1673608295.8576999,-7.645014,130.11347856515403
1673608295.858707,-7.636793,130.11145356507456
1673608295.8597138,-7.676003,130.10942904439852
1673608295.8607209,-7.7124,130.10740404431905
1673608295.861729,-7.797624,130.10537712662588
1673608295.8627357,-7.761755,130.10335260594982
1673608295.8637428,-7.682662,130.10132760587035
1673608295.86475,-7.633595,130.11527129804483
1673608295.8657568,-7.594145,130.12096209940404
1673608295.8667638,-7.657876,130.0845210739151
1673608295.867771,-7.756635,130.05602113328564
1673608295.8687778,-7.766491,130.0700621001192
1673608295.8697848,-7.774978,130.08376197424892
1673608295.870792,-7.756154,130.08892839413446
1673608295.8717988,-7.68247,130.10134705744935
1673608295.8728058,-7.731705,130.090620379113
1673608295.8738139,-7.838757,130.09916012947977
1673608295.874821,-7.927419,130.09710587659632
1673608295.8758278,-7.954513,130.09505211004168
1673608295.8768349,-7.916288,130.09299785715822
1673608295.877842,-7.815967,130.09094360427477
1673608295.8788488,-7.694899,130.08888983772013
1673608295.8798559,-7.704202,130.08683558483668
1673608295.880863,-7.823948,130.08478133195322
1673608295.8818698,-7.860129,130.08272756539859
1673608295.8828769,-7.839887,130.08067331251513
1673608295.883884,-7.886502,130.07861905963168
1673608295.8848908,-7.892368,130.07656529307704
1673608295.8858979,-7.801687,130.07451104019358
1673608295.886906,-7.736777,130.0724548419949
1673608295.8879128,-7.787022,130.07040107544023
1673608295.8889198,-7.893233,130.0683468225568
1673608295.889927,-7.973985,130.06629256967335
1673608295.8909338,-8.020144,130.06423880311868
1673608295.8919408,-8.096208,130.1903009248927
1673608295.892948,-8.048415,130.17686253444577
1673608295.8939548,-7.934222,130.23667806080115
1673608295.8949618,-7.816568,130.244873
1673608295.895969,-7.771299,130.2774642851013
1673608295.8969758,-7.758197,130.2482114055794
1673608295.8979828,-7.684176,130.244873
1673608295.8989909,-7.583807,130.27825772205006
1673608295.899998,-7.584649,130.31469391702433
1673608295.9010048,-7.590635,130.34385914543597
1673608295.9020119,-7.567171,130.37248767949592
1673608295.903019,-7.66593,130.40111621355587
1673608295.9040258,-7.847773,130.42973797002725
1673608295.9050329,-7.985693,130.4583665040872
1673608295.90604,-8.022932,130.48699503814714
1673608295.9070468,-8.08789,130.51561679461852
1673608295.9080539,-8.257183,130.54424532867847
1673608295.909061,-8.23033,130.57287386273842
1673608295.9100678,-7.967182,130.6014956192098
1673608295.9110758,-7.789474,130.630151263624
1673608295.912083,-7.615757,130.6587797976839
1673608295.9130898,-7.416701,130.68740155415531
1673608295.9140968,-7.278059,130.71603008821526
1673608295.915104,-7.261592,130.7446586222752
1673608295.9161108,-7.371409,130.7732803787466
1673608295.9171178,-7.438891,130.80190891280654
1673608295.918125,-7.521446,130.8305374468665
1673608295.9191318,-7.573277,130.85915920333787
1673608295.9201388,-7.630518,130.88778773739782
1673608295.921146,-7.735864,130.919841393087
1673608295.9221528,-7.807288,130.98810254601813
1673608295.9231598,-7.840776,131.0079751528374
1673608295.9241679,-7.876669,131.04264087410587
1673608295.925175,-8.092433,131.06667363456495
1673608295.9261818,-8.219776,131.13540166523603
1673608295.9271889,-8.214438,131.167465
1673608295.928196,-8.184652,131.17209625697257
1673608295.9292028,-8.078153,131.20607980472101
1673608295.9302099,-7.929919,131.2240348506306
1673608295.931217,-7.708145,131.24043284905704
1673608295.9322238,-7.600275,131.25682696538158
1673608295.9332309,-7.622296,131.27322496380802
1673608295.934238,-7.604963,131.28962296223446
1673608295.9352448,-7.600756,131.306017078559
1673608295.9362528,-7.652491,131.32243060539304
1673608295.93726,-7.68158,131.33882860381948
1673608295.9382668,-7.655087,131.355222720144
1673608295.9392738,-7.632442,131.37162071857045
1673608295.940281,-7.656338,131.384552
1673608295.9412878,-7.64225,131.40442917711562
1673608295.9422948,-7.614363,131.474991
1673608295.943302,-7.608521,131.474991
1673608295.9443088,-7.603737,131.4706364887935
1673608295.9453158,-7.584553,131.47933382955898
1673608295.946323,-7.629725,131.5519757069623
1673608295.9473298,-7.748846,131.56546
1673608295.9483368,-7.90898,131.56059386984506
1673608295.9493449,-7.999757,131.547363
1673608295.950352,-8.040842,131.547363
1673608295.9513588,-8.038318,131.547363
1673608295.9523659,-7.953382,131.547363
1673608295.953373,-7.828444,131.547363
1673608295.9543798,-7.757548,131.54572044849783
1673608295.9553869,-7.71478,131.53459805721096
1673608295.956394,-7.687663,131.57594921983787
1673608295.9574008,-7.648188,131.5172401680973
1673608295.9584079,-7.56157,131.56115658593563
1673608295.959415,-7.547386,131.52220257245332
1673608295.9604218,-7.589746,131.46558056008666
1673608295.9614298,-7.684946,131.4088915076864
1673608295.962437,-7.825896,131.352256087313
1673608295.9634438,-7.928597,131.29563407494635
1673608295.9644508,-7.901311,131.23899865457295
1673608295.965458,-7.839455,131.18236323419958
1673608295.9664648,-7.776757,131.12574122183293
1673608295.9674718,-7.715237,131.06910580145953
1673608295.968479,-7.677517,131.01247038108613
1673608295.9694858,-7.657852,130.95584836871947
1673608295.9704928,-7.630638,130.8992129483461
1673608295.9715,-7.627922,130.8425775279727
1673608295.9725068,-7.648644,130.78595551560605
1673608295.9735138,-7.674416,130.72932009523265
1673608295.9745219,-7.716078,130.6726310428324
1673608295.975529,-7.75601,130.61599562245902
1673608295.9765358,-7.765986,130.55937361009236
1673608295.9775429,-7.830151,130.50273818971897
1673608295.97855,-7.981269,130.44610276934557
1673608295.9795568,-8.158545,130.3894807569789
1673608295.9805639,-8.205376,130.33284533660554
1673608295.981571,-8.140346,130.27620991623215
1673608295.9825778,-8.038054,130.2195879038655
1673608295.9835849,-7.872414,130.1629524834921
1673608295.984592,-7.660016,130.10631706311872
1673608295.9855988,-7.518056,130.04969505075204
1673608295.9866068,-7.465312,129.9930059983518
1673608295.987614,-7.440021,129.9363705779784
1673608295.9886208,-7.47964,129.87974856561175
1673608295.9896278,-7.61744,129.82311314523835
1673608295.990635,-7.726031,129.76647772486498
1673608295.9916418,-7.770699,129.7098557124983
1673608295.9926488,-7.785772,129.65322029212493
1673608295.993656,-7.781517,129.59658487175153
1673608295.9946628,-7.769545,129.53996285938487
1673608295.9956698,-7.695452,129.48332743901148
1673608295.996677,-7.689297,129.4266920186381
1673608295.9976838,-7.722569,129.37007000627145
1673608295.9986908,-7.740624,129.31343458589805
1673608295.9996989,-7.730767,129.2567455334978
1673608296.000706,-7.731897,129.20011011312442
1673608296.0017128,-7.812433,129.14348810075774
1673608296.0027199,-7.852388,129.08685268038437
1673608296.003727,-7.831906,129.03021726001097
1673608296.0047338,-7.808587,128.9735952476443
1673608296.0057409,-7.773776,128.885157434907
1673608296.006748,-7.738364,128.78253893061517
1673608296.0077548,-7.744759,128.7265341022646
1673608296.008762,-7.797936,128.6644377846924
1673608296.009769,-7.858398,128.56466582546494
1673608296.0107758,-7.950281,128.48179826084885
1673608296.0117838,-8.229032,128.38232576281288
1673608296.012791,-8.417245,128.29106099093946
1673608296.0137978,-8.34558,128.22702363567
1673608296.0148048,-8.165204,128.1685114599072
1673608296.015812,-7.996006,128.14100755909755
1673608296.0168188,-7.819405,128.11351016962803
1673608296.0178258,-7.57936,128.08600626881838
1673608296.018833,-7.49654,128.05850236800873
1673608296.0198398,-7.755986,128.03100497853924
1673608296.0208468,-7.915134,128.0035010777296
1673608296.021854,-7.896623,127.97599717691995
1673608296.0228608,-7.802095,127.94849978745046
1673608296.0238678,-7.708482,127.92099588664081
1673608296.0248759,-7.587822,127.89346594047055
1673608296.025883,-7.605612,127.8659620396609
1673608296.0268898,-7.702544,127.8384646501914
1673608296.027897,-7.694081,127.81096074938176
1673608296.028904,-7.695981,127.78345684857211
1673608296.0299108,-7.772381,127.75595945910261
1673608296.030918,-7.846017,127.72845555829296
1673608296.031925,-7.890012,127.70095165748332
1673608296.0329318,-7.954368,127.67345426801383
1673608296.033939,-7.965018,127.64595036720418
1673608296.034946,-7.924125,127.61844646639453
1673608296.0359528,-7.789306,127.59094907692503
1673608296.0369608,-7.601477,127.56341913075477
1673608296.037968,-7.49868,127.53591522994512
1673608296.0389748,-7.48089,127.50841784047563
1673608296.0399818,-7.52474,127.48091393966598
1673608296.040989,-7.712521,127.45341003885633
1673608296.0419958,-8.092697,127.42591264938683
1673608296.0430028,-8.353345,127.3984087485772
1673608296.04401,-8.403734,127.37090484776755
1673608296.0450168,-8.355653,127.34340745829805
1673608296.0460238,-8.207515,127.3159035574884
1673608296.047031,-7.92076,127.28839965667875
1673608296.0480378,-7.727377,127.26090226720926
1673608296.0490448,-7.749014,127.23339836639961
1673608296.050053,-7.716415,127.20586842022935
1673608296.05106,-7.627994,127.1783645194197
1673608296.0520668,-7.58799,127.1508671299502
1673608296.053074,-7.570417,127.12336322914055
1673608296.054081,-7.538899,127.0958593283309
1673608296.0550878,-7.48125,127.06836193886141
1673608296.056095,-7.474038,127.04085803805177
1673608296.057102,-7.509041,127.01335413724212
1673608296.0581088,-7.566137,126.98585674777263
1673608296.059116,-7.792647,126.95835284696298
1673608296.060123,-7.967903,126.93084894615333
1673608296.0611298,-7.995502,126.90335155668383
1673608296.0621378,-7.928404,126.87582161051357
1673608296.063145,-7.81099,126.84831770970392
1673608296.0641518,-7.661674,126.82082032023443
1673608296.0651588,-7.564142,126.79331641942478
1673608296.066166,-7.483101,126.76581251861514
1673608296.0671728,-7.468268,126.73831512914563
1673608296.0681798,-7.484784,126.71081122833598
1673608296.069187,-7.506252,126.68330732752634
1673608296.0701938,-7.590394,126.65580993805685
1673608296.0712008,-7.704563,126.644936
1673608296.072208,-7.841161,126.644936
1673608296.0732148,-7.892632,126.66746309871245
1673608296.0742218,-7.871813,126.65832659904649
1673608296.07523,-7.828901,126.6564624590281
1673608296.076237,-7.82717,126.67468120095465
1673608296.0772438,-7.835464,126.66931963996186
1673608296.078251,-7.843637,126.62730298237676
1673608296.079258,-7.883954,126.63283891670645
1673608296.0802648,-7.907393,126.60953185950473
1673608296.081272,-7.840969,126.55653856062024
1673608296.082279,-7.766563,126.50354526173575
1673608296.0832858,-7.731488,126.4505645086133
1673608296.084293,-7.723772,126.39757120972881
1673608296.0853,-7.754423,126.34457791084432
1673608296.0863068,-7.845561,126.29159715772188
1673608296.0873148,-7.86549,126.2385536757892
1673608296.088322,-7.83003,126.1855603769047
1673608296.0893288,-7.776757,126.13257962378226
1673608296.0903358,-7.719612,126.07958632489778
1673608296.091343,-7.68485,126.02659302601329
1673608296.0923498,-7.687638,125.97361227289083
1673608296.0933568,-7.746321,125.92061897400635
1673608296.094364,-7.821376,125.86762567512186
1673608296.0953708,-7.814428,125.81464492199942
1673608296.0963778,-7.770025,125.76165162311491
1673608296.097385,-7.832363,125.70865832423043
1673608296.0983918,-7.891214,125.65567757110799
1673608296.0993989,-7.849984,125.6026842722235
1673608296.100407,-7.781348,125.54964079029082
1673608296.101414,-7.826617,125.49664749140632
1673608296.1024208,-7.828107,125.44366673828388
1673608296.103428,-7.777935,125.3906734393994
1673608296.104435,-7.716848,125.3376801405149
1673608296.1054418,-7.751081,125.28469938739245
1673608296.106449,-7.836762,125.23170608850796
1673608296.107456,-7.922466,125.17871278962348
1673608296.1084628,-7.935809,125.12573203650103
1673608296.10947,-7.9185,125.07273873761653
1673608296.110477,-7.821905,125.01974543873204
1673608296.1114838,-7.71103,124.9667646856096
1673608296.1124918,-7.628739,124.91372120367693
1673608296.113499,-7.57609,124.86072790479244
1673608296.1145058,-7.578158,124.80774715166999
1673608296.1155128,-7.598207,124.7547538527855
1673608296.11652,-7.630951,124.67453433810205
1673608296.1175268,-7.674272,124.59204542536958
1673608296.1185338,-7.744615,124.52832861811682
1673608296.119541,-7.825222,124.4738288297568
1673608296.1205478,-7.887656,124.41877584477825
1673608296.1215549,-7.894988,124.37422794851012
1673608296.122562,-7.864721,124.31774503719599
1673608296.1235688,-7.81664,124.25573950786838
1673608296.1245759,-7.860514,124.20947390128755
1673608296.125584,-7.902056,124.18342858995891
1673608296.126591,-7.931193,124.18116139306856
1673608296.1275978,-7.97776,124.1788947329199
1673608296.129612,-8.189605,124.17436033913921
1673608296.1306188,-8.181503,124.17209367899055
1673608296.131626,-8.1127,124.1698264821002
1673608296.132633,-7.959657,124.16755928520986
1673608296.1336398,-7.684465,124.1652926250612
1673608296.134647,-7.465119,124.16302542817085
1673608296.1356537,-7.369269,124.1607587680222
1673608296.1366608,-7.395834,124.15849157113185
1673608296.1376688,-7.431607,124.15622222727475
1673608296.138676,-7.490819,124.15395503038441
1673608296.1396828,-7.522864,124.15168837023575
1673608296.1406898,-7.538467,124.1494211733454
1673608296.141697,-7.599338,124.11625886170721
1673608296.1427038,-7.757957,124.06162042489271
1673608296.1437109,-7.886838,123.96298217759237
1673608296.144718,-8.065579,123.95782604554125
1673608296.1457248,-8.148712,123.96415553048719
1673608296.1467319,-8.139504,123.92926951851553
1673608296.147739,-8.079211,123.89438350654385
1673608296.1487458,-8.068224,123.85950575357121
1673608296.1497529,-8.133182,123.82461974159955
1673608296.150761,-8.066926,123.78970069363169
1673608296.151768,-7.916504,123.75481468166001
1673608296.1527748,-7.770771,123.71993692868737
1673608296.153782,-7.637995,123.68505091671571
1673608296.154789,-7.451056,123.65016490474403
1673608296.1557958,-7.259236,123.61528715177141
1673608296.156803,-7.270054,123.58040113979973
1673608296.1578097,-7.351311,123.5455233868271
1673608296.1588168,-7.409657,123.51063737485543
1673608296.159824,-7.482837,123.47575136288376
1673608296.1608307,-7.52147,123.44087360991112
1673608296.1618378,-7.608881,123.40598759793946
1673608296.1628458,-7.679056,123.3710685499716
1673608296.163853,-7.678936,123.33618253799992
1673608296.1648598,-7.676748,123.3013047850273
1673608296.1658669,-7.700284,123.26641877305562
1673608296.166874,-7.742691,123.23153276108394
1673608296.1678808,-7.85347,123.19665500811132
1673608296.1688879,-7.996319,123.16176899613964
1673608296.169895,-8.044111,123.12688298416796
1673608296.1709018,-8.043631,123.09200523119534
1673608296.1719089,-8.011152,123.05711921922367
1673608296.172916,-7.899171,123.02223320725199
1673608296.1739228,-7.758438,122.98735545427937
1673608296.1749299,-7.638187,122.95246944230769
1673608296.175938,-7.626479,122.91755039433983
1673608296.176945,-7.71668,122.88266438236816
1673608296.1779518,-7.782478,122.84778662939553
1673608296.178959,-7.803153,122.81290061742385
1673608296.1799657,-7.788897,122.77802286445123
1673608296.1809728,-7.804283,122.74313685247955
1673608296.18198,-7.846931,122.70825084050787
1673608296.1829867,-7.856307,122.67337308753525
1673608296.1839938,-7.715982,122.63848707556357
1673608296.185001,-7.711462,122.60360106359191
1673608296.1860077,-7.701221,122.56872331061928
1673608296.1870148,-7.744494,122.5338372986476
1673608296.1880229,-7.819164,122.49891825067974
1673608296.18903,-7.933453,122.46403223870807
1673608296.1900368,-8.024543,122.42915448573544
1673608296.1910439,-8.038005,122.39426847376377
1673608296.192051,-7.957734,122.3593824617921
1673608296.1930578,-7.843854,122.27121052324195
1673608296.1940649,-7.81099,122.18012422412971
1673608296.195072,-7.823612,122.176674
1673608296.1960788,-7.879266,122.15902482789035
1673608296.1970859,-7.929029,122.10524863948497
1673608296.198093,-8.033798,122.05059245636623
1673608296.1990998,-8.142822,122.01399074040525
1673608296.2001069,-8.02923,121.88729900906057
1673608296.201115,-7.865755,121.90448834484054
1673608296.2021217,-7.739374,121.83433121007263
1673608296.2031288,-7.628162,121.76415746220154
1673608296.204136,-7.525437,121.69398371433044
1673608296.2051427,-7.541135,121.62382657956253
1673608296.2061498,-7.572965,121.55365283169144
1673608296.207157,-7.570585,121.48347908382034
1673608296.2081637,-7.544789,121.41332194905243
1673608296.2091708,-7.595804,121.34314820118134
1673608296.210178,-7.696774,121.27297445331024
1673608296.2111847,-7.758558,121.20281731854233
1673608296.2121918,-7.807024,121.13264357067123
1673608296.2131999,-7.84496,121.08497454935622
1673608296.214207,-7.857316,121.01158205150215
1673608296.2152138,-7.897873,121.02004837783075
1673608296.2162209,-7.985068,120.98672120457796
1673608296.217228,-8.036707,120.964638
1673608296.2182348,-8.022211,120.95181454506438
1673608296.2192419,-7.966364,120.9206498989273
1673608296.220249,-7.877775,120.92344721697664
1673608296.2212558,-7.775627,120.8624351130186
1673608296.2222629,-7.675017,120.8318870365374
1673608296.22327,-7.656241,120.82353747792656
1673608296.2242768,-7.639606,120.8151898960105
1673608296.2252839,-7.630181,120.80684033739966
1673608296.226292,-7.674248,120.79848287200986
1673608296.2272987,-7.761467,120.79013529009377
1673608296.2283058,-7.826857,120.78178573148296
1673608296.229313,-7.90482,120.77343617287212
1673608296.2303197,-8.055891,120.76508859095605
1673608296.2313268,-8.135273,120.75673903234522
1673608296.232334,-8.126307,120.7483894737344
1673608296.2333407,-8.104333,120.74004189181832
1673608296.2343478,-8.060146,120.7316923332075
1673608296.235355,-7.94908,120.72334277459667
1673608296.2363617,-7.715598,120.7149951926806
1673608296.2373688,-7.507046,120.70664563406977
1673608296.2383769,-7.473581,120.69828816867997
1673608296.239384,-7.435741,120.68993861006915
1673608296.2403908,-7.389848,120.68159102815306
1673608296.2413979,-7.460696,120.67324146954223
1673608296.242405,-7.573061,120.66489191093142
1673608296.2434118,-7.705621,120.65654432901533
1673608296.2444189,-7.901215,120.64819477040452
1673608296.245426,-7.952757,120.63984521179368
1673608296.2464328,-7.906551,120.60619530948975
1673608296.2474399,-7.813635,120.65243157200763
1673608296.248447,-7.716824,120.62379656019071
1673608296.2494538,-7.646529,120.63770871888413
1673608296.2504609,-7.550848,120.62211094635194
1673608296.251469,-7.509882,120.63798056853398
1673608296.2524757,-7.539981,120.639015
1673608296.2534828,-7.608858,120.6043830205055
1673608296.25449,-7.66992,120.58538327300906
1673608296.2554967,-7.7005,120.56749965869254
1673608296.2565038,-7.750504,120.54962406692371
1673608296.257511,-7.754832,120.53174847515488
1673608296.2585177,-7.713722,120.51387711529698
1673608296.2595248,-7.70425,120.49600152352814
1673608296.260532,-7.708217,120.47812593175931
1673608296.2615387,-7.740792,120.4602545719014
1673608296.2625458,-7.841738,120.44237898013256
1673608296.2635539,-7.903883,120.42448646072002
1673608296.264561,-7.90785,120.40661086895118
1673608296.2655678,-7.928909,120.38873950909327
1673608296.2665749,-7.949031,120.37086391732444
1673608296.267582,-7.885684,120.3529883255556
1673608296.2685888,-7.810269,120.3351169656977
1673608296.2695959,-7.764688,120.31724137392887
1673608296.270603,-7.723555,120.29936578216004
1673608296.2716098,-7.697086,120.28149442230213
1673608296.2726169,-7.708337,120.26361883053329
1673608296.273624,-7.747403,120.24574323876446
1673608296.2746308,-7.752211,120.22787187890656
1673608296.2756379,-7.777502,120.20999628713771
1673608296.276646,-7.864457,120.19210376772517
1673608296.2776527,-7.956652,120.17423240786727
1673608296.2786598,-8.073633,120.15635681609842
1673608296.279667,-8.117627,120.1384812243296
1673608296.2806737,-8.096881,120.12060986447169
1673608296.2816808,-8.040698,120.10273427270285
1673608296.282688,-7.949031,120.08485868093402
1673608296.2836947,-7.869529,120.06698732107611
1673608296.2847018,-7.826016,120.04911172930728
1673608296.285709,-7.775098,120.03123613753844
1673608296.2867157,-7.71716,120.01336477768054
1673608296.2877228,-7.713073,119.99548918591171
1673608296.2887309,-7.774713,119.97759666649915
1673608296.289738,-7.910494,119.95972107473033
1673608296.2907448,-8.031322,119.94184971487242
1673608296.2917519,-8.082673,119.92397412310358
1673608296.292759,-8.004829,119.90609853133475
1673608296.2937658,-7.83205,119.88822717147684
1673608296.2947729,-7.649077,119.870351579708
1673608296.29578,-7.543299,119.85247598793917
1673608296.2967868,-7.503103,119.83460462808127
1673608296.2977939,-7.576811,119.81672903631244
1673608296.298801,-7.770795,119.7988534445436
1673608296.2998078,-7.905951,119.78098208468569
1673608296.3008149,-7.958672,119.76310649291686
1673608296.301823,-7.941218,119.7452139735043
1673608296.3028297,-7.860033,119.7273426136464
1673608296.3038368,-7.76452,119.70946702187757
1673608296.304844,-7.639461,119.69159143010873
1673608296.3058507,-7.556858,119.67372007025082
1673608296.3068578,-7.520677,119.655844478482
1673608296.307865,-7.459494,119.63796888671315
1673608296.3088717,-7.454902,119.62009752685526
1673608296.3098788,-7.525148,119.60211311158798
1673608296.310886,-7.630927,119.57799807677634
1673608296.3118927,-7.726704,119.54759206197855
1673608296.3128998,-7.804451,119.38554304164398
1673608296.3139079,-7.851234,119.39663122318998
1673608296.314915,-7.876669,119.38810302555042
1673608296.3159218,-7.889242,119.34788874768645
1673608296.3169289,-7.886357,119.38281690310289
1673608296.317936,-7.936722,119.41568370553172
1673608296.3189428,-7.953166,119.41653255156926
1673608296.3199499,-7.910735,119.389078002272
1673608296.320957,-7.868616,119.36162345297474
1673608296.3219638,-7.91761,119.33417540333403
1673608296.3229709,-8.009421,119.30672085403677
1673608296.323978,-8.051972,119.27926630473951
1673608296.3249848,-8.004806,119.2518182550988
1673608296.3259919,-8.006536,119.22436370580154
1673608296.327,-7.974875,119.19688315787805
1673608296.3280067,-7.914942,119.16943510823734
1673608296.3290138,-7.832458,119.14198055894008
1673608296.330021,-7.77969,119.11452600964282
1673608296.3310277,-7.812313,119.0870779600021
1673608296.3320348,-7.868952,119.05962341070484
1673608296.333042,-7.961148,119.03216886140758
1673608296.3340487,-7.949704,119.00472081176687
1673608296.3350558,-7.869216,118.97726626246961
1673608296.336063,-7.792359,118.94981171317235
1673608296.3370697,-7.710862,118.92236366353164
1673608296.3380768,-7.543179,118.89490911423438
1673608296.3390849,-7.41788,118.86742856631089
1673608296.340092,-7.443459,118.83997401701363
1673608296.3410988,-7.511421,118.81252596737292
1673608296.3421059,-7.568926,118.78507141807566
1673608296.343113,-7.634725,118.7576168687784
1673608296.3441198,-7.782839,118.73016881913769
1673608296.3451269,-8.054593,118.70271426984043
1673608296.346134,-8.183018,118.67525972054317
1673608296.3471408,-8.144553,118.64781167090246
1673608296.3481479,-8.037188,118.6203571216052
1673608296.349155,-7.961292,118.59290257230793
1673608296.3501618,-7.769809,118.56545452266722
1673608296.3511689,-7.654895,118.53799997336996
1673608296.352177,-7.635494,118.51051942544647
1673608296.3531837,-7.594241,118.48307137580576
1673608296.3541908,-7.535606,118.4556168265085
1673608296.355198,-7.472139,118.42816227721124
1673608296.3562047,-7.494857,118.40071422757053
1673608296.3572118,-7.572364,118.37325967827327
1673608296.358219,-7.697423,118.34580512897601
1673608296.3592257,-7.814092,118.3183570793353
1673608296.3602328,-7.880804,118.29090253003804
1673608296.36124,-7.909292,118.26344798074078
1673608296.3622468,-7.907681,118.23599993110007
1673608296.3632538,-7.843758,118.20854538180281
1673608296.3642619,-7.755529,118.17592611145511
1673608296.365269,-7.688865,118.160667
1673608296.3662758,-7.65891,118.160667
1673608296.3672829,-7.613858,118.13896365045302
1673608296.36829,-7.615998,118.10254331674209
1673608296.3692968,-7.645423,118.06612522651406
1673608296.3703039,-7.710092,118.06334129832935
1673608296.371311,-7.732378,118.04751119504644
1673608296.3723178,-7.72555,117.98816984549356
1673608296.3733249,-7.729637,117.96049336566948
1673608296.374332,-7.705116,117.95864436886436
1673608296.3753388,-7.694755,117.95679580979524
1673608296.3763459,-7.717809,117.95494681299013
1673608296.377354,-7.744254,117.95309606524107
1673608296.3783607,-7.805317,117.95124750617194
1673608296.3793678,-7.892848,117.94939850936683
1673608296.380375,-8.038438,117.94754951256172
1673608296.3813818,-8.212684,117.94570095349259
1673608296.3823888,-8.268313,117.94385195668748
1673608296.383396,-8.180373,117.94200295988237
1673608296.3844028,-8.02197,117.94015440081324
1673608296.3854098,-7.908403,117.93830540400813
1673608296.386417,-7.884963,117.93645640720302
1673608296.3874238,-7.877991,117.9346078481339
1673608296.3884308,-7.810678,117.93275885132878
1673608296.3894389,-7.69788,117.93090810357972
1673608296.390446,-7.599482,117.92905910677462
1673608296.3914528,-7.508945,117.92721054770549
1673608296.3924599,-7.478967,117.92008171387697
1673608296.393467,-7.475865,117.85017523575686
1673608296.3944738,-7.466826,117.81856746065809
1673608296.3954809,-7.456368,117.83158285693848
1673608296.396488,-7.523249,117.79513240772532
1673608296.3974948,-7.71079,117.75075268271752
1673608296.3985019,-7.814116,117.65837092179304
1673608296.399509,-7.858519,117.68359449260849
1673608296.4005158,-7.883521,117.62895294231228
1673608296.4015229,-7.863375,117.57754227606983
1673608296.402531,-7.708578,117.54649263458751
1673608296.4035378,-7.568421,117.51547971217033
1673608296.4045448,-7.508248,117.48445944594012
1673608296.405552,-7.548396,117.4534391797099
1673608296.4065588,-7.618065,117.42242625729273
1673608296.4075658,-7.696413,117.39140599106251
1673608296.408573,-7.750721,117.36038572483231
1673608296.4095798,-7.763198,117.32937280241512
1673608296.4105868,-7.818251,117.29835253618492
1673608296.411594,-7.979178,117.26733226995471
1673608296.4126008,-8.104862,117.23631934753752
1673608296.4136078,-8.180349,117.20529908130732
1673608296.4146159,-8.26752,117.17424943982499
1673608296.415623,-8.322405,117.14322917359479
1673608296.4166298,-8.325626,117.1122162511776
1673608296.4176369,-8.201697,117.08119598494739
1673608296.418644,-8.034904,117.05017571871718
1673608296.4196508,-7.889242,117.0191627963
1673608296.4206579,-7.675642,116.9881425300698
1673608296.421665,-7.443194,116.95712226383958
1673608296.4226718,-7.329434,116.9261093414224
1673608296.4236789,-7.300946,116.89508907519219
1673608296.424686,-7.331262,116.86406880896197
1673608296.4256928,-7.394104,116.8330558865448
1673608296.4267008,-7.525942,116.80200624506247
1673608296.427708,-7.662636,116.77098597883227
1673608296.4287148,-7.737595,116.73997305641508
1673608296.4297218,-7.800341,116.70895279018488
1673608296.430729,-7.838998,116.67793252395467
1673608296.4317358,-7.82967,116.64691960153749
1673608296.4327428,-7.817866,116.61589933530728
1673608296.43375,-7.854744,116.58487906907706
1673608296.4347568,-7.917971,116.55386614665989
1673608296.4357638,-7.908282,116.52284588042967
1673608296.436771,-7.84169,116.49182561419947
1673608296.4377778,-7.77767,116.46081269178228
1673608296.4387848,-7.734782,116.42763557796853
1673608296.4397929,-7.662684,116.39115820548271
1673608296.4408,-7.627729,116.3622308497854
1673608296.4418068,-7.630446,116.33638637148307
1673608296.4428139,-7.674344,116.315468
1673608296.443821,-7.763246,116.315468
1673608296.4448278,-7.818251,116.29143946494993
1673608296.4458349,-7.87239,116.23678688125895
1673608296.446842,-7.934006,116.20694
1673608296.4478488,-7.943694,116.18075548342779
1673608296.4488559,-7.898883,116.12388998317019
1673608296.449863,-7.842964,116.06702448291259
1673608296.4508698,-7.75262,116.01017244513137
1673608296.4518778,-7.768919,115.95325309496823
1673608296.452885,-7.854071,115.89638759471063
1673608296.4538918,-7.836642,115.83953555692942
1673608296.4548988,-7.795003,115.78267005667182
1673608296.455906,-7.729782,115.74349588510131
1673608296.4569128,-7.732955,115.76919387494046
1673608296.4579198,-7.779858,115.73991202744631
1673608296.458927,-7.802192,115.68232
1673608296.4599338,-7.803466,115.67441042105264
1673608296.4609408,-7.80736,115.63392746205251
1673608296.461948,-7.776781,115.591873
1673608296.4629548,-7.787623,115.5788554319428
1673608296.4639618,-7.784354,115.54205402360515
1673608296.4649699,-7.702591,115.54678711188691
1673608296.465977,-7.697615,115.51165209281335
1673608296.4669838,-7.754543,115.47652539168936
1673608296.4679909,-7.759231,115.4413903726158
1673608296.468998,-7.699731,115.40625535354224
1673608296.4700048,-7.620204,115.37112865241825
1673608296.4710119,-7.74072,115.33599363334469
1673608296.472019,-7.943262,115.30085861427112
1673608296.4730258,-7.9805,115.26573191314714
1673608296.4740329,-7.953238,115.23059689407357
1673608296.47504,-7.913066,115.19546187499999
1673608296.4760468,-7.837868,115.16033517387602
1673608296.4770548,-7.739326,115.12516688300408
1673608296.478062,-7.67081,115.09003186393052
1673608296.4790688,-7.688504,115.05490516280653
1673608296.4800758,-7.696486,115.01977014373297
1673608296.481083,-7.66831,114.98463512465939
1673608296.4820898,-7.651986,114.94950842353542
1673608296.4830968,-7.650688,114.91437340446186
1673608296.484104,-7.666002,114.87923838538828
1673608296.4851108,-7.690571,114.8441116842643
1673608296.4861178,-7.707977,114.80897666519073
1673608296.487125,-7.705981,114.77384164611716
1673608296.4881318,-7.715477,114.73871494499319
1673608296.4891388,-7.744182,114.70357992591961
1673608296.4901469,-7.769809,114.66841163504768
1673608296.491154,-7.81438,114.63327661597411
1673608296.4921608,-7.817241,114.59814991485013
1673608296.4931679,-7.790628,114.5624488642534
1673608296.494175,-7.818491,114.50940144152744
1673608296.4951818,-7.843854,114.46183527849308
1673608296.4961889,-7.847196,114.4350338624553
1673608296.497196,-7.888281,114.42469993562231
1673608296.4982028,-7.925664,114.42526497854077
1673608296.4992099,-7.938141,114.398099881764
1673608296.500217,-8.017956,114.32535447091082
1673608296.5012238,-8.03803,114.26208940772531
1673608296.5022318,-8.067696,114.23170969311282
1673608296.503239,-7.975476,114.18983148633633
1673608296.5042458,-7.82152,114.14796319390803
1673608296.5052528,-7.675258,114.10608498713154
1673608296.50626,-7.548516,114.06420678035505
1673608296.5072668,-7.457643,114.02233848792675
1673608296.5082738,-7.508969,113.98046028115026
1673608296.509281,-7.659655,113.93858207437377
1673608296.5102878,-7.778343,113.89671378194548
1673608296.5112948,-7.867221,113.85483557516898
1673608296.512302,-7.920519,113.81295736839249
1673608296.5133088,-7.930592,113.7710890759642
1673608296.5143158,-7.950834,113.7292108691877
1673608296.5153239,-7.933814,113.68729300501843
1673608296.516331,-7.854912,113.64541479824193
1673608296.5173378,-7.843614,113.60354650581364
1673608296.5183449,-7.800148,113.56166829903715
1673608296.519352,-7.676363,113.51979009226066
1673608296.5203588,-7.618402,113.47792179983236
1673608296.521366,-7.617272,113.43604359305587
1673608296.522373,-7.525677,113.39416538627938
1673608296.5233798,-7.478269,113.35229709385108
1673608296.524387,-7.488342,113.31041888707459
1673608296.525394,-7.531038,113.2685406802981
1673608296.5264008,-7.573109,113.2266723878698
1673608296.5274088,-7.574792,113.18475452370053
1673608296.528416,-7.611261,113.14287631692403
1673608296.5294228,-7.655857,113.10100802449574
1673608296.5304298,-7.791686,113.05912981771925
1673608296.531437,-7.97098,113.01725161094275
1673608296.5324438,-8.060026,112.97538331851446
1673608296.5334508,-8.082144,112.93350511173797
1673608296.534458,-8.058344,112.89162690496147
1673608296.5354648,-7.949392,112.84975861253318
1673608296.5364718,-7.764328,112.80788040575669
1673608296.537479,-7.602366,112.7660021989802
1673608296.5384858,-7.524643,112.7241339065519
1673608296.5394928,-7.506782,112.68225569977541
1673608296.5405009,-7.479519,112.64033783560613
1673608296.541508,-7.481683,112.59845962882964
1673608296.5425148,-7.52599,112.55659133640135
1673608296.543522,-7.58888,112.51471312962485
1673608296.544529,-7.641793,112.47283492284836
1673608296.5455358,-7.660689,112.43096663042007
1673608296.546543,-7.689634,112.39977521459228
1673608296.54755,-7.719083,112.35648761835519
1673608296.5485568,-7.770699,112.30907851168337
1673608296.549564,-7.845248,112.26503300286123
1673608296.550571,-7.901575,112.18342284338499
1673608296.5515778,-7.948021,112.14550903814974
1673608296.5525858,-7.988049,112.09169822746782
1673608296.553593,-8.105054,112.03724740166865
1673608296.5545998,-8.125874,111.98140390796375
1673608296.5556068,-8.040265,111.90850113160975
1673608296.556614,-7.941843,111.88702809296989
1673608296.5576208,-7.800965,111.86556013790923
1673608296.5586278,-7.638139,111.84408709926936
1673608296.559635,-7.551449,111.82261406062948
1673608296.5606418,-7.542458,111.80114610556882
1673608296.5616488,-7.523009,111.77967306692895
1673608296.562656,-7.470985,111.75820002828907
1673608296.5636628,-7.453339,111.73673207322842
1673608296.5646698,-7.49755,111.71525903458854
1673608296.565678,-7.585418,111.69376566163177
1673608296.566685,-7.729277,111.67229262299189
1673608296.5676918,-7.938237,111.65082466793125
1673608296.568699,-8.154602,111.62935162929136
1673608296.569706,-8.261823,111.6078785906515
1673608296.5707128,-8.289565,111.58641063559084
1673608296.57172,-8.274059,111.56493759695095
1673608296.572727,-8.250572,111.54346455831109
1673608296.5737338,-8.147366,111.52199660325043
1673608296.574741,-7.89268,111.50052356461056
1673608296.575748,-7.701967,111.47905052597068
1673608296.5767548,-7.59251,111.45758257091003
1673608296.5777628,-7.46935,111.43608919795325
1673608296.57877,-7.423433,111.41461615931338
1673608296.5797768,-7.406532,111.39314820425273
1673608296.5807838,-7.416894,111.37167516561286
1673608296.581791,-7.500267,111.35020212697297
1673608296.5827978,-7.627296,111.32873417191233
1673608296.5838048,-7.656987,111.30726113327245
1673608296.584812,-7.739182,111.28578809463257
1673608296.5858188,-7.820943,111.2581418647297
1673608296.5868258,-7.792407,111.22107793484486
1673608296.587833,-7.709708,111.24293046375774
1673608296.5888398,-7.675618,111.20651029721361
1673608296.5898468,-7.696101,111.17398921742243
1673608296.590855,-7.789762,111.15168983762518
1673608296.591862,-7.98663,111.11943263504172
1673608296.5928688,-8.106665,111.1141142970462
1673608296.593876,-8.146476,111.13728427684964
1673608296.594883,-8.217876,111.12681909197676
1673608296.5958898,-8.196168,111.13963628442505
1673608296.596897,-8.065508,111.1524565119651
1673608296.597904,-7.870827,111.16527673950515
1673608296.5989108,-7.675955,111.17809393195344
1673608296.599918,-7.454157,111.19091415949349
1673608296.600925,-7.267794,111.20373438703353
1673608296.6019318,-7.217381,111.21655157948183
1673608296.6029398,-7.29508,111.22938394738887
1673608296.603947,-7.399873,111.24220417492891
1673608296.6049538,-7.465576,111.25502136737721
1673608296.6059608,-7.500964,111.26784159491726
1673608296.606968,-7.517936,111.2806618224573
1673608296.6079748,-7.573999,111.2934790149056
1673608296.6089818,-7.641024,111.30629924244565
1673608296.609989,-7.685859,111.3191194699857
1673608296.6109958,-7.750745,111.33193666243399
1673608296.6120028,-7.81813,111.34475688997404
1673608296.61301,-7.85811,111.35757711751408
1673608296.6140168,-7.940352,111.37039430996238
1673608296.6150239,-8.059498,111.38321453750243
1673608296.616032,-8.067407,111.39604690540946
1673608296.617039,-7.92564,111.4088671329495
1673608296.6180458,-7.765361,111.4216843253978
1673608296.619053,-7.701678,111.43450455293785
1673608296.62006,-7.65028,111.44732478047789
1673608296.6210668,-7.587918,111.4601419729262
1673608296.622074,-7.594481,111.467323
1673608296.623081,-7.597655,111.45919374295943
1673608296.6240878,-7.576764,111.48228979685265
1673608296.625095,-7.58549,111.521591
1673608296.626102,-7.639822,111.51307269408679
1673608296.6271088,-7.698,111.51214538483548
1673608296.6281168,-7.722233,111.51280306626937
1673608296.629124,-7.755986,111.51240861338732
1673608296.6301308,-7.865418,111.53965459618139
1673608296.6311378,-7.944896,111.5525527404352
1673608296.632145,-7.957758,111.54218693403739
1673608296.6331518,-7.886093,111.53182358166572
1673608296.6341588,-7.807,111.52145777526792
1673608296.635166,-7.762837,111.51109196887012
1673608296.6361728,-7.72192,111.50072861649845
1673608296.6371799,-7.708842,111.49036281010063
1673608296.638187,-7.730984,111.47999700370283
1673608296.6391938,-7.718554,111.46963365133116
1673608296.6402009,-7.67069,111.45926784493336
1673608296.641209,-7.635975,111.44889222243101
1673608296.642216,-7.635542,111.4385264160332
1673608296.6432228,-7.623642,111.42816306366153
1673608296.64423,-7.618089,111.41779725726373
1673608296.645237,-7.643188,111.40743145086593
1673608296.6462438,-7.677974,111.39706809849426
1673608296.647251,-7.672757,111.38670229209644
1673608296.648258,-7.689922,111.37633648569864
1673608296.6492648,-7.781012,111.36597313332697
1673608296.650272,-7.961051,111.35560732692916
1673608296.6512787,-8.146284,111.34524397455749
1673608296.6522858,-8.235042,111.33487816815969
1673608296.6532938,-8.252831,111.32450254565734
1673608296.654301,-8.284204,111.31413673925954
1673608296.6553078,-8.207034,111.30377338688787
1673608296.6563148,-8.016273,111.29340758049005
1673608296.657322,-7.909148,111.28304177409225
1673608296.6583288,-7.772598,111.27267842172058
1673608296.6593359,-7.600587,111.26231261532278
1673608296.660343,-7.46447,111.25194680892497
1673608296.6613498,-7.387733,111.2415834565533
1673608296.6623569,-7.385232,111.2312176501555
1673608296.663364,-7.424827,111.2208518437577
1673608296.6643708,-7.565729,111.21048849138603
1673608296.6653779,-7.736753,111.20012268498822
1673608296.666386,-7.867149,111.18974706248586
1673608296.667393,-7.964393,111.17938125608806
1673608296.6683998,-7.916408,111.1690179037164
1673608296.669407,-7.88054,111.1586520973186
1673608296.670414,-7.773896,111.14828629092078
1673608296.6714208,-7.663718,111.13792293854911
1673608296.672428,-7.610492,111.12755713215131
1673608296.6734347,-7.576715,111.11719377977964
1673608296.6744418,-7.567484,111.10682797338183
1673608296.675449,-7.646553,111.09646216698403
1673608296.6764557,-7.764929,111.08609881461236
1673608296.6774628,-7.926168,111.07573300821456
1673608296.6784708,-8.029062,111.0553709175012
1673608296.679478,-8.018196,111.04025793323797
1673608296.6804848,-7.922466,111.051239
1673608296.6814919,-7.817938,111.03652241106343
1673608296.682499,-7.670017,111.00757251692895
1673608296.6835058,-7.52861,110.98174587601335
1673608296.6845129,-7.382131,110.960793
1673608296.68552,-7.335805,110.960793
1673608296.6865268,-7.40747,110.960793
1673608296.6875339,-7.45596,110.96638245731617
1673608296.688541,-7.489785,110.97892088944761
1673608296.6895478,-7.555319,110.99145635320022
1673608296.6905549,-7.647395,111.00399478533167
1673608296.691563,-7.725286,111.01654509097838
1673608296.69257,-7.806471,111.02908352310982
1673608296.6935768,-7.890204,111.04161898686243
1673608296.694584,-8.035697,111.05415741899388
1673608296.6955907,-8.321323,111.0666928827465
1673608296.6965978,-8.429241,111.07923131487793
1673608296.697605,-8.337382,111.09176974700938
1673608296.6986117,-8.152462,111.10430521076199
1673608296.6996188,-7.931938,111.11684364289343
1673608296.700626,-7.717401,111.12938207502488
1673608296.7016327,-7.540703,111.14191753877749
1673608296.7026398,-7.455359,111.15445597090894
1673608296.7036479,-7.438458,111.16700627655565
1673608296.704655,-7.415235,111.17954470868709
1673608296.7056618,-7.447209,111.1920801724397
1673608296.7066689,-7.530437,111.20461860457115
1673608296.707676,-7.626335,111.21715703670259
1673608296.7086828,-7.687758,111.2296925004552
1673608296.7096899,-7.637153,111.24223093258665
1673608296.710697,-7.675931,111.25476936471809
1673608296.7117038,-7.911095,111.2673048284707
1673608296.7127109,-8.216506,111.27984326060215
1673608296.713718,-8.33279,111.29238169273358
1673608296.7147248,-8.327068,111.3049171564862
1673608296.7157319,-8.219343,111.31745558861765
1673608296.71674,-7.986053,111.33000589426436
1673608296.7177467,-7.718651,111.34254135801697
1673608296.7187538,-7.394368,111.35507979014842
1673608296.719761,-7.248947,111.36761822227986
1673608296.7207677,-7.259693,111.38015368603247
1673608296.7217748,-7.252817,111.39269211816392
1673608296.722782,-7.330011,111.40523055029536
1673608296.7237887,-7.445141,111.41776601404797
1673608296.7247958,-7.594097,111.43030444617942
1673608296.725803,-7.761924,111.44284287831086
1673608296.7268097,-7.869457,111.45537834206347
1673608296.7278168,-7.94105,111.46791677419492
1673608296.7288249,-8.052574,111.48046707984163
1673608296.729832,-8.109189,111.49300551197307
1673608296.7308388,-8.172656,111.5055409757257
1673608296.7318459,-8.216939,111.51807940785713
1673608296.732853,-8.1039,111.50849058347225
1673608296.7338598,-7.937299,111.46380476372315
1673608296.7348669,-7.755096,111.51606570100144
1673608296.735874,-7.552603,111.53968
1673608296.7368808,-7.468653,111.5532971030043
1673608296.7378879,-7.424563,111.57151574225084
1673608296.738895,-7.383453,111.61747524696067
1673608296.7399018,-7.403984,111.630127
1673608296.7409089,-7.54402,111.64424850811456
1673608296.741917,-7.810197,111.66179000268309
1673608296.7429237,-8.022283,111.6791133672436
1673608296.7439308,-8.096472,111.69644083395058
1673608296.744938,-8.135225,111.71376830065755
1673608296.7459447,-8.078898,111.73109166521805
1673608296.7469518,-7.963215,111.74841913192502
1673608296.747959,-7.737763,111.7284425717692
1673608296.7489657,-7.499353,111.73119183051251
1673608296.7499728,-7.36225,111.73738408011445
1673608296.75098,-7.239522,111.71076760515022
1673608296.7519867,-7.187595,111.762161459118
1673608296.7529938,-7.27943,111.77075040414879
1673608296.7540019,-7.504906,111.738678
1673608296.755009,-7.792455,111.75937266404387
1673608296.7560158,-8.058055,111.78532662860549
1673608296.7570229,-8.331684,111.80937142840283
1673608296.75803,-8.509488,111.83760952753737
1673608296.7590368,-8.447584,111.86584094151587
1673608296.7600439,-8.284878,111.89407904065041
1673608296.761051,-8.128133,111.92231713978495
1673608296.7620578,-7.872871,111.95054855376344
1673608296.7630649,-7.533082,111.97878665289798
1673608296.764072,-7.330853,112.00702475203252
1673608296.7650788,-7.266088,112.03525616601101
1673608296.7660859,-7.257288,112.06349426514555
1673608296.767094,-7.229907,112.09175910490427
1673608296.7681007,-7.298061,112.11999051888277
1673608296.7691078,-7.439997,112.14822861801731
1673608296.770115,-7.561834,112.17646671715185
1673608296.7711217,-7.689634,112.20469813113034
1673608296.7721288,-7.809813,112.23293623026488
1673608296.773136,-7.825511,112.26117432939942
1673608296.7741427,-7.771204,112.28940574337793
1673608296.7751498,-7.713218,112.31764384251245
1673608296.776157,-7.689273,112.345881941647
1673608296.7771637,-7.712448,112.3741133556255
1673608296.7781708,-7.744543,112.40235145476004
1673608296.7791789,-7.899556,112.43061629451876
1673608296.780186,-8.064498,112.4588543936533
1673608296.7811928,-8.254827,112.48708580763179
1673608296.7821999,-8.404719,112.51532390676633
1673608296.783207,-8.366182,112.54356200590087
1673608296.7842138,-8.247495,112.57179341987937
1673608296.7852209,-8.068729,112.6000315190139
1673608296.786228,-7.841113,112.62826961814844
1673608296.7872348,-7.717449,112.65650103212694
1673608296.7882419,-7.596717,112.68473913126148
1673608296.789249,-7.631696,112.71297723039602
1673608296.7902558,-7.641865,112.74120864437451
1673608296.7912629,-7.561858,112.76944674350905
1673608296.792271,-7.493559,112.79771158326777
1673608296.7932777,-7.467451,112.82594299724627
1673608296.7942848,-7.431751,112.85418109638081
1673608296.795292,-7.38617,112.88241919551534
1673608296.7962987,-7.373909,112.91065060949384
1673608296.7973058,-7.381314,112.96167930948974
1673608296.798313,-7.382948,113.03216658831943
1673608296.7993197,-7.461321,113.02518602861231
1673608296.8003268,-7.596356,113.08746369098714
1673608296.801334,-7.751225,113.16033991845494
1673608296.8023407,-7.978337,113.20048777687722
1673608296.8033478,-8.117507,113.25340065045303
1673608296.8043559,-8.030504,113.32473114878397
1673608296.805363,-7.915062,113.3641077261025
1673608296.8063698,-7.851018,113.46850794819755
1673608296.8073769,-7.719612,113.57833729103662
1673608296.808384,-7.75363,113.6881666338757
1673608296.8093908,-7.947829,113.79796997544989
1673608296.8103979,-8.00644,113.86319570846246
1673608296.811405,-7.938165,113.873299
1673608296.8124118,-7.825655,113.93321211015737
1673608296.8134189,-7.726079,113.99097410750893
1673608296.814426,-7.640639,114.01516843705294
1673608296.8154328,-7.582245,114.07944691273248
1673608296.8164399,-7.603497,114.12134628963051
1673608296.817448,-7.630181,114.14217534992854
1673608296.8184547,-7.644606,114.20766414653939
1673608296.8194618,-7.649077,114.24364909647561
1673608296.820469,-7.622945,114.27419118216625
1673608296.8214757,-7.62232,114.3047260372495
1673608296.8224828,-7.634148,114.33526812294014
1673608296.82349,-7.726103,114.36581020863078
1673608296.8244967,-7.834887,114.39634506371401
1673608296.8255038,-7.820847,114.42688714940466
1673608296.826511,-7.810318,114.4574292350953
1673608296.8275177,-7.861283,114.48796409017854
1673608296.8285248,-7.855922,114.51850617586918
1673608296.8295329,-7.805365,114.54907718398945
1673608296.83054,-7.706342,114.5796192696801
1673608296.8315468,-7.648164,114.61015412476334
1673608296.8325539,-7.593592,114.64069621045398
1673608296.833561,-7.528225,114.67123829614462
1673608296.8345678,-7.558925,114.70177315122785
1673608296.8355749,-7.657059,114.73231523691851
1673608296.836582,-7.860754,114.76285732260915
1673608296.8375888,-8.041587,114.79339217769238
1673608296.8385959,-7.845537,114.82393426338302
1673608296.839603,-7.854744,114.85447634907368
1673608296.8406098,-7.925111,114.88501120415691
1673608296.8416169,-7.934847,114.91555328984755
1673608296.842625,-7.934294,114.94612429796783
1673608296.8436317,-7.94331,114.97665915305106
1673608296.8446388,-7.86061,115.00720123874171
1673608296.845646,-7.672685,115.03774332443236
1673608296.8466527,-7.570393,115.06827817951559
1673608296.8476598,-7.487381,115.09882026520623
1673608296.848667,-7.428193,115.12936235089688
1673608296.8496737,-7.446295,115.15989720598012
1673608296.8506808,-7.462282,115.19043929167076
1673608296.851688,-7.511902,115.2209813773614
1673608296.8526947,-7.606502,115.26017500857347
1673608296.8537018,-7.733387,115.35247404295943
1673608296.8547099,-7.824597,115.32508072389128
1673608296.855717,-7.883593,115.3615163034565
1673608296.8567238,-8.008459,115.392876
1673608296.8577309,-8.063056,115.39818969766333
1673608296.858738,-8.025408,115.44019646054826
1673608296.8597448,-7.903666,115.50431816738198
1673608296.8607519,-7.797888,115.52253739866477
1673608296.861759,-7.77505,115.53807453857382
1673608296.8627658,-7.778752,115.54086228570907
1673608296.8637729,-7.831593,115.54365069297862
1673608296.86478,-7.811207,115.54643910024815
1673608296.8657868,-7.725767,115.5492268473834
1673608296.8667939,-7.645904,115.55201525465294
1673608296.867802,-7.560055,115.55480630245967
1673608296.8688087,-7.50957,115.555679
1673608296.8698158,-7.513056,115.63154046423462
1673608296.870823,-7.527408,115.70253454064363
1673608296.8718297,-7.569383,115.77006573319026
1673608296.8728368,-7.651457,115.77783385288508
1673608296.873844,-7.939655,115.7990678051979
1673608296.8748507,-8.632336,115.808945
1673608296.8758578,-9.029486,115.87596033786362
1673608296.876865,-9.050905,115.92646692584646
1673608296.8778718,-9.045088,115.935585
1673608296.8788788,-9.084779,115.935585
1673608296.8798869,-8.62058,116.01914788602767
1673608296.880894,-7.794042,116.07222686460071
1673608296.8819008,-7.302894,116.11462215745091
1673608296.8829079,-7.141389,116.15872955540428
1673608296.883915,-6.85247,116.20283695335763
1673608296.8849218,-6.799773,116.24693390921867
1673608296.8859289,-6.985775,116.29104130717202
1673608296.886936,-7.158338,116.33514870512539
1673608296.8879428,-7.258322,116.37924566098643
1673608296.8889499,-7.360663,116.42335305893978
1673608296.889957,-7.43692,116.46746045689314
1673608296.8909638,-7.459277,116.51155741275419
1673608296.8919709,-7.426775,116.55566481070754
1673608296.892979,-7.422591,116.59981397703017
1673608296.8939857,-7.456248,116.6439109328912
1673608296.8949928,-7.528081,116.68801833084457
1673608296.896,-7.670594,116.73212572879793
1673608296.8970068,-7.796278,116.77622268465896
1673608296.8980138,-7.90684,116.82033008261232
1673608296.899021,-7.951147,116.86443748056568
1673608296.9000278,-7.967374,116.90853443642672
1673608296.9010348,-7.985404,116.95264183438007
1673608296.902042,-7.967302,116.99674923233343
1673608296.9030488,-7.879722,117.04084618819448
1673608296.9040558,-7.912394,117.08495358614783
1673608296.9050639,-8.076302,117.12910275247046
1673608296.906071,-7.99591,117.17321015042383
1673608296.9070778,-7.842363,117.21730710628486
1673608296.9080849,-7.696846,117.26141450423822
1673608296.909092,-7.564983,117.30552190219157
1673608296.9100988,-7.411244,117.34961885805261
1673608296.9111059,-7.227767,117.39372625600598
1673608296.912113,-7.248322,117.43783365395933
1673608296.9131198,-7.371289,117.48193060982037
1673608296.9141269,-7.459373,117.52603800777372
1673608296.915134,-7.535197,117.57014540572709
1673608296.9161408,-7.585226,117.61424236158813
1673608296.9171479,-7.632465,117.65834975954148
1673608296.918156,-7.658574,117.70249892586412
1673608296.9191628,-7.655592,117.74873227610873
1673608296.9201698,-7.647346,117.83600932538737
1673608296.921177,-7.640975,117.85422457963759
1673608296.9221838,-7.657708,117.871231
1673608296.9231908,-7.701414,117.87524126936829
1673608296.924198,-7.7228579999999996,117.92988482260373
1673608296.9252048,-7.740551,117.98293350453028
1673608296.9262118,-7.840921,118.01937038235995
1673608296.927219,-7.909821,118.05027432069623
1673608296.9282258,-7.88917,118.03725640396532
1673608296.9292328,-7.865779,118.06717088280199
1673608296.9302409,-7.877511,118.09711368974362
1673608296.931248,-7.82265,118.1270281685803
1673608296.9322548,-7.764592,118.15693556539074
1673608296.9332619,-7.756875,118.18685004422741
1673608296.934269,-7.736994,118.21676452306409
1673608296.9352758,-7.61994,118.24667191987452
1673608296.9362829,-7.50231,118.27658639871119
1673608296.93729,-7.519571,118.30650087754786
1673608296.9382968,-7.585851,118.33640827435829
1673608296.9393039,-7.745456,118.36632275319498
1673608296.940311,-8.023917,118.39623723203165
1673608296.9413178,-8.343489,118.42614462884208
1673608296.9423258,-8.63462,118.45608743578372
1673608296.943333,-8.91813,118.48600191462039
1673608296.9443398,-8.887838,118.51590931143082
1673608296.9453468,-8.672604,118.54582379026749
1673608296.946354,-8.516075,118.57573826910416
