measure_time,emg_ch_1,grip_force_inter
1673608516.651992,9.193462,1.4251
1673608516.653,9.20344,1.4246599942775393
1673608516.6540072,9.197044,1.3710999704410012
1673608516.655014,9.186322,1.3897068016213638
1673608516.656021,9.179014,1.4261523881735814
1673608516.6570282,9.164758,1.4606224139246544
1673608516.658035,9.15882,1.4424085210965436
1673608516.6590421,9.153171,1.4241938054363377
1673608516.6600492,9.145309,1.4069549519371445
1673608516.661056,9.137665,1.4061271020644812
1673608516.6620631,9.130861,1.4052990561582228
1673608516.6630702,9.130836,1.4044710102519644
1673608516.664077,9.137424,1.4036431603793011
1673608516.665085,9.149733,1.4028143303386618
1673608516.6660922,9.157763,1.4019862844324031
1673608516.667099,9.166345,1.40115843455974
1673608516.668106,9.18988,1.4003303886534815
1673608516.6691132,9.20243,1.399502342747223
1673608516.67012,9.207382,1.3986744928745598
1673608516.671127,9.194088,1.3978464469683014
1673608516.6721342,9.179543,1.3970184010620428
1673608516.673141,9.175817,1.3961905511893797
1673608516.674148,9.171681,1.3953625052831211
1673608516.6751552,9.165984,1.3945344593768627
1673608516.676162,9.157137,1.3937066095041994
1673608516.677169,9.148915,1.392878563597941
1673608516.678177,9.144588,1.3920497335573017
1673608516.6791842,9.140453,1.391221687651043
1673608516.680191,9.137856,1.39039383777838
1673608516.6811981,9.136511,1.3895657918721214
1673608516.6822052,9.131198,1.4004825622317598
1673608516.683212,9.131943,1.4392080398187888
1673608516.6842191,9.141751,1.4209885830750895
1673608516.6852262,9.157402,1.4112395383881737
1673608516.686233,9.167282,1.4163768104434908
1673608516.6872401,9.178269,1.388913
1673608516.6882472,9.182693,1.3796830381497378
1673608516.689254,9.188679,1.362215119694802
1673608516.690262,9.195242,1.3840274607866507
1673608516.6912692,9.193102,1.3701446174084488
1673608516.692276,9.184327,1.3676755703481043
1673608516.693283,9.194545,1.3652059386211577
1673608516.6942902,9.188559,1.3627363068942113
1673608516.695297,9.173077,1.3602672598338668
1673608516.696304,9.155646,1.3577976281069202
1673608516.6973112,9.136919,1.3553279963799736
1673608516.698318,9.109777,1.352858949319629
1673608516.699325,9.0940550000000009,1.3503893175926824
1673608516.7003322,9.088285,1.3479196858657359
1673608516.701339,9.094103,1.3454506388053913
1673608516.702346,9.096747,1.3429810070784447
1673608516.7033541,9.103911,1.34050903668509
1673608516.7043612,9.11836,1.3380394049581434
1673608516.705368,9.138987,1.3355703578977989
1673608516.7063751,9.164397,1.3460454341917025
1673608516.7073822,9.186419,1.3873132338498213
1673608516.708389,9.209882,1.3837028159275155
1673608516.7093961,9.227504,1.3943819680495948
1673608516.7104032,9.223681,1.442724535399285
1673608516.71141,9.205868,1.4131554475441106
1673608516.7124171,9.193054,1.4010715338578923
1673608516.7134242,9.186515,1.4111910257220266
1673608516.714431,9.176153,1.417400311655378
1673608516.715439,9.16096,1.4236169493362234
1673608516.7164462,9.145261,1.4298277056190736
1673608516.717453,9.126557,1.436036991552425
1673608516.71846,9.127447,1.442247747835275
1673608516.7194672,9.12788,1.4484585041181253
1673608516.720474,9.130404,1.4546677900514766
1673608516.721481,9.135261,1.4608785463343268
1673608516.7224882,9.143218,1.467089302617177
1673608516.723495,9.155622,1.4732985885505283
1673608516.724502,9.159349,1.4795093448333785
1673608516.7255092,9.169158,1.4857201011162287
1673608516.726516,9.176033,1.4919293870495802
1673608516.727523,9.180481,1.4981401433324304
1673608516.7285311,9.183005,1.5043567810132756
1673608516.7295382,9.192188,1.5105675372961258
1673608516.730545,9.205723,1.5167768232294772
1673608516.7315521,9.212046,1.5229875795123273
1673608516.7325592,9.206949,1.5291983357951775
1673608516.733566,9.183173,1.5354076217285288
1673608516.7345731,9.155022,1.541618378011379
1673608516.7355802,9.142521,1.5478291342942292
1673608516.736587,9.135934,1.5540384202275805
1673608516.7375941,9.125428,1.560249176510431
1673608516.7386012,9.119393,1.5664599327932809
1673608516.739608,9.117831,1.5726692187266325
1673608516.740616,9.124611,1.5788858564074777
1673608516.7416232,9.126317,1.5850966126903279
1673608516.74263,9.114898,1.5913058986236792
1673608516.743637,9.123841,1.5975166549065294
1673608516.7446442,9.137256,1.6037274111893796
1673608516.745651,9.149541,1.609936697122731
1673608516.746658,9.157546,1.6161474534055813
1673608516.7476652,9.158219,1.6223582096884313
1673608516.748672,9.150093,1.6285674956217828
1673608516.749679,9.14644,1.634778251904633
1673608516.7506862,9.151656,1.6409890081874832
1673608516.751693,9.164638,1.6471982941208345
1673608516.7527,9.170672,1.6534090504036847
1673608516.7537081,9.166585,1.65962568808453
1673608516.7547152,9.159541,1.66583644436738
1673608516.755722,9.144636,1.6720457303007317
1673608516.7567291,9.133914,1.6782564865835816
1673608516.7577362,9.134924,1.678355
1673608516.758743,9.126966,1.6603005045302814
1673608516.7597501,9.125836,1.6961594054827176
1673608516.7607572,9.1136,1.6426209552454283
1673608516.761764,9.104897,1.7500227671397641
1673608516.7627711,9.099801,1.645049172239596
1673608516.763778,9.094704,1.696444
1673608516.764785,9.095714,1.6949948097281833
1673608516.765793,9.111124,1.6607851316471753
1673608516.7668002,9.131967,1.671640636982166
1673608516.767807,9.118769,1.6824935723585073
1673608516.768814,9.121197,1.693349077693498
1673608516.7698212,9.106725,1.7042045830284889
1673608516.770828,9.082804,1.7150575184048302
1673608516.771835,9.09444,1.725913023739821
1673608516.7728422,9.110619,1.7367685290748116
1673608516.773849,9.128962,1.747621464451153
1673608516.774856,9.134371,1.7584769697861438
1673608516.7758632,9.124971,1.7693324751211346
1673608516.77687,9.167595,1.780185410497476
1673608516.777877,9.206709,1.7910409158324665
1673608516.7788851,9.202838,1.8019067010020549
1673608516.7798922,9.165888,1.8127622063370457
1673608516.780899,9.127976,1.823615141713387
1673608516.7819061,9.101868,1.8344706470483778
1673608516.7829132,9.09069,1.8453261523833684
1673608516.78392,9.093021,1.8561790877597097
1673608516.7849271,9.110787,1.8670345930947005
1673608516.785934,9.148915,1.877887528471042
1673608516.786941,9.17524,1.8887430338060327
1673608516.7879481,9.202093,1.8995985391410235
1673608516.788955,9.209185,1.9104514745173646
1673608516.789962,9.210147,1.9213069798523554
1673608516.79097,9.212262,1.9321727650219438
1673608516.7919772,9.211589,1.9430282703569346
1673608516.792984,9.194592,1.9538812057332757
1673608516.793991,9.184255,1.9647367110682665
1673608516.7949982,9.171874,1.9755922164032573
1673608516.796005,9.147954,1.9864451517795987
1673608516.797012,9.117302,1.9973006571145895
1673608516.7980192,9.104921,2.00815616244958
1673608516.799026,9.107302,2.0190090978259216
1673608516.800033,9.106869,2.029864603160912
1673608516.8010402,9.11295,2.0407201084959032
1673608516.802047,9.135381,2.0515730438722444
1673608516.803054,9.155142,2.062428549207235
1673608516.8040621,9.155142,2.0732943343768233
1673608516.8050692,9.166032,2.0841498397118143
1673608516.806076,9.163869,2.0950027750881555
1673608516.8070831,9.155022,2.105858280423146
1673608516.80809,9.161056,2.1167112157994876
1673608516.809097,9.171923,2.127566721134478
1673608516.8101041,9.172067,2.1384222264694692
1673608516.811111,9.167643,2.1492751618458104
1673608516.812118,9.161152,2.1601306671808014
1673608516.8131251,9.174495,2.173830924177396
1673608516.814132,9.178004,2.192045003099666
1673608516.815139,9.159277,2.195678343504172
1673608516.816147,9.144492,2.192316726275632
1673608516.8171542,9.131222,2.195404881735813
1673608516.818161,9.122808,2.2310150092967818
1673608516.819168,9.117446,2.2777895593705293
1673608516.8201752,9.099921,2.257237
1673608516.821182,9.09605,2.2733766607866506
1673608516.822189,9.112735,2.2993260995539546
1673608516.8231962,9.132327,2.3124473987728518
1673608516.824203,9.132833,2.3255655916235627
1673608516.82521,9.134851,2.3386868908424603
1673608516.8262172,9.135381,2.3518081900613574
1673608516.827224,9.142472,2.3649263829120684
1673608516.828231,9.153651,2.3780476821309655
1673608516.8292391,9.147521,2.391181406822608
1673608516.830246,9.138746,2.404299599673319
1673608516.831253,9.125596,2.417420898892216
1673608516.8322601,9.110138,2.4305421981111133
1673608516.833267,9.112302,2.443660390961824
1673608516.834274,9.120379,2.4567816901807213
1673608516.8352811,9.124562,2.469902989399619
1673608516.836288,9.125644,2.48302118225033
1673608516.837295,9.133963,2.496142481469227
1673608516.8383021,9.136775,2.509263780688124
1673608516.839309,9.138145,2.522381973538835
1673608516.840316,9.118985,2.5355032727577322
1673608516.841324,9.100113,2.5486369974493748
1673608516.8423312,9.095641,2.561758296668272
1673608516.843338,9.100329,2.574876489518983
1673608516.844345,9.127496,2.5879977887378804
1673608516.8453522,9.140309,2.6011190879567776
1673608516.846359,9.144732,2.6142372808074885
1673608516.847366,9.15394,2.6273585800263857
1673608516.8483732,9.172691,2.640479879245283
1673608516.84938,9.194809,2.6535980720959937
1673608516.850387,9.19488,2.6667193713148913
1673608516.8513942,9.16971,2.6798406705337885
1673608516.852401,9.147184,2.6929588633844994
1673608516.853408,9.138674,2.7060801626033966
1673608516.8544161,9.161248,2.719213887295039
1673608516.855423,9.16673,2.73233208014575
1673608516.85643,9.146656,2.745453379364647
1673608516.8574371,9.128721,2.7585746785835443
1673608516.858444,9.106749,2.7716928714342552
1673608516.859451,9.10057,2.784814170653153
1673608516.8604581,9.104801,2.79793546987205
1673608516.861465,9.109393,2.811053662722761
1673608516.862472,9.11295,2.824174961941658
1673608516.8634791,9.111652,2.8372962611605552
1673608516.864486,9.119393,2.850414454011266
1673608516.865493,9.14002,2.8635357532301633
1673608516.866501,9.152978,2.876669477921806
1673608516.8675082,9.162354,2.889790777140703
1673608516.868515,9.175216,2.9029089699914143
1673608516.869522,9.180721,2.9160302692103115
1673608516.8705292,9.174062,2.9291515684292087
1673608516.871536,9.166393,2.9422697612799196
1673608516.872543,9.149035,2.9553910604988167
1673608516.8735502,9.134491,2.968512359717714
1673608516.874557,9.137183,2.981630552568425
1673608516.875564,9.13413,2.9947518517873224
1673608516.8765712,9.126534,3.0078731510062195
1673608516.877578,9.118816,3.0209913438569305
1673608516.878585,9.108119,3.0341126430758276
1673608516.8795931,9.09831,3.018273476156414
1673608516.8806,9.100257,3.017027
1673608516.881607,9.112879,3.094298785714286
1673608516.8826141,9.115379,3.117977751783167
1673608516.883621,9.116317,3.1519304685714284
1673608516.884628,9.118552,3.2199447228571425
1673608516.8856351,9.128241,3.1879926932952922
1673608516.886642,9.134828,3.1972014048640913
1673608516.887649,9.141391,3.1443577167381975
1673608516.8886561,9.149492,3.182972588415477
1673608516.889663,9.149541,3.2227858459403116
1673608516.89067,9.156248,3.262608531184191
1673608516.891678,9.166248,3.302468927304248
1673608516.8926852,9.167667,3.342291612548127
1673608516.893692,9.161465,3.3821048700729617
1673608516.894699,9.15995,3.4219275553168407
1673608516.8957062,9.128288,3.4617502405607197
1673608516.896713,9.118023,3.5015634980855546
1673608516.89772,9.129731,3.5413861833294336
1673608516.8987272,9.120187,3.5812088685733126
1673608516.899734,9.108023,3.621022126098147
1673608516.900741,9.090714,3.6608448113420264
1673608516.9017482,9.084535,3.7006674965859054
1673608516.902755,9.078717,3.74048075411074
1673608516.903762,9.066625,3.7803034393546193
1673608516.9047701,9.0641,3.820163835474676
1673608516.905777,9.079438,3.8599770929995105
1673608516.906784,9.107302,3.8997997782433895
1673608516.9077911,9.144156,3.939622463487269
1673608516.908798,9.180264,3.9794357210121034
1673608516.909805,9.206853,4.019258406255982
1673608516.9108121,9.212912,4.059081091499862
1673608516.911819,9.189352,4.098894349024696
1673608516.912826,9.166153,4.138717034268575
1673608516.9138331,9.168052,4.178539719512454
1673608516.91484,9.170143,4.218352977037289
1673608516.915847,9.162186,4.258175662281168
1673608516.916855,9.150166,4.298036058401225
1673608516.9178622,9.129587,4.337858743645104
1673608516.918869,9.100162,4.377672001169939
1673608516.919876,9.100642,4.417494686413818
1673608516.9208832,9.110787,4.457317371657697
1673608516.92189,9.11271,4.497130629182531
1673608516.922897,9.103022,4.536953314426411
1673608516.9239042,9.111652,4.576775999670289
1673608516.924911,9.121293,4.616589257195124
1673608516.925918,9.123505,4.656411942439004
1673608516.9269252,9.127496,4.696234627682882
1673608516.927932,9.127134,4.736047885207717
1673608516.928939,9.132279,4.7758705704515965
1673608516.9299471,9.156609,4.815730966571653
1673608516.930954,9.172163,4.855544224096487
1673608516.931961,9.16834,4.895366909340367
1673608516.9329681,9.170889,4.942160628040058
1673608516.933975,9.175696,5.229759936842106
1673608516.934982,9.167667,5.238256585206259
1673608516.9359891,9.15144,5.306596454907539
1673608516.936996,9.14329,5.39308006458037
1673608516.938003,9.140862,5.476834890753913
1673608516.9390101,9.129779,5.524307092176387
1673608516.940017,9.115475,5.5193891932270915
1673608516.941024,9.103888,5.588553062019915
1673608516.942032,9.102445,5.3895812370696685
1673608516.9430392,9.109921,5.428645713493228
1673608516.944046,9.117879,5.467700941697938
1673608516.945053,9.14115,5.506765418121499
1673608516.9460602,9.147088,5.545829894545059
1673608516.947067,9.139059,5.5848851227497684
1673608516.948074,9.132712,5.623949599173328
1673608516.9490812,9.125716,5.663014075596889
1673608516.950088,9.119995,5.702069303801599
1673608516.951095,9.136751,5.741133780225159
1673608516.9521022,9.151896,5.780198256648719
1673608516.953109,9.150646,5.819253484853428
1673608516.954116,9.18012,5.858317961276989
1673608516.9551241,9.181995,5.89741943057595
1673608516.956131,9.146295,5.93647465878066
1673608516.957138,9.138843,5.97553913520422
1673608516.9581451,9.137856,6.014603611627781
1673608516.959152,9.124034,6.05365883983249
1673608516.960159,9.118552,6.09272331625605
1673608516.9611661,9.119514,6.13178779267961
1673608516.962173,9.117662,6.17084302088432
1673608516.96318,9.122808,6.2099074973078805
1673608516.9641871,9.143458,6.24897197373144
1673608516.965194,9.152353,6.28802720193615
1673608516.966201,9.145694,6.32709167835971
1673608516.967209,9.149636,6.366193147658672
1673608516.9682162,9.158051,6.405257624082232
1673608516.969223,9.15906,6.4443128522869415
1673608516.97023,9.172956,6.483377328710501
1673608516.9712372,9.180024,6.522441805134061
1673608516.972244,9.175817,6.561497033338772
1673608516.973251,9.168797,6.600561509762332
1673608516.9742582,9.157979,6.639625986185892
1673608516.975265,9.152377,6.678681214390602
1673608516.976272,9.124875,6.717745690814162
1673608516.9772792,9.113503,6.756810167237722
1673608516.978286,9.100162,6.795865395442432
1673608516.979293,9.10319,6.834929871865992
1673608516.9803011,9.104465,6.874031341164954
1673608516.981308,9.098454,6.913086569369663
1673608516.982315,9.099416,6.952151045793223
1673608516.9833221,9.10295,6.991215522216783
1673608516.984329,9.112302,7.030270750421494
1673608516.985336,9.128337,7.069383209585121
1673608516.9863431,9.146776,7.123667427890346
1673608516.98735,9.157883,7.141878363137816
1673608516.988357,9.162691,7.1614114787792085
1673608516.9893641,9.16346,7.2331547539928485
1673608516.990371,9.153531,7.269574858369099
1673608516.991378,9.140189,7.305204169527896
1673608516.992386,9.12865,7.320554405721097
1673608516.9933932,9.118119,7.290640051502146
1673608516.9944,9.115715,7.361570787586927
1673608516.995407,9.111989,7.405385957576881
1673608516.9964142,9.115932,7.449201127566836
1673608516.997421,9.119538,7.493005924647228
1673608516.998428,9.095641,7.536821094637183
1673608516.9994352,9.07463,7.580636264627138
1673608517.000442,9.066264,7.624441061707531
1673608517.001449,9.076289,7.668256231697486
1673608517.0024562,9.09367,7.71207140168744
1673608517.003463,9.11473,7.755876198767832
1673608517.00447,9.129491,7.799691368757787
1673608517.0054781,9.122639,7.84354803038599
1673608517.006485,9.103142,7.8873528274663824
1673608517.007492,9.102229,7.931167997456337
1673608517.0084991,9.113864,7.974983167446292
1673608517.009506,9.114898,8.018787964526684
1673608517.010513,9.118336,8.062603134516639
1673608517.0115201,9.120427,8.106418304506594
1673608517.012527,9.124515,8.150223101586986
1673608517.013534,9.132784,8.194038271576941
1673608517.0145411,9.13151,8.237853441566896
1673608517.015548,9.146536,8.281658238647289
1673608517.016555,9.149108,8.325473408637244
1673608517.017563,9.152017,8.369330070265447
1673608517.0185702,9.125356,8.413145240255401
1673608517.019577,9.094944,8.456950037335794
1673608517.020584,9.097805,8.500765207325749
1673608517.0215912,9.093719,8.544580377315704
1673608517.022598,9.097781,8.588385174396096
1673608517.023605,9.105762,8.63220034438605
1673608517.0246122,9.095185,8.676015514376004
1673608517.025619,9.105691,8.719820311456399
1673608517.026626,9.113312,8.763635481446352
1673608517.0276332,9.12175,8.807450651436307
1673608517.02864,9.135092,8.8512554485167
1673608517.029647,9.135814,8.895070618506654
1673608517.0306551,9.15983,8.938927280134857
1673608517.031662,9.188198,8.98273207721525
1673608517.032669,9.178245,9.026547247205205
1673608517.0336761,9.152641,9.07036241719516
1673608517.034683,9.1374,9.114167214275552
1673608517.03569,9.101964,9.157982384265507
1673608517.0366971,9.069366,9.201797554255462
1673608517.037704,9.052994,9.245602351335855
1673608517.038711,9.044844,9.28941752132581
1673608517.0397182,9.044147,9.333232691315764
1673608517.040725,9.042993,9.377037488396157
1673608517.041732,9.038449,9.42085265838611
1673608517.04274,9.054148,9.464709320014315
1673608517.0437472,9.06588,9.508524490004268
1673608517.044754,9.0397,9.55232928708466
1673608517.045761,9.014096,9.596144457074615
1673608517.0467682,8.997797,9.63995962706457
1673608517.047775,9.021837,9.683764424144963
1673608517.048782,9.071745,9.727579594134918
1673608517.0497892,9.075688,9.76183403862661
1673608517.050796,9.074101,9.749484348033373
1673608517.051803,9.114923,9.795222992370052
1673608517.0528102,9.155046,9.942352644015259
1673608517.053817,9.174879,9.94732251942789
1673608517.054825,9.165094,10.042903532188841
1673608517.0558321,9.152184,10.079341901287554
1673608517.056839,9.144636,10.138026462455304
1673608517.057846,9.133506,10.245407672389128
1673608517.0588531,9.12098,10.222308056592357
1673608517.05986,9.092973,10.24719598585191
1673608517.060867,9.058403,10.272089808535393
1673608517.0618742,9.033569,10.296983631218877
1673608517.062881,9.027751,10.32187156047843
1673608517.063888,9.033617,10.352419477574133
1673608517.0648952,9.031165,10.420736745343467
1673608517.065902,9.050157,10.489037839517211
1673608517.066909,9.074919,10.557355107286545
1673608517.067917,9.089656,10.625737069438236
1673608517.0689242,9.09968,10.69405433720757
1673608517.069931,9.103527,10.762355431381314
1673608517.070938,9.12074,10.830672699150648
1673608517.0719452,9.125403,10.886229
1673608517.072952,9.112806,10.90387119647115
1673608517.073959,9.107302,10.980339406197855
1673608517.0749662,9.113792,11.009901236528373
1673608517.075973,9.095449,11.086667134477825
1673608517.07698,9.091338,11.173731128755366
1673608517.0779872,9.100883,11.246607715375447
1673608517.078994,9.108214,11.32802726037196
1673608517.080002,9.105282,11.437449953743442
1673608517.0810091,9.08903,11.539384340298863
1673608517.082016,9.07124,11.619203591794232
1673608517.083023,9.056335,11.699041744367387
1673608517.0840302,9.030083,11.778879896940543
1673608517.085037,9.024866,11.85869914843591
1673608517.086044,9.030588,11.938537301009067
1673608517.0870512,9.025347,12.018375453582223
1673608517.088058,9.01186,12.09819470507759
1673608517.089065,9.073596,12.178032857650747
1673608517.0900722,9.103671,12.257871010223901
1673608517.091079,9.065784,12.33769026171927
1673608517.092086,9.044892,12.417528414292425
1673608517.093094,9.029891,12.497442171176731
1673608517.0941012,9.003302,12.577280323749886
1673608517.095108,8.999864,12.657099575245255
1673608517.096115,9.02715,12.73693772781841
1673608517.0971222,9.02667,12.816775880391566
1673608517.098129,9.012365,12.896595131886933
1673608517.099136,8.952095,12.97643328446009
1673608517.1001432,8.856053,13.056271437033246
1673608517.10115,8.860669,13.136090688528613
1673608517.102157,8.940868,13.21592884110177
1673608517.1031642,9.039844,13.295766993674924
1673608517.104171,9.099752,13.375586245170293
1673608517.105179,9.13401,13.455500002054597
1673608517.1061862,9.133217,13.535338154627752
1673608517.107193,9.140117,13.61515740612312
1673608517.1082,9.179327,13.694995558696277
1673608517.1092072,9.201132,13.774833711269432
1673608517.110214,9.180793,13.854652962764801
1673608517.111221,9.162786,13.934491115337956
1673608517.1122282,9.143915,14.014329267911112
1673608517.113235,9.131943,14.094148519406481
1673608517.114242,9.125259,14.173986671979636
1673608517.1152492,9.140645,14.223715660944206
1673608517.116256,9.1731,14.25998873557463
1673608517.117263,9.154421,14.387881581406438
1673608517.118271,9.081362,14.514062912732475
1673608517.1192782,9.065471,14.559293895565094
1673608517.120285,9.072322,14.633925986889153
1673608517.121292,9.078237,14.714193377682403
1673608517.1222992,9.040108,14.798281356223177
1673608517.123306,9.026525,14.917502941583214
1673608517.124313,9.063932,14.977726726008088
1673608517.1253202,9.065518,14.983396854879995
1673608517.126327,9.029795,14.989065641391846
1673608517.127334,9.053451,14.994735770263754
1673608517.1283412,9.085905,15.00040589913566
1673608517.129348,9.100065,15.006074685647512
1673608517.130356,9.101123,15.029460749225269
1673608517.1313632,9.112326,15.138553208544057
1673608517.13237,9.14204,15.246732908519492
1673608517.133377,9.174375,15.354938225283934
1673608517.1343842,9.17173,15.463143542048378
1673608517.135391,9.14055,15.571323242023814
1673608517.136398,9.09492,15.679528558788256
1673608517.1374052,9.071817,15.787733875552698
1673608517.138412,9.045469,15.895913575528134
1673608517.139419,8.999743,16.004118892292574
1673608517.1404262,8.984454,16.112324209057018
1673608517.141433,8.975463,16.220503909032452
1673608517.14244,8.959957,16.328709225796896
1673608517.143448,8.951303,16.437017009717366
1673608517.1444552,8.949932,16.545222326481806
1673608517.145462,8.985632,16.653402026457243
1673608517.146469,9.010466,16.761607343221687
1673608517.1474762,9.00597,16.869812659986128
1673608517.148483,9.024145,16.977992359961565
1673608517.14949,9.099801,17.086197676726005
1673608517.1504972,9.145766,17.19440299349045
1673608517.151504,9.157954,17.302582693465883
1673608517.1525111,9.136582,17.410788010230327
1673608517.1535182,9.105931,17.518993326994767
1673608517.154525,9.110282,17.627173026970205
1673608517.155533,9.111075,17.735480810890675
1673608517.1565402,9.129274,17.843686127655115
1673608517.157547,9.131775,17.951865827630552
1673608517.158554,9.103623,18.060071144394993
1673608517.1595612,9.073909,18.168276461159437
1673608517.160568,9.078645,18.27645616113487
1673608517.161575,9.106003,18.384661477899314
1673608517.1625822,9.079222,18.492866794663755
1673608517.163589,9.046478,18.601046494639192
1673608517.164596,9.017221,18.73206610300429
1673608517.1656032,9.050397,18.87329299570815
1673608517.16661,9.108456,19.005692343265792
1673608517.167617,9.133626,19.161811690987125
1673608517.168625,9.134972,19.307704909871244
1673608517.1696322,9.126149,19.429134857415356
1673608517.170639,9.113215,19.561362903694874
1673608517.171646,9.100113,19.71845621602289
1673608517.1726532,9.05547,19.87994648211731
1673608517.17366,8.999432,20.052311327581585
1673608517.1746671,8.968371,20.19349980214573
1673608517.1756742,8.940965,20.33468827670988
1673608517.176681,8.904279,20.475843325972285
1673608517.1776881,8.880599,20.617031800536434
1673608517.1786952,8.869613,20.758220275100584
1673608517.179702,8.88257,20.899375324362985
1673608517.18071,8.927742,21.040697500134108
1673608517.1817172,8.985079,21.165016428707677
1673608517.182724,9.095185,21.303617176680973
1673608517.183731,9.180024,21.4774711227652
1673608517.1847382,9.174686,21.629572962327135
1673608517.185745,9.1518,21.76722464806867
1673608517.186752,9.112062,21.892410201907033
1673608517.1877592,9.086891,22.05373847639485
1673608517.188766,9.087132,22.23304899141631
1673608517.189773,9.10396,22.354374642193086
1673608517.1907802,9.09016,22.412802813160987
1673608517.191787,9.087035,22.448713200352525
1673608517.192794,9.093815,22.48463209106933
1673608517.193802,9.096627,22.52058499588719
1673608517.1948092,9.074558,22.608099492846925
1673608517.195816,9.051263,22.756357822884386
1673608517.1968231,9.049965,22.96236290152599
1673608517.1978302,9.032439,23.146009558416786
1673608517.198837,9.019025,23.291710537544695
1673608517.1998441,9.034698,23.481019143299953
1673608517.2008512,9.029025,23.644552673342872
1673608517.201858,8.973059,23.790797169417502
1673608517.2028651,8.954283,23.948963687846113
1673608517.2038722,8.969741,24.107130206274725
1673608517.204879,8.989887,24.265259279978327
1673608517.205887,9.046503,24.423575577306963
1673608517.2068942,9.066144,24.581742095735574
1673608517.207901,9.024795,24.739871169439176
1673608517.208908,9.040829,24.898037687867788
1673608517.2099152,9.080256,25.056204206296396
1673608517.210922,9.073164,25.21433328
1673608517.211929,9.033233,25.37249979842861
1673608517.2129362,8.970895,25.53066631685722
1673608517.213943,8.935075,25.688795390560824
1673608517.21495,8.942263,25.846961908989435
1673608517.2159572,8.965005,26.005128427418043
1673608517.216964,8.938657,26.16325750112165
1673608517.217971,8.913703,26.321424019550257
1673608517.2189791,8.867809,26.479740316878896
1673608517.2199862,8.863026,26.637906835307504
1673608517.220993,8.889614,26.79603590901111
1673608517.2220001,8.90101,26.954202427439718
1673608517.2230072,8.933704,27.11236894586833
1673608517.224014,8.969693,27.27049801957193
1673608517.2250211,8.978444,27.428664538000543
1673608517.2260282,8.978588,27.58683105642915
1673608517.227035,8.926733,27.744960130132757
1673608517.2280421,8.936085,27.903126648561365
1673608517.2290492,9.054725,28.061293166989977
1673608517.230056,9.177019,28.21942224069358
1673608517.231064,9.281259,28.377738538022214
1673608517.2320712,9.279937,28.535905056450826
1673608517.233078,9.211661,28.69403413015443
1673608517.234085,9.168099,28.85220064858304
1673608517.2350922,9.130452,29.01036716701165
1673608517.236099,9.083453,29.168496240715253
1673608517.237106,9.06463,29.326662759143865
1673608517.2381132,9.073428,29.484829277572473
1673608517.23912,9.084247,29.64295835127608
1673608517.240127,9.095641,29.801124869704687
1673608517.2411342,9.107974,29.9592913881333
1673608517.242141,9.135308,30.1174204618369
1673608517.243148,9.123769,30.27558698026551
1673608517.2441561,9.088237,30.433903277594148
1673608517.2451632,9.084583,30.592069796022756
1673608517.24617,9.082973,30.738763055793992
1673608517.2471771,9.124202,30.88452011921793
1673608517.2481842,9.158291,31.013229261802575
1673608517.249191,9.163436,31.175040555423124
1673608517.2501981,9.1790870000000009,31.321718727706244
1673608517.2512052,9.173725,31.484906502622792
1673608517.252212,9.126269,31.613704782359953
1673608517.2532191,9.08802,31.776600098712446
1673608517.2542262,9.076313,31.904965237482116
1673608517.255233,9.064821,32.13584174163401
1673608517.256241,9.061144,32.36863473168179
1673608517.2572482,9.060542,32.60120748238231
1673608517.258255,9.055374,32.833725173246016
1673608517.259262,9.052176,33.066297923946536
1673608517.2602692,9.031213,33.298870674647056
1673608517.261276,9.021981,33.531388365510765
1673608517.262283,9.05232,33.763961116211284
1673608517.2632902,9.089223,33.996533866911804
1673608517.264297,9.091218,34.22905155777551
1673608517.265304,9.077611,34.46162430847603
1673608517.2663112,9.038113,34.69419705917655
1673608517.267318,9.003567,34.92671475004026
1673608517.268325,9.019289,35.15928750074078
1673608517.2693331,9.019457,35.39208049078856
1673608517.2703402,9.028424,35.62465324148908
1673608517.271347,9.06463,35.85717093235278
1673608517.2723541,9.114249,36.0897436830533
1673608517.2733612,9.134563,36.32231643375383
1673608517.274368,9.11562,36.55483412461753
1673608517.2753751,9.083886,36.78740687531805
1673608517.2763822,9.033978,37.019979626018575
1673608517.277389,8.988229,37.25249731688228
1673608517.2783961,8.993566,37.4850700675828
1673608517.279403,9.011403,37.717587758446506
1673608517.28041,9.021091,37.950160509147025
1673608517.281418,9.035973,38.1829534991948
1673608517.2824252,9.055253,38.41552624989532
1673608517.283432,9.037608,38.64804394075903
1673608517.284439,9.054749,38.88061669145955
1673608517.2854462,9.076577,39.11318944216007
1673608517.286453,9.072924,39.34570713302378
1673608517.28746,9.075279,39.5782798837243
1673608517.2884672,9.06309,39.81085263442482
1673608517.289474,9.04256,40.04337032528853
1673608517.290481,9.044556,40.27594307598905
1673608517.2914882,9.042752,40.50851582668957
1673608517.292495,9.0566,40.74103351755328
1673608517.293502,9.030516,40.973606268253796
1673608517.2945101,8.973996,41.20639925830157
1673608517.2955172,8.965678,41.43897200900209
1673608517.296524,9.062009,41.6714896998658
1673608517.2975311,9.10295,41.904062450566315
1673608517.2985382,9.081097,42.13663520126684
1673608517.299545,9.049268,42.34075053039332
1673608517.3005521,9.029795,42.50877878874583
1673608517.301559,9.054965,42.737982208869816
1673608517.302566,9.083717,42.90904585979972
1673608517.3035731,9.111052,43.07299295280095
1673608517.30458,9.147738,43.28701570791607
1673608517.305587,9.193078,43.43834175345732
1673608517.306595,9.177427,43.61814101907032
1673608517.3076022,9.163052,43.885822098712445
1673608517.308609,9.149012,44.01795413274482
1673608517.309616,9.135838,44.141988388871575
1673608517.3106232,9.126005,44.26602264499832
1673608517.31163,9.127687,44.39002753695459
1673608517.312637,9.137256,44.514061793081346
1673608517.3136442,9.144372,44.638096049208094
1673608517.314651,9.143435,44.76210094116436
1673608517.315658,9.134395,44.88613519729111
1673608517.3166652,9.103911,45.010169453417866
1673608517.317672,9.058138,45.134174345374134
1673608517.318679,9.024169,45.25820860150088
1673608517.3196871,8.984911,45.38236031430957
1673608517.3206942,8.965702,45.50639457043633
1673608517.321701,8.952,45.630399462392596
1673608517.3227081,8.98068,45.754433718519344
1673608517.323715,9.07766,45.87843861047561
1673608517.324722,9.121124,46.00247286660237
1673608517.3257291,9.098022,46.126507122729116
1673608517.326736,9.088814,46.250512014685384
1673608517.327743,9.047464,46.37454627081213
1673608517.3287501,8.965462,46.49858052693889
1673608517.329757,8.929065,46.622585418895156
1673608517.330764,8.949235,46.746619675021904
1673608517.331772,8.983541,46.870771387830594
1673608517.3327792,9.037608,46.99480564395735
1673608517.333786,9.095305,47.11881053591362
1673608517.334793,9.135645,47.242844792040366
1673608517.3358002,9.167571,47.36687904816712
1673608517.336807,9.161753,47.49088394012339
1673608517.337814,9.122711,47.61491819625014
1673608517.3388212,9.081097,47.73895245237689
1673608517.339828,9.054364,47.862957344333154
1673608517.340835,9.010562,47.98699160045991
1673608517.3418422,8.954716,48.111025856586664
1673608517.342849,8.940364,48.235030748542925
1673608517.343856,8.950846,48.35906500466968
1673608517.3448641,8.968106,48.48321671747837
1673608517.345871,8.973131,48.60722160943464
1673608517.346878,9.015491,48.73125586556139
1673608517.3478851,9.072394,48.85529012168814
1673608517.348892,9.108167,48.96912700286123
1673608517.349899,9.117903,49.02756135550787
1673608517.3509061,9.1205,49.11537976090584
1673608517.351913,9.116197,49.19872127825465
1673608517.35292,9.101748,49.310898717453505
1673608517.3539271,9.099152,49.38551391179976
1673608517.354934,9.143555,49.413457678111584
1673608517.355941,9.139876,49.499071718407244
1673608517.356949,9.069437,49.60846887699642
1673608517.3579562,8.96414,49.69302427900434
1673608517.358963,8.897451,49.769524796957704
1673608517.35997,8.896754,49.84604343011778
1673608517.3609772,8.951903,49.92256206327786
1673608517.361984,9.051767,49.99906258123122
1673608517.362991,9.158531,50.05832002336671
1673608517.3639982,9.183125,50.1129722443385
1673608517.365005,9.155382,50.64081239427127
1673608517.366012,9.133193,50.70245680033698
1673608517.3670192,9.12151,50.7080651053075
1673608517.368026,9.134972,50.8704870912665
1673608517.369033,9.148267,50.84121693147992
1673608517.3700411,9.148362,50.91756466554338
1673608517.371048,9.147281,50.58333719527897
1673608517.372055,9.1568,50.63305570488819
1673608517.3730621,9.160815,50.67878311911181
1673608517.374069,9.120764,50.72449970771653
1673608517.375076,9.075809,50.77022712194016
1673608517.3760831,9.05559,50.81595453616378
1673608517.37709,9.076866,50.861671124768506
1673608517.378097,9.108023,50.907398538992126
1673608517.3791041,9.094367,50.953125953215746
1673608517.380111,9.064149,50.99884254182047
1673608517.381118,9.068645,51.04456995604409
1673608517.382126,9.033449,51.09034067274331
1673608517.3831332,9.009457,51.13606808696693
1673608517.38414,9.005562,51.181784675571656
1673608517.385147,9.015731,51.227512089795276
1673608517.3861542,9.044243,51.273239504018896
1673608517.387161,9.082299,51.31895609262362
1673608517.388168,9.09444,51.36468350684724
1673608517.3891752,9.094151,51.41041092107087
1673608517.390182,9.096724,51.45612750967559
1673608517.391189,9.081097,51.50185492389922
1673608517.3921962,9.06487,51.54758233812284
1673608517.393203,9.068836,51.593298926727556
1673608517.39421,9.057898,51.63902634095118
1673608517.3952181,9.010442,51.68479705765039
1673608517.396225,8.992268,51.73051364625512
1673608517.397232,8.979718,51.77624106047874
1673608517.3982391,8.965318,51.82196847470236
1673608517.399246,8.9476,51.867685063307086
1673608517.400253,8.972121,51.913412477530706
1673608517.4012601,9.025732,51.95913989175433
1673608517.402267,9.05672,52.00485648035905
1673608517.403274,9.076866,52.05058389458268
1673608517.4042811,9.090497,52.0963113088063
1673608517.405288,9.087708,52.142027897411026
1673608517.406295,9.061865,52.187755311634646
1673608517.407303,9.019193,52.233526028333856
1673608517.4083102,9.011932,52.27925344255748
1673608517.409317,9.05922,52.307694614926085
1673608517.410324,9.117326,52.3096717022646
1673608517.4113312,9.136271,52.348797
1673608517.412338,9.098671,52.36469956843109
1673608517.413345,9.101483,52.403065
1673608517.4143522,9.08915,52.43084391082499
1673608517.415359,9.085809,52.50487867453505
1673608517.416366,9.0923,52.535502315375446
1673608517.4173732,9.0403,52.53591442584645
1673608517.41838,9.022342,52.52978656938484
1673608517.419387,9.052994,52.54730527610873
1673608517.4203951,9.047441,52.52427571752086
1673608517.421402,9.036935,52.5413263397711
1673608517.422409,9.039411,52.54286610443491
1673608517.4234161,9.048354,52.57930265601907
1673608517.424423,9.033233,52.59521876657129
1673608517.42543,9.071024,52.58471798068885
1673608517.4264371,9.049315,52.586697848447166
1673608517.427444,9.047632,52.588677247486785
1673608517.428451,9.074655,52.59065711524511
1673608517.4294581,9.078284,52.59263698300342
1673608517.430465,9.024915,52.59461638204304
1673608517.431472,9.000465,52.596596249801365
1673608517.43248,8.961856,52.59857799243445
1673608517.4334872,8.945508,52.600557860192765
1673608517.434494,8.980968,52.60253725923239
1673608517.435501,9.037848,52.60451712699071
1673608517.4365082,9.081242,52.60649699474902
1673608517.437515,9.156656,52.60847639378865
1673608517.438522,9.185914,52.610456261546965
1673608517.4395292,9.169999,52.61243612930528
1673608517.440536,9.124346,52.61441552834491
1673608517.441543,9.061769,52.61639539610322
1673608517.4425502,9.049268,52.61837526386154
1673608517.443557,9.037175,52.620354662901164
1673608517.444564,9.031357,52.62233453065948
1673608517.4455721,9.049099,52.62431627329257
1673608517.446579,9.072106,52.62629567233219
1673608517.447586,9.092661,52.62827554009051
1673608517.4485931,9.123938,52.63025540784883
1673608517.4496,9.127808,52.63223480688845
1673608517.450607,9.119514,52.63421467464677
1673608517.4516141,9.118913,52.636194542405086
1673608517.452621,9.127375,52.638173941444705
1673608517.453628,9.138049,52.64015380920303
1673608517.4546351,9.146271,52.64213367696134
1673608517.455642,9.132856,52.64411307600097
1673608517.456649,9.087443,52.646092943759285
1673608517.457657,9.054508,52.64807468639237
1673608517.4586642,9.040781,52.650054554150685
1673608517.459671,8.997315,52.65203395319031
1673608517.460678,8.926517,52.65401382094863
1673608517.4616852,8.896297,52.65599368870694
1673608517.462692,8.890455,52.65797308774657
1673608517.463699,8.921515,52.659952955504885
1673608517.4647062,8.974236,52.66193282326321
1673608517.465713,9.047441,52.66391222230283
1673608517.46672,9.114225,52.66589209006114
1673608517.4677272,9.096891,52.667871957819465
1673608517.468734,9.041695,52.669851356859084
1673608517.469741,9.030828,52.6718312246174
1673608517.4707491,9.075423,52.67381296725049
1673608517.471756,9.084414,52.67579236629012
1673608517.472763,9.14067,52.67777223404843
1673608517.4737701,9.137256,52.67975210180675
1673608517.474777,9.079005,52.681731500846375
1673608517.475784,9.053547,52.68371136860469
1673608517.4767911,9.058307,52.685691236363006
1673608517.477798,9.099632,52.68767063540263
1673608517.478805,9.124611,52.68965050316095
1673608517.4798121,9.118552,52.69163037091926
1673608517.480819,9.086169,52.71283679446829
1673608517.481826,9.041887,52.7183877107773
1673608517.482834,9.040781,52.74191752705602
1673608517.4838412,9.050686,52.79657162136385
1673608517.484848,9.063596,52.808445317596565
1673608517.485855,9.092059,52.801048
1673608517.4868622,9.107734,52.801048
1673608517.487869,9.107542,52.812120253218886
1673608517.4898832,9.139636,52.85298805518256
1673608517.49089,9.138266,52.84924437240873
1673608517.491897,9.125452,52.845499803136484
1673608517.4929042,9.107493,52.84175523386425
1673608517.493911,9.089487,52.83801155109042
1673608517.494918,9.062802,52.894839478540774
1673608517.4959261,9.041142,52.9130146704206
1673608517.496933,9.012798,52.917299857846096
1673608517.49794,9.008735,52.92158605999748
1673608517.4989471,8.997989,52.925872262148864
1673608517.499954,8.989334,52.93015744957435
1673608517.500961,8.983493,52.934443651725736
1673608517.5019681,8.985656,52.93872985387712
1673608517.502975,9.010009,52.943015041302615
1673608517.503982,9.020058,52.94730124345399
1673608517.5049891,8.996763,52.95158744560538
1673608517.505996,8.956711,52.95587263303087
1673608517.507003,8.920867,52.960158835182256
1673608517.508011,8.916804,52.96444909623719
1673608517.5090182,8.969934,52.96873529838857
1673608517.510025,9.02691,52.97302048581406
1673608517.511032,9.096243,52.977306687965445
1673608517.5120392,9.176514,52.98159289011683
1673608517.513046,9.22861,52.981945
1673608517.514053,9.195699,52.981945
1673608517.5150602,9.130404,52.93103206723891
1673608517.516067,9.064341,52.961864003575684
1673608517.517074,9.015467,52.981078073676684
1673608517.5180812,9.002869,52.96459353433477
1673608517.519088,8.980415,52.963856
1673608517.520095,8.94534,52.999059479380215
1673608517.5211031,8.943585,52.94679214020029
1673608517.52211,9.006235,52.91598126666204
1673608517.523117,9.062105,52.885617461251904
1673608517.5241241,9.117398,52.85525365584177
1673608517.525131,9.157786,52.824897038832546
1673608517.526138,9.198078,52.79453323342241
1673608517.5271451,9.175048,52.76416942801228
1673608517.528152,9.135934,52.733812811003055
1673608517.529159,9.101291,52.70344900559292
1673608517.5301661,9.020635,52.67308520018279
1673608517.531173,8.905962,52.64272858317356
1673608517.53218,8.842038,52.61236477776343
1673608517.533188,8.829345,52.58197221874969
1673608517.5341952,8.873098,52.55160841333956
1673608517.535202,8.989791,52.52125179633033
1673608517.536209,9.089944,52.4908879909202
1673608517.5372162,9.117903,52.46052418551007
1673608517.538223,9.111532,52.43016756850084
1673608517.53923,9.113913,52.39980376309071
1673608517.5402372,9.064533,52.36943995768058
1673608517.541244,8.998686,52.33908334067135
1673608517.542251,9.057249,52.30871953526122
1673608517.5432582,9.104488,52.278355729851086
1673608517.544265,9.0879,52.24799911284186
1673608517.545272,9.09391,52.20857972824791
1673608517.5462801,9.126846,52.12313178540772
1673608517.547287,9.087852,52.06550594754411
1673608517.548294,9.041839,52.01130895995232
1673608517.5493011,9.029698,52.01535230710539
1673608517.550308,9.018448,51.87299398426324
1673608517.551315,9.010682,51.769913
1673608517.5523221,9.041262,51.74819902384359
1673608517.553329,9.10182,51.6501361196948
1673608517.554336,9.115451,51.60716530473194
1673608517.5553432,9.102613,51.60750070694548
1673608517.55635,9.105691,51.607836029755084
1673608517.557357,9.160431,51.60817143196862
1673608517.558365,9.233177,51.608507151797895
1673608517.5593722,9.197093,51.60884255401143
1673608517.560379,9.075784,51.60917787682103
1673608517.561386,8.976593,51.609513279034566
1673608517.5623932,8.902355,51.6098486812481
1673608517.5634,8.866848,51.61018400405771
1673608517.564407,8.915505,51.610519406271244
1673608517.5654142,8.997484,51.61085480848478
1673608517.566421,9.060951,51.611190131294386
1673608517.567428,9.104609,51.61152553350792
1673608517.5684352,9.09581,51.61186093572146
1673608517.569442,9.117182,51.612196258531064
1673608517.57045,9.113215,51.61253197836033
1673608517.5714571,9.080496,51.61286738057387
1673608517.572464,9.067274,51.61320270338347
1673608517.573471,9.083646,51.61353810559701
1673608517.5744781,9.119393,51.613873507810546
1673608517.575485,9.16382,51.61420883062015
1673608517.576492,9.14192,51.61454423283369
1673608517.5774992,9.047441,51.61487963504722
1673608517.578506,9.003879,51.61521495785682
1673608517.579513,9.01864,51.61555036007036
1673608517.5805202,9.040156,51.615885762283895
1673608517.581527,9.052874,51.6162210850935
1673608517.582534,9.048041,51.61655648730704
1673608517.583542,9.031261,51.6168922071363
1673608517.5845492,9.016861,51.61722760934984
1673608517.585556,8.992748,51.617562932159444
1673608517.586563,8.987123,51.61789833437298
1673608517.5875702,9.049965,51.61823373658652
1673608517.588577,9.124659,51.61856905939612
1673608517.589584,9.186683,51.61890446160966
1673608517.5905912,9.190578,51.619239863823196
1673608517.591598,9.110451,51.6195751866328
1673608517.592605,9.042031,51.61991058884634
1673608517.5936122,9.023279,51.620245991059875
1673608517.594619,9.004504,51.62058131386947
1673608517.595627,8.989551,51.620917033698746
1673608517.5966341,9.026814,51.62125243591228
1673608517.597641,9.069774,51.62158775872189
1673608517.598648,9.046358,51.621923160935424
1673608517.5996552,9.062538,51.62225856314896
1673608517.600662,9.096795,51.62259388595856
1673608517.601669,9.132015,51.622929288172095
1673608517.6026762,9.114634,51.62326469038563
1673608517.603683,9.055999,51.62360001319524
1673608517.60469,9.023761,51.62393541540877
1673608517.6056972,9.010538,51.62427081762231
1673608517.606704,9.047994,51.624606140431915
1673608517.607711,9.060999,51.62494154264545
1673608517.608719,9.044436,51.63859926895565
1673608517.6097262,9.034338,51.6932524401526
1673608517.610733,9.052633,51.76678900286123
1673608517.61174,9.104585,51.884616628128725
1673608517.6127472,9.062899,51.955790553648065
1673608517.613754,9.009721,51.98931468621841
1673608517.614761,9.012365,52.05695763933254
1673608517.6157682,8.983781,52.09017535622318
1673608517.616775,8.903245,52.104854930138295
1673608517.617782,8.854803,52.17056906296254
1673608517.6187892,8.860068,52.17927051258113
1673608517.619796,8.960582,52.18796990219743
1673608517.620804,9.079174,52.19667959182512
1673608517.6218112,9.146511,52.2068094840248
1673608517.622818,9.171874,52.23645982884386
1673608517.623825,9.128144,52.315602806866956
1673608517.6248322,9.104512,52.35250778636147
1673608517.625839,9.122038,52.4638168603099
1673608517.626846,9.119226,52.49688319170243
1673608517.6278532,9.121581,52.52333074414021
1673608517.62886,9.192982,52.58444821142924
1673608517.629867,9.23539,52.645580151241894
1673608517.6308742,9.190554,52.706712091054555
1673608517.631881,9.158507,52.76782955834358
1673608517.632888,9.124851,52.82896149815623
1673608517.633896,9.075976,52.89015132806341
1673608517.6349032,8.949595,52.951283267876065
1673608517.63591,8.980536,53.012400735165095
1673608517.636917,9.052994,53.07353267497775
1673608517.6379242,9.100113,53.1346646147904
1673608517.638931,9.079342,53.19578208207943
1673608517.639938,8.98782,53.256914021892086
1673608517.6409452,8.954668,53.31804596170475
1673608517.641952,8.929353,53.37916342899377
1673608517.642959,8.954428,53.440295368806424
1673608517.6439662,9.011692,53.501427308619085
1673608517.644973,9.093935,53.56254477590811
1673608517.645981,9.184495,53.62373460581529
1673608517.6469882,9.227096,53.68486654562794
1673608517.647995,9.158099,53.74598401291697
1673608517.649002,9.148002,53.807115952729625
1673608517.6500092,9.164373,53.86824789254228
1673608517.651016,9.141799,53.92936535983131
1673608517.652023,9.122591,53.99049729964396
1673608517.6530302,9.0893910000000009,54.05162923945662
1673608517.654037,9.04595,54.11274670674565
1673608517.655044,9.014144,54.1738786465583
1673608517.6560512,9.009913,54.235010586370954
1673608517.657058,9.063476,54.296128053659984
1673608517.658065,9.111821,54.35725999347264
1673608517.659073,9.128938,54.41844982337982
1673608517.6600802,9.122327,54.47958176319247
1673608517.661087,9.034074,54.5406992304815
1673608517.662094,8.897739,54.601831170294155
1673608517.6631012,8.783956,54.66296311010681
1673608517.664108,8.740154,54.72408057739584
1673608517.665115,8.799823,54.78521251720849
1673608517.6661222,8.920026,54.84634445702115
1673608517.667129,9.045012,54.90746192431018
1673608517.6681361,9.121533,54.96859386412283
1673608517.6691432,9.20755,55.029725803935484
1673608517.67015,9.226663,55.090843271224514
1673608517.671158,9.196251,55.15203310113169
1673608517.6721652,9.19577,55.21316504094435
1673608517.673172,9.103094,55.28951537386743
1673608517.674179,9.010249,55.36183678850739
1673608517.6751862,8.884325,55.42601580162136
1673608517.676193,8.849226,55.508510383551844
1673608517.6772,8.915241,55.58982576037196
1673608517.6782072,9.016572,55.682499847639484
1673608517.679214,9.105546,55.79177959976162
1673608517.680221,9.071721,55.91123712517883
1673608517.6812282,8.880262,55.98738007391512
1673608517.682235,8.70806,56.0581927558527
1673608517.683242,8.604566,56.15484522381365
1673608517.68425,8.639135,56.251589218732896
1673608517.6852572,8.856439,56.34824168669385
1673608517.686264,9.100282,56.444871272915215
1673608517.687271,9.329364,56.541523740876166
1673608517.6882782,9.400428,56.638176208837116
1673608517.689285,9.411318,56.73480579505849
1673608517.6902921,9.284744,56.831458263019435
1673608517.6912992,9.193919,56.928110730980386
1673608517.692306,9.19202,57.02474031720176
1673608517.6933131,9.214113,57.121392785162705
1673608517.6943202,9.191323,57.218045253123655
1673608517.695327,9.191443,57.31467483934503
1673608517.696335,9.163676,57.411418834264275
1673608517.6973422,9.132183,57.508071302225225
1673608517.698349,9.107734,57.6047008884466
1673608517.699356,9.109153,57.701353356407544
1673608517.7003632,9.106483,57.798005824368495
1673608517.70137,9.098166,57.89463541058987
1673608517.702377,9.078453,57.991287878550814
1673608517.7033842,9.051287,58.087940346511765
1673608517.704391,9.049483,58.18456993273314
1673608517.705398,9.061889,58.28122240069409
1673608517.7064052,9.09391,58.377874868655034
1673608517.707412,9.147497,58.47450445487641
1673608517.708419,9.185674,58.57115692283736
1673608517.709427,9.20053,58.667900917756604
1673608517.7104342,9.190794,58.76455338571755
1673608517.711441,9.154781,58.86118297193892
1673608517.7124481,9.119514,58.957835439899874
1673608517.7134552,9.07713,59.054487907860825
1673608517.714462,9.031453,59.15111749408219
1673608517.7154691,9.004624,59.247769962043144
1673608517.7164762,9.010009,59.344422430004094
1673608517.717483,9.064581,59.44105201622547
1673608517.7184901,9.124562,59.53770448418641
1673608517.7194972,9.111532,59.634356952147364
1673608517.720504,9.029314,59.73098653836874
1673608517.721512,8.981882,59.82773053328798
1673608517.7225192,8.988373,59.92438300124893
1673608517.723526,9.015347,60.0210125874703
1673608517.724533,9.027198,60.11766505543125
1673608517.7255402,9.038569,60.214317523392204
1673608517.726547,9.060494,60.310803543156894
1673608517.727554,9.100498,60.40488932943981
1673608517.7285612,9.169759,60.58632447639485
1673608517.729568,9.169566,60.74430709966619
1673608517.730575,9.140886,60.789570672389125
1673608517.7315822,9.105282,60.98442920429082
1673608517.732589,9.108816,61.09493470314735
1673608517.733596,9.114946,61.223824978540776
1673608517.7346041,9.090184,61.36821547556615
1673608517.7356112,9.065134,61.49448173463404
1673608517.736618,9.068645,61.60816461124666
1673608517.7376251,9.068645,61.721874407792164
1673608517.7386322,9.069366,61.83558420433767
1673608517.739639,9.070928,61.949267080950285
1673608517.7406461,9.089416,62.06297687749579
1673608517.7416532,9.120187,62.1766866740413
1673608517.74266,9.10872,62.290369550653914
1673608517.7436671,9.05708,62.40407934719942
1673608517.7446742,9.033088,62.51778914374493
1673608517.745681,9.005586,62.63147202035754
1673608517.746689,8.998734,62.745289496634626
1673608517.7476962,8.986425,62.85899929318014
1673608517.748703,8.927983,62.97268216979275
1673608517.74971,8.911587,63.08639196633826
1673608517.7507172,8.935435,63.20010176288377
1673608517.751724,8.943129,63.31378463949638
1673608517.752731,9.011572,63.42749443604189
1673608517.7537382,9.090328,63.5412042325874
1673608517.754745,9.122831,63.65488710920001
1673608517.755752,9.0002,63.76859690574552
1673608517.7567592,8.891562,63.882306702291025
1673608517.757766,8.908125,63.99598957890364
1673608517.758773,8.958995,64.10969937544915
1673608517.7597811,9.039411,64.22351685172623
1673608517.7607882,9.107999,64.33722664827174
1673608517.761795,9.20481,64.45090952488435
1673608517.7628021,9.239236,64.56461932142986
1673608517.7638092,9.156945,64.67832911797537
1673608517.764816,9.07487,64.79201199458798
1673608517.7658231,9.062754,64.90572179113349
1673608517.7668302,9.095426,65.01943158767901
1673608517.767837,9.103478,65.13311446429162
1673608517.7688441,9.079125,65.24682426083713
1673608517.7698512,9.092781,65.36053405738264
1673608517.770858,9.165407,65.47421693399525
1673608517.771866,9.18375,65.58803441027233
1673608517.7728732,9.148026,65.70174420681784
1673608517.77388,9.122567,65.81542708343045
1673608517.774887,9.120187,65.92913687997596
1673608517.7758942,9.121846,66.04284667652146
1673608517.776901,9.100162,66.15652955313408
1673608517.777908,9.101964,66.27023934967958
1673608517.7789152,9.134515,66.38394914622509
1673608517.779922,9.173942,66.4976320228377
1673608517.780929,9.130981,66.61134181938323
1673608517.7819362,9.031693,66.72505161592873
1673608517.782943,8.901538,66.83873449254135
1673608517.78395,8.751574,66.95244428908686
1673608517.7849581,8.594877,67.06626176536393
1673608517.7859652,8.658993,67.17997156190944
1673608517.786972,8.918583,67.29365443852205
1673608517.7879791,9.037127,67.40736423506756
1673608517.7889862,8.981112,67.52107403161307
1673608517.789993,8.954764,67.63475690822568
1673608517.7910001,8.915891,67.7484667047712
1673608517.7920072,8.959188,67.8621765013167
1673608517.793014,9.086169,67.97585937792931
1673608517.7940211,9.28299,68.08956917447483
1673608517.795028,9.350856,68.17356160014306
1673608517.796035,9.32208,68.13403799985932
1673608517.797043,9.280394,67.97621824390359
1673608517.7980502,9.246568,67.8185477970831
1673608517.799057,9.126053,67.66091467754643
1673608517.800064,9.158291,67.50324423072594
1673608517.8010712,9.159685,67.42482363519314
1673608517.802078,9.113913,67.4976801625745
1673608517.803085,9.084991,67.58357910061993
1673608517.8040922,9.063908,67.6729647334287
1673608517.805099,9.000777,67.72083717568533
1673608517.806106,8.951663,67.7848445379113
1673608517.8071132,8.986089,67.8801230758226
1673608517.80812,9.05095,67.95297358379023
1673608517.809127,9.103118,68.03311598283261
1673608517.8101351,9.118985,68.13100028480768
1673608517.8111422,9.120667,68.23853616563773
1673608517.812149,9.110931,68.34604658816266
1673608517.8131561,9.130572,68.4535824689927
1673608517.8141632,9.178846,68.56111834982275
1673608517.81517,9.192621,68.66862877234767
1673608517.8161771,9.180697,68.77616465317773
1673608517.817184,9.138506,68.88367507570266
1673608517.818191,9.041983,68.9912109565327
1673608517.8191981,9.019457,69.09874683736275
1673608517.820205,8.969333,69.20625725988768
1673608517.821212,8.953562,69.31379314071772
1673608517.82222,9.037992,69.42143085476826
1673608517.8232272,9.091915,69.5289667355983
1673608517.824234,9.090714,69.63647715812323
1673608517.825241,9.050469,69.74401303895328
1673608517.8262482,9.034531,69.85154891978333
1673608517.827255,8.990104,69.95905934230825
1673608517.828262,8.96825,70.0665952231383
1673608517.8292692,8.931877,70.17413110396835
1673608517.830276,8.997244,70.28164152649327
1673608517.831283,9.200963,70.38917740732332
1673608517.8322902,9.284648,70.49671328815337
1673608517.833297,9.230268,70.6042237106783
1673608517.834304,9.163436,70.71175959150834
1673608517.8353121,9.126846,70.81939730555888
1673608517.8363192,9.077707,70.92693318638892
1673608517.837326,9.072322,71.03444360891385
1673608517.8383331,9.097998,71.1419794897439
1673608517.83934,9.102565,71.24948991226883
1673608517.840347,9.062322,71.35702579309887
1673608517.8413541,9.052921,71.46456167392891
1673608517.842361,9.068115,71.57207209645385
1673608517.843368,9.031141,71.6796079772839
1673608517.8443751,8.983084,71.78714385811394
1673608517.845382,8.963611,71.89465428063886
1673608517.846389,8.941278,72.00350177067938
1673608517.847397,8.972458,72.11291491130186
1673608517.8484042,9.048282,72.18080813876968
1673608517.849411,9.184495,72.29116527175208
1673608517.850418,9.193439,72.58145032961261
1673608517.8514252,9.15793,72.6547218002628
1673608517.852432,9.08742,72.52899063480334
1673608517.853439,9.018255,72.58433766571292
1673608517.8544462,9.020274,72.72273343919885
1673608517.855453,9.029314,72.81618588975
1673608517.85646,9.071914,72.89275102372066
1673608517.8574672,9.126077,72.96931615769132
1673608517.858474,9.172043,73.04586316544655
1673608517.859481,9.18827,73.12242829941721
1673608517.8604891,9.13413,73.19906593824957
1673608517.861496,9.098575,73.2756129460048
1673608517.862503,9.085328,73.35217807997546
1673608517.8635101,9.086314,73.42874321394612
1673608517.864517,9.104417,73.50529022170134
1673608517.865524,9.100065,73.581855355672
1673608517.8665311,9.047585,73.65842048964265
1673608517.867538,8.992099,73.73496749739788
1673608517.868545,8.96212,73.81153263136854
1673608517.8695521,8.913583,73.8880977653392
1673608517.870559,8.884951,73.96464477309442
1673608517.871566,8.994767,74.04120990706508
1673608517.872574,9.004432,74.11784754589745
1673608517.8735812,9.013856,74.19441267986811
1673608517.874588,8.96325,74.27095968762333
1673608517.875595,8.948345,74.34752482159399
1673608517.8766022,9.038305,74.42408995556464
1673608517.877609,9.222648,74.50063696331986
1673608517.878616,9.303713,74.57720209729052
1673608517.8796232,9.277629,74.65376723126118
1673608517.88063,9.211108,74.73031423901641
1673608517.881637,9.132376,74.80687937298707
1673608517.8826442,9.056215,74.88344450695772
1673608517.883651,9.037151,74.95999151471295
1673608517.884658,9.014072,75.0365566486836
1673608517.8856661,9.019794,75.11319428751598
1673608517.886673,8.986955,75.1897412952712
1673608517.88768,8.950557,75.26630642924185
1673608517.8886871,9.017342,75.34287156321251
1673608517.889694,9.101195,75.41941857096774
1673608517.890701,9.157666,75.4959837049384
1673608517.8917081,9.127375,75.57254883890906
1673608517.892715,9.008855,75.64909584666428
1673608517.893722,8.978348,75.72566098063494
1673608517.8947291,8.949115,75.80222611460559
1673608517.895736,8.941254,75.87877312236083
1673608517.896743,8.947335,75.95533825633147
1673608517.897751,8.979285,76.03197589516384
1673608517.8987582,8.976665,76.1085410291345
1673608517.899765,8.998037,76.18508803688972
1673608517.900772,9.062778,76.26165317086038
1673608517.9017792,9.134587,76.34544832904149
1673608517.902786,9.145286,76.4181389876043
1673608517.903793,9.129274,76.47279618454935
1673608517.9048002,9.128865,76.50856061516453
1673608517.905807,9.099248,76.55548730543634
1673608517.906814,9.03405,76.589561
1673608517.9078212,8.985079,76.61903703814974
1673608517.908828,9.053835,76.643829
1673608517.909835,9.091242,76.68414740309892
1673608517.9108431,9.152738,76.7396085663387
1673608517.91185,9.256833,76.78131570965023
1673608517.912857,9.238395,76.8230327291501
1673608517.9138641,9.196444,76.86474974864996
1673608517.914871,9.151632,76.9064568919615
1673608517.915878,9.087732,76.94817391146135
1673608517.9168851,9.038569,76.98989093096122
1673608517.917892,9.075063,77.03159807427275
1673608517.918899,9.144396,77.07331509377262
1673608517.9199061,9.103888,77.11503211327248
1673608517.920913,9.044916,77.15673925658402
1673608517.9239352,8.961832,77.28192981983692
1673608517.924942,8.937335,77.32363696314846
1673608517.925949,8.971641,77.36535398264832
1673608517.9269562,9.102133,77.40707100214819
1673608517.927963,9.150526,77.44877814545973
1673608517.92897,9.186106,77.49049516495958
1673608517.9299772,9.255391,77.53221218445945
1673608517.930984,9.29828,77.57391932777098
1673608517.931991,9.264767,77.61563634727085
1673608517.9329982,9.18125,77.6573533667707
1673608517.934005,9.084294,77.69906051008225
1673608517.935012,9.054148,77.7407775295821
1673608517.9360201,9.054292,77.78253405383529
1673608517.937027,9.03881,77.82424119714682
1673608517.938034,9.047705,77.86595821664669
1673608517.9390411,9.083453,77.90767523614655
1673608517.940048,9.097901,77.94938237945809
1673608517.941055,9.099921,77.99109939895794
1673608517.9420621,9.116461,78.03281641845781
1673608517.943069,9.110018,78.07452356176934
1673608517.944076,9.103238,78.11624058126921
1673608517.9450831,9.125259,78.15795760076907
1673608517.94609,9.15144,78.19966474408061
1673608517.947097,9.144853,78.24138176358048
1673608517.948105,9.11622,78.28313828783365
1673608517.9491122,9.116437,78.32485530733351
1673608517.950119,9.12211,78.36656245064505
1673608517.951126,9.116894,78.42904228605482
1673608517.9521332,9.137424,78.4651170386266
1673608517.95314,9.169927,78.54528452646639
1673608517.954147,9.179447,78.6045096628517
1673608517.9551542,9.137352,78.7294834557807
1673608517.956161,9.101556,78.84232135836909
1673608517.957168,9.057922,78.88181238125894
1673608517.9581752,9.007004,78.97819991299166
1673608517.959182,8.996547,79.05309334430139
1673608517.960189,8.99883,79.13762916245454
1673608517.9611971,9.024482,79.23336701463313
1673608517.962204,9.061384,79.32899164797044
1673608517.963211,9.09516,79.424638925076
1673608517.9642181,9.053884,79.52028620218155
1673608517.965225,9.079198,79.61591083551886
1673608517.966232,9.150526,79.71155811262443
1673608517.9672391,9.154902,79.80720538972999
1673608517.968246,9.129611,79.88492816114422
1673608517.969253,9.101243,79.92892746375774
1673608517.9702601,9.04393,80.023626154268
1673608517.971267,9.012606,80.1035300102503
1673608517.972274,8.992171,80.22085131688127
1673608517.973282,8.973395,80.2736852639485
1673608517.9742892,8.97092,80.41574340667461
1673608517.975296,8.918054,80.47318136957558
1673608517.976303,8.827998,80.5249605784454
1673608517.9773102,8.773979,80.533203
1673608517.978317,8.831869,80.533203
1673608517.979324,8.866535,80.533203
1673608517.9803312,8.874012,80.533203
1673608517.981338,8.985969,80.533203
1673608517.982345,9.098334,80.5474674193087
1673608517.9833522,9.214643,80.62402339341917
1673608517.984359,9.142617,80.71510774034334
1673608517.985366,9.107974,80.79830554469606
1673608517.9863741,9.155502,80.84891379971388
1673608517.987381,9.190241,80.90220215474487
1673608517.988388,9.216108,80.98980925774917
1673608517.9893951,9.194569,81.01249841430274
1673608517.990402,9.150118,81.0489208311874
1673608517.991409,9.095137,81.08142186500986
1673608517.9924161,9.028424,81.10267635797935
1673608517.993423,8.973539,81.12392581910866
1673608517.99443,8.992772,81.14518031207815
1673608517.9954371,9.130741,81.16643480504766
1673608517.996444,9.233394,81.18768426617697
1673608517.997451,9.227937,81.20893875914646
1673608517.998459,9.168004,81.23021337947674
1673608517.9994662,9.162018,81.25146787244623
1673608518.000473,9.124851,81.27271733357554
1673608518.00148,9.003446,81.29397182654503
1673608518.0024872,8.862063,81.31522631951454
1673608518.003494,8.811026,81.33647578064385
1673608518.004501,8.869204,81.35773027361334
1673608518.0055082,8.943537,81.37898476658285
1673608518.006515,9.042392,81.40023422771215
1673608518.007522,9.17137,81.42148872068165
1673608518.0085292,9.241327,81.44274321365116
1673608518.009536,9.221974,81.46399267478046
1673608518.010543,9.181346,81.48524716774996
1673608518.0115511,9.159493,81.50652178808022
1673608518.012558,9.127496,81.52777124920954
1673608518.013565,9.106676,81.54902574217903
1673608518.0145721,9.092612,81.57028023514853
1673608518.015579,9.090425,81.59152969627785
1673608518.016586,9.13026,81.61278418924734
1673608518.0175931,9.158628,81.63403868221684
1673608518.0186,9.20041,81.65528814334614
1673608518.019607,9.236302,81.67654263631565
1673608518.0206141,9.181659,81.69779712928515
1673608518.021621,9.128745,81.71904659041445
1673608518.022628,9.106845,81.74030108338395
1673608518.023636,9.133337,81.76157570371421
1673608518.0246432,9.142953,81.78283019668372
1673608518.02565,9.111052,81.80407965781303
1673608518.026657,9.097949,81.82533415078252
1673608518.0276642,9.10081,81.84658864375203
1673608518.028671,9.124923,81.86783810488133
1673608518.029678,9.163989,81.88909259785083
1673608518.0306852,9.173268,81.91034709082034
1673608518.031692,9.117855,81.93159655194964
1673608518.032699,9.103263,81.95285104491914
1673608518.0337062,9.132567,82.00272248354793
1673608518.034713,9.116653,82.04492053218885
1673608518.03572,9.060855,82.06313689153754
1673608518.0367281,9.036334,82.08137069027181
1673608518.037735,9.039988,82.11019942918455
1673608518.038742,9.040541,82.125137
1673608518.0397491,9.044916,82.13601084120171
1673608518.040756,9.049652,82.16522363805436
1673608518.041763,9.000922,82.22390584862931
1673608518.0427701,8.987627,82.25957137842745
1673608518.043777,9.017173,82.27221185565978
1673608518.044784,9.074991,82.28485532613796
1673608518.0457911,9.116918,82.29749879661614
1673608518.046798,9.110331,82.31013927384846
1673608518.047805,9.117038,82.32278274432664
1673608518.048813,9.107566,82.33543818778823
1673608518.0498202,9.119202,82.34808165826641
1673608518.050827,9.152064,82.36072213549873
1673608518.051834,9.189447,82.37336560597691
1673608518.0528412,9.12598,82.3860090764551
1673608518.053848,9.069149,82.39864955368742
1673608518.054855,9.020299,82.41129302416559
1673608518.0558622,8.897956,82.42393649464377
1673608518.056869,8.808188,82.4365769718761
1673608518.057876,8.848409,82.44922044235427
1673608518.0588832,8.970487,82.46186391283246
1673608518.05989,9.155166,82.47450439006478
1673608518.060897,9.256738,82.48714786054296
1673608518.0619051,9.128361,82.49980330400454
1673608518.062912,8.99883,82.51244378123687
1673608518.063919,8.994455,82.52508725171505
1673608518.0649261,9.032656,82.53773072219323
1673608518.065933,9.109224,82.55037119942556
1673608518.06694,9.180865,82.56301466990374
1673608518.0679471,9.163676,82.57565814038192
1673608518.068954,9.008327,82.58829861761424
1673608518.069961,8.96991,82.60094208809242
1673608518.0709682,8.903317,82.61358555857059
1673608518.071975,8.915025,82.62622603580293
1673608518.072982,9.093358,82.6388695062811
1673608518.07399,9.217912,82.6515249497427
1673608518.0749972,9.275849,82.66416842022086
1673608518.076004,9.294649,82.6768088974532
1673608518.077011,9.269479,82.68945236793137
1673608518.0780182,9.163676,82.70209583840955
1673608518.079025,9.082756,82.71473631564187
1673608518.080032,9.034387,82.72737978612005
1673608518.0810392,9.011452,82.74002325659823
1673608518.082046,8.988373,82.75266373383056
1673608518.083053,9.023832,82.76530720430874
1673608518.0840602,9.071505,82.77795067478692
1673608518.085067,9.087492,82.79059115201925
1673608518.086075,9.077635,82.80324659548083
1673608518.0870821,9.102493,82.81589006595901
1673608518.088089,9.097589,82.82853054319133
1673608518.089096,9.056263,82.84117401366952
1673608518.0901031,9.095233,82.85381748414768
1673608518.09111,9.234236,82.86645796138002
1673608518.092117,9.253371,82.87910143185819
1673608518.0931242,9.134924,82.89174490233637
1673608518.094131,9.024073,82.9043853795687
1673608518.095138,8.989863,82.91702885004688
1673608518.0961452,8.999528,82.92967232052506
1673608518.097152,8.956375,82.94231279775738
1673608518.098159,8.970703,82.95495626823556
1673608518.099167,9.035204,82.92754727277062
1673608518.1001742,9.049436,82.87610863710061
1673608518.101181,9.016428,82.866844
1673608518.102188,9.012582,82.866844
1673608518.1031952,9.055158,82.866844
1673608518.104202,9.088262,82.8358267342074
1673608518.105209,9.108167,82.84628141630903
1673608518.1062162,9.18476,82.80145929613734
1673608518.107223,9.258949,82.76270864910607
1673608518.10823,9.262795,82.77012536048889
1673608518.1092372,9.239476,82.78358977070039
1673608518.110244,9.207574,82.79705099331478
1673608518.111252,9.172067,82.81052815391475
1673608518.1122591,9.176899,82.82399256412624
1673608518.113266,9.198247,82.83745378674064
1673608518.114273,9.152401,82.85091819695214
1673608518.1152802,9.085472,82.86438260716363
1673608518.116287,8.985368,82.87784382977803
1673608518.117294,8.968226,82.89130823998953
1673608518.1183012,9.065471,82.90477265020102
1673608518.119308,9.136342,82.91823387281542
1673608518.120315,9.162282,82.93169828302692
1673608518.1213222,9.152161,82.94516269323843
1673608518.122329,9.165287,82.95862391585281
1673608518.123336,9.144468,82.97208832606431
1673608518.124344,9.072731,82.98556548666427
1673608518.1253512,9.053643,82.99902989687578
1673608518.126358,9.064149,83.01249111949016
1673608518.127365,9.085015,83.02595552970168
1673608518.1283722,9.065735,83.03941993991317
1673608518.129379,9.01626,83.05288116252756
1673608518.130386,8.98128,83.06634557273907
1673608518.1313932,9.015658,83.07980998295056
1673608518.1324,9.087756,83.09327120556496
1673608518.133407,9.097468,83.10673561577646
1673608518.1344142,9.078308,83.12020002598796
1673608518.135421,9.016524,83.13366124860235
1673608518.136429,9.094632,83.14713840920231
1673608518.1374362,9.042272,83.16060281941381
1673608518.138443,8.948778,83.17406404202819
1673608518.13945,8.975199,83.1875284522397
1673608518.1404572,8.987867,83.2009928624512
1673608518.141464,9.012076,83.2144540850656
1673608518.142471,9.084463,83.2279184952771
1673608518.1434782,9.134467,83.24138290548859
1673608518.144485,9.132303,83.25484412810299
1673608518.145492,9.161345,83.26830853831449
1673608518.1464992,9.188967,83.28177294852598
1673608518.147506,9.208512,83.29523417114038
1673608518.148513,9.206108,83.30869858135188
1673608518.149521,9.104128,83.32217574195184
1673608518.1505282,8.981689,83.33564015216335
1673608518.151535,8.954548,83.34910137477773
1673608518.152542,9.00311,83.40466613492252
1673608518.1535492,9.067538,83.61065551689809
1673608518.154556,9.03679,83.56122214383024
1673608518.155563,9.080159,83.64656881529997
1673608518.1565702,9.043426,83.6188908134172
1673608518.157577,8.913607,83.62202512575321
1673608518.158584,8.854322,83.68066745140162
1673608518.1595912,8.809752,83.73663713207547
1673608518.160598,8.90202,83.75825172622478
1673608518.161606,9.053811,83.7300171165837
1673608518.1626132,9.200891,83.8213283843924
1673608518.16362,9.293111,83.84098026210285
1673608518.164627,9.225989,83.86063679334814
1673608518.1656342,9.158099,83.88029332459344
1673608518.166641,9.129034,83.89994520230387
1673608518.167648,9.145766,83.91960173354916
1673608518.1686552,9.214113,83.93925826479446
1673608518.169662,9.174014,83.95891014250489
1673608518.170669,9.088333,83.97856667375018
1673608518.1716762,9.046431,83.99822320499548
1673608518.172683,9.00835,84.01787508270591
1673608518.17369,8.999191,84.03753161395122
1673608518.174698,9.012533,84.05720675933594
1673608518.1757052,9.089319,84.07686329058124
1673608518.176712,9.117038,84.09651516829167
1673608518.177719,9.093839,84.11617169953696
1673608518.1787262,9.06285,84.13582823078227
1673608518.179733,9.021044,84.1554801084927
1673608518.18074,9.005369,84.17513663973799
1673608518.1817472,9.073765,84.19479317098329
1673608518.182754,9.08278,84.21444504869372
1673608518.1837611,9.103551,84.23410157993902
1673608518.1847682,9.173172,84.25375811118431
1673608518.185775,9.191227,84.27340998889474
1673608518.186783,9.170793,84.29308513427948
1673608518.1877902,9.096339,84.31274166552477
1673608518.188797,9.00585,84.33239354323521
1673608518.189804,8.95926,84.3520500744805
1673608518.1908112,8.964861,84.3717066057258
1673608518.191818,9.055518,84.39135848343624
1673608518.192825,9.184063,84.41101501468152
1673608518.1938322,9.25806,84.43067154592683
1673608518.194839,9.318017,84.45032342363726
1673608518.195846,9.249765,84.46997995488255
1673608518.1968532,9.186755,84.48963648612785
1673608518.19786,9.160768,84.50928836383828
1673608518.198867,9.161128,84.52894489508358
1673608518.199875,9.156103,84.54862004046831
1673608518.2008822,9.114657,84.58454038674297
1673608518.201889,9.077948,84.65653605531712
1673608518.202896,9.133121,84.71149056127801
1673608518.2039032,9.174398,84.76613376376639
1673608518.20491,9.128217,84.7485656795422
1673608518.2059171,9.090593,84.83906634278904
1673608518.2069242,9.025804,84.8764789833095
1673608518.207931,9.012774,84.96483312804007
1673608518.2089381,8.997725,84.94836128247914
1673608518.2099452,8.953201,84.98620541058656
1673608518.210952,9.005249,85.0540681103958
1673608518.21196,9.061745,85.02640838245112
1673608518.2129672,9.096964,85.14730225506555
1673608518.213974,9.150262,85.16533915881624
1673608518.214981,9.173485,85.18097772316649
1673608518.2159882,9.160935,85.19661628751675
1673608518.216995,9.142592,85.21225114955537
1673608518.218002,9.157377,85.22788971390563
1673608518.2190092,9.157954,85.24352827825588
1673608518.220016,9.091915,85.2591631402945
1673608518.221023,9.078909,85.27480170464476
1673608518.2220302,9.038593,85.29044026899501
1673608518.223037,8.946085,85.30607513103364
1673608518.224044,8.915962,85.32171369538389
1673608518.225052,8.901875,85.33736706898068
1673608518.2260592,8.87394,85.35300563333094
1673608518.227066,8.859468,85.36864049536956
1673608518.2280731,8.829777,85.38427905971982
1673608518.2290802,8.876657,85.39991762407007
1673608518.230087,8.979358,85.4155524861087
1673608518.2310941,9.024193,85.43119105045895
1673608518.2321012,9.056768,85.4468296148092
1673608518.233108,9.123264,85.46246447684781
1673608518.2341151,9.200242,85.47810304119807
1673608518.2351222,9.221686,85.49374160554834
1673608518.236129,9.197694,85.50937646758695
1673608518.237137,9.242505,85.52502984118375
1673608518.2381442,9.237361,85.526085
1673608518.239151,9.204377,85.50896982420201
1673608518.240158,9.164734,85.52523552848629
1673608518.2411652,9.077876,85.56081571459228
1673608518.242172,9.043185,85.61473835765379
1673608518.243179,9.015971,85.65176197568535
1673608518.2441862,9.075399,85.67046596638055
1673608518.245193,9.044026,85.70655369337149
1673608518.2462,8.990777,85.706985
1673608518.2472072,8.981136,85.73470954487189
1673608518.248214,9.043666,85.76256601715215
1673608518.249221,9.08992,85.79042908580284
1673608518.2502291,9.113095,85.8183185399352
1673608518.2512362,9.167066,85.8461816085859
1673608518.252243,9.287269,85.87403808086617
1673608518.2532501,9.301356,85.90190114951685
1673608518.2542572,9.131967,85.92976421816753
1673608518.255264,9.045901,85.95762069044781
1673608518.2562711,9.01376,85.9854837590985
1673608518.2572782,9.052368,86.01334682774919
1673608518.258285,9.121269,86.04120330002945
1673608518.2592921,9.182019,86.06906636868014
1673608518.2602992,9.178124,86.09692943733083
1673608518.261306,9.103118,86.12478590961109
1673608518.262314,9.021357,86.15267536374346
1673608518.2633212,9.027102,86.18053843239414
1673608518.264328,9.086289,86.20839490467442
1673608518.265335,9.177019,86.23625797332511
1673608518.2663422,9.192838,86.2641210419758
1673608518.267349,9.124538,86.29197751425606
1673608518.268356,9.070591,86.31984058290675
1673608518.2693632,9.06297,86.34770365155744
1673608518.27037,9.081217,86.3755601238377
1673608518.271377,9.098815,86.40342319248839
1673608518.2723842,9.107109,86.43128626113908
1673608518.273391,9.093213,86.45914273341936
1673608518.274398,9.08415,86.48700580207004
1673608518.2754061,9.060302,86.51489525620241
1673608518.2764132,9.070856,86.5427583248531
1673608518.27742,9.111941,86.57061479713336
1673608518.2784271,9.112206,86.59847786578405
1673608518.2794342,9.083717,86.62634093443474
1673608518.280441,9.039771,86.66047704291846
1673608518.2814481,9.029001,86.70633327890346
1673608518.2824552,9.030852,86.75622375441107
1673608518.283462,9.054893,86.864754
1673608518.2844691,9.07725,86.87912894425918
1673608518.2854762,9.114273,86.9288361988081
1673608518.286483,9.0923,86.9501709647115
1673608518.287491,9.034819,86.96298968383405
1673608518.2884982,9.066961,87.04347340524434
1673608518.289505,9.061144,87.09905915172445
1673608518.290512,8.993422,87.15687272317442
1673608518.2915192,8.906635,87.2146862946244
1673608518.292526,8.9369980000000009,87.27248617914931
1673608518.293533,8.906996,87.33029975059928
1673608518.2945402,8.944787,87.38811332204926
1673608518.295547,9.012245,87.44591320657418
1673608518.296554,8.988349,87.503726778024145
1673608518.2975612,8.900889,87.56154034947413
1673608518.298568,8.939017,87.61934023399904
1673608518.299575,9.030155,87.67715380544901
1673608518.3005831,9.033881,87.73502212459923
1673608518.3015902,9.207213,87.7928356960492
1673608518.302597,9.345783,87.85063558057412
1673608518.3036041,9.377132,87.90844915202409
1673608518.3046112,9.300275,87.96626272347406
1673608518.305618,9.222888,88.02406260799899
1673608518.3066251,9.195217,88.08187617944895
1673608518.3076322,9.174879,88.13968975089892
1673608518.308639,9.171225,88.19748963542385
1673608518.3096461,9.172644,88.25530320687382
1673608518.310653,9.181322,88.31310309139873
1673608518.31166,9.18375,88.37091666284871
1673608518.312668,9.170143,88.42878498199892
1673608518.3136752,9.108696,88.4865985534489
1673608518.314682,9.10081,88.54439843797381
1673608518.315689,9.09956,88.60221200942378
1673608518.3166962,9.085304,88.66002558087376
1673608518.317703,9.068259,88.71782546539868
1673608518.31871,9.001163,88.775639036848645
1673608518.3197172,8.990104,88.83345260829863
1673608518.320724,9.063812,88.89125249282354
1673608518.321731,9.162475,88.9595203404864
1673608518.3227382,9.247458,89.00685490462565
1673608518.323745,9.201203,89.03038430607867
1673608518.324752,9.052056,89.035576
1673608518.3257601,8.951951,89.06192020886982
1673608518.3267672,8.936686,89.13824121716328
1673608518.327774,8.992532,89.14877073772055
1673608518.3287811,9.110571,89.21186302050548
1673608518.3297882,9.210988,89.24822854112038
1673608518.330795,9.21469,89.2802452214341
1673608518.3318021,9.13978,89.31668411372712
1673608518.332809,9.030684,89.35311437938844
1673608518.333816,8.962025,89.38955327168146
1673608518.3348231,8.935965,89.42599129899857
1673608518.33583,8.943585,89.46242046375775
1673608518.336837,9.030972,89.52797481620978
1673608518.337845,9.136342,89.51266807486886
1673608518.3388522,9.167307,89.59494063185504
1673608518.339859,9.127687,89.614456
1673608518.340866,9.038497,89.62954310586552
1673608518.3418732,8.966472,89.61732850214592
1673608518.34288,9.014144,89.6604815784454
1673608518.343887,9.095521,89.66573527392906
1673608518.3448942,9.116508,89.66221579276831
1673608518.345901,9.115234,89.65869714481805
1673608518.346908,9.063355,89.6551776636573
1673608518.3479152,9.047441,89.65165818249653
1673608518.348922,9.089631,89.68937937663885
1673608518.349929,9.144132,89.7440318583691
1673608518.3509371,9.166104,89.77236035670005
1673608518.3519442,9.175096,89.85718500906057
1673608518.352951,9.127231,89.885811
1673608518.3539581,9.077154,89.92651846971864
1673608518.354965,9.06951,89.96746167167382
1673608518.355972,9.009768,90.05917125744934
1673608518.3569791,9.012509,90.05688808726752
1673608518.357986,9.055614,90.07675407057701
1673608518.358993,9.158267,90.1021056549338
1673608518.3600001,9.179302,90.12432322142038
1673608518.361007,9.062129,90.14653552806642
1673608518.362014,9.009937,90.16875309455303
1673608518.363022,9.000225,90.19099170040182
1673608518.3640292,8.966905,90.21320926688841
1673608518.365036,8.951783,90.23542157353445
1673608518.366043,8.991931,90.25763914002106
1673608518.3670502,9.024313,90.27985670650764
1673608518.368057,9.078814,90.30206901315368
1673608518.369064,9.126702,90.32428657964027
1673608518.3700712,9.141438,90.34650414612688
1673608518.371078,9.213223,90.36871645277292
1673608518.372085,9.316983,90.3909340192595
1673608518.3730922,9.273397,90.4131515857461
1673608518.374099,9.172691,90.43536389239215
1673608518.375106,9.074678,90.45758145887874
1673608518.3761141,8.992628,90.47982006472753
1673608518.377121,8.903654,90.50203237137357
1673608518.378128,8.915962,90.52424993786018
1673608518.3791351,8.997027,90.54646750434677
1673608518.380142,9.109224,90.5686798109928
1673608518.381149,9.190001,90.59089737747941
1673608518.3821561,9.159998,90.613114943966
1673608518.383163,9.07677,90.63532725061204
1673608518.38417,8.87632,90.65754481709862
1673608518.3851771,8.792515,90.67976238358523
1673608518.386184,8.856847,90.70197469023127
1673608518.387191,8.968443,90.72419225671786
1673608518.388199,9.101748,90.74643086256665
1673608518.3892062,9.192789,90.76864842905326
1673608518.390213,9.316334,90.7908607356993
1673608518.39122,9.434012,90.81307830218589
1673608518.3922272,9.339966,90.83529586867247
1673608518.393234,9.088622,90.85750817531853
1673608518.394241,8.893605,90.87972574180512
1673608518.3952482,8.804029,90.9019433082917
1673608518.396255,8.763233,90.92415561493776
1673608518.397262,8.732701,90.94637318142435
1673608518.3982692,8.876824,90.96859074791094
1673608518.399276,9.054605,90.99053322389128
1673608518.400283,9.187885,91.01146892274677
1673608518.4012911,9.27109,91.061661
1673608518.402298,9.225556,91.05840885813066
1673608518.403305,9.223152,91.02899293299951
1673608518.4043121,9.178605,91.06354536066746
1673608518.405319,9.134034,91.08175557582261
1673608518.406326,9.132904,91.09570403218883
1673608518.4073331,9.156392,91.09333640915594
1673608518.40834,9.208031,91.19003257493699
1673608518.409347,9.224619,91.20334942066599
1673608518.4103541,9.197285,91.21666626639498
1673608518.411361,9.168989,91.22997995946164
1673608518.412368,9.137977,91.24329680519062
1673608518.413376,9.123168,91.25662626156898
1673608518.4143832,9.114994,91.26994310729798
1673608518.41539,9.099632,91.28325680036464
1673608518.416397,9.13401,91.29657364609363
1673608518.4174042,9.182067,91.30989049182261
1673608518.418411,9.185721,91.32320418488928
1673608518.419418,9.184183,91.33652103061827
1673608518.4204252,9.167234,91.34983787634727
1673608518.421432,9.11997,91.36315156941392
1673608518.422439,9.10194,91.37646841514291
1673608518.4234462,9.095377,91.3897852608719
1673608518.424453,9.071433,91.40309895393855
1673608518.42546,9.033016,91.41641579966755
1673608518.4264681,8.997676,91.44065435741535
1673608518.427475,8.984094,91.46835994112038
1673608518.428482,9.001259,91.46888390104911
1673608518.4294891,9.075976,91.47759198187887
1673608518.430496,9.111821,91.52312224910608
1673608518.431503,9.099705,91.55932815879828
1673608518.4325101,9.078332,91.568192
1673608518.433517,9.086458,91.58714771966626
1673608518.434524,9.106363,91.62358092823081
1673608518.4355311,9.138506,91.6651412710937
1673608518.436538,9.134227,91.71115507739798
1673608518.437545,9.162138,91.75717977970184
1673608518.438553,9.198174,91.80324806600412
1673608518.4395602,9.140285,91.84927276830798
1673608518.440567,9.084607,91.89528657461226
1673608518.4425812,9.08855,91.98733597921999
1673608518.443588,9.116869,92.03334978552427
1673608518.444595,9.115427,92.07937448782813
1673608518.4456022,9.055806,92.125399190132
1673608518.446609,9.001956,92.17141299643627
1673608518.447616,8.990224,92.21743769874014
1673608518.4486232,9.005442,92.26346240104401
1673608518.44963,9.003927,92.30947620734828
1673608518.450637,9.053402,92.35550090965215
1673608518.4516451,9.130885,92.40156919595442
1673608518.452652,9.099776,92.4475830022587
1673608518.453659,9.043882,92.49360770456256
1673608518.4546661,8.976833,92.53321986051502
1673608518.455673,8.906755,92.59424814020029
1673608518.45668,8.896418,92.60497370607867
1673608518.4576871,8.778932,92.61186733595613
1673608518.458694,8.777681,92.64277304577968
1673608518.459701,8.836917,92.69202512875536
1673608518.4607081,8.928992,92.72079911442194
1673608518.461715,9.015298,92.725952
1673608518.462722,9.064413,92.75233144253696
1673608518.46373,9.191154,92.77264121768451
1673608518.4647372,9.199328,92.78699928996764
1673608518.465744,9.090016,92.80135396308592
1673608518.466751,9.122038,92.81571203536903
1673608518.4677582,9.172211,92.83007010765215
1673608518.468765,9.162522,92.84442478077042
1673608518.469772,9.165648,92.85878285305355
1673608518.4707792,9.124274,92.87314092533667
1673608518.471786,9.011932,92.88749559845495
1673608518.472793,8.961639,92.90185367073806
1673608518.4738002,9.070784,92.91621174302118
1673608518.474807,9.185193,92.924934
1673608518.475814,9.179639,92.91765959165673
1673608518.4768221,9.109153,92.92168850977588
1673608518.477829,8.990296,92.9354887746781
1673608518.478836,8.905265,92.924934
1673608518.4798431,8.935965,92.91713597615642
1673608518.48085,9.014504,92.89099879446829
1673608518.481857,9.04994,92.86261597973778
1673608518.4828641,9.118865,92.89347255364807
1673608518.483871,9.228177,92.94066675526052
1673608518.484878,9.195362,92.93546137251789
1673608518.4858851,9.130164,92.93025598977528
1673608518.486892,9.113552,92.92505183936758
1673608518.487899,9.150022,92.91984645662495
1673608518.488907,9.224306,92.91463614454261
1673608518.4899142,9.325806,92.90943076179998
1673608518.490921,9.331455,92.90422661139229
1673608518.491928,9.215123,92.89902122864967
1673608518.4929352,9.12913,92.89381584590704
1673608518.493942,9.076193,92.88861169549935
1673608518.494949,9.055037,92.88340631275672
1673608518.4959562,9.088502,92.8782009300141
1673608518.496963,9.176779,92.87299677960641
1673608518.49797,9.248491,92.86779139686378
1673608518.4989772,9.198078,92.86258601412115
1673608518.499984,9.138458,92.85738186371346
1673608518.500991,9.102036,92.85217648097084
1673608518.5019991,9.097228,92.8469661688885
1673608518.503006,9.072948,92.8417620184808
1673608518.504013,9.069197,92.83655663573818
1673608518.5050201,9.08064,92.83135125299555
1673608518.506027,9.043426,92.82614710258785
1673608518.507034,9.013927,92.82094171984522
1673608518.5080411,9.020947,92.8157363371026
1673608518.509048,9.039651,92.81053218669491
1673608518.510055,9.061865,92.80532680395228
1673608518.5110621,9.117398,92.80012142120967
1673608518.512069,9.143314,92.79491727080196
1673608518.513076,9.147978,92.78971188805934
1673608518.514084,9.168148,92.784501575977
1673608518.5150912,9.191564,92.77929619323437
1673608518.516098,9.146848,92.77409204282668
1673608518.517105,9.097228,92.76888666008405
1673608518.5181122,9.065423,92.76368127734143
1673608518.519119,9.068356,92.762131
1673608518.520126,9.056456,92.77504863352408
1673608518.5211332,9.037055,92.75412522770624
1673608518.52214,9.013183,92.79671831394518
1673608518.523147,9.034531,92.816399
1673608518.5241542,9.066504,92.80297168240344
1673608518.525161,9.050566,92.85250419332539
1673608518.526168,9.027223,92.88434373319028
1673608518.5271761,8.965414,92.888756
1673608518.528183,8.907524,92.88926424114159
1673608518.52919,8.977146,92.88992806630611
1673608518.5301971,9.16346,92.89059189147065
1673608518.531204,9.217888,92.89125555947959
1673608518.532211,9.123432,92.89191938464413
1673608518.5332181,9.052753,92.89258320980865
1673608518.534225,9.071288,92.8932468778176
1673608518.535232,9.102469,92.89391070298213
1673608518.5362391,9.081313,92.89457452814665
1673608518.537246,9.069149,92.8952381961556
1673608518.538253,9.076049,92.89590202132013
1673608518.539261,9.06023,92.89656647510697
1673608518.5402682,9.039243,92.8972303002715
1673608518.541275,9.015563,92.89789396828044
1673608518.542282,9.010995,92.89855779344497
1673608518.5432892,9.011188,92.8992216186095
1673608518.544296,9.027847,92.89988528661844
1673608518.545303,9.08153,92.90054911178298
1673608518.5463102,9.102854,92.9012129369475
1673608518.547317,9.070375,92.90187660495646
1673608518.548324,9.039988,92.90254043012098
1673608518.5493312,8.941157,92.9032042552855
1673608518.550338,8.818022,92.90386792329446
1673608518.551345,8.793789,92.90453174845898
1673608518.5523531,8.943706,92.90519620224582
1673608518.55336,9.162786,92.90585987025477
1673608518.554367,9.148868,92.9065236954193
1673608518.5553741,9.067298,92.90718752058382
1673608518.556381,9.048426,92.90785118859277
1673608518.557388,8.997845,92.9085150137573
1673608518.5583951,8.934811,92.90917883892183
1673608518.559402,9.006379,92.90984250693077
1673608518.560409,8.96176,92.91050633209531
1673608518.5614161,8.87442,92.91117015725983
1673608518.562423,8.974669,92.91183382526877
1673608518.56343,9.092348,92.91249765043331
1673608518.564438,9.166201,92.91316210422015
1673608518.5654452,9.290154,92.91382592938467
1673608518.566452,9.150959,92.91448959739363
1673608518.567459,8.912645,92.91515342255815
1673608518.5684662,8.887282,92.91581724772267
1673608518.569473,8.938946,92.91648091573163
1673608518.57048,9.07011,92.91714474089615
1673608518.5714872,9.129683,92.91780856606069
1673608518.572494,9.124418,92.91847223406963
1673608518.573501,9.122087,92.91913605923416
1673608518.5745082,9.071433,92.91979988439869
1673608518.575515,8.971785,92.92046355240763
1673608518.576522,8.971304,92.92112737757216
1673608518.5775301,9.072491,92.921791831359
1673608518.578537,9.113359,92.92245549936794
1673608518.579544,9.130381,92.92311932453248
1673608518.5805511,9.195169,92.923783149697
1673608518.581558,9.409636,92.92444681770596
1673608518.582565,9.484714,92.93463406103957
1673608518.5835721,9.323498,92.95615072150692
1673608518.584579,9.195337,92.943039
1673608518.585586,8.961736,92.92212463090128
1673608518.5865932,8.739865,92.870667
1673608518.5876,8.722124,92.86518478969957
1673608518.588607,8.844201,92.85818727175209
1673608518.589615,9.089319,92.85915942107772
1673608518.5906222,9.265103,92.82860497758702
1673608518.591629,9.332345,92.81577986036685
1673608518.592636,9.36694,92.81390244054596
1673608518.5936432,9.278446,92.81202502072507
1673608518.59465,9.194569,92.81014804536912
1673608518.595657,9.163363,92.80827062554823
1673608518.5966642,9.155983,92.80639320572735
1673608518.597671,9.138193,92.80451623037138
1673608518.598678,9.111965,92.8026388105505
1673608518.5996852,9.082083,92.80076139072962
1673608518.600692,9.072058,92.79888441537365
1673608518.6017,9.0641,92.7970052176931
1673608518.6027071,9.06386,92.79512779787221
1673608518.603714,9.075543,92.79325082251624
1673608518.604721,9.069269,92.79137340269537
1673608518.6057281,9.094343,92.78949598287448
1673608518.606735,9.099512,92.787619007518515
1673608518.607742,9.103791,92.78574158769764
1673608518.6087492,9.119105,92.78386416787676
1673608518.609756,9.148338,92.78198719252079
1673608518.610763,9.155959,92.78235679256966
1673608518.6117702,9.139756,92.81757646709586
1673608518.612777,9.114778,92.831880348926
1673608518.613784,9.089583,92.79975654465349
1673608518.614792,9.070952,92.816399
1673608518.6157992,9.07225,92.82322024463008
1673608518.616806,9.048715,92.89798769670959
1673608518.617813,9.024458,92.98119103215052
1673608518.6188202,9.017029,93.00981842911695
1673608518.619827,8.978035,93.11301414970947
1673608518.620834,8.956832,93.17171751477314
1673608518.6218412,8.998013,93.23042087983681
1673608518.622848,8.985776,93.28911034732351
1673608518.623855,8.996017,93.3478137123872
1673608518.6248622,9.034603,93.40651707745086
1673608518.625869,9.067899,93.46520654493756
1673608518.626877,9.098118,93.52396550030906
1673608518.6278841,9.167788,93.58266886537272
1673608518.628891,9.202454,93.64135833285944
1673608518.629898,9.164517,93.7000616979231
1673608518.6309052,9.11235,93.75876506298677
1673608518.631912,9.064053,93.81745453047348
1673608518.632919,8.992965,93.87615789553715
1673608518.6339262,8.939306,93.93486126060081
1673608518.634933,8.927742,93.99355072808753
1673608518.63594,8.950653,94.05225409315119
1673608518.6369472,8.957264,94.11095745821486
1673608518.637954,8.886609,94.16964692570157
1673608518.638961,8.817036,94.22835029076523
1673608518.639969,8.833551,94.28710924613672
1673608518.6409762,8.942095,94.34581261120039
1673608518.641983,8.982339,94.4045020786871
1673608518.64299,8.842519,94.46320544375077
1673608518.6439972,8.800376,94.52190880881443
1673608518.645004,8.931877,94.58059827630115
1673608518.646011,9.118696,94.63930164136481
1673608518.6470182,9.258372,94.70239972326745
1673608518.648025,9.310516,94.79256258464473
1673608518.649032,9.335542,94.84313028830549
1673608518.6500392,9.192597,94.81865340391035
1673608518.651046,8.985536,94.92722776041914
1673608518.652054,8.873916,94.951042
1673608518.6530612,8.957433,94.97688625035765
1673608518.654068,8.98217,95.03655578328173
1673608518.655075,9.003758,95.07967917804297
1673608518.6560822,9.167282,95.12065803220761
1673608518.657089,9.209137,95.13879624911351
1673608518.658096,9.1790870000000009,95.1569387611217
1673608518.6591032,9.11485,95.17508127312986
1673608518.66011,9.09504,95.19321949003576
1673608518.661117,9.092155,95.21136200204394
1673608518.6621242,9.13776,95.22950451405212
1673608518.663131,9.144612,95.24764273095802
1673608518.664138,9.081217,95.26578524296619
1673608518.665146,9.023424,95.28394493538347
1673608518.6661532,9.020731,95.30208744739164
1673608518.66716,9.105282,95.32022566429755
1673608518.668167,9.19577,95.33836817630572
1673608518.6691742,9.249573,95.3565106883139
1673608518.670181,9.25943,95.3746489052198
1673608518.671188,9.221133,95.39279141722797
1673608518.6721952,9.200435,95.41093392923615
1673608518.673202,9.15947,95.42907214614205
1673608518.674209,9.092252,95.44721465815023
1673608518.6752162,9.037319,95.4653571701584
1673608518.676223,9.009721,95.48349538706431
1673608518.677231,8.986113,95.50165507948158
1673608518.6782382,8.978781,95.51979759148976
1673608518.679245,9.015899,95.53793580839566
1673608518.680252,9.083261,95.55607832040383
1673608518.6812592,9.154492,95.57422083241201
1673608518.682266,9.2251,95.5923590493179
1673608518.683273,9.204641,95.61050156132609
1673608518.6842802,9.129298,95.62864407333426
1673608518.685287,9.079511,95.64678229024017
1673608518.686294,9.040854,95.66492480224834
1673608518.6873012,9.016428,95.68306731425652
1673608518.688308,9.021741,95.70120553116242
1673608518.689315,9.067081,95.7193480431706
1673608518.690323,9.193848,95.73750773558787
1673608518.6913302,9.237625,95.75565024759604
1673608518.692337,9.139997,95.77378846450195
1673608518.693344,9.049892,95.79193097651012
1673608518.6943512,9.018712,95.8100734885183
1673608518.695358,9.027679,95.8282117054242
1673608518.696365,9.06999,95.84635421743238
1673608518.6973722,9.095016,95.86449672944055
1673608518.698379,9.060326,95.88263494634646
1673608518.6993861,9.017654,95.90077745835463
1673608518.7003932,8.987627,95.91891997036281
1673608518.7014,8.95926,95.9370581872687
1673608518.702408,8.964573,95.91820471418355
1673608518.7034152,8.957673,95.91989315498331
1673608518.704422,8.929233,95.95550662422508
1673608518.705429,8.969621,96.01231014449212
1673608518.7064362,9.010971,96.06431407842669
1673608518.707443,9.049628,96.10231069337148
1673608518.70845,9.030636,96.13691556604674
1673608518.7094572,9.081482,96.10438277687723
1673608518.710464,9.180769,96.13427093562233
1673608518.711471,9.171153,96.18135003897417
1673608518.7124782,9.105162,96.18168284354583
1673608518.713485,9.07463,96.18201556932854
1673608518.714492,9.079655,96.18234837390021
1673608518.7155,9.065975,96.18268149362773
1673608518.7165072,9.034651,96.18301429819938
1673608518.717514,8.996234,96.1833470239821
1673608518.718521,8.973299,96.18367982855376
1673608518.7195282,8.963731,96.18401263312543
1673608518.720535,8.929281,96.18434535890813
1673608518.7215421,8.986041,96.1846781634798
1673608518.7225492,9.123144,96.18501096805147
1673608518.723556,9.174326,96.18534369383417
1673608518.7245631,9.246953,96.18567649840584
1673608518.7255702,9.223658,96.18600930297751
1673608518.726577,9.109344,96.18634202876022
1673608518.727585,9.023448,96.18667514848772
1673608518.7285922,8.926396,96.18700795305939
1673608518.729599,8.900961,96.1873406788421
1673608518.730606,8.9181260000000009,96.18767348341377
1673608518.7316132,8.93094,96.18800628798543
1673608518.73262,8.974982,96.18833901376814
1673608518.733627,9.017125,96.18867181833981
1673608518.7346342,9.083093,96.18900462291148
1673608518.735641,9.128408,96.18933734869418
1673608518.736648,9.174471,96.18967015326585
1673608518.7376552,9.187933,96.19000295783752
1673608518.738662,9.147473,96.19033568362022
1673608518.739669,9.203271,96.19066848819189
1673608518.740677,9.180889,96.1910016079194
1673608518.7416842,9.088814,96.19133441249107
1673608518.742691,8.979405,96.19166713827377
1673608518.7436981,8.90803,96.19199994284544
1673608518.7447052,8.905673,96.19233274741711
1673608518.745712,8.908294,96.19266547319982
1673608518.7467191,8.898221,96.19299827777148
1673608518.7477262,8.78297,96.19333108234315
1673608518.748733,8.856559,96.19366380812586
1673608518.7497401,8.996427,96.19399661269753
1673608518.7507472,9.047681,96.19432941726919
1673608518.751754,9.093118,96.1946621430519
1673608518.752762,8.969429,96.19499526277941
1673608518.7537692,8.978757,96.19532806735108
1673608518.754776,9.118985,96.19566079313378
1673608518.755783,9.163027,96.19599359770545
1673608518.7567902,9.219763,96.19632640227712
1673608518.757797,9.175696,96.19665912805982
1673608518.758804,9.15156,96.19699193263149
1673608518.7598112,9.110522,96.19732473720316
1673608518.760818,9.04131,96.19765746298586
1673608518.761825,8.984214,96.19799026755753
1673608518.7628322,8.982723,96.1983230721292
1673608518.763839,8.995537,96.19865579791191
1673608518.764846,9.024001,96.19898860248358
1673608518.7658541,9.073596,96.19128707963758
1673608518.7668612,9.248299,96.15485006843109
1673608518.767868,9.432209,96.11419037425506
1673608518.7688751,9.274936,96.08135133261803
1673608518.7698822,9.162786,96.11329290200285
1673608518.770889,9.147233,96.126892
1673608518.7718961,9.112494,96.12215194015259
1673608518.7729032,9.103791,96.09906598068669
1673608518.77391,9.126557,96.072632
1673608518.7749171,9.123432,96.0677732330997
1673608518.7759242,9.18726,96.05049761745421
1673608518.776931,9.205795,96.02964427794994
1673608518.777939,9.179735,96.000252
1673608518.7789462,9.155983,96.00760613733905
1673608518.779953,9.101315,96.03265318860277
1673608518.78096,9.054484,96.01443073849822
1673608518.7819672,9.068188,96.00431143729138
1673608518.782974,9.116701,96.018364
1673608518.783981,9.11283,96.0226717261025
1673608518.7849882,9.058811,96.036453
1673608518.785995,9.00121,96.04211695968557
1673608518.787002,9.033064,96.06475136433257
1673608518.7880092,9.053427,96.08738576897956
1673608518.789016,9.053114,96.11001481510273
1673608518.790023,9.080088,96.13264921974972
1673608518.7910311,9.051119,96.15530505849203
1673608518.7920382,8.990897,96.17793946313903
1673608518.793045,8.990128,96.2005685092622
1673608518.7940521,9.042128,96.22320291390919
1673608518.7950592,9.079366,96.24583731855618
1673608518.796066,9.084775,96.26846636467936
1673608518.7970731,9.062346,96.29110076932636
1673608518.7980802,9.040348,96.31373517397336
1673608518.799087,9.047921,96.33636422009653
1673608518.8000941,9.090257,96.35899862474352
1673608518.8011012,9.126486,96.38163302939051
1673608518.802108,9.107446,96.40426207551369
1673608518.803116,9.077203,96.42691791425598
1673608518.8041232,9.021765,96.44955231890299
1673608518.80513,8.969164,96.47218136502615
1673608518.806137,8.957649,96.49481576967315
1673608518.8071442,8.97378,96.51745017432015
1673608518.808151,8.97503,96.54007922044332
1673608518.809158,8.99419,96.56271362509031
1673608518.8101652,9.041142,96.5853480297373
1673608518.811172,9.094343,96.60797707586048
1673608518.812179,9.098166,96.63061148050747
1673608518.8131862,9.245534,96.65324588515446
1673608518.814193,9.216108,96.67587493127763
1673608518.8152,8.972362,96.69850933592463
1673608518.8162081,8.782778,96.72116517466694
1673608518.8172152,8.601872,96.74379957931393
1673608518.818222,8.520544,96.7664286254371
1673608518.8192291,8.561076,96.778137
1673608518.8202362,8.77083,96.7870591001192
1673608518.821243,8.935219,96.8052715
1673608518.8222501,9.138169,96.814316
1673608518.8232572,9.419275,96.86083007246722
1673608518.824264,9.4243,96.904778
1673608518.8252711,9.315829,96.93343462851693
1673608518.826278,9.182572,96.968716520743925
1673608518.827285,9.016476,96.977127
1673608518.828293,8.866078,96.9748138184422
1673608518.8293002,8.811122,96.97057850032338
1673608518.830307,8.867136,96.96634418488404
1673608518.831314,9.022438,96.96210886676522
1673608518.8323212,9.203415,96.9578735486464
1673608518.833328,9.286427,96.95363923320706
1673608518.834335,9.298857,96.94940391508824
1673608518.8353422,9.283278,96.94516859696941
1673608518.836349,9.21368,96.94093428153008
1673608518.837356,9.213032,96.93669896341125
1673608518.8383632,9.20029,96.93246364529243
1673608518.83937,9.062442,96.92822932985308
1673608518.840377,8.954235,96.92399401173427
1673608518.8413851,8.989238,96.93625475774917
1673608518.8423922,9.0516470000000009,96.91392170052455
1673608518.843399,9.055182,96.95932862860548
1673608518.8444061,9.072106,96.92206309728182
1673608518.8454132,9.059821,96.904778
1673608518.84642,9.06987,96.87674035303934
1673608518.8474271,9.090233,96.88274585741536
1673608518.848434,9.085472,96.872416063662385
1673608518.849441,9.119322,96.91180378111588
1673608518.8504481,9.145309,96.92756801264314
1673608518.851455,9.154228,96.93346067408332
1673608518.852462,9.15406,96.9393547308968
1673608518.85347,9.169013,96.94525436920347
1673608518.8544772,9.147449,96.95114842601696
1673608518.855484,9.07814,96.95704108745714
1673608518.856491,9.055614,96.96293514427062
1673608518.8574982,9.076794,96.96882920108409
1673608518.858505,9.05571,96.97472186252428
1673608518.859512,9.075279,96.98061591933777
1673608518.8605192,9.084343,96.98650997615124
1673608518.861526,9.111893,96.99240263759143
1673608518.862533,9.123721,96.9982966944049
1673608518.8635402,9.031165,97.00419075121839
1673608518.864547,8.969573,97.01008341265856
1673608518.865554,9.019817,97.01597746947205
1673608518.8665621,9.009432,97.02187710777872
1673608518.8675692,8.891177,97.0277711645922
1673608518.868576,8.803549,97.03366382603238
1673608518.8695831,8.814872,97.03955788284587
1673608518.87059,8.881993,97.04545054428604
1673608518.871597,9.06398,97.05134460109953
1673608518.8726041,9.197621,97.057238657913
1673608518.873611,9.229211,97.06313131935319
1673608518.874618,9.218008,97.06902537616668
1673608518.8756251,9.129418,97.07491943298015
1673608518.876632,9.002773,97.08081209442034
1673608518.877639,8.955437,97.08670615123381
1673608518.878647,8.989743,97.09260578954049
1673608518.8796542,9.042079,97.09849984635397
1673608518.880661,9.084487,97.10439250779416
1673608518.881668,9.108431,97.11028656460763
1673608518.8826752,9.100786,97.11618062142111
1673608518.883682,9.075447,97.12386261278017
1673608518.884689,9.023905,97.1753270386266
1673608518.8856962,8.971111,97.16174340405244
1673608518.886703,8.960438,97.2293439248927
1673608518.88771,8.955557,97.2099480658083
1673608518.8887172,8.993469,97.18004464266984
1673608518.889724,9.056744,97.23181970386266
1673608518.890731,9.07076,97.248482
1673608518.8917391,9.088309,97.25018566118264
1673608518.892746,9.012029,97.26760464421731
1673608518.893753,8.9689,97.27790208094828
1673608518.8947601,9.025467,97.28819951767926
1673608518.895767,9.084414,97.29849451657009
1673608518.896774,9.176634,97.30879195330105
1673608518.8977811,9.182549,97.31908939003203
1673608518.898788,9.063427,97.32938438892286
1673608518.899795,8.950004,97.33968182565384
1673608518.9008021,8.876224,97.3499792623848
1673608518.901809,8.861222,97.36027426127565
1673608518.902816,8.967746,97.37057169800661
1673608518.903824,9.085905,97.38087888609813
1673608518.9048312,9.0378,97.3911763228291
1673608518.905838,9.112206,97.40147132171992
1673608518.906845,9.159253,97.4117687584509
1673608518.9078522,9.236399,97.42206619518187
1673608518.908859,9.251905,97.43236119407271
1673608518.909866,9.158893,97.44265863080368
1673608518.9108732,9.027775,97.45295606753464
1673608518.91188,9.021597,97.46325106642549
1673608518.912887,9.048546,97.47354850315645
1673608518.9138942,9.048522,97.48384593988743
1673608518.914901,9.010971,97.49414093877826
1673608518.915908,9.010802,97.50443837550924
1673608518.9169161,8.962722,97.51474556360074
1673608518.917923,8.858914,97.52504056249158
1673608518.91893,8.777849,97.53533799922255
1673608518.9199371,8.718998,97.54563543595351
1673608518.920944,8.792033,97.55593043484436
1673608518.921951,8.945148,97.56622787157532
1673608518.9229581,9.103767,97.5765253083063
1673608518.923965,9.272604,97.58682030719713
1673608518.924972,9.308665,97.59711774392811
1673608518.9259791,9.255584,97.60741518065907
1673608518.926986,9.261377,97.61771017954992
1673608518.927993,9.205675,97.62800761628088
1673608518.929001,9.145646,97.6383148043724
1673608518.9300082,9.175961,97.64861224110336
1673608518.931015,9.240149,97.65890723999419
1673608518.932022,9.279744,97.66920467672517
1673608518.9330292,9.24664,97.67950211345614
1673608518.934036,9.155551,97.68979711234698
1673608518.935043,9.099752,97.70009454907795
1673608518.9360502,9.054244,97.71039198580891
1673608518.937057,9.02816,97.72068698469975
1673608518.938064,8.990825,97.73098442143072
1673608518.9390712,8.924642,97.76005319880811
1673608518.940078,8.936132,97.76769298187888
1673608518.941085,9.000946,97.736923
1673608518.9420931,9.054244,97.75313671156138
1673608518.9431,9.102493,97.76487266952789
1673608518.944107,9.133986,97.78844465522174
1673608518.9451141,9.099392,97.83584809106078
1673608518.946121,9.088262,97.845451
1673608518.947128,9.106412,97.86292802765855
1673608518.9481351,9.116437,97.88268443445226
1673608518.949142,9.120523,97.88485023050862
1673608518.950149,9.111196,97.8870165394222
1673608518.9511561,9.051671,97.88918284833579
1673608518.952163,9.027006,97.89134864439215
1673608518.95317,8.937696,97.89351495330574
1673608518.954178,8.853312,97.89568331364822
1673608518.9551852,8.857664,97.89784962256181
1673608518.956192,8.847423,97.90001541861817
1673608518.957199,8.851029,97.90218172753175
1673608518.9582062,8.978348,97.90434803644534
1673608518.959213,9.106292,97.9065138325017
1673608518.96022,9.162907,97.90868014141529
1673608518.9612272,9.176586,97.91084645032888
1673608518.962234,9.18714,97.91301224638524
1673608518.963241,9.103167,97.91517855529882
1673608518.9642482,9.00835,97.91734486421241
1673608518.965255,8.982771,97.93211634255066
1673608518.966262,8.976977,97.96478243443013
1673608518.9672701,8.973756,97.94291414735336
1673608518.968277,8.925627,97.94509019821484
1673608518.969284,8.931685,97.95647666310032
1673608518.9702911,8.849851,97.96786312798581
1673608518.971298,8.768594,97.979246897212
1673608518.972305,8.780133,97.99063336209748
1673608518.9733121,8.85514,98.00201982698296
1673608518.974319,8.911587,98.01340359620914
1673608518.975326,8.933224,98.02479006109463
1673608518.9763331,9.009336,98.03617652598011
1673608518.97734,9.112615,98.0475602952063
1673608518.978347,9.141799,98.05894676009179
1673608518.979355,9.192044,98.07034400761447
1673608518.9803622,9.258733,98.08173047249996
1673608518.981369,9.250703,98.09311424172614
1673608518.982376,9.279504,98.10450070661163
1673608518.9833832,9.317415,98.1158871714971
1673608518.98439,9.285634,98.12727094072329
1673608518.985397,9.188655,98.13865740560878
1673608518.9864042,9.087516,98.15004387049427
1673608518.987411,8.985969,98.16142763972044
1673608518.988418,8.943056,98.17281410460593
1673608518.9894252,9.0165,98.18420056949142
1673608518.990432,9.078814,98.19558433871761
1673608518.991439,9.087973,98.20697080360308
1673608518.9924471,9.007677,98.21836805112578
1673608518.993454,8.947576,98.22975182035196
1673608518.994461,9.017462,98.24113828523744
1673608518.9954681,9.037006,98.25252475012293
1673608518.996475,9.016068,98.26390851934912
1673608518.997482,9.065543,98.2752949842346
1673608518.9984891,9.207502,98.28668144912008
1673608518.999496,9.120644,98.29806521834627
1673608519.000503,8.983564,98.30945168323176
1673608519.0015101,8.865213,98.32083814811723
1673608519.002517,8.844009,98.33222191734342
1673608519.003524,8.973275,98.34360838222891
1673608519.004532,9.065735,98.35500562975159
1673608519.0055392,9.027631,98.36639209463708
1673608519.006546,8.983276,98.37777586386326
1673608519.007553,8.994455,98.38916232874875
1673608519.0085602,9.021765,98.40054879363423
1673608519.009567,9.166345,98.41193256286041
1673608519.010574,9.338836,98.4233190277459
1673608519.0115812,9.339076,98.43470549263138
1673608519.012588,9.262748,98.44608926185757
1673608519.013595,9.163436,98.45747572674306
1673608519.0146022,9.097084,98.46886219162855
1673608519.015609,9.046478,98.47073982212684
1673608519.016616,8.996498,98.424339
1673608519.0176241,8.974477,98.42723684982121
1673608519.018631,8.941445,98.44846729279924
1673608519.019638,8.892115,98.48175553838817
1673608519.0206451,8.826387,98.49997333015494
1673608519.021652,8.865766,98.51138711587983
1673608519.022659,9.004359,98.50728358035289
1673608519.0236661,9.199738,98.55463748020982
1673608519.024673,9.16358,98.57446315511037
1673608519.02568,9.034338,98.60044366957581
1673608519.0266871,9.012846,98.62642418404126
1673608519.027694,9.034819,98.65239854781673
1673608519.028701,9.071961,98.67837906228218
1673608519.029709,9.139276,98.70438417950753
1673608519.0307162,9.186755,98.73036469397297
1673608519.031723,9.168605,98.75633905774843
1673608519.03273,9.150333,98.78231957221388
1673608519.0337372,9.133818,98.786133
1673608519.034744,9.123361,98.80181104673343
1673608519.035751,9.115475,98.82003232188842
1673608519.0367582,9.067394,98.87008801454111
1673608519.037765,9.008735,98.9247288197425
1673608519.038772,8.972169,98.930862
1673608519.0397792,8.980992,99.01238075536482
1673608519.040786,8.992748,98.97203443218116
1673608519.041793,9.016019,98.95048745159752
1673608519.0428011,9.074919,98.96398226768075
1673608519.043808,9.124034,98.98037504154846
1673608519.044815,9.072347,98.99677169720017
1673608519.0458221,9.024866,99.01316835285189
1673608519.046829,9.036141,99.0295611267196
1673608519.047836,9.058811,99.04595778237132
1673608519.0488431,9.071168,99.06235443802304
1673608519.04985,9.078645,99.07874721189074
1673608519.050857,9.076842,99.09514386754246
1673608519.0518641,9.025707,99.11154052319418
1673608519.052871,8.966616,99.12793329706189
1673608519.053878,8.918655,99.1443299527136
1673608519.054886,8.917045,99.16074213550135
1673608519.0558932,8.93945,99.17713879115307
1673608519.0569,8.933007,99.19353156502079
1673608519.057907,8.938296,99.20992822067251
1673608519.0589142,8.953274,99.22632487632421
1673608519.059921,8.90149,99.24271765019193
1673608519.060928,8.868098,99.25911430584365
1673608519.0619352,8.883267,99.27551096149537
1673608519.062942,8.976665,99.29190373536308
1673608519.063949,9.061936,99.3083003910148
1673608519.0649562,9.140405,99.32469704666651
1673608519.065963,9.16983,99.34108982053422
1673608519.06697,9.034698,99.35748647618594
1673608519.0679781,8.885166,99.37389865897369
1673608519.068985,8.895191,99.3902914328414
1673608519.069992,8.977386,99.40668808849311
1673608519.0709991,8.89887,99.42308474414483
1673608519.072006,8.81468,99.437393
1673608519.073013,8.876897,99.437393
1673608519.0740201,8.948153,99.43482241249404
1673608519.075027,8.925266,99.40186453362122
1673608519.076034,8.966592,99.41912207493061
1673608519.0770411,9.046527,99.419304
1673608519.078048,9.213032,99.383125
1673608519.079055,9.305996,99.43324865001541
1673608519.080063,9.30239,99.401215
1673608519.0810702,9.196203,99.40030362040982
1673608519.082077,9.053859,99.3955284888846
1673608519.083084,8.994335,99.39075222661548
1673608519.0840912,8.996474,99.38597596434636
1673608519.085098,8.939378,99.38120083282114
1673608519.086105,8.850212,99.37642457055202
1673608519.0871122,8.928801,99.37164830828289
1673608519.088119,9.016548,99.36687317675768
1673608519.089126,9.124947,99.36209691448855
1673608519.0901332,9.212502,99.35732065221943
1673608519.09114,9.163147,99.3525455206942
1673608519.092147,9.172331,99.34776925842509
1673608519.0931551,9.18488,99.34298847318033
1673608519.094162,9.148435,99.33821334165512
1673608519.095169,9.086049,99.33343707938599
1673608519.0961761,9.145838,99.32866081711687
1673608519.097183,9.188438,99.32388568559165
1673608519.09819,9.207454,99.31910942332253
1673608519.0991971,9.166681,99.31433316105341
1673608519.100204,9.099729,99.30955802952819
1673608519.101211,9.078814,99.30478176725907
1673608519.1022182,9.053162,99.30000550498994
1673608519.103225,9.054244,99.29523037346473
1673608519.104232,9.025827,99.2904541111956
1673608519.10524,8.976593,99.28567332595085
1673608519.1062472,8.977818,99.28089706368172
1673608519.107254,8.972939,99.27612193215651
1673608519.108261,8.985368,99.27134566988738
1673608519.1092682,9.035468,99.26656940761826
1673608519.110275,9.096435,99.26179427609304
1673608519.111282,9.151199,99.25701801382392
1673608519.1122892,9.205748,99.2522417515548
1673608519.113296,9.192308,99.24746662002958
1673608519.114303,9.107013,99.24269035776047
1673608519.1153102,9.079655,99.23791409549133
1673608519.116317,9.111508,99.23313896396613
1673608519.117325,9.0829,99.22835817872136
1673608519.1183321,9.071337,99.22358191645225
1673608519.119339,9.05898,99.21880678492703
1673608519.120346,9.043979,99.21403052265791
1673608519.1213531,9.052248,99.20925426038878
1673608519.12236,9.072058,99.20447912886357
1673608519.123367,9.047921,99.19970286659444
1673608519.1243742,9.009048,99.19492660432532
1673608519.125381,8.966664,99.1901514728001
1673608519.126388,8.929353,99.18537521053098
1673608519.1273952,8.880839,99.21105015975202
1673608519.128402,8.868843,99.23389290987124
1673608519.129409,8.862208,99.26582056257449
1673608519.130417,8.851582,99.31614841201716
1673608519.1314242,8.840211,99.30086745207439
1673608519.132431,8.85829,99.34911243480335
1673608519.133438,8.926997,99.37927343180735
1673608519.1344452,8.993999,99.383125
1673608519.135452,9.028232,99.42659114541121
1673608519.136459,9.063307,99.44042228995914
1673608519.1374662,9.123,99.4441979526288
1673608519.138473,9.164277,99.44797272143893
1673608519.13948,9.148891,99.45174838410858
1673608519.1404872,9.113696,99.45552404677822
1673608519.141494,9.062298,99.45929881558835
1673608519.142502,9.056816,99.46307805369614
1673608519.1435091,9.002748,99.46685371636579
1673608519.144516,8.963514,99.47062848517591
1673608519.145523,8.933488,99.47440414784556
1673608519.1465302,8.906563,99.47817981051521
1673608519.147537,8.906443,99.48195457932533
1673608519.148544,8.946999,99.48573024199499
1673608519.1495512,9.072347,99.48950590466464
1673608519.150558,9.160118,99.47603001573677
1673608519.151565,9.116317,99.4713679876043
1673608519.1525722,8.871295,99.50780094015259
1673608519.153579,8.755083,99.54422648068669
1673608519.154586,8.820978,99.56507375169555
1673608519.155594,8.974309,99.56740189375192
1673608519.1566012,9.162595,99.56972783321412
1673608519.157608,9.216013,99.57205322202776
1673608519.158615,9.089271,99.57437916148996
1673608519.1596222,8.921708,99.57670510095214
1673608519.160629,8.889614,99.57903048976578
1673608519.161636,8.950293,99.58135642922798
1673608519.1626432,9.042488,99.58368236869016
1673608519.16365,9.126557,99.58600775750381
1673608519.164657,9.162955,99.588333696966
1673608519.1656642,9.181154,99.5906596364282
1673608519.166671,9.121821,99.59298502524183
1673608519.167679,9.059028,99.59531316729822
1673608519.1686862,9.043618,99.59763910676041
1673608519.169693,9.095858,99.59996449557406
1673608519.1707,9.136054,99.60229043503624
1673608519.1717072,9.124442,99.60461637449843
1673608519.172714,9.104994,99.60694176331208
1673608519.173721,9.025683,99.60926770277426
1673608519.1747282,8.961206,99.61159364223646
1673608519.175735,8.981666,99.6139190310501
1673608519.176742,8.977314,99.61624497051228
1673608519.1777492,9.025876,99.61857090997448
1673608519.178756,9.107302,99.62089629878813
1673608519.179763,8.99996,99.62322223825032
1673608519.180771,8.87995,99.62555038030669
1673608519.1817782,8.807227,99.62787631976889
1673608519.182785,8.828431,99.63020170858253
1673608519.183792,8.976881,99.63252764804471
1673608519.1847992,9.14692,99.63485358750691
1673608519.185806,9.265512,99.63717897632056
1673608519.186813,9.264526,99.63950491578274
1673608519.1878202,9.186875,99.64183085524493
1673608519.188827,9.040228,99.64415624405858
1673608519.189834,8.950821,99.64648218352077
1673608519.1908412,8.977987,99.64880812298296
1673608519.191848,8.970703,99.6511335117966
1673608519.192856,8.954163,99.65346165385299
1673608519.1938632,8.967818,99.65578759331517
1673608519.19487,8.979935,99.65811298212881
1673608519.195877,9.016476,99.66043892159101
1673608519.1968842,9.104176,99.66276486105319
1673608519.197891,9.264694,99.66509024986684
1673608519.198898,9.262723,99.66741618932903
1673608519.1999052,9.177692,99.66974212879123
1673608519.200912,9.12764,99.67206751760486
1673608519.201919,9.057682,99.70125251692895
1673608519.2029262,8.97092,99.72321545064378
1673608519.203933,8.931973,99.69762973414402
1673608519.20494,8.953875,99.7053766102503
1673608519.205948,9.049436,99.66840964923077
1673608519.2069552,9.150406,99.7007697083077
1673608519.207962,9.162306,99.6582956313364
1673608519.208969,9.150526,99.65081241894802
1673608519.2099762,9.122231,99.62527260123078
1673608519.210983,9.118865,99.62331050178975
1673608519.21199,9.12009,99.6292223414448
1673608519.2129972,9.111941,99.63513418109984
1673608519.214004,9.078693,99.64104462117164
1673608519.2150111,8.994335,99.64695646082669
1673608519.2160182,8.933368,99.65286830048174
1673608519.217025,8.866102,99.65877874055353
1673608519.218033,8.83961,99.66469617854159
1673608519.2190402,8.835235,99.67060801819663
1673608519.220047,8.833118,99.67651845826843
1673608519.221054,8.866006,99.68243029792347
1673608519.2220612,8.952432,99.68834213757853
1673608519.223068,9.085737,99.69425257765033
1673608519.224075,9.198535,99.70016441730537
1673608519.2250822,9.2107,99.70607625696042
1673608519.226089,9.122447,99.71198669703222
1673608519.227096,9.048594,99.71789853668727
1673608519.2281032,8.985992,99.72381037634231
1673608519.22911,8.955918,99.72972081641412
1673608519.230117,8.995368,99.73563265606916
1673608519.231125,9.047537,99.74155009405722
1673608519.2321322,9.158988,99.74746193371226
1673608519.233139,9.211421,99.75337237378406
1673608519.234146,9.16608,99.7592842134391
1673608519.2351532,9.06398,99.76519605309416
1673608519.23616,8.987652,99.77110649316595
1673608519.2371671,8.94599,99.777018332821
1673608519.2381742,8.916179,99.78293017247604
1673608519.239181,8.879396,99.78884061254784
1673608519.2401881,8.910746,99.79475245220289
1673608519.2411952,8.85139,99.80066429185794
1673608519.242202,8.82182,99.80657473192973
1673608519.24321,8.783427,99.81249216991779
1673608519.2442172,8.619182,99.81840400957283
1673608519.245224,8.57901,99.82431444964463
1673608519.246231,8.692578,99.83022628929967
1673608519.2472382,8.903654,99.83613812895473
1673608519.248245,9.264406,99.84204856902653
1673608519.249252,9.346817,99.84796040868157
1673608519.2502592,9.328931,99.85387224833661
1673608519.251266,9.286115,99.85978268840842
1673608519.252273,9.214522,99.86569452806347
1673608519.2532802,9.113215,99.87160636771851
1673608519.254287,9.050758,99.87751680779031
1673608519.255294,9.038209,99.88342864744536
1673608519.256302,9.016091,99.88934608543342
1673608519.2573092,8.972578,99.889633
1673608519.258316,8.923776,99.87217786960667
1673608519.2593231,8.974236,99.80120554291845
1673608519.2603302,9.095329,99.83464834749402
1673608519.261337,9.124682,99.85320081805192
1673608519.2623441,9.154301,99.83549008583691
1673608519.2633512,9.194592,99.83532191043354
1673608519.264358,9.137304,99.79905763170441
1673608519.2653651,9.034218,99.7810549966626
1673608519.2663722,9.028472,99.77804784247314
1673608519.267379,9.059172,99.77504140020466
1673608519.268387,9.007437,99.77203139833131
1673608519.2693942,8.92743,99.76902424414185
1673608519.270401,8.921757,99.76601780187336
1673608519.271408,8.99609,99.7630106476839
1673608519.2724152,9.104344,99.76000349349444
1673608519.273422,9.204954,99.75699705122595
1673608519.274429,9.227793,99.75398989703649
1673608519.2754362,9.112494,99.75098274284703
1673608519.276443,9.001907,99.74797630057854
1673608519.27745,8.935965,99.74496914638908
1673608519.2784572,8.898389,99.74196199219962
1673608519.279464,8.855669,99.73895554993113
1673608519.280471,8.755347,99.73594839574167
1673608519.2814791,8.803573,99.73293839386832
1673608519.2824862,8.918006,99.72993123967886
1673608519.283493,8.996571,99.72692479741036
1673608519.2845001,8.976473,99.72391764322091
1673608519.2855072,9.041647,99.72091048903145
1673608519.286514,9.164037,99.71790404676297
1673608519.2875211,9.210795,99.7148968925735
1673608519.2885282,9.214954,99.71188973838404
1673608519.289535,9.223321,99.70888329611556
1673608519.2905421,9.163484,99.7058761419261
1673608519.2915492,9.012173,99.70286898773664
1673608519.292556,9.003638,99.69986254546815
1673608519.293564,9.099512,99.69685254359479
1673608519.2945712,9.175119,99.69384538940533
1673608519.295578,9.151367,99.69083894713684
1673608519.296585,9.014745,99.70772667103695
1673608519.2975922,8.974189,99.70874
1673608519.298599,8.967505,99.65674934096327
1673608519.299606,8.964644,99.654472
1673608519.3006132,8.963683,99.67205746364719
1673608519.30162,8.992748,99.6371499527897
1673608519.302627,8.997628,99.67206178111589
1673608519.3036342,8.972866,99.63664104982122
1673608519.304641,8.965365,99.690651
1673608519.305648,8.974309,99.68761484264483
1673608519.3066561,8.974165,99.68457581014067
1673608519.3076632,9.003085,99.6815396527855
1673608519.30867,9.077299,99.6785042142176
1673608519.3096771,9.109585,99.67546805686243
1673608519.3106842,9.061552,99.67334266499762
1673608519.311691,9.042632,99.68974525608012
1673608519.3126981,9.081482,99.672562
1673608519.3137052,9.058283,99.6737222148307
1673608519.314712,9.063476,99.69193629375299
1673608519.3157191,9.139636,99.71298312371871
1673608519.3167262,9.166465,99.7614682353362
1673608519.317733,9.178918,99.73825953361946
1673608519.318741,9.155214,99.67075084386174
1673608519.3197482,9.12901,99.65412554583611
1673608519.320755,9.059821,99.65086702482469
1673608519.321762,9.007966,99.64760773220044
1673608519.3227692,9.003398,99.64434843957619
1673608519.323776,9.015418,99.64108991856477
1673608519.324783,9.032415,99.63783062594052
1673608519.3257902,9.051767,99.63457133331627
1673608519.326797,9.072899,99.63131281230486
1673608519.327804,9.092396,99.6280535196806
1673608519.3288112,9.104994,99.62479422705636
1673608519.329818,9.093454,99.62153570604494
1673608519.330825,9.066,99.61827641342069
1673608519.3318331,9.001234,99.6150140343451
1673608519.3328402,8.95813,99.61175474172084
1673608519.333847,8.920218,99.60849622070943
1673608519.3348541,8.920506,99.60523692808518
