measure_time,emg_ch_1,grip_force_inter
1673607533.131406,2.36554,3.722542
1673607533.132413,2.364458,3.776809
1673607533.13342,2.361693,3.776809
1673607533.134427,2.362318,3.776927612515553
1673607533.135434,2.359121,3.7826196653926107
1673607533.136441,2.357558,3.7883130661391626
1673607533.137448,2.360082,3.794006466885715
1673607533.138455,2.358496,3.799698519762772
1673607533.139462,2.356044,3.8053919205093245
1673607533.140469,2.355419,3.811085321255877
1673607533.141476,2.355395,3.816777374132934
1673607533.142483,2.354745,3.8224707748794864
1673607533.143491,2.359938,3.8281695671040183
1673607533.1444979,2.361068,3.8338616199810756
1673607533.145505,2.361068,3.839555020727628
1673607533.146512,2.363568,3.84524842147418
1673607533.1475189,2.363833,3.8509404743512374
1673607533.148526,2.365131,3.8566338750977893
1673607533.149533,2.365035,3.8623272758443417
1673607533.1505399,2.362847,3.868019328721399
1673607533.151547,2.350995,3.873712729467951
1673607533.152554,2.340754,3.8794061302145035
1673607533.1535609,2.349625,3.8850981830915607
1673607533.154568,2.357943,3.890791583838113
1673607533.155576,2.353856,3.896490376062645
1673607533.156583,2.359385,3.902183776809197
1673607533.15759,2.367583,3.9078758296862546
1673607533.158597,2.363088,3.9135692304328065
1673607533.159604,2.35412,3.919262631179359
1673607533.160611,2.355419,3.924954684056416
1673607533.161618,2.349336,3.9306480848029683
1673607533.162625,2.343999,3.9363414855495207
1673607533.163632,2.341956,3.942033538426578
1673607533.164639,2.343759,3.9477269391731302
1673607533.165646,2.352822,3.953420339919682
1673607533.166653,2.363304,3.9711178145411203
1673607533.16766,2.366477,4.016576415593705
1673607533.168668,2.366237,4.020591880305198
1673607533.1696749,2.359986,3.993894
1673607533.170682,2.353423,4.013854870767764
1673607533.171689,2.352462,4.06625
1673607533.1726959,2.351308,4.061005311397234
1673607533.173703,2.356909,4.048161
1673607533.17471,2.358015,4.037162680972819
1673607533.1757169,2.364242,4.015435622976799
1673607533.176724,2.374723,4.0266195796133015
1673607533.177731,2.382056,4.037803536249804
1673607533.1787379,2.376767,4.0489848451693
1673607533.179745,2.36691,4.060168801805803
1673607533.180753,2.35174,4.0713633493103325
1673607533.18176,2.338686,4.082547305946835
1673607533.182767,2.338422,4.093728614866331
1673607533.183774,2.347605,4.104912571502834
1673607533.184781,2.351789,4.1160965281393365
1673607533.185788,2.351284,4.127277837058832
1673607533.186795,2.350514,4.138461793695335
1673607533.187802,2.350226,4.149645750331837
1673607533.188809,2.355947,4.160827059251334
1673607533.189816,2.360708,4.172011015887836
1673607533.190823,2.361284,4.183194972524339
1673607533.19183,2.360323,4.194376281443835
1673607533.192837,2.362102,4.205560238080338
1673607533.193845,2.364794,4.216754785584867
1673607533.1948519,2.36792,4.227936094504363
1673607533.195859,2.365203,4.2391200511408655
1673607533.196866,2.365732,4.250304007777368
1673607533.1978729,2.369819,4.261485316696864
1673607533.19888,2.358881,4.272669273333367
1673607533.199887,2.340369,4.2838532299698695
1673607533.2008939,2.334263,4.295034538889365
1673607533.201901,2.336162,4.306218495525868
1673607533.202908,2.339696,4.317402452162371
1673607533.2039149,2.351428,4.328583761081867
1673607533.204922,2.378474,4.339767717718369
1673607533.20593,2.365876,4.350962265222899
1673607533.206937,2.346115,4.362146221859401
1673607533.207944,2.345778,4.373327530778898
1673607533.208951,2.35049,4.3845114874154
1673607533.209958,2.353856,4.395695444051903
1673607533.210965,2.335441,4.406876752971399
1673607533.211972,2.3183,4.418060709607901
1673607533.212979,2.317963,4.429244666244404
1673607533.213986,2.315367,4.4404259751639
1673607533.214993,2.323276,4.4516099318004025
1673607533.216,2.37518,4.462793888436905
1673607533.217007,2.425064,4.473975197356401
1673607533.218014,2.393475,4.485159153992904
1673607533.219022,2.362487,4.4963537014974335
1673607533.2200289,2.356717,4.507535010416929
1673607533.221036,2.361645,4.518718967053432
1673607533.222043,2.401673,4.529902923689935
1673607533.2230499,2.423573,4.543905334287077
1673607533.224057,2.407803,4.554688
1673607533.225064,2.393258,4.5622488051979015
1673607533.226071,2.381407,4.534343755364807
1673607533.227078,2.375108,4.507175470119522
1673607533.228085,2.380902,4.532641280544489
1673607533.229092,2.397826,4.51851
1673607533.230099,2.390518,4.563302953835935
1673607533.231107,2.385397,4.582526518235995
1673607533.232114,2.383137,4.576618593052787
1673607533.233121,2.36602,4.584883008468945
1673607533.234128,2.355659,4.593149380886149
1673607533.235135,2.356188,4.601415753303352
1673607533.236142,2.378882,4.60968016871951
1673607533.237149,2.392465,4.617946541136714
1673607533.238156,2.383234,4.626212913553918
1673607533.239163,2.385109,4.634477328970076
1673607533.24017,2.372247,4.642743701387279
1673607533.241177,2.350971,4.651010073804483
1673607533.242184,2.340008,4.659274489220641
1673607533.243192,2.34412,4.667548689642028
1673607533.244199,2.364578,4.675815062059232
1673607533.2452059,2.379339,4.6840794774753896
1673607533.246213,2.380108,4.692345849892593
1673607533.24722,2.377175,4.700612222309797
1673607533.248227,2.371382,4.708876637725955
1673607533.249234,2.354577,4.717143010143158
1673607533.250241,2.348303,4.725409382560362
1673607533.251248,2.351644,4.73367379797652
1673607533.252255,2.354072,4.741940170393724
1673607533.253262,2.356308,4.750206542810927
1673607533.254269,2.363616,4.758470958227085
1673607533.255276,2.369891,4.766737330644289
1673607533.256284,2.370853,4.775011531065675
1673607533.257291,2.364698,4.78327790348288
1673607533.258298,2.361765,4.791542318899038
1673607533.259305,2.361044,4.799808691316241
1673607533.260312,2.356068,4.808075063733445
1673607533.261319,2.352894,4.816339479149603
1673607533.262326,2.348447,4.824605851566806
1673607533.263333,2.339672,4.83287222398401
1673607533.26434,2.33823,4.841136639400168
1673607533.265347,2.334359,4.849403011817372
1673607533.266354,2.338157,4.857669384234575
1673607533.267361,2.342316,4.865933799650733
1673607533.268369,2.353375,4.8742080000721195
1673607533.269376,2.377247,4.882474372489323
1673607533.270383,2.389436,4.890738787905481
1673607533.27139,2.390013,4.899005160322685
1673607533.272397,2.397465,4.907271532739889
1673607533.273404,2.40939,4.915535948156047
1673607533.274411,2.398451,4.923802320573251
1673607533.275418,2.384652,4.9320686929904545
1673607533.276425,2.375156,4.940333108406612
1673607533.277432,2.362078,4.948599480823816
1673607533.278439,2.352293,4.9249386981402
1673607533.279446,2.357294,4.945240560801144
1673607533.280453,2.357702,4.979352628040058
1673607533.281461,2.371165,4.941831051013111
1673607533.282468,2.387801,4.92625895565093
1673607533.283475,2.398018,4.9444771740581785
1673607533.284482,2.387681,4.962693176638856
1673607533.285489,2.39321,5.011355579876013
1673607533.286496,2.402658,5.022569552217453
1673607533.287503,2.389172,5.016950613262969
1673607533.28851,2.380685,5.034483388728468
1673607533.289517,2.374098,5.052012013442199
1673607533.290524,2.360275,5.069544788907697
1673607533.291531,2.350707,5.087077564373195
1673607533.292538,2.359794,5.104606189086926
1673607533.293546,2.364698,5.122155567559494
1673607533.294553,2.363688,5.139688343024993
1673607533.29556,2.367727,5.157216967738724
1673607533.296567,2.368978,5.174749743204222
1673607533.297574,2.368809,5.19228251866972
1673607533.298581,2.367655,5.209811143383451
1673607533.299588,2.354745,5.227343918848949
1673607533.300595,2.345129,5.244876694314448
1673607533.301602,2.3471,5.262405319028179
1673607533.302609,2.343807,5.279938094493677
1673607533.303616,2.337917,5.2974708699591755
1673607533.304623,2.342244,5.3149994946729064
1673607533.30563,2.346139,5.332532270138405
1673607533.306638,2.351139,5.350081648610972
1673607533.307645,2.357895,5.367614424076471
1673607533.308652,2.369939,5.385143048790202
1673607533.309659,2.382681,5.4026758242557005
1673607533.310666,2.381911,5.420208599721199
1673607533.311673,2.362967,5.43773722443493
1673607533.31268,2.345514,5.455269999900428
1673607533.313687,2.332292,5.472802775365927
1673607533.314694,2.317459,5.490331400079658
1673607533.315701,2.340585,5.507864175545156
1673607533.316708,2.406865,5.525396951010654
1673607533.317715,2.422708,5.542925575724385
1673607533.318723,2.410279,5.560474954196953
1673607533.31973,2.411409,5.578007729662451
1673607533.320737,2.39559,5.595536354376183
1673607533.321744,2.387994,5.613069129841681
1673607533.322751,2.393258,5.630601905307179
1673607533.323758,2.412371,5.64813053002091
1673607533.324765,2.431844,5.665663305486408
1673607533.325772,2.438383,5.683196080951907
1673607533.326779,2.452062,5.700724705665637
1673607533.327786,2.448215,5.718257481131136
1673607533.328793,2.459009,5.735790256596634
1673607533.3298,2.466582,5.753318881310365
1673607533.330807,2.458865,5.770851656775863
1673607533.331815,2.44771,5.788401035248431
1673607533.332822,2.428334,5.805933810713929
1673607533.333829,2.41528,5.823462435427661
1673607533.334836,2.406264,5.840995210893159
1673607533.335843,2.395831,5.8585279863586575
1673607533.33685,2.406096,5.876056611072388
1673607533.337857,2.405351,5.8935893865378866
1673607533.338864,2.38684,5.911122162003386
1673607533.339871,2.380902,5.928650786717116
1673607533.340878,2.388955,5.946183562182615
1673607533.341885,2.389652,5.963716337648113
1673607533.342892,2.391527,6.014122542918455
1673607533.3439,2.39398,6.036269143027414
1673607533.344907,2.387296,6.038081
1673607533.345914,2.38083,6.137368507159905
1673607533.346921,2.357414,6.129953264649833
1673607533.347928,2.346187,6.195681482002384
1673607533.348935,2.358664,6.200891
1673607533.349942,2.366285,6.217931924892704
1673607533.350949,2.379339,6.21898
1673607533.351956,2.396336,6.230037907129725
1673607533.352963,2.400254,6.241688842454236
1673607533.35397,2.390686,6.253339777778746
1673607533.354977,2.372031,6.264987954832582
1673607533.355984,2.364722,6.276638890157093
1673607533.356992,2.353327,6.2883008585642965
1673607533.357999,2.35037,6.299951793888806
1673607533.359006,2.349457,6.311599970942644
1673607533.360013,2.362607,6.323250906267154
1673607533.36102,2.37429,6.334901841591663
1673607533.362027,2.374699,6.3465500186455
1673607533.363034,2.371141,6.358200953970011
1673607533.364041,2.367775,6.36985188929452
1673607533.365048,2.367174,6.381500066348357
1673607533.366055,2.362198,6.393151001672868
1673607533.367062,2.358977,6.404801936997377
1673607533.368069,2.360636,6.416450114051214
1673607533.369077,2.366189,6.428112082458418
1673607533.370084,2.373834,6.439763017782928
1673607533.371091,2.377704,6.451411194836765
1673607533.372098,2.383185,6.4630621301612745
1673607533.373105,2.382801,6.474713065485785
1673607533.374112,2.382392,6.486361242539622
1673607533.375119,2.38357,6.4980121778641315
1673607533.376126,2.381479,6.509663113188642
1673607533.377133,2.384868,6.521311290242479
1673607533.37814,2.388282,6.532962225566989
1673607533.379147,2.383786,6.544613160891499
1673607533.380154,2.377055,6.556261337945336
1673607533.381161,2.370684,6.567912273269846
1673607533.382169,2.359914,6.579574241677049
1673607533.383176,2.362559,6.59122517700156
1673607533.384183,2.370973,6.602873354055396
1673607533.38519,2.381382,6.614524289379906
1673607533.386197,2.381959,6.626175224704417
1673607533.387204,2.386431,6.637823401758253
1673607533.388211,2.389484,6.649474337082763
1673607533.389218,2.400903,6.661125272407274
1673607533.390225,2.438118,6.67277344946111
1673607533.391232,2.460692,6.68442438478562
1673607533.392239,2.473698,6.69607532011013
1673607533.393246,2.480862,6.707723497163967
1673607533.394254,2.476751,6.719385465571171
1673607533.395261,2.473458,6.731036400895681
1673607533.396268,2.456966,6.742684577949517
1673607533.397275,2.438214,6.754335513274028
1673607533.398282,2.408765,6.765986448598538
1673607533.399289,2.39273,6.777634625652374
1673607533.400296,2.382007,6.789285560976885
1673607533.401303,2.341812,6.800936496301395
1673607533.40231,2.332075,6.812584673355231
1673607533.403317,2.343206,6.824235608679742
1673607533.404324,2.342052,6.835886544004252
1673607533.405331,2.340153,6.847534721058088
1673607533.406338,2.34912,6.885233350023844
1673607533.407346,2.352149,6.895226150214592
1673607533.408353,2.359818,6.877002513590844
1673607533.40936,2.368737,6.904517694874851
1673607533.410367,2.38244,6.924494
1673607533.411374,2.420689,6.924494
1673607533.412381,2.466774,6.924494
1673607533.413388,2.497354,6.9006175250357655
1673607533.414395,2.516683,6.912452251788269
1673607533.415402,2.54118,6.930291956711511
1673607533.416409,2.55558,6.938955051564507
1673607533.417416,2.557119,6.947618146417504
1673607533.418423,2.553633,6.9562791903484245
1673607533.419431,2.527813,6.964950488889729
1673607533.420438,2.483314,6.9736135837427256
1673607533.421445,2.453937,6.982274627673646
1673607533.422452,2.427997,6.990937722526642
1673607533.423459,2.411674,6.999600817379639
1673607533.424466,2.400735,7.008261861310559
1673607533.425473,2.408644,7.016924956163556
1673607533.42648,2.413212,7.025588051016552
1673607533.427487,2.41463,7.020290761802575
1673607533.428494,2.404894,6.94793955137068
1673607533.429501,2.399653,6.984370226037195
1673607533.430508,2.381671,7.02080514401526
1673607533.431515,2.356885,7.051126
1673607533.432523,2.32556,7.047925704816405
1673607533.43353,2.293154,7.046355748688603
1673607533.434537,2.295197,7.098483467811159
1673607533.435544,2.323901,7.072798303694874
1673607533.436551,2.360034,7.092213253607842
1673607533.437558,2.388955,7.116319972196121
1673607533.438565,2.39285,7.1404323992188266
1673607533.439572,2.396985,7.164544826241532
1673607533.440579,2.413597,7.188651544829811
1673607533.441586,2.416313,7.2127639718525165
1673607533.442593,2.417948,7.236876398875222
1673607533.4436,2.401889,7.260983117463501
1673607533.444608,2.391311,7.285118378223917
1673607533.445615,2.394052,7.3092308052466235
1673607533.446622,2.397201,7.333337523834901
1673607533.447629,2.386575,7.357449950857608
1673607533.448636,2.364482,7.381562377880313
1673607533.449643,2.34799,7.405669096468591
1673607533.45065,2.337316,7.429781523491298
1673607533.451657,2.34299,7.453893950514003
1673607533.452664,2.364602,7.478000669102282
1673607533.453671,2.377368,7.502113096124988
1673607533.454678,2.379531,7.526225523147693
1673607533.455685,2.371454,7.550332241735972
1673607533.456692,2.355467,7.5744446687586775
1673607533.4577,2.344336,7.5985799295190946
1673607533.458707,2.336811,7.6226923565418
1673607533.459714,2.335104,7.646799075130078
1673607533.460721,2.341235,7.6709115021527845
1673607533.461728,2.352702,7.69502392917549
1673607533.462735,2.360587,7.719130647763769
1673607533.463742,2.360683,7.7432430747864744
1673607533.464749,2.351452,7.76735550180918
1673607533.465756,2.346259,7.791462220397459
1673607533.466763,2.342389,7.815574647420164
1673607533.4677699,2.332051,7.839681366008443
1673607533.468777,2.331186,7.863793793031149
1673607533.469785,2.33972,7.887929053791565
1673607533.470792,2.346452,7.917500940152599
1673607533.471799,2.345201,7.994893730631705
1673607533.472806,2.349793,8.080810809728183
1673607533.473813,2.361765,8.083450406294707
1673607533.47482,2.367198,8.072743331823599
1673607533.475827,2.364193,8.117062147114925
1673607533.476834,2.361886,8.189940386742967
1673607533.477841,2.357101,8.235932791179977
1673607533.478848,2.356356,8.263232526227945
1673607533.479855,2.358159,8.304635432252056
1673607533.480862,2.3584,8.350877642744063
1673607533.481869,2.355034,8.397130803321435
1673607533.482877,2.356693,8.44342776424026
1673607533.483884,2.361789,8.489680924817632
1673607533.484891,2.365852,8.535923135309638
1673607533.485898,2.364842,8.58217629588701
1673607533.486905,2.372824,8.62842945646438
1673607533.487912,2.379892,8.674671666956387
1673607533.488919,2.383907,8.720924827533757
1673607533.4899259,2.400062,8.767167038025764
1673607533.490933,2.406745,8.813420198603135
1673607533.49194,2.402081,8.859673359180507
1673607533.4929469,2.389075,8.905915569672512
1673607533.493954,2.372848,8.952168730249884
1673607533.494962,2.378353,8.99846569116871
1673607533.495969,2.398788,9.044718851746081
1673607533.496976,2.407226,9.090961062238087
1673607533.497983,2.415087,9.137214222815459
1673607533.49899,2.428742,9.183467383392829
1673607533.499997,2.41302,9.229709593884836
1673607533.501004,2.405351,9.275962754462206
1673607533.502011,2.399269,9.322215915039578
1673607533.503018,2.401865,9.368458125531584
1673607533.504025,2.408452,9.414711286108956
1673607533.505032,2.422612,9.460964446686326
1673607533.506039,2.421915,9.507206657178333
1673607533.507046,2.375468,9.553459817755703
1673607533.508054,2.329214,9.59975677867453
1673607533.509061,2.309068,9.6460099392519
1673607533.510068,2.310775,9.692252149743908
1673607533.511075,2.324358,9.738505310321278
1673607533.5120819,2.34073,9.784747520813285
1673607533.513089,2.350058,9.831000681390655
1673607533.514096,2.347413,9.877253841968027
1673607533.5151029,2.345538,9.923496052460033
1673607533.51611,2.358688,9.969749213037405
1673607533.517117,2.36316,10.016002373614775
1673607533.5181239,2.371141,10.062244584106782
1673607533.519131,2.375997,10.108497744684152
1673607533.520139,2.378401,10.15479470560298
1673607533.521146,2.388667,10.20104786618035
1673607533.522153,2.394941,10.247290076672357
1673607533.52316,2.412034,10.293543237249727
1673607533.524167,2.438022,10.339796397827097
1673607533.525174,2.465284,10.386038608319105
1673607533.526181,2.492979,10.411385909871244
1673607533.527188,2.509542,10.498168752085816
1673607533.528195,2.501176,10.510588564139248
1673607533.529202,2.480261,10.548238074391989
1673607533.530209,2.44872,10.574700961620977
1673607533.531216,2.407683,10.635568538865046
1673607533.532223,2.377031,10.69409877539342
1673607533.533231,2.369242,10.719818448152562
1673607533.5342379,2.390157,10.752644337148306
1673607533.535245,2.414414,10.775268729475565
1673607533.536252,2.42052,10.794636015989546
1673607533.5372589,2.406216,10.813998717445168
1673607533.538266,2.400711,10.83336600395915
1673607533.539273,2.392609,10.85273329047313
1673607533.5402799,2.378498,10.872095991928752
1673607533.541287,2.365323,10.891463278442734
1673607533.542294,2.352365,10.910830564956715
1673607533.5433009,2.332748,10.930193266412337
1673607533.544308,2.315655,10.949560552926318
1673607533.545316,2.324527,10.968946179673742
1673607533.546323,2.333758,10.988313466187723
1673607533.54733,2.333277,11.007676167643345
1673607533.548337,2.333566,11.027043454157326
1673607533.549344,2.339576,11.046410740671307
1673607533.550351,2.363448,11.065773442126929
1673607533.551358,2.401913,11.08514072864091
1673607533.552365,2.417491,11.104508015154892
1673607533.553372,2.447903,11.123870716610513
1673607533.554379,2.464322,11.143238003124495
1673607533.555386,2.459754,11.162605289638476
1673607533.556393,2.441219,11.181967991094098
1673607533.5574,2.414847,11.201335277608079
1673607533.558408,2.384147,11.220720904355503
1673607533.5594149,2.358015,11.240083605811122
1673607533.560422,2.337196,11.259450892325104
1673607533.561429,2.330801,11.278818178839087
1673607533.5624359,2.339408,11.298180880294707
1673607533.563443,2.332676,11.317548166808688
1673607533.56445,2.331859,11.336915453322671
1673607533.5654569,2.332196,11.356278154778291
1673607533.566464,2.338518,11.375645441292274
1673607533.567471,2.34537,11.395012727806256
1673607533.5684779,2.346043,11.414375429261876
1673607533.569485,2.349024,11.433742715775857
1673607533.570493,2.352149,11.45312834252328
1673607533.5715,2.351308,11.472495629037262
1673607533.572507,2.357751,11.491858330492883
1673607533.573514,2.364193,11.511225617006865
1673607533.574521,2.368593,11.530592903520846
1673607533.575528,2.37292,11.549955604976468
1673607533.576535,2.374459,11.56932289149045
1673607533.577542,2.372415,11.58869017800443
1673607533.578549,2.372295,11.608052879460052
1673607533.579556,2.368929,11.627420165974033
1673607533.580563,2.368689,11.646787452488015
1673607533.58157,2.369338,11.666150153943637
1673607533.582577,2.368953,11.685517440457618
1673607533.583585,2.366766,11.704903067205041
1673607533.5845919,2.366646,11.724265768660663
1673607533.585599,2.363352,11.743633055174644
1673607533.586606,2.358856,11.763000341688626
1673607533.5876129,2.350899,11.782363043144247
1673607533.58862,2.346331,11.801730329658229
1673607533.589627,2.350562,11.83191216881259
1673607533.5906339,2.366069,11.868335126340883
1673607533.591641,2.374242,11.84580923032904
1673607533.592648,2.372103,11.826918
1673607533.5936549,2.370564,11.814870939914163
1673607533.594662,2.382993,11.857520207628129
1673607533.59567,2.416169,11.844230648068669
1673607533.596677,2.450258,11.826918
1673607533.597684,2.481295,11.826918
1673607533.598691,2.509567,11.830324730808597
1673607533.599698,2.527597,11.835212648925282
1673607533.600705,2.537021,11.840099409864381
1673607533.601712,2.523342,11.844987327981066
1673607533.602719,2.497594,11.827030136623748
1673607533.603726,2.457447,11.862732798808105
1673607533.604733,2.427492,11.826611755364807
1673607533.60574,2.396913,11.81057050286123
1673607533.606747,2.347245,11.880624404052444
1673607533.607754,2.307458,11.863917927753612
1673607533.608762,2.28147,11.885800560094943
1673607533.6097689,2.279619,11.90765731420503
1673607533.610776,2.30866,11.929519243961366
1673607533.611783,2.322339,11.951381173717701
1673607533.6127899,2.335946,11.973237927827787
1673607533.613797,2.345922,11.995099857584123
1673607533.614804,2.344216,12.016961787340458
1673607533.6158109,2.341595,12.038818541450544
1673607533.616818,2.342172,12.06068047120688
1673607533.617825,2.350418,12.082542400963215
1673607533.6188319,2.355755,12.1043991550733
1673607533.619839,2.358015,12.126261084829636
1673607533.620847,2.358881,12.148143717170967
1673607533.621854,2.362342,12.170005646927303
1673607533.622861,2.360972,12.191862401037389
1673607533.623868,2.35989,12.213724330793724
1673607533.624875,2.354745,12.23558626055006
1673607533.625882,2.349865,12.257443014660145
1673607533.626889,2.348855,12.27930494441648
1673607533.627896,2.375348,12.301166874172816
1673607533.628903,2.406096,12.323023628282902
1673607533.62991,2.418838,12.344885558039238
1673607533.630917,2.428886,12.366747487795573
1673607533.631924,2.443671,12.388604241905659
1673607533.632931,2.449585,12.410466171661994
1673607533.633939,2.445451,12.432348804003327
1673607533.6349459,2.433959,12.454205558113413
1673607533.635953,2.397562,12.476067487869749
1673607533.63696,2.367295,12.497929417626084
1673607533.6379669,2.367559,12.51978617173617
1673607533.638974,2.369747,12.541648101492505
1673607533.639981,2.368376,12.56351003124884
1673607533.6409879,2.350971,12.585366785358927
1673607533.641995,2.334984,12.607228715115262
1673607533.643002,2.340441,12.629090644871598
1673607533.6440089,2.334599,12.650947398981684
1673607533.645016,2.332989,12.672809328738019
1673607533.646024,2.349096,12.694691961079352
1673607533.647031,2.359482,12.716553890835687
1673607533.648038,2.363376,12.738410644945773
1673607533.649045,2.359746,12.760272574702109
1673607533.650052,2.353712,12.782134504458444
1673607533.651059,2.349985,12.80399125856853
1673607533.652066,2.350394,12.825853188324865
1673607533.653073,2.355226,12.852881223361145
1673607533.65408,2.358207,12.895889128278494
1673607533.655087,2.362583,12.916993737720553
1673607533.656094,2.361958,12.914754677473182
1673607533.657101,2.359914,12.941543711015736
1673607533.658108,2.355299,12.923325319027182
1673607533.659116,2.360708,12.919564325226514
1673607533.6601229,2.366213,12.937776649106079
1673607533.66113,2.363977,12.941017516928946
1673607533.662137,2.360683,12.935877417555785
1673607533.6631439,2.366453,12.948937194644166
1673607533.664151,2.366405,12.962000064267972
1673607533.665158,2.362751,12.975062933891776
1673607533.6661649,2.361741,12.988122710980159
1673607533.667172,2.368184,13.001185580603963
1673607533.668179,2.365419,13.014248450227768
1673607533.6691859,2.365251,13.027308227316151
1673607533.670193,2.36477,13.040371096939955
1673607533.671201,2.366237,13.053446336705449
1673607533.672208,2.370829,13.066509206329254
1673607533.673215,2.367247,13.079568983417635
1673607533.674222,2.360106,13.092631853041441
1673607533.675229,2.360972,13.105694722665245
1673607533.676236,2.364458,13.118754499753628
1673607533.677243,2.364939,13.131817369377432
1673607533.67825,2.371622,13.144880239001237
1673607533.679257,2.374699,13.157940016089618
1673607533.680264,2.375925,13.171002885713424
1673607533.681271,2.378978,13.184065755337228
1673607533.682278,2.391287,13.197125532425611
1673607533.683285,2.413501,13.210188402049415
1673607533.684293,2.42528,13.22326364181491
1673607533.6852999,2.420689,13.236323418903291
1673607533.686307,2.409582,13.269854182403433
1673607533.687314,2.398211,13.241958040772532
1673607533.6883209,2.394485,13.302772723957093
1673607533.689328,2.389821,13.228634963280877
1673607533.690335,2.374892,13.30218006103958
1673607533.6913419,2.371261,13.393231493444576
1673607533.692349,2.379387,13.333903472579877
1673607533.693356,2.377464,13.294706572484502
1673607533.6943629,2.369002,13.309184998092968
1673607533.69537,2.362102,13.32082938315666
1673607533.696378,2.365419,13.332051115174412
1673607533.697385,2.378137,13.343262230605584
1673607533.698392,2.395182,13.354470691890107
1673607533.699399,2.414318,13.365681807321279
1673607533.700406,2.416602,13.376892922752448
1673607533.701413,2.414895,13.388101384036974
1673607533.70242,2.416962,13.399312499468143
1673607533.703427,2.417948,13.410523614899315
1673607533.704434,2.419895,13.421732076183838
1673607533.705441,2.413957,13.43294319161501
1673607533.706448,2.393956,13.44415430704618
1673607533.707455,2.374916,13.454491628278493
1673607533.708462,2.369939,13.435596949451599
1673607533.70947,2.364866,13.401571169527896
1673607533.7104769,2.379315,13.41978502431466
1673607533.711484,2.383498,13.432672690510254
1673607533.712491,2.383209,13.366967438721984
1673607533.7134979,2.37869,13.403394967342074
1673607533.714505,2.359962,13.435489122794468
1673607533.715512,2.338879,13.415696548640915
1673607533.7165189,2.331474,13.383396160306514
1673607533.717526,2.33936,13.391202630191572
1673607533.718533,2.347317,13.39900910007663
1673607533.7195399,2.352894,13.40681372183908
1673607533.720547,2.351115,13.414620191724138
1673607533.721555,2.351115,13.418845
1673607533.722562,2.349432,13.444359248390942
1673607533.723569,2.348855,13.47100846648761
1673607533.724576,2.349865,13.466546795709442
1673607533.725583,2.34811,13.462085124931273
1673607533.72659,2.342749,13.45762451041986
1673607533.727597,2.333878,13.453162839641692
1673607533.728604,2.332748,13.448701168863524
1673607533.729611,2.343134,13.444240554352112
1673607533.730618,2.354385,13.439778883573942
1673607533.731625,2.362318,13.435317212795773
1673607533.732632,2.370756,13.430856598284361
1673607533.733639,2.374315,13.426394927506193
1673607533.734647,2.385493,13.421929031661
1673607533.7356539,2.398235,13.417468417149585
1673607533.736661,2.403019,13.413006746371417
1673607533.737668,2.394052,13.40854507559325
1673607533.7386749,2.38095,13.404084461081837
1673607533.739682,2.368184,13.399622790303667
1673607533.740689,2.353952,13.395161119525499
1673607533.7416959,2.35626,13.390700505014086
1673607533.742703,2.362823,13.386238834235918
1673607533.74371,2.361837,13.38177716345775
1673607533.744717,2.358592,13.377316548946336
1673607533.745724,2.35965,13.372854878168168
1673607533.746732,2.35412,13.368388982322974
1673607533.747739,2.350755,13.363927311544806
1673607533.748746,2.356741,13.359466697033394
1673607533.749753,2.362006,13.355005026255224
1673607533.75076,2.367295,13.350543355477056
1673607533.751767,2.373137,13.346082740965644
1673607533.752774,2.375973,13.341621070187475
1673607533.753781,2.376142,13.337159399409307
1673607533.754788,2.374266,13.332698784897893
1673607533.755795,2.368016,13.328237114119725
1673607533.756802,2.370853,13.323775443341557
1673607533.757809,2.388691,13.319314828830144
1673607533.758817,2.401601,13.314848932984951
1673607533.759824,2.415953,13.310387262206781
1673607533.7608309,2.429223,13.305926647695369
1673607533.761838,2.43105,13.3014649769172
1673607533.762845,2.418934,13.297003306139032
1673607533.763852,2.405663,13.29254269162762
1673607533.764859,2.382056,13.28808102084945
1673607533.765866,2.363088,13.283619350071282
1673607533.766873,2.374146,13.27915873555987
1673607533.76788,2.399028,13.274697064781702
1673607533.768887,2.417684,13.270235394003532
1673607533.769894,2.420857,13.26577477949212
1673607533.770901,2.409101,13.261313108713951
1673607533.771909,2.385301,13.256847212868758
1673607533.772916,2.357751,13.241130042918455
1673607533.773923,2.327051,13.268008241058656
1673607533.77493,2.324286,13.25896441010968
1673607533.775937,2.343278,13.2254628045292
1673607533.776944,2.358712,13.23526843776824
1673607533.777951,2.357198,13.237947
1673607533.778958,2.34787,13.206614864839093
1673607533.779965,2.341331,13.201768
1673607533.780972,2.339215,13.217687527658558
1673607533.781979,2.346692,13.225510568552519
1673607533.782986,2.351019,13.231926859871328
1673607533.783994,2.348855,13.238350748030438
1673607533.785001,2.349769,13.244768558717306
1673607533.786008,2.348182,13.251184850036115
1673607533.787015,2.345778,13.257602660722984
1673607533.788022,2.353423,13.264020471409854
1673607533.789029,2.363688,13.270436762728663
1673607533.790036,2.369891,13.27685457341553
1673607533.791043,2.370805,13.2832723841024
1673607533.79205,2.371333,13.289688675421209
1673607533.793057,2.374266,13.296106486108078
1673607533.794064,2.374194,13.302524296794946
1673607533.795071,2.372896,13.308940588113755
1673607533.796078,2.368328,13.315358398800624
1673607533.797086,2.365059,13.321782286959735
1673607533.798093,2.367992,13.328200097646604
1673607533.7991,2.367848,13.334616388965413
1673607533.800107,2.367727,13.341034199652281
1673607533.801114,2.364554,13.34745201033915
1673607533.802121,2.360227,13.35386830165796
1673607533.803128,2.356645,13.360286112344829
1673607533.804135,2.358905,13.366703923031697
1673607533.805142,2.366405,13.373120214350505
1673607533.806149,2.381935,13.379538025037375
1673607533.807156,2.399172,13.385955835724245
1673607533.808163,2.410399,13.392372127043053
1673607533.809171,2.416938,13.398796015202162
1673607533.810178,2.431651,13.405213825889032
1673607533.811185,2.443239,13.41163011720784
1673607533.812192,2.433911,13.41804792789471
1673607533.813199,2.417852,13.42446573858158
1673607533.814206,2.389364,13.430882029900388
1673607533.815213,2.364722,13.437299840587256
1673607533.81622,2.356765,13.443717651274126
1673607533.817227,2.356212,13.450133942592934
1673607533.818234,2.363088,13.456551753279804
1673607533.819241,2.361284,13.462969563966672
1673607533.820248,2.352846,13.46938585528548
1673607533.821255,2.349865,13.47580366597235
1673607533.822263,2.351452,13.48222755413146
1673607533.82327,2.351933,13.48864536481833
1673607533.824277,2.353568,13.495061656137139
1673607533.825284,2.361837,13.501479466824007
1673607533.826291,2.376093,13.507897277510876
1673607533.827298,2.376262,13.514313568829685
1673607533.828305,2.363448,13.520731379516555
1673607533.829312,2.352269,13.527149190203422
1673607533.830319,2.352053,13.533565481522231
1673607533.831326,2.356428,13.5399832922091
1673607533.832333,2.356404,13.54640110289597
1673607533.83334,2.351115,13.55281739421478
1673607533.834348,2.353616,13.55924128237389
1673607533.835355,2.362679,13.565659093060757
1673607533.836362,2.371141,13.572075384379566
1673607533.837369,2.372584,13.578493195066436
1673607533.838376,2.365612,13.553926296852646
1673607533.839383,2.364121,13.527388
1673607533.84039,2.372896,13.574879585121602
1673607533.841397,2.380397,13.579339334922526
1673607533.842404,2.381046,13.57472390033381
1673607533.843411,2.376863,13.619505843586076
1673607533.844418,2.379171,13.655938410011919
1673607533.845425,2.382416,13.682236079637578
1673607533.846432,2.38143,13.690198
1673607533.84744,2.379579,13.694180830541237
1673607533.848447,2.370612,13.701155737757732
1673607533.849454,2.356476,13.708128993717784
1673607533.850461,2.351909,13.71510390093428
1673607533.851468,2.355299,13.722078808150775
1673607533.852475,2.358592,13.729052064110824
1673607533.853482,2.361669,13.73602697132732
1673607533.854489,2.362919,13.743001878543815
1673607533.855496,2.367198,13.749975134503867
1673607533.856503,2.367126,13.756950041720362
1673607533.85751,2.365996,13.763924948936856
1673607533.858517,2.359554,13.770898204896907
1673607533.859525,2.352437,13.777879717139175
1673607533.860532,2.351091,13.78485462435567
1673607533.861539,2.354818,13.791827880315722
1673607533.862546,2.356597,13.798802787532217
1673607533.863553,2.363833,13.805777694748711
1673607533.86456,2.373257,13.812750950708763
1673607533.865567,2.376863,13.819725857925258
1673607533.866574,2.384436,13.826700765141753
1673607533.867581,2.393811,13.833674021101805
1673607533.868588,2.39874,13.8406489283183
1673607533.869595,2.395735,13.847623835534794
1673607533.870602,2.392802,13.854597091494846
1673607533.871609,2.388763,13.86157199871134
1673607533.872617,2.383474,13.868553510953609
1673607533.873624,2.389075,13.875528418170104
1673607533.874631,2.394773,13.882501674130156
1673607533.875638,2.399701,13.88947658134665
1673607533.876645,2.393355,13.896451488563144
1673607533.877652,2.371406,13.903424744523196
1673607533.878659,2.354505,13.910399651739692
1673607533.879666,2.350202,13.917374558956187
1673607533.880673,2.35049,13.924347814916237
1673607533.88168,2.35126,13.931322722132732
1673607533.882687,2.347581,13.938297629349227
1673607533.883694,2.34698,13.945270885309279
1673607533.884702,2.347125,13.952252397551547
1673607533.885709,2.34448,13.959227304768042
1673607533.886716,2.344023,13.966200560728094
1673607533.887723,2.354625,13.973175467944587
1673607533.88873,2.370492,13.980150375161083
1673607533.889737,2.377704,13.987123631121134
1673607533.890744,2.373137,13.99409853833763
1673607533.891751,2.370348,14.023922181991425
1673607533.892758,2.380469,14.025467629082241
1673607533.893765,2.390758,13.997728
1673607533.894772,2.403332,13.970399723150358
1673607533.895779,2.405784,13.98039217313646
1673607533.896786,2.403187,14.015825
1673607533.897794,2.415376,13.996807918377089
1673607533.898801,2.412106,13.98927153250774
1673607533.899808,2.395086,13.987980470195518
1673607533.900815,2.376093,13.974394088080821
1673607533.901822,2.372968,13.964719630462213
1673607533.902829,2.37429,13.955047463198152
1673607533.903836,2.370059,13.945373005579544
1673607533.904843,2.360636,13.935698547960936
1673607533.90585,2.34698,13.926026380696875
1673607533.906857,2.33359,13.916351923078267
1673607533.907864,2.335441,13.906677465459659
1673607533.908871,2.342773,13.897005298195598
1673607533.909879,2.352414,13.88732167915879
1673607533.910886,2.355467,13.877647221540181
1673607533.911893,2.348904,13.867975054276123
1673607533.9129,2.335393,13.858300596657513
1673607533.913907,2.333397,13.848626139038904
1673607533.914914,2.35061,13.838953971774846
1673607533.915921,2.361188,13.829279514156237
1673607533.916928,2.35876,13.819605056537627
1673607533.917935,2.358592,13.809932889273568
1673607533.918942,2.368881,13.80025843165496
1673607533.919949,2.37643,13.79058397403635
1673607533.920956,2.380853,13.780911806772291
1673607533.921963,2.37857,13.771237349153683
1673607533.922971,2.373353,13.761553730116875
1673607533.923978,2.365371,13.751879272498265
1673607533.924985,2.363785,13.742207105234206
1673607533.925992,2.358592,13.732532647615598
1673607533.926999,2.346812,13.722858189996987
1673607533.928006,2.332171,13.713186022732929
1673607533.929013,2.331931,13.70351156511432
1673607533.93002,2.344216,13.69383710749571
1673607533.931027,2.348207,13.684164940231652
1673607533.932034,2.346163,13.674490482613043
1673607533.933041,2.348735,13.664816024994433
1673607533.934048,2.353423,13.655143857730375
1673607533.935056,2.354457,13.645460238693566
1673607533.936063,2.356861,13.635785781074958
1673607533.93707,2.360948,13.626113613810897
1673607533.938077,2.363833,13.616439156192289
1673607533.939084,2.364314,13.60676469857368
1673607533.940091,2.363665,13.59709253130962
1673607533.941098,2.359842,13.587418073691012
1673607533.942105,2.355491,13.577743616072404
1673607533.943112,2.355707,13.568071448808345
1673607533.944119,2.356789,13.558396991189735
1673607533.945126,2.361164,13.548722533571127
1673607533.946133,2.357991,13.539050366307068
1673607533.94714,2.359313,13.529375908688458
1673607533.948148,2.359121,13.51969228965165
1673607533.949155,2.358424,13.510017832033041
1673607533.950162,2.361092,13.500345664768982
1673607533.951169,2.362751,13.490671207150372
1673607533.952176,2.366886,13.480996749531764
1673607533.953183,2.374315,13.471324582267705
1673607533.95419,2.376622,13.461650124649095
1673607533.955197,2.384484,13.455031
1673607533.956204,2.392946,13.46678874368145
1673607533.957211,2.39773,13.467180334922526
1673607533.958218,2.401577,13.449513613733904
1673607533.959225,2.406433,13.43904723585391
1673607533.960233,2.401528,13.418845
1673607533.96124,2.389773,13.438438195994276
1673607533.962247,2.370203,13.45980756628517
1673607533.963254,2.344168,13.443719835756854
1673607533.964261,2.333037,13.459380019974747
1673607533.965268,2.333277,13.470844384115418
1673607533.966275,2.340369,13.482311463000144
1673607533.967282,2.345249,13.49377854188487
1673607533.968289,2.342797,13.505242906025543
1673607533.969296,2.338398,13.51670998491027
1673607533.970303,2.341162,13.528177063794995
1673607533.97131,2.3471,13.539641427935667
1673607533.972317,2.359722,13.551108506820393
1673607533.973325,2.367944,13.562586444681335
1673607533.974332,2.368473,13.57405352356606
1673607533.975339,2.372055,13.585517887706734
1673607533.976346,2.370131,13.59698496659146
1673607533.977353,2.362631,13.608452045476186
1673607533.97836,2.35977,13.619916409616858
1673607533.979367,2.356092,13.631383488501584
1673607533.980374,2.353832,13.64285056738631
1673607533.981381,2.35388,13.654314931526981
1673607533.982388,2.351284,13.665782010411707
1673607533.9833949,2.35061,13.67724637455238
1673607533.984402,2.350058,13.688713453437106
1673607533.98541,2.353664,13.700191391298048
1673607533.986417,2.363376,13.711658470182774
1673607533.987424,2.382272,13.723122834323446
1673607533.988431,2.39309,13.734589913208172
1673607533.989438,2.401649,13.746056992092898
1673607533.990445,2.407755,13.757521356233571
1673607533.991452,2.425713,13.768988435118297
1673607533.992459,2.497498,13.780455514003023
1673607533.993466,2.502547,13.791919878143695
1673607533.994473,2.49156,13.80338695702842
1673607533.99548,2.469611,13.814854035913147
1673607533.996487,2.44021,13.826318400053818
1673607533.997494,2.41802,13.837785478938544
1673607533.998502,2.391407,13.849263416799488
1673607533.999509,2.331186,13.860730495684214
1673607534.000516,2.26945,13.872194859824885
1673607534.001523,2.259425,13.883661938709611
1673607534.00253,2.287792,13.895129017594337
1673607534.003537,2.303034,13.906593381735009
1673607534.004544,2.299308,13.918060460619735
1673607534.0055509,2.30277,13.929524824760406
1673607534.006558,2.314165,13.940991903645132
1673607534.007565,2.321522,13.952458982529858
1673607534.0085719,2.325536,13.963923346670532
1673607534.009579,2.3319549999999998,13.975390425555258
1673607534.010587,2.340297,13.991124695517406
1673607534.011594,2.359121,13.98611291249404
1673607534.012601,2.373088,14.038331030035758
1673607534.013608,2.380036,14.034496263948498
1673607534.014615,2.391504,13.99183042060086
1673607534.015622,2.402298,14.003878013110846
1673607534.016629,2.410471,14.028070472103005
1673607534.017636,2.419222,14.021540128755365
1673607534.018643,2.407178,14.028324957081546
1673607534.01965,2.389364,14.036540258587362
1673607534.020657,2.366117,14.040327516877324
1673607534.021664,2.356236,14.044113878562579
1673607534.022671,2.357991,14.047901136852541
1673607534.023679,2.349625,14.051691981561339
1673607534.024686,2.333013,14.035286555078685
1673607534.025693,2.324046,14.067591087008344
1673607534.0267,2.322675,14.087059602765857
1673607534.0277069,2.328373,14.088181
1673607534.028714,2.341187,14.036528046960667
1673607534.029721,2.348447,14.033915
1673607534.0307279,2.356068,14.051387231521222
1673607534.031735,2.358881,14.052004
1673607534.032742,2.356476,14.034277211203815
1673607534.0337489,2.356597,14.069617575822605
1673607534.034756,2.357967,14.079740359656213
1673607534.035764,2.36215,14.089525263620347
1673607534.036771,2.362967,14.099300910343263
1673607534.037778,2.364193,14.109074242755877
1673607534.038785,2.364001,14.118849889478795
1673607534.039792,2.357823,14.128625536201714
1673607534.040799,2.357823,14.138398868614328
1673607534.041806,2.360251,14.148174515337246
1673607534.042813,2.355587,14.157950162060162
1673607534.04382,2.352221,14.167723494472778
1673607534.044827,2.351668,14.177499141195694
1673607534.045834,2.35388,14.187274787918613
1673607534.046841,2.353231,14.197048120331226
1673607534.047848,2.356669,14.206823767054145
1673607534.048856,2.357198,14.216608671018276
1673607534.0498629,2.354986,14.22638200343089
1673607534.05087,2.362414,14.236157650153809
1673607534.051877,2.371766,14.245933296876727
1673607534.0528839,2.377175,14.25570662928934
1673607534.053891,2.37756,14.265482276012259
1673607534.054898,2.375132,14.275257922735175
1673607534.0559049,2.374218,14.28503125514779
1673607534.056912,2.368953,14.294806901870707
1673607534.057919,2.36941,14.304582548593626
1673607534.0589259,2.371285,14.31435588100624
1673607534.059933,2.361549,14.324131527729158
1673607534.060941,2.359337,14.33391643169329
1673607534.061948,2.36328,14.343692078416208
1673607534.062955,2.363881,14.353465410828822
1673607534.063962,2.369025,14.36324105755174
1673607534.064969,2.368208,14.373016704274656
1673607534.065976,2.379748,14.38279003668727
1673607534.066983,2.400278,14.392565683410188
1673607534.06799,2.410592,14.402341330133106
1673607534.068997,2.412154,14.41211466254572
1673607534.070004,2.401745,14.421890309268639
1673607534.071011,2.388835,14.431665955991555
1673607534.072018,2.379507,14.44143928840417
1673607534.073025,2.381671,14.451214935127087
1673607534.074033,2.373978,14.46099983909122
1673607534.0750399,2.362583,14.468077
1673607534.076047,2.363713,14.473231114210776
1673607534.077054,2.375468,14.491449214115404
1673607534.0780609,2.374531,14.515068890584029
1673607534.079068,2.371574,14.545966664043872
1673607534.080075,2.373785,14.558522
1673607534.0810819,2.364674,14.56431131442193
1673607534.082089,2.36465,14.600271855507868
1673607534.083096,2.36453,14.661060211731044
1673607534.0841029,2.362006,14.696597223667945
1673607534.08511,2.352774,14.730401699733264
1673607534.086118,2.347245,14.764238187613037
1673607534.087125,2.35513,14.798042663678356
1673607534.088132,2.380661,14.831839136790059
1673607534.089139,2.398932,14.865643612855377
1673607534.090146,2.423598,14.899448088920694
1673607534.091153,2.460211,14.933244562032398
1673607534.09216,2.487137,14.967049038097716
1673607534.093167,2.511418,15.000853514163033
1673607534.094174,2.519351,15.034649987274738
1673607534.095181,2.510288,15.068454463340055
1673607534.096188,2.469539,15.102258939405374
1673607534.097195,2.442061,15.136055412517077
1673607534.098202,2.409053,15.169859888582394
1673607534.09921,2.355178,15.203696376462169
1673607534.1002169,2.322579,15.237492849573872
1673607534.101224,2.334263,15.27129732563919
1673607534.102231,2.352654,15.305101801704508
1673607534.1032379,2.355635,15.338898274816211
1673607534.104245,2.339432,15.37270275088153
1673607534.105252,2.327027,15.406507226946847
1673607534.1062589,2.315319,15.440303700058552
1673607534.107266,2.308563,15.474108176123869
1673607534.108273,2.314766,15.507912652189187
1673607534.1092799,2.322435,15.54170912530089
1673607534.110287,2.325344,15.57551360136621
1673607534.111295,2.325656,15.609350089245982
1673607534.112302,2.325104,15.643154565311299
1673607534.113309,2.320776,15.676951038423004
1673607534.114316,2.322098,15.710755514488321
1673607534.115323,2.336547,15.74455999055364
1673607534.11633,2.344889,15.778356463665343
1673607534.117337,2.339432,15.81216093973066
1673607534.118344,2.337845,15.845965415795979
1673607534.119351,2.347533,15.879761888907682
1673607534.120358,2.357077,15.913566364973
1673607534.121365,2.372824,15.947370841038317
1673607534.122372,2.389123,15.981167314150023
1673607534.123379,2.3885710000000002,16.01497179021534
1673607534.124387,2.380156,16.048808278095112
1673607534.1253939,2.369458,16.082604751206816
1673607534.126401,2.368376,16.116409227272136
1673607534.127408,2.358736,16.150213703337453
1673607534.1284149,2.35513,16.184010176449156
1673607534.129422,2.359241,16.217814652514473
1673607534.130429,2.359746,16.251619128579794
1673607534.1314359,2.360852,16.285415601691497
1673607534.132443,2.358568,16.319220077756814
1673607534.13345,2.361573,16.35302455382213
1673607534.1344569,2.366766,16.386821026933834
1673607534.135464,2.369987,16.420625502999155
1673607534.136472,2.369098,16.454461990878926
1673607534.137479,2.366117,16.488266466944246
1673607534.138486,2.365516,16.52206294005595
1673607534.139493,2.36816,16.557846035280097
1673607534.1405,2.379579,16.56653
1673607534.141507,2.381142,16.580530987124465
1673607534.142514,2.373978,16.570492982121575
1673607534.143521,2.372055,16.62354952432046
1673607534.144528,2.371333,16.638887
1673607534.145535,2.372031,16.682411306078663
1673607534.146542,2.371189,16.70779723390558
1673607534.147549,2.357847,16.740769809728185
1673607534.148556,2.351452,16.756762815844546
1673607534.149564,2.359385,16.768194847533632
1673607534.1505709,2.368785,16.779613359790734
1673607534.151578,2.37667,16.795471548687352
1673607534.152585,2.379531,16.813699300429185
1673607534.1535919,2.402033,16.880321092164802
1673607534.154599,2.423501,16.885761568019092
1673607534.155606,2.43105,16.8988103743443
1673607534.1566129,2.432757,16.960182361038342
1673607534.15762,2.426218,16.969997301144492
1673607534.158627,2.410159,16.990011877804296
1673607534.1596339,2.374819,17.017176023039806
1673607534.160641,2.360756,17.040494346321832
1673607534.161649,2.35876,17.063834751349393
1673607534.162656,2.367078,17.08715307463142
1673607534.163663,2.389893,17.110465877477065
1673607534.16467,2.415568,17.133784200759095
1673607534.165677,2.440811,17.15710252404112
1673607534.166684,2.446388,17.180415326886767
1673607534.167691,2.443503,17.203733650168793
1673607534.168698,2.43569,17.22705197345082
1673607534.169705,2.424944,17.250364776296465
1673607534.170712,2.400855,17.273683099578495
1673607534.171719,2.362414,17.29700142286052
1673607534.172726,2.342917,17.320314225706166
1673607534.173733,2.345418,17.343632548988193
1673607534.174741,2.360876,17.366972954015754
1673607534.1757479,2.395254,17.3902857568614
1673607534.176755,2.404509,17.413604080143426
1673607534.177762,2.404654,17.436922403425456
1673607534.1787689,2.404269,17.4602352062711
1673607534.179776,2.396816,17.483553529553127
1673607534.180783,2.384628,17.506871852835154
1673607534.1817899,2.36126,17.5301846556808
1673607534.182797,2.339239,17.553502978962825
1673607534.183804,2.338807,17.576821302244856
1673607534.1848109,2.350707,17.643890990930785
1673607534.185818,2.351452,17.66814839914163
1673607534.186826,2.365155,17.637349527744703
1673607534.187833,2.374507,17.699764960620524
1673607534.18884,2.381214,17.739418528373868
1673607534.189847,2.390999,17.725671229816623
1673607534.190854,2.387152,17.79173886634845
1673607534.191861,2.364121,17.813646793991417
1673607534.192868,2.3508270000000002,17.848936846153844
1673607534.193875,2.355178,17.8911169300816
1673607534.194882,2.357751,17.933621832344212
1673607534.195889,2.366573,17.976136799703262
1673607534.196896,2.368184,18.018651767062313
1673607534.197903,2.364578,18.061156669324923
1673607534.19891,2.357751,18.103671636683973
1673607534.199918,2.352582,18.146226864428783
1673607534.2009249,2.355875,18.188731766691394
1673607534.201932,2.358015,18.231185846153846
1673607534.202939,2.364362,18.266422081068193
1673607534.2039459,2.360539,18.2345542300716
1673607534.204953,2.356957,18.394754397234145
1673607534.20596,2.358231,18.431189499642773
1673607534.2069669,2.355779,18.466782800954654
1673607534.207974,2.355996,18.485967444921314
1673607534.208981,2.359842,18.519195692307694
1673607534.2099879,2.3673670000000002,18.5080473699284
1673607534.210995,2.373978,18.59592859873159
1673607534.212003,2.375444,18.641629668787672
1673607534.21301,2.381166,18.68728750225903
1673607534.214017,2.38006,18.732934526584202
1673607534.215024,2.369627,18.77859236005556
1673607534.216031,2.36804,18.824250193526915
1673607534.217038,2.376719,18.86989721785209
1673607534.218045,2.402538,18.915555051323445
1673607534.219052,2.428309,18.9612128847948
1673607534.220059,2.442926,19.006859909119974
1673607534.221066,2.457591,19.05251774259133
1673607534.222073,2.461509,19.098175576062687
1673607534.22308,2.467015,19.14382260038786
1673607534.224087,2.465861,19.189480433859217
1673607534.225095,2.436243,19.2351815039153
1673607534.2261019,2.407538,19.280828528240473
1673607534.227109,2.390398,19.32648636171183
1673607534.228116,2.391263,19.372144195183186
1673607534.2291229,2.378113,19.41779121950836
1673607534.23013,2.360467,19.463449052979716
1673607534.231137,2.336451,19.50910688645107
1673607534.2321439,2.317242,19.554753910776245
1673607534.233151,2.312194,19.6004117442476
1673607534.234158,2.323517,19.646069577718958
1673607534.2351649,2.342148,19.69171660204413
1673607534.236172,2.352245,19.737374435515488
1673607534.23718,2.358592,19.78307550557157
1673607534.238187,2.382224,19.828733339042927
1673607534.239194,2.413765,19.8743803633681
1673607534.240201,2.429223,19.920038196839457
1673607534.241208,2.456125,19.965696030310813
1673607534.242215,2.478674,20.011343054635987
1673607534.243222,2.483002,20.057000888107343
1673607534.244229,2.471655,20.1026587215787
1673607534.245236,2.449874,20.148305745903873
1673607534.246243,2.404702,20.19396357937523
1673607534.24725,2.346379,20.239621412846585
1673607534.248257,2.304957,20.28526843717176
1673607534.249264,2.29813,20.330926270643115
1673607534.250272,2.311472,20.376627340699198
1673607534.2512789,2.330993,20.42227436502437
1673607534.252286,2.33758,20.467932198495728
1673607534.253293,2.329695,20.513590031967084
1673607534.2542999,2.327964,20.559237056292258
1673607534.255307,2.340562,20.604894889763614
1673607534.256314,2.349793,20.65055272323497
1673607534.2573209,2.365275,20.654898
1673607534.258328,2.365973,20.737930951835956
1673607534.259335,2.362487,20.79555501669051
1673607534.260342,2.359842,20.799618
1673607534.261349,2.35376,20.867565870767763
1673607534.262357,2.349985,20.974771048640918
1673607534.263364,2.349697,20.980516
1673607534.264371,2.35388,21.0500512765856
1673607534.265378,2.355827,21.070393017167383
1673607534.266385,2.357654,21.070971
1673607534.267392,2.358664,21.070971
1673607534.268399,2.359361,21.070971
1673607534.269406,2.359433,21.070971
1673607534.270413,2.35614,21.070971
1673607534.27142,2.362102,21.05311817520858
1673607534.272427,2.381671,21.142795813066286
1673607534.273434,2.403908,21.179554770636823
1673607534.274442,2.425473,21.2247633337605
1673607534.275449,2.448215,21.269929126247348
1673607534.2764559,2.471294,21.31508422607499
1673607534.277463,2.486416,21.360250018561842
1673607534.27847,2.481319,21.40541581104869
1673607534.279477,2.446196,21.450570910876333
1673607534.280484,2.411217,21.495736703363185
1673607534.281491,2.391095,21.540902495850034
1673607534.282498,2.374627,21.586057595677676
1673607534.283505,2.35412,21.63122338816453
1673607534.284512,2.344697,21.676389180651377
1673607534.285519,2.341812,21.72154428047902
1673607534.286526,2.323661,21.76671007296587
1673607534.287534,2.318084,21.811918636089544
1673607534.288541,2.330585,21.857084428576396
1673607534.289548,2.336066,21.90223952840404
1673607534.290555,2.349072,21.947405320890887
1673607534.291562,2.361934,21.99257111337774
1673607534.292569,2.371814,22.03772621320538
1673607534.293576,2.393859,22.08289200569223
1673607534.294583,2.413621,22.128057798179082
1673607534.29559,2.422852,22.173212898006724
1673607534.296597,2.440041,22.218378690493573
1673607534.297604,2.439537,22.263544482980425
1673607534.298611,2.437012,22.308699582808067
1673607534.299619,2.427997,22.35390814593174
1673607534.300626,2.408067,22.399073938418592
1673607534.301633,2.377872,22.444229038246235
1673607534.30264,2.35138,22.489394830733083
1673607534.303647,2.336402,22.534560623219935
1673607534.304654,2.335441,22.579715723047578
1673607534.305661,2.342389,22.624881515534426
1673607534.306668,2.340994,22.670047308021278
1673607534.307675,2.336234,22.71520240784892
1673607534.308682,2.326017,22.76036820033577
1673607534.309689,2.332196,22.80553399282262
1673607534.310696,2.34912,22.850689092650263
1673607534.311703,2.355274,22.895854885137116
1673607534.312711,2.357438,22.94106344826079
1673607534.313718,2.367078,22.986229240747637
1673607534.314725,2.372079,23.031384340575283
1673607534.315732,2.370179,23.07655013306213
1673607534.316739,2.37066,23.12171592554898
1673607534.317746,2.37042,23.166871025376626
1673607534.318753,2.373738,23.212036817863474
1673607534.31976,2.378666,23.257202610350326
1673607534.320767,2.389412,23.30235771017797
1673607534.321774,2.391984,23.356906807820696
1673607534.322781,2.390518,23.436083383881737
1673607534.323788,2.39059,23.507887799046483
1673607534.324796,2.388931,23.537794761087266
1673607534.325803,2.371213,23.569400006676204
1673607534.32681,2.367271,23.637676053396902
1673607534.327817,2.358063,23.728760183595615
1673607534.328824,2.351524,23.805708414401526
1673607534.329831,2.344192,23.8459589055794
1673607534.330838,2.351981,23.876604084978524
1673607534.331845,2.367078,23.92571606552548
1673607534.332852,2.381839,23.974816419183103
1673607534.333859,2.390638,24.023928399730057
1673607534.334866,2.393883,24.073040380277014
1673607534.335873,2.393715,24.122140733934636
1673607534.33688,2.396287,24.171252714481593
1673607534.337888,2.405207,24.220411202585886
1673607534.338895,2.408236,24.26952318313284
1673607534.339902,2.402201,24.318623536790465
1673607534.340909,2.398355,24.36773551733742
1673607534.341916,2.402634,24.416847497884376
1673607534.342923,2.402682,24.465947851541998
1673607534.34393,2.400783,24.515059832088955
1673607534.344937,2.386719,24.56417181263591
1673607534.345944,2.37732,24.613272166293534
1673607534.346951,2.3862390000000002,24.662384146840488
1673607534.347958,2.402105,24.711496127387445
1673607534.348965,2.409846,24.760596481045066
1673607534.349973,2.427973,24.80975496914936
1673607534.35098,2.43581,24.858866949696313
1673607534.351987,2.427228,24.90796730335394
1673607534.352994,2.419703,24.957079283900892
1673607534.354001,2.431218,25.00619126444785
1673607534.355008,2.442397,25.05529161810547
1673607534.356015,2.454874,25.10440359865243
1673607534.357022,2.466654,25.153515579199386
1673607534.358029,2.45937,25.202615932857007
1673607534.359036,2.430593,25.25172791340396
1673607534.360043,2.387176,25.30083989395092
1673607534.36105,2.388234,25.34994024760854
1673607534.362057,2.384868,25.399052228155497
1673607534.363065,2.356861,25.44821071625979
1673607534.364072,2.342845,25.497322696806744
1673607534.365079,2.360587,25.546423050464366
1673607534.366086,2.389316,25.595535031011323
1673607534.367093,2.393619,25.64464701155828
1673607534.3681,2.380781,25.693747365215902
1673607534.369107,2.360227,25.74285934576286
1673607534.370114,2.357126,25.791971326309813
1673607534.371121,2.350274,25.841071679967435
1673607534.372128,2.323445,25.890183660514392
1673607534.373135,2.320199,25.93929564106135
1673607534.374142,2.327676,25.98839599471897
1673607534.37515,2.321666,26.053354559132096
1673607534.376157,2.319767,26.154291
1673607534.377164,2.333061,26.173912725864124
1673607534.378171,2.345418,26.24879519313305
1673607534.379178,2.34936,26.27537493204578
1673607534.380185,2.347966,26.33862707032181
1673607534.381192,2.345875,26.425275035288507
1673607534.382199,2.345249,26.493595985216977
1673607534.383206,2.357101,26.538871248927038
1673607534.384213,2.364939,26.573935701156277
1673607534.38522,2.367896,26.655912720586482
1673607534.386227,2.366357,26.73027885884597
1673607534.387234,2.370252,26.790127775685338
1673607534.388242,2.378185,27.262795800524074
1673607534.389249,2.3779690000000002,27.296386439895187
1673607534.390256,2.363088,27.32804507400131
1673607534.391263,2.360756,27.36031366502947
1673607534.39227,2.387729,27.413337142482803
1673607534.393277,2.397369,27.477936151326563
1673607534.394284,2.395494,27.514890528487232
1673607534.395291,2.404197,27.606717112064857
1673607534.396298,2.41891,27.67671811802575
1673607534.397305,2.433911,27.714684917734346
1673607534.398312,2.434897,27.768905606127348
1673607534.399319,2.414847,27.82311345818314
1673607534.400327,2.391816,27.877385491925
1673607534.401334,2.39273,27.931606180318003
1673607534.402341,2.394917,27.985814032373796
1673607534.403348,2.380517,28.040034720766798
1673607534.404355,2.353928,28.094255409159803
1673607534.405362,2.335874,28.148463261215593
1673607534.406369,2.33484,28.202683949608595
1673607534.407376,2.347702,28.2569046380016
1673607534.408383,2.362126,28.31111249005739
1673607534.40939,2.374843,28.365333178450395
1673607534.410397,2.390494,28.419553866843398
1673607534.411404,2.411169,28.473761718899187
1673607534.412411,2.422588,28.527982407292193
1673607534.413419,2.428382,28.582254441034053
1673607534.414426,2.423429,28.63647512942706
1673607534.415433,2.40588,28.690682981482848
1673607534.41644,2.384387,28.744903669875853
1673607534.417447,2.366357,28.799124358268855
1673607534.418454,2.364963,28.853332210324645
1673607534.419461,2.368569,28.90755289871765
1673607534.420468,2.373161,28.961773587110653
1673607534.421475,2.376574,29.015981439166442
1673607534.422482,2.3614289999999998,29.070202127559448
1673607534.423489,2.345562,29.124422815952453
1673607534.424496,2.347341,29.178630668008243
1673607534.425504,2.352005,29.232902701750103
1673607534.426511,2.356284,29.28712339014311
1673607534.427518,2.359265,29.341331242198898
1673607534.428525,2.363472,29.3955519305919
1673607534.429532,2.366766,29.449772618984905
1673607534.430539,2.369002,29.503980471040695
1673607534.431546,2.374146,29.5582011594337
1673607534.432553,2.381503,29.612421847826703
1673607534.43356,2.391167,29.666629699882492
1673607534.434567,2.412395,29.720850388275498
1673607534.435574,2.457543,29.7750710766685
1673607534.436581,2.521683,29.829278928724293
1673607534.437588,2.548176,29.883499617117295
1673607534.438596,2.547791,29.937771650859155
1673607534.439603,2.533823,30.00605474892704
1673607534.44061,2.508581,30.06882974255066
1673607534.441617,2.469178,30.13024053290415
1673607534.442624,2.419895,30.221139040057224
1673607534.443631,2.350899,30.294827708700833
1673607534.444638,2.311833,30.399609648783976
1673607534.445645,2.306953,30.480195082021936
1673607534.446652,2.319863,30.56343811349547
1673607534.447659,2.334335,30.63630761001192
1673607534.448666,2.32758,30.69039075303644
1673607534.449673,2.321401,30.720937689608636
1673607534.450681,2.334407,30.751520793522268
1673607534.451688,2.354938,30.782074963562753
1673607534.452695,2.365973,30.812621900134953
1673607534.453702,2.372824,30.864787409702256
1673607534.454709,2.374723,30.925872114244843
1673607534.455716,2.370973,30.98694235744639
1673607534.456723,2.361573,31.048027061988975
1673607534.45773,2.360299,31.109111766531562
1673607534.458737,2.370612,31.17018200973311
1673607534.459744,2.389604,31.231266714275698
1673607534.460751,2.421025,31.29235141881828
1673607534.461758,2.464659,31.35342166201983
1673607534.462765,2.520072,31.414506366562417
1673607534.463773,2.569187,31.475648916469154
1673607534.46478,2.598276,31.536733621011738
1673607534.465787,2.571831,31.597803864213287
1673607534.466794,2.485694,31.658888568755874
1673607534.467801,2.387561,31.71997327329846
1673607534.468808,2.312723,31.78104351650001
1673607534.469815,2.296423,31.842128221042593
1673607534.470822,2.304284,31.90321292558518
1673607534.471829,2.298899,31.96428316878673
1673607534.472836,2.314165,32.025367873329316
1673607534.473843,2.322339,32.0864525778719
1673607534.47485,2.332556,32.14752282107345
1673607534.475858,2.345153,32.208665370980185
1673607534.476865,2.347918,32.26975007552277
1673607534.477872,2.349865,32.33082031872432
1673607534.478879,2.347053,32.39190502326691
1673607534.479886,2.349385,32.45298972780949
1673607534.480893,2.350635,32.51405997101104
1673607534.4819,2.351019,32.575144675553624
1673607534.482907,2.354024,32.63622938009621
1673607534.483914,2.352894,32.69729962329776
1673607534.484921,2.354673,32.758384327840346
1673607534.485928,2.363184,32.81946903238293
1673607534.486935,2.364001,32.88053927558448
1673607534.487942,2.3614289999999998,32.94162398012706
1673607534.48895,2.365035,33.0027665300338
1673607534.489957,2.383883,33.06385123457639
1673607534.490964,2.40047,33.12492147777794
1673607534.491971,2.408524,33.18600618232052
1673607534.492978,2.418477,33.247090886863106
1673607534.493985,2.408933,33.308161130064654
1673607534.494992,2.399942,33.36924583460724
1673607534.495999,2.383522,33.43033053914983
1673607534.497006,2.366405,33.49140078235138
1673607534.498013,2.357871,33.552485486893964
1673607534.4990199,2.36102,33.61355573009551
1673607534.500027,2.360972,33.6746404346381
1673607534.501035,2.362967,33.735782984544834
1673607534.502042,2.36102,33.79686768908742
1673607534.503049,2.352558,33.85793793228897
1673607534.504056,2.35049,33.91980695350501
1673607534.505063,2.372007,33.98865763694875
1673607534.50607,2.395422,34.011261598712444
1673607534.507077,2.425136,34.08095277896996
1673607534.508084,2.438599,34.11738714779499
1673607534.509091,2.442373,34.14829209895088
1673607534.510098,2.44747,34.13597712327134
1673607534.511105,2.42742,34.168221
1673607534.512112,2.387945,34.18154947997139
1673607534.513119,2.352582,34.27752928449447
1673607534.514127,2.353832,34.28346620714147
1673607534.515134,2.375709,34.28939751302154
1673607534.516141,2.393379,34.295327414709874
1673607534.517148,2.39999,34.30125872058994
1673607534.518155,2.40023,34.30719002647002
1673607534.519162,2.405351,34.31457295041716
1673607534.520169,2.401769,34.36721
1673607534.5211759,2.38845,34.36879725226514
1673607534.522183,2.377776,34.4024662238379
1673607534.52319,2.346139,34.388444688841204
1673607534.5241969,2.3089,34.44074815402956
1673607534.525204,2.344095,34.46026854302742
1673607534.526212,2.3753,34.49798055831784
1673607534.527219,2.367727,34.55015084588375
1673607534.528226,2.358592,34.6023087825293
1673607534.529233,2.345057,34.654479070095206
1673607534.53024,2.332027,34.70664935766111
1673607534.531247,2.333349,34.758807294306656
1673607534.532254,2.346307,34.810977581872564
1673607534.533261,2.351668,34.863147869438464
1673607534.534268,2.36352,34.91530580608402
1673607534.535275,2.396456,34.96747609364992
1673607534.536282,2.433166,35.01964638121583
1673607534.537289,2.452446,35.07180431786138
1673607534.538296,2.455067,35.123974605427286
1673607534.539304,2.462423,35.176194296674595
1673607534.540311,2.447614,35.228364584240495
1673607534.541318,2.414919,35.28052252088605
1673607534.542325,2.368761,35.33269280845195
1673607534.5433319,2.324743,35.38485074509751
1673607534.544339,2.305775,35.43702103266341
1673607534.545346,2.327748,35.48919132022932
1673607534.5463529,2.35501,35.54134925687487
1673607534.54736,2.354673,35.593519544440774
1673607534.548367,2.339456,35.645689832006674
1673607534.5493739,2.339432,35.697847768652224
1673607534.550381,2.347581,35.75001805621813
1673607534.551389,2.349673,35.80223774746544
1673607534.552396,2.350755,35.85440803503135
1673607534.553403,2.356837,35.9065659716769
1673607534.55441,2.354722,35.9587362592428
1673607534.555417,2.35239,36.010906546808705
1673607534.556424,2.351308,36.063064483454255
1673607534.557431,2.362078,36.11523477102016
1673607534.558438,2.391119,36.16740505858606
1673607534.559445,2.420761,36.21956299523162
1673607534.560452,2.450018,36.27173328279752
1673607534.561459,2.488868,36.32390357036343
1673607534.562466,2.491632,36.37606150700898
1673607534.563473,2.486175,36.428231794574884
1673607534.564481,2.49031,36.480451485822194
1673607534.5654879,2.444417,36.53260942246774
1673607534.566495,2.368689,36.58477971003365
1673607534.567502,2.319574,36.63694999759955
1673607534.5685089,2.307241,36.68910793424511
1673607534.569516,2.348471,36.74127822181101
1673607534.570523,2.367968,36.78026681974249
1673607534.5715299,2.369146,36.84166412228844
1673607534.572537,2.375132,36.947212989985694
1673607534.573544,2.380565,36.97537404291845
1673607534.5745509,2.362342,36.984414648783975
1673607534.575558,2.346235,37.06499089463647
1673607534.576566,2.327291,37.14831082069623
1673607534.577573,2.314165,37.19724517262757
1673607534.57858,2.32044,37.21546269463647
1673607534.579587,2.331378,37.238149283095
1673607534.580594,2.344528,37.26625013623612
1673607534.581601,2.345899,37.294344336713145
1673607534.582608,2.347485,37.322445189854264
1673607534.583615,2.352558,37.35054604299539
1673607534.584622,2.363713,37.37864024347242
1673607534.585629,2.371454,37.40674109661354
1673607534.586636,2.371574,37.434841949754656
1673607534.587643,2.377848,37.462936150231684
1673607534.58865,2.376214,37.49103700337281
1673607534.589658,2.360347,37.51916446717031
1673607534.5906649,2.327628,37.54725866764734
1673607534.591672,2.325392,37.57535952078846
1673607534.592679,2.358953,37.603460373929586
1673607534.5936859,2.375372,37.63155457440661
1673607534.594693,2.380036,37.65965542754773
1673607534.5957,2.378714,37.68775628068885
1673607534.5967069,2.372463,37.71585048116588
1673607534.597714,2.357366,37.743951334307
1673607534.598721,2.353014,37.772052187448125
1673607534.5997279,2.357438,37.800146387925146
1673607534.600735,2.360323,37.82824724106627
1673607534.601743,2.360034,37.856374704863775
1673607534.60275,2.358905,37.8844755580049
1673607534.603757,2.354192,37.91256975848192
1673607534.604764,2.352918,37.94067061162305
1673607534.605771,2.3659,37.96877146476417
1673607534.606778,2.384604,37.996865665241195
1673607534.607785,2.397826,38.024966518382314
1673607534.608792,2.410255,38.05306737152344
1673607534.609799,2.426482,38.08116157200047
1673607534.610806,2.438359,38.10926242514159
1673607534.611813,2.421818,38.137363278282706
1673607534.61282,2.386647,38.165457478759734
1673607534.613827,2.361188,38.19355833190086
1673607534.614835,2.336571,38.22168579569836
1673607534.6158419,2.321281,38.24977999617539
1673607534.616849,2.334335,38.27788084931651
1673607534.617856,2.358712,38.305981702457636
1673607534.6188629,2.367679,38.33407590293466
1673607534.61987,2.394509,38.36217675607578
1673607534.620877,2.417299,38.3902776092169
1673607534.6218839,2.433238,38.41837180969393
1673607534.622891,2.44533,38.44647266283505
1673607534.623898,2.426771,38.474573515976175
1673607534.6249049,2.409678,38.50590105889366
1673607534.625912,2.412683,38.5423360152599
1673607534.62692,2.387441,38.57146255793992
1673607534.627927,2.348231,38.582207
1673607534.628934,2.327219,38.60499628826896
1673607534.629941,2.320415,38.62875729828326
1673607534.630948,2.328589,38.63409787699642
1673607534.631955,2.344937,38.678496578683834
1673607534.632962,2.358279,38.71694369957081
1673607534.633969,2.367343,38.74555658530315
1673607534.634976,2.389172,38.78676365326292
1673607534.635983,2.412251,38.827980478993936
1673607534.63699,2.421458,38.86919730472495
1673607534.637997,2.44973,38.910404372684724
1673607534.639004,2.468698,38.95162119841574
1673607534.640012,2.452831,38.99287705523172
1673607534.6410189,2.419102,39.03408412319149
1673607534.642026,2.370925,39.07530094892251
1673607534.643033,2.331258,39.11651777465352
1673607534.6440399,2.322267,39.15772484261329
1673607534.645047,2.32044,39.19894166834431
1673607534.646054,2.29373,39.240158494075324
1673607534.6470609,2.294404,39.28136556203509
1673607534.648068,2.332556,39.32258238776611
1673607534.649075,2.368376,39.363799213497124
1673607534.6500819,2.387681,39.40500628145689
1673607534.651089,2.40624,39.44622310718791
1673607534.652097,2.413404,39.4874789640039
1673607534.653104,2.410447,39.52869578973491
1673607534.654111,2.39196,39.56990285769468
1673607534.655118,2.385036,39.6111196834257
1673607534.656125,2.376214,39.65233650915671
1673607534.657132,2.39898,39.693543577116486
1673607534.658139,2.438238,39.7347604028475
1673607534.659146,2.453576,39.77597722857851
1673607534.660153,2.426362,39.81718429653829
1673607534.66116,2.396696,39.8584011222693
1673607534.662167,2.367559,39.89961794800031
1673607534.663174,2.348447,39.94082501596009
1673607534.664181,2.356404,39.9820418416911
1673607534.665189,2.39184,40.023297698507086
1673607534.6661959,2.417323,40.064504766466854
1673607534.667203,2.424583,40.105721592197874
1673607534.66821,2.412972,40.14693841792889
1673607534.6692169,2.398908,40.188145485888654
1673607534.670224,2.395807,40.229362311619674
1673607534.671231,2.403404,40.27057913735069
1673607534.6722379,2.39273,40.311786205310455
1673607534.673245,2.377848,40.353003031041474
1673607534.674252,2.370252,40.39421985677249
1673607534.6752589,2.352125,40.435426924732255
1673607534.676266,2.326329,40.476643750463275
1673607534.677274,2.323541,40.51789960727926
1673607534.678281,2.324358,40.559116433010274
1673607534.679288,2.337605,40.60032350097004
1673607534.680295,2.35013,40.64154032670106
1673607534.681302,2.361333,40.682757152432075
1673607534.682309,2.363328,40.72396422039184
1673607534.683316,2.364866,40.76518104612286
1673607534.684323,2.363256,40.806397871853875
1673607534.68533,2.365347,40.84760493981365
1673607534.686337,2.373978,40.88882176554466
1673607534.687344,2.358832,40.930038591275675
1673607534.688351,2.339263,40.9711134806867
1673607534.689358,2.337316,41.00882554851013
1673607534.690366,2.340513,41.08097739914163
1673607534.6913729,2.342773,41.13562714306151
1673607534.69238,2.345971,41.18615617715785
1673607534.693387,2.352654,41.172577878903454
1673607534.6943939,2.353976,41.22592796137339
1673607534.695401,2.356356,41.259544
1673607534.696408,2.362727,41.26416295876043
1673607534.6974149,2.376406,41.31522212628347
1673607534.698422,2.38595,41.330605454650694
1673607534.699429,2.394773,41.34598878301792
1673607534.7004359,2.393883,41.36136846949869
1673607534.701443,2.382031,41.37675179786592
1673607534.702451,2.375877,41.421547662851694
1673607534.703458,2.362126,41.426219293206195
1673607534.704465,2.337316,41.44521272246066
1673607534.705472,2.333301,41.60007930901288
1673607534.706479,2.337821,41.628929982121576
1673607534.707486,2.356597,41.65483059313959
1673607534.708493,2.369482,41.683443196658715
1673607534.7095,2.359842,41.749448322842156
1673607534.710507,2.361068,41.84723259170197
1673607534.711514,2.392249,41.907818475088156
1673607534.712521,2.424175,41.968404358474345
1673607534.713528,2.449008,42.028975898611634
1673607534.714535,2.489853,42.08956178199782
1673607534.715543,2.515889,42.150205038379646
1673607534.7165499,2.505456,42.21077657851693
1673607534.717557,2.474419,42.271362461903124
1673607534.718564,2.429824,42.33194834528931
1673607534.7195709,2.411818,42.3925198854266
1673607534.720578,2.380877,42.45310576881279
1673607534.721585,2.323228,42.51369165219898
1673607534.7225919,2.281013,42.57426319233627
1673607534.723599,2.290725,42.63484907572246
1673607534.724606,2.327291,42.69543495910865
1673607534.7256129,2.372079,42.756006499245935
1673607534.72662,2.395735,42.81659238263212
1673607534.727628,2.40112,42.877235639013946
1673607534.728635,2.394845,42.93782152240014
1673607534.729642,2.375348,42.998393062537424
1673607534.730649,2.35037,43.05897894592361
1673607534.731656,2.33948,43.11956482930981
1673607534.732663,2.357414,43.18013636944709
1673607534.73367,2.389316,43.24072225283328
1673607534.734677,2.425136,43.301308136219475
1673607534.735684,2.44146,43.36187967635676
1673607534.736691,2.437829,43.42246555974295
1673607534.737698,2.428694,43.48305144312914
1673607534.738705,2.40023,43.543622983266424
1673607534.739712,2.357366,43.60420886665262
1673607534.74072,2.309645,43.66485212303444
1673607534.7417269,2.296087,43.725423663171725
1673607534.742734,2.330921,43.786009546557914
1673607534.743741,2.371742,43.84659542994411
1673607534.7447479,2.388979,43.90716697008139
1673607534.745755,2.385036,43.96775285346759
1673607534.746762,2.394605,44.028338736853776
1673607534.7477689,2.385806,44.08891027699106
1673607534.748776,2.3659,44.149496160377254
1673607534.749783,2.349937,44.21008204376344
1673607534.7507899,2.337965,44.270653583900724
1673607534.751797,2.335152,44.33123946728692
1673607534.752805,2.335753,44.39188272366874
1673607534.753812,2.337148,44.44800209909481
1673607534.754819,2.37143,44.5164021372315
1673607534.755826,2.403019,44.603159304721025
1673607534.756833,2.406216,44.66626649988081
1673607534.75784,2.406409,44.870599556504956
1673607534.758847,2.394412,44.92543670948181
1673607534.759854,2.372992,45.080035646085996
1673607534.760861,2.348447,45.13887147436604
1673607534.761868,2.334768,45.231180865214995
1673607534.762875,2.359361,45.67854075553805
1673607534.763882,2.390638,45.73951772981476
1673607534.764889,2.416001,45.80050914334657
1673607534.765897,2.426002,45.86155831389877
1673607534.7669039,2.431218,45.922535288175474
1673607534.767911,2.435522,45.983526701707284
1673607534.768918,2.44783,46.04451811523909
1673607534.7699249,2.451268,46.105495089515806
1673607534.770932,2.423622,46.16648650304761
1673607534.771939,2.399749,46.22747791657942
1673607534.772946,2.396408,46.28845489085613
1673607534.773953,2.353904,46.34944630438794
1673607534.77496,2.300029,46.41043771791975
1673607534.775967,2.313708,46.471414692196454
1673607534.776974,2.33121,46.53240610572826
1673607534.777982,2.331907,46.593455276280466
1673607534.778989,2.323349,46.65444668981227
1673607534.779996,2.315559,46.71542366408898
1673607534.781003,2.328229,46.77641507762079
1673607534.78201,2.343254,46.8374064911526
1673607534.783017,2.344576,46.898383465429305
1673607534.784024,2.336763,46.959374878961114
1673607534.785031,2.34686,47.02036629249292
1673607534.786038,2.368208,47.081343266769636
1673607534.787045,2.392249,47.142334680301445
1673607534.788052,2.419415,47.203326093833255
1673607534.789059,2.457927,47.26430306810996
1673607534.790067,2.497643,47.32535223866216
1673607534.791074,2.50721,47.386343652193965
1673607534.7920809,2.480021,47.44732062647068
1673607534.793088,2.44759,47.50831204000249
1673607534.794095,2.42266,47.569303453534296
1673607534.795102,2.412515,47.630280427811
1673607534.796109,2.395638,47.69127184134281
1673607534.797116,2.352029,47.75226325487462
1673607534.798123,2.335922,47.81324022915133
1673607534.79913,2.318348,47.87423164268314
1673607534.800137,2.302097,47.93522305621495
1673607534.801144,2.304332,47.99620003049166
1673607534.802151,2.312723,48.057191444023466
1673607534.803159,2.327123,48.11824061457566
1673607534.804166,2.348855,48.17923202810747
1673607534.805173,2.374795,48.240209002384184
1673607534.80618,2.393499,48.30120041591599
1673607534.807187,2.396864,48.3621918294478
1673607534.808194,2.399269,48.42316880372451
1673607534.809201,2.391792,48.5318838743443
1673607534.810208,2.378185,48.55105906700047
1673607534.811215,2.382632,48.641402813825984
1673607534.812222,2.400663,48.69556675298045
1673607534.813229,2.3862390000000002,48.73200357105389
1673607534.814236,2.393883,48.7691743396901
1673607534.815244,2.426122,48.82476076323319
1673607534.816251,2.459827,48.89966298378636
1673607534.817258,2.435017,49.00239480334539
1673607534.818265,2.393643,49.00671165687161
1673607534.819272,2.358015,49.01102851039783
1673607534.820279,2.31116,49.01534434194168
1673607534.821286,2.297817,49.019661195467904
1673607534.822293,2.309669,49.067917705293276
1673607534.8233,2.331715,49.138580107270556
1673607534.824307,2.34662,49.146843
1673607534.825314,2.331715,49.21197120100143
1673607534.826321,2.353952,49.26841714040525
1673607534.827328,2.393571,49.33960484620887
1673607534.828336,2.423213,49.406686974978896
1673607534.829343,2.450739,49.473158966266936
1673607534.83035,2.474636,49.53961522081462
1673607534.831357,2.504085,49.60608721210266
1673607534.832364,2.509711,49.672559203390705
1673607534.833371,2.456365,49.739015457938386
1673607534.834378,2.375276,49.805487449226426
1673607534.835385,2.351668,49.871959440514466
1673607534.836392,2.384315,49.93841569506215
1673607534.837399,2.403332,50.004887686350195
1673607534.838406,2.377656,50.071359677638235
1673607534.839413,2.359457,50.137815932185916
1673607534.840421,2.355899,50.204350870435405
1673607534.841428,2.373545,50.270822861723445
1673607534.842435,2.387008,50.33727911627113
1673607534.843442,2.372127,50.40375110755917
1673607534.844449,2.35061,50.470223098847214
1673607534.845456,2.3371,50.53667935339489
1673607534.846463,2.318132,50.603151344682935
1673607534.84747,2.296519,50.669623335970975
1673607534.848477,2.302025,50.736079590518656
1673607534.849484,2.324286,50.802551581806696
1673607534.850491,2.338783,50.869023573094744
1673607534.851498,2.3402250000000002,50.935479827642425
1673607534.852505,2.35025,51.001951818930465
1673607534.853513,2.374795,51.068486757179954
1673607534.85452,2.424103,51.134958748467994
1673607534.855527,2.495142,51.201415003015676
1673607534.856534,2.552479,51.267886994303716
1673607534.857541,2.570942,51.33435898559176
1673607534.858548,2.563826,51.400815240139444
1673607534.859555,2.525265,51.467287231427484
1673607534.860562,2.450932,51.533759222715524
1673607534.861569,2.355178,51.600215477263205
1673607534.862576,2.290365,51.66668746855125
1673607534.863583,2.279018,51.73315945983929
1673607534.86459,2.310271,51.81028506008584
1673607534.865598,2.33282,51.921292786889154
1673607534.866605,2.333878,51.96808854935622
1673607534.867612,2.3252,52.052005941344774
1673607534.868619,2.322868,52.11036482121573
1673607534.869626,2.326906,52.17939364353839
1673607534.870633,2.318564,52.238001798283264
1673607534.87164,2.318733,52.31087428247915
1673607534.872647,2.336547,52.37531396447306
1673607534.873654,2.354986,52.424761882212685
1673607534.874661,2.359073,52.64506417400419
1673607534.875668,2.365131,52.70219500808626
1673607534.876675,2.374266,52.64374073342871
1673607534.877682,2.366525,52.71544188650453
1673607534.87869,2.352967,52.74865884505363
1673607534.879697,2.346596,52.84200770767764
1673607534.880704,2.343855,52.9300356442537
1673607534.881711,2.343014,52.910756314978926
1673607534.882718,2.358496,52.976029369931545
1673607534.883725,2.369266,53.04128697198289
1673607534.884732,2.376887,53.10656002693551
1673607534.885739,2.424896,53.17183308188813
1673607534.886746,2.466582,53.237090683939485
1673607534.887753,2.50661,53.3023637388921
1673607534.88876,2.541108,53.36763679384472
1673607534.889767,2.532934,53.43289439589607
1673607534.890775,2.485862,53.498229262453755
1673607534.891782,2.416361,53.563502317406375
1673607534.892789,2.348735,53.62875991945773
1673607534.893796,2.350442,53.69403297441035
1673607534.894803,2.378954,53.75930602936296
1673607534.89581,2.370131,53.824563631414314
1673607534.896817,2.368184,53.889836686366934
1673607534.897824,2.364001,53.95510974131955
1673607534.898831,2.351139,54.0203673433709
1673607534.899838,2.335946,54.08564039832352
1673607534.900845,2.325031,54.15091345327614
1673607534.901852,2.321497,54.21617105532749
1673607534.902859,2.323589,54.281444110280106
1673607534.903867,2.326859,54.3467789768378
1673607534.904874,2.338783,54.41205203179042
1673607534.905881,2.353952,54.47730963384176
1673607534.906888,2.363328,54.54258268879438
1673607534.907895,2.371141,54.607855743747
1673607534.908902,2.377271,54.673113345798356
1673607534.909909,2.373305,54.738386400750976
1673607534.910916,2.372295,54.80365945570359
1673607534.911923,2.371886,54.86891705775494
1673607534.91293,2.358207,54.93419011270756
1673607534.913937,2.361837,54.99946316766018
1673607534.914944,2.368641,55.06472076971153
1673607534.915952,2.382056,55.13005563626922
1673607534.916959,2.395422,55.19532869122184
1673607534.917966,2.391936,55.260586293273185
1673607534.918973,2.379315,55.325859348225805
1673607534.91998,2.367102,55.391132403178425
1673607534.920987,2.367391,55.37791692038141
1673607534.921994,2.377752,55.440756865522175
1673607534.923001,2.407298,55.50323005293276
1673607534.924008,2.433094,55.52900297663885
1673607534.925015,2.447614,55.57634212541726
1673607534.926022,2.448383,55.630996911301864
1673607534.927029,2.439657,55.68563592252682
1673607534.928036,2.417155,55.710409461611825
1673607534.929044,2.369506,55.80408897567954
1673607534.930051,2.31931,55.822102
1673607534.931058,2.328782,55.83743926371006
1673607534.932065,2.349625,55.94846614020029
1673607534.933072,2.340874,55.92002809728183
1673607534.934079,2.357799,55.99114271513707
1673607534.935086,2.402899,56.01884557749165
1673607534.936093,2.42153,56.03496292930526
1673607534.9371,2.408476,56.050781996923
1673607534.938107,2.381911,56.06660481047197
1673607534.939114,2.374098,56.08242762402095
1673607534.940121,2.350995,56.09824669163869
1673607534.941129,2.335201,56.114084488912624
1673607534.942136,2.345009,56.129907302461596
1673607534.943143,2.370059,56.14572637007934
1673607534.94415,2.390109,56.16154918362832
1673607534.945157,2.382031,56.177371997177296
1673607534.946164,2.374266,56.19319106479504
1673607534.947171,2.381142,56.20901387834401
1673607534.948178,2.390373,56.22483669189299
1673607534.949185,2.410087,56.24065575951073
1673607534.950192,2.428694,56.25647857305971
1673607534.951199,2.422949,56.27230138660869
1673607534.952206,2.420448,56.28812045422642
1673607534.953213,2.417371,56.3039432677754
1673607534.954221,2.43004,56.319781065049334
1673607534.955228,2.435329,56.33560387859831
1673607534.956235,2.43331,56.35142294621605
1673607534.957242,2.429848,56.36724575976503
1673607534.958249,2.41903,56.383068573314006
1673607534.959256,2.373425,56.39888764093175
1673607534.960263,2.306761,56.414710454480726
1673607534.96127,2.266949,56.4305332680297
1673607534.962277,2.264353,56.44635233564744
1673607534.963284,2.28736,56.46217514919642
1673607534.964291,2.308059,56.4779979627454
1673607534.965298,2.303659,56.49381703036313
1673607534.966306,2.29938,56.509654827637064
1673607534.967313,2.300726,56.52547764118604
1673607534.96832,2.308347,56.541296708803785
1673607534.969327,2.32318,56.55711952235276
1673607534.970334,2.322916,56.572942335901736
1673607534.971341,2.316257,56.58876140351948
1673607534.972348,2.333229,56.60458421706846
1673607534.973355,2.374988,56.620407030617436
1673607534.974362,2.406433,56.63622609823517
1673607534.975369,2.413957,56.65204891178415
1673607534.976376,2.426627,56.66787172533313
1673607534.977383,2.418621,56.68369079295087
1673607534.97839,2.387176,56.69951360649985
1673607534.979398,2.376935,56.715351403773774
1673607534.980405,2.348928,56.73117421732275
1673607534.981412,2.339408,56.746993284940494
1673607534.982419,2.358159,56.76281609848947
1673607534.983426,2.360467,56.778638912038446
1673607534.984433,2.368545,56.79445797965619
1673607534.98544,2.374411,56.810280793205166
1673607534.986447,2.369362,56.826103606754145
1673607534.987454,2.380253,56.84192267437189
1673607534.988461,2.442325,56.85774548792086
1673607534.989468,2.495551,56.87356830146984
1673607534.990475,2.533415,56.88938736908758
1673607534.991483,2.57789,56.90522516636151
1673607534.99249,2.592555,56.92104797991048
1673607534.993497,2.545074,56.936867047528224
1673607534.994504,2.442566,56.952689861077204
1673607534.995511,2.383258,56.96851267462618
1673607534.996518,2.372343,56.98433174224392
1673607534.997525,2.340129,57.000154555792896
1673607534.998532,2.310631,57.015977369341876
1673607534.999539,2.323252,57.03179643695962
1673607535.000546,2.318877,57.047619250508596
1673607535.001553,2.297697,57.06514134763948
1673607535.00256,2.290197,57.09639220667461
1673607535.003567,2.307217,57.09332320863138
1673607535.004575,2.362607,57.06177239270386
1673607535.005582,2.403788,57.038782377115616
1673607535.006589,2.416794,57.034134
1673607535.007596,2.419607,56.99305128659991
1673607535.008603,2.404702,56.993689377443964
1673607535.00961,2.360203,56.98400986865316
1673607535.010617,2.301424,56.98399298356912
1673607535.011624,2.279691,56.989335422611695
1673607535.012631,2.309381,56.99467659687231
1673607535.013638,2.328421,57.00001903591489
1673607535.0146449,2.32794,57.005360210175496
1673607535.015652,2.330801,57.010702649218075
1673607535.01666,2.336114,57.01605014738854
1673607535.017667,2.339672,57.02139258643112
1673607535.018674,2.33835,57.026733760691734
1673607535.019681,2.346043,57.03207619973431
1673607535.020688,2.379026,57.000538291775925
1673607535.021695,2.418357,57.00251022389127
1673607535.022702,2.441484,57.02749619098712
1673607535.023709,2.438599,57.01097771513707
1673607535.024716,2.448792,56.997955
1673607535.025723,2.45735,57.021617135670006
1673607535.02673,2.432613,57.022176718236
1673607535.027737,2.379195,57.04020679732952
1673607535.028744,2.332989,57.040012709346684
1673607535.029752,2.32794,57.05024317455359
1673607535.030759,2.307097,57.07399366436664
1673607535.031766,2.288466,57.09773853143115
1673607535.032773,2.313973,57.121489021244194
1673607535.03378,2.348687,57.14523951105724
1673607535.034787,2.359025,57.16898437812175
1673607535.035794,2.357967,57.19273486793479
1673607535.0368009,2.365973,57.216479734999304
1673607535.037808,2.371045,57.24023022481234
1673607535.038815,2.377776,57.26398071462539
1673607535.0398219,2.377512,57.2877255816899
1673607535.040829,2.36227,57.311476071502945
1673607535.041837,2.358255,57.33524905231013
1673607535.042844,2.357847,57.35899954212318
1673607535.043851,2.348711,57.38274440918769
1673607535.044858,2.362607,57.406494899000734
1673607535.045865,2.42278,57.43024538881377
1673607535.046872,2.516923,57.45399025587829
1673607535.047879,2.589742,57.47774074569133
1673607535.048886,2.631644,57.501491235504375
1673607535.049893,2.623399,57.52523610256888
1673607535.0509,2.56046,57.54898659238193
1673607535.051907,2.452879,57.572737082194976
1673607535.052914,2.329431,57.596481949259484
1673607535.053921,2.243149,57.62023243907253
1673607535.054929,2.245553,57.64400541987971
1673607535.055936,2.34412,57.66775590969276
1673607535.056943,2.406072,57.691500776757266
1673607535.05795,2.387753,57.71525126657031
1673607535.0589569,2.358832,57.73899613363482
1673607535.059964,2.34311,57.7692503118741
1673607535.060971,2.338638,57.812012
1673607535.0619779,2.312578,57.816096473772056
1673607535.062985,2.296808,57.851170561754884
1673607535.063992,2.313853,57.91620477759237
1673607535.0649989,2.330344,57.91138629399142
1673607535.066006,2.349481,57.88283439319334
1673607535.067014,2.343687,57.661300664011584
1673607535.068021,2.305534,57.59752982689557
1673607535.069028,2.302121,57.612276152598945
1673607535.070035,2.324887,57.630490378545886
1673607535.071042,2.3446,57.648709596566526
1673607535.072049,2.364049,57.649197
1673607535.073056,2.374579,57.649197
1673607535.074063,2.370733,57.75710093872198
1673607535.07507,2.372079,57.75779974159714
1673607535.076077,2.378498,57.81230747080862
1673607535.077084,2.375661,57.85012773431131
1673607535.078091,2.373185,57.887939044153136
1673607535.079098,2.365203,57.925759307655824
1673607535.080106,2.354553,57.96361538580199
1673607535.0811129,2.358183,58.00142669564381
1673607535.08212,2.365083,58.039246959146496
1673607535.083127,2.370324,58.07706722264919
1673607535.0841339,2.376911,58.11487853249101
1673607535.085141,2.383065,58.15269879599371
1673607535.086148,2.389532,58.190519059496395
1673607535.0871549,2.3885710000000002,58.228330369338224
1673607535.088162,2.397658,58.26615063284091
1673607535.089169,2.394124,58.30397089634361
1673607535.0901759,2.378858,58.34178220618543
1673607535.091183,2.36429,58.379602469688116
1673607535.092191,2.358063,58.41745854783428
1673607535.093198,2.360059,58.45527881133697
1673607535.094205,2.360659,58.493090121178795
1673607535.095212,2.353904,58.530910384681484
1673607535.096219,2.360659,58.56873064818418
1673607535.097226,2.365323,58.606541958026
1673607535.098233,2.372247,58.644362221528695
1673607535.09924,2.379868,58.68218248503138
1673607535.100247,2.378257,58.719993794873204
1673607535.101254,2.38595,58.7578140583759
1673607535.102261,2.392994,58.79563432187859
1673607535.103268,2.399773,58.833445631720416
1673607535.104275,2.428141,58.871265895223104
1673607535.105283,2.455259,58.90912197336927
1673607535.1062899,2.463337,58.94693328321109
1673607535.107297,2.423982,58.98475354671378
1673607535.108304,2.409005,59.02257381021647
1673607535.1093109,2.447181,59.0603851200583
1673607535.110318,2.496104,59.09820538356099
1673607535.111325,2.495767,59.13523630472103
1673607535.1123319,2.485045,59.19264266857415
1673607535.113339,2.517668,59.23366076919409
1673607535.114346,2.567769,59.25187659904648
1673607535.1153529,2.59556,59.324434763948496
1673607535.11636,2.531852,59.400760685264665
1673607535.117368,2.474948,59.41089669344458
1673607535.118375,2.485526,59.426490084406296
1673607535.119382,2.486007,59.4743139933238
1673607535.120389,2.410544,59.51412861072102
1673607535.121396,2.346283,59.54532267796862
1673607535.122403,2.33371,59.57650936025711
1673607535.12341,2.313203,59.60770342750472
1673607535.124417,2.27308,59.638897494752314
1673607535.125424,2.266276,59.67008417704081
1673607535.126431,2.236995,59.70127824428841
1673607535.127438,2.220046,59.73247231153601
1673607535.128445,2.236466,59.76365899382451
1673607535.129452,2.261757,59.794853061072104
1673607535.13046,2.270627,59.82607666815611
1673607535.1314669,2.284956,59.857263350444605
1673607535.132474,2.2995,59.88845741769221
1673607535.133481,2.311521,59.919651484939806
1673607535.1344879,2.325296,59.950838167228305
1673607535.135495,2.338734,59.9820322344759
1673607535.136502,2.358087,60.0132263017235
1673607535.1375089,2.366934,60.044412984012
1673607535.138516,2.354505,60.075607051259595
1673607535.139523,2.356284,60.10680111850719
1673607535.1405299,2.350178,60.13798780079569
1673607535.141537,2.357558,60.16918186804329
1673607535.142545,2.364554,60.2004054751273
1673607535.143552,2.358207,60.231599542374894
1673607535.144559,2.360828,60.262786224663394
1673607535.145566,2.36215,60.29398029191099
1673607535.146573,2.356404,60.32517435915859
1673607535.14758,2.369891,60.35636104144709
1673607535.148587,2.381262,60.387555108694684
1673607535.149594,2.380589,60.41874917594228
1673607535.150601,2.374218,60.44993585823078
1673607535.151608,2.373425,60.48112992547838
1673607535.152615,2.368641,60.489342
1673607535.153622,2.366045,60.52999600643777
1673607535.154629,2.386503,60.55730173319027
1673607535.155637,2.438503,60.54789391775924
1673607535.1566439,2.49358,60.55756914329995
1673607535.157651,2.53565,60.63208323247496
1673607535.158658,2.55421,60.66636054159714
1673607535.1596649,2.511009,60.65592630686695
1673607535.160672,2.413476,60.709974139484984
1673607535.161679,2.33585,60.724518
1673607535.1626859,2.292552,60.75392204744874
1673607535.163693,2.277599,60.7767617090519
1673607535.1647,2.300726,60.79649832639276
1673607535.1657069,2.317483,60.81623027123898
1673607535.166714,2.306256,60.83596688857983
1673607535.167722,2.29676,60.85572219589923
1673607535.168729,2.301015,60.87545881324009
1673607535.169736,2.316569,60.89519075808631
1673607535.170743,2.344793,60.91492737542716
1673607535.17175,2.382416,60.93466399276802
1673607535.172757,2.445451,60.954395937614244
1673607535.173764,2.486872,60.9741325549551
1673607535.174771,2.5175,60.99386917229595
1673607535.175778,2.530674,61.01223708655222
1673607535.176785,2.513173,61.07996250643777
1673607535.177792,2.484156,61.1195846602289
1673607535.178799,2.460043,61.139256956138254
1673607535.179806,2.421891,61.174352989747256
1673607535.180814,2.378377,61.19380067262756
1673607535.1818209,2.340778,61.28058742264601
1673607535.182828,2.319262,61.302582830472105
1673607535.183835,2.3183,61.32080122246066
1673607535.1848419,2.331907,61.36890509698581
1673607535.185849,2.310222,61.41819004818367
1673607535.186856,2.317483,61.46747499938152
1673607535.1878629,2.329503,61.51674828274055
1673607535.18887,2.347125,61.566033233938406
1673607535.189877,2.361333,61.61531818513626
1673607535.1908839,2.364674,61.66459146849529
1673607535.191891,2.353063,61.71387641969314
1673607535.192899,2.341836,61.763208042246305
1673607535.193906,2.328301,61.81249299344416
1673607535.194913,2.334599,61.86176627680319
1673607535.19592,2.34412,61.91105122800104
1673607535.196927,2.349481,61.9603361791989
1673607535.197934,2.362054,62.009609462557925
1673607535.198941,2.378065,62.05889441375578
1673607535.199948,2.388787,62.108179364953635
1673607535.200955,2.400735,62.15745264831266
1673607535.201962,2.426386,62.20673759951052
1673607535.202969,2.463866,62.25602255070837
1673607535.203976,2.494012,62.3052958340674
1673607535.204983,2.505335,62.354580785265256
1673607535.205991,2.538704,62.40391240781842
1673607535.2069979,2.554042,62.453185691177445
1673607535.208005,2.505528,62.5024706423753
1673607535.209012,2.470356,62.551755593573155
1673607535.2100189,2.452879,62.60102887693218
1673607535.211026,2.404221,62.65031382813004
1673607535.212033,2.38208,62.69959877932789
1673607535.2130399,2.363881,62.74887206268692
1673607535.214047,2.306376,62.798157013884776
1673607535.215054,2.282504,62.84744196508263
1673607535.2160609,2.285316,62.89671524844166
1673607535.217068,2.286278,62.946000199639514
1673607535.218076,2.279186,62.995331822192675
1673607535.219083,2.302169,63.04461677339053
1673607535.22009,2.343158,63.09389005674956
1673607535.221097,2.395494,63.14317500794741
1673607535.222104,2.439224,63.19245995914527
1673607535.223111,2.433791,63.241733242504296
1673607535.224118,2.419847,63.29101819370215
1673607535.225125,2.409991,63.340303144900005
1673607535.226132,2.359361,63.38957642825903
1673607535.227139,2.330056,63.43886137945689
1673607535.228146,2.341691,63.48814633065474
1673607535.229153,2.345706,63.53741961401377
1673607535.23016,2.348783,63.586704565211626
1673607535.231168,2.366261,63.63603618776479
1673607535.2321749,2.383137,63.685309471123816
1673607535.233182,2.401673,63.73459442232167
1673607535.234189,2.401072,63.783879373519525
1673607535.2351959,2.384003,63.83315265687855
1673607535.236203,2.372343,63.88243760807641
1673607535.23721,2.366405,63.93172255927426
1673607535.2382169,2.37643,64.01011573104435
1673607535.239224,2.378594,64.10310417596567
1673607535.240231,2.385686,64.15362237401669
1673607535.2412379,2.393691,64.21930946590368
1673607535.242245,2.38559,64.252098
1673607535.243253,2.375108,64.26696986361469
1673607535.24426,2.369122,64.52259751506924
1673607535.245267,2.351332,64.64064789573717
1673607535.246274,2.326474,64.5798184519283
1673607535.247281,2.345875,64.74626837815927
1673607535.248288,2.387753,64.77034144362337
1673607535.249295,2.392345,64.80078653600381
1673607535.250302,2.370396,64.812889
1673607535.251309,2.338398,64.84408728581644
1673607535.252316,2.33746,64.89696956223176
1673607535.253323,2.37191,64.90165548779983
1673607535.25433,2.399461,64.94766960929961
1673607535.255337,2.402322,64.99369462687363
1673607535.256345,2.403355,65.03976322874459
1673607535.2573519,2.398595,65.08577735024437
1673607535.258359,2.383762,65.1318023678184
1673607535.259366,2.391527,65.17782738539242
1673607535.2603729,2.422516,65.2238415068922
1673607535.26138,2.449634,65.26986652446622
1673607535.262387,2.467279,65.31589154204023
1673607535.2633939,2.483122,65.36190566354001
1673607535.264401,2.462231,65.40793068111404
1673607535.265408,2.409846,65.45395569868806
1673607535.2664149,2.383666,65.49996982018784
1673607535.267422,2.365443,65.54599483776187
1673607535.26843,2.351764,65.59206343963282
1673607535.269437,2.364722,65.63808845720685
1673607535.270444,2.385998,65.68410257870663
1673607535.271451,2.387008,65.73012759628065
1673607535.272458,2.383955,65.77615261385468
1673607535.273465,2.383883,65.82216673535446
1673607535.274472,2.404005,65.86819175292848
1673607535.275479,2.417491,65.91421677050249
1673607535.276486,2.443143,65.96023089200227
1673607535.277493,2.447422,66.0062559095763
1673607535.2785,2.447302,66.05228092715032
1673607535.279507,2.42879,66.0982950486501
1673607535.280514,2.40939,66.14432006622413
1673607535.281522,2.428213,66.19038866809508
1673607535.2825289,2.442133,66.23640278959488
1673607535.283536,2.420785,66.28242780716889
1673607535.284543,2.38559,66.32845282474291
1673607535.2855499,2.358808,66.37446694624269
1673607535.286557,2.373762,66.42049196381672
1673607535.287564,2.377271,66.46651698139074
1673607535.2885709,2.366285,66.51253110289052
1673607535.289578,2.351548,66.55855612046453
1673607535.290585,2.322098,66.60458113803855
1673607535.291592,2.300534,66.65597877163289
1673607535.292599,2.309766,66.74509344301383
1673607535.293607,2.325007,66.77308101716737
1673607535.294614,2.345009,66.8019014340882
1673607535.295621,2.355947,66.86842330424416
1673607535.296628,2.362751,66.92929629351455
1673607535.297635,2.34674,66.9960872205006
1673607535.298642,2.350034,67.04441409489748
1673607535.299649,2.375228,67.08085156390081
1673607535.300656,2.378305,67.10272502693938
1673607535.301663,2.366958,67.11796743402344
1673607535.30267,2.366069,67.13321345048641
1673607535.303677,2.384989,67.14845946694936
1673607535.304684,2.394004,67.16370187403342
1673607535.305692,2.374098,67.2332761988555
1673607535.306699,2.340201,67.2843578057602
1673607535.3077059,2.357438,67.33426377252462
1673607535.308713,2.410279,67.38418155694633
1673607535.30972,2.439488,67.43409934136805
1673607535.310727,2.411601,67.48400530813247
1673607535.311734,2.36078,67.53392309255419
1673607535.312741,2.322531,67.5838408769759
1673607535.313748,2.320415,67.63374684374031
1673607535.314755,2.332628,67.68366462816203
1673607535.315762,2.338326,67.73358241258374
1673607535.316769,2.34436,67.78348837934817
1673607535.317776,2.359121,67.83340616376988
1673607535.318784,2.37667,67.88337121882078
1673607535.319791,2.385517,67.93328900324249
1673607535.320798,2.393258,67.98319497000692
1673607535.321805,2.397129,68.03311275442863
1673607535.322812,2.392561,68.08303053885035
1673607535.323819,2.379916,68.13293650561477
1673607535.324826,2.371886,68.18285429003649
1673607535.325833,2.370829,68.2327720744582
1673607535.32684,2.34888,68.28267804122261
1673607535.327847,2.336306,68.33259582564433
1673607535.328854,2.348014,68.38251361006604
1673607535.329861,2.373209,68.43241957683047
1673607535.330869,2.391119,68.48238463188136
1673607535.331876,2.394316,68.53230241630308
1673607535.332883,2.393763,68.5822083830675
1673607535.33389,2.395254,68.63212616748922
1673607535.334897,2.40386,68.68204395191093
1673607535.335904,2.420977,68.73194991867535
1673607535.336911,2.434632,68.78186770309706
1673607535.337918,2.457519,68.83178548751879
1673607535.338925,2.486512,68.8816914542832
1673607535.339932,2.500816,68.93160923870491
1673607535.340939,2.494253,68.98152702312663
1673607535.341946,2.518269,69.03143298989104
1673607535.342953,2.565341,69.08135077431277
1673607535.343961,2.576784,69.13131582936366
1673607535.344968,2.545676,69.18123361378538
1673607535.345975,2.473313,69.2311395805498
1673607535.346982,2.44658,69.28105736497152
1673607535.347989,2.387248,69.33097514939323
1673607535.348996,2.279306,69.38088111615765
1673607535.350003,2.226153,69.43079890057936
1673607535.35101,2.24387,69.48071668500108
1673607535.352017,2.300366,69.5306226517655
1673607535.353024,2.334023,69.5805404361872
1673607535.354031,2.343783,69.63045822060893
1673607535.355038,2.338326,69.68036418737334
1673607535.356046,2.334696,69.73175564910608
1673607535.357053,2.35025,69.8032320572246
1673607535.35806,2.355563,69.90104889413448
1673607535.359067,2.349865,69.97978348247915
1673607535.360074,2.350707,70.04692586695279
1673607535.361081,2.343014,70.09569902742012
1673607535.362088,2.341595,70.21749826561755
1673607535.363095,2.34662,70.30592511966627
1673607535.364102,2.347581,70.32017001788269
1673607535.365109,2.348519,70.38796103506797
1673607535.366116,2.370612,70.44684671853841
1673607535.367123,2.417131,70.50571846126938
1673607535.36813,2.449898,70.5646041447398
1673607535.369138,2.482833,70.62354559116807
1673607535.370145,2.490046,70.6824312746385
1673607535.371152,2.499157,70.74130301736948
1673607535.372159,2.476463,70.8001887008399
1673607535.373166,2.427468,70.85907438431033
1673607535.374173,2.404678,70.9179461270413
1673607535.37518,2.385517,70.97683181051174
1673607535.376187,2.39922,71.03571749398216
1673607535.377194,2.418405,71.09458923671313
1673607535.378201,2.420136,71.15347492018357
1673607535.379208,2.412491,71.212360603654
1673607535.380215,2.403716,71.27123234638498
1673607535.381223,2.406601,71.33017379281323
1673607535.38223,2.468024,71.38905947628366
1673607535.383237,2.521731,71.44793121901463
1673607535.384244,2.526587,71.50681690248507
1673607535.385251,2.501753,71.56570258595549
1673607535.386258,2.468097,71.62457432868646
1673607535.387265,2.384387,71.6834600121569
1673607535.388272,2.299572,71.74234569562734
1673607535.389279,2.251179,71.80121743835831
1673607535.390286,2.258295,71.86010312182873
1673607535.391293,2.281927,71.91898880529916
1673607535.3923,2.302529,71.97786054803014
1673607535.393307,2.301303,72.03674623150057
1673607535.394315,2.310823,72.09568767792882
1673607535.395322,2.338518,72.15457336139926
1673607535.396329,2.356597,72.21344510413023
1673607535.397336,2.369747,72.27233078760067
1673607535.398343,2.376117,72.33121647107109
1673607535.39935,2.374266,72.39008821380206
1673607535.400357,2.381358,72.4489738972725
1673607535.401364,2.363641,72.50785958074293
1673607535.402371,2.328734,72.5667313234739
1673607535.403378,2.328661,72.62561700694432
1673607535.404385,2.348447,72.68450269041476
1673607535.405392,2.355899,72.74337443314573
1673607535.4064,2.366477,72.802315879574
1673607535.407407,2.370733,72.86120156304442
1673607535.408414,2.362342,72.92007330577539
1673607535.409421,2.355515,72.97895898924583
1673607535.410428,2.337989,73.03784467271626
1673607535.411435,2.333349,73.09671641544723
1673607535.412442,2.341066,73.15560209891765
1673607535.413449,2.378834,73.21448778238809
1673607535.414456,2.438599,73.27335952511906
1673607535.415463,2.462736,73.3322452085895
1673607535.41647,2.474035,73.39113089205992
1673607535.417477,2.457567,73.45000263479089
1673607535.418484,2.433526,73.50888831826133
1673607535.419492,2.408356,73.56782976468959
1673607535.420499,2.405014,73.5741832681764
1673607535.421506,2.396408,73.59357223414402
1673607535.422513,2.38559,73.59201983738674
1673607535.42352,2.389196,73.62497382789034
1673607535.424527,2.377897,73.69253099570815
1673607535.425534,2.359385,73.77844828326181
1673607535.426541,2.358328,73.79050789556509
1673607535.427548,2.361212,73.82547377568534
1673607535.428555,2.377344,73.89355992131617
1673607535.429562,2.401673,73.93363025328541
1673607535.430569,2.404149,73.96239188492905
1673607535.431577,2.408019,73.9911875701266
1673607535.432584,2.442037,74.019956012481
1673607535.433591,2.461053,74.04871764412464
1673607535.434598,2.47841,74.07748608647904
1673607535.435605,2.485214,74.10625452883346
1673607535.436612,2.509879,74.13501616047708
1673607535.437619,2.514663,74.1637846028315
1673607535.438626,2.456148,74.1925530451859
1673607535.439633,2.399894,74.22131467682954
1673607535.44064,2.402274,74.25008311918394
1673607535.441647,2.404918,74.27885156153836
1673607535.442654,2.429079,74.30761319318198
1673607535.443661,2.464995,74.3363816355364
1673607535.444669,2.491849,74.36517732073395
1673607535.445676,2.541781,74.39394576308835
1673607535.446683,2.576423,74.42270739473199
1673607535.44769,2.545868,74.45147583708639
1673607535.448697,2.476367,74.48024427944081
1673607535.449704,2.447133,74.50900591108444
1673607535.450711,2.399942,74.53777435343885
1673607535.451718,2.32318,74.56654279579327
1673607535.452725,2.312194,74.59530442743689
1673607535.453732,2.333542,74.6240728697913
1673607535.454739,2.345658,74.65284131214571
1673607535.455746,2.407803,74.68160294378934
1673607535.456754,2.420929,74.7103986289869
1673607535.457761,2.372656,74.7391670713413
1673607535.458768,2.322603,74.76792870298493
1673607535.459775,2.2918790000000002,74.79669714533934
1673607535.460782,2.277744,74.82546558769376
1673607535.461789,2.27659,74.85422721933739
1673607535.462796,2.290317,74.87859730972818
1673607535.463803,2.299332,74.89682350357995
1673607535.46481,2.306015,74.93864956652361
1673607535.465817,2.318973,74.979538
1673607535.466824,2.337556,75.0281711256557
1673607535.467831,2.3508270000000002,75.07985181336515
1673607535.468838,2.371742,75.09509476542034
1673607535.469846,2.400278,75.13276105364807
1673607535.470853,2.426699,75.15098816229117
1673607535.47186,2.437036,75.17461015247771
1673607535.472867,2.426002,75.20403933048453
1673607535.473874,2.412275,75.23346850849136
1673607535.474881,2.38821,75.26289071936324
1673607535.475888,2.353399,75.29231989737006
1673607535.476895,2.358928,75.32174907537689
1673607535.477902,2.368881,75.35117128624876
1673607535.478909,2.36828,75.38060046425558
1673607535.479916,2.361284,75.4100296422624
1673607535.480923,2.358784,75.43945185313429
1673607535.481931,2.358856,75.46890889968088
1673607535.482938,2.367679,75.4983380776877
1673607535.483945,2.379964,75.52776028855959
1673607535.484952,2.3897,75.58204892377323
1673607535.485959,2.400543,75.612701
1673607535.486966,2.403548,75.62338230310263
1673607535.487973,2.398067,75.630791
1673607535.48898,2.397321,75.66359218694927
1673607535.489987,2.401552,75.71820922746781
1673607535.490994,2.400278,75.79527793890215
1673607535.492001,2.396432,75.829773
1673607535.493008,2.383979,75.8412026256557
1673607535.494015,2.369602,75.91284228066857
1673607535.495023,2.360395,76.01535594733524
1673607535.49603,2.366886,76.11777262850836
1673607535.497037,2.425617,76.155403
1673607535.498044,2.555965,76.19033397756563
1673607535.499051,2.632846,76.209671
1673607535.500058,2.628014,76.209671
1673607535.501065,2.583419,76.23371837828162
1673607535.502072,2.511249,76.25800853385789
1673607535.503079,2.405255,76.30074663610384
1673607535.504086,2.312122,76.35541749260143
1673607535.505093,2.301952,76.410089944206
1673607535.5061,2.347966,76.4605111575586
1673607535.507108,2.383979,76.50913914466953
1673607535.508115,2.384508,76.55772112611623
1673607535.509122,2.370372,76.60629160614687
1673607535.510129,2.357943,76.65487358759356
1673607535.511136,2.345971,76.70345556904026
1673607535.512143,2.331594,76.75202604907089
1673607535.51315,2.347581,76.80060803051758
1673607535.514157,2.386575,76.84919001196428
1673607535.515164,2.434392,76.89776049199492
1673607535.516171,2.460596,76.9463424734416
1673607535.517178,2.486536,76.9949244548883
1673607535.518185,2.495936,77.04349493491894
1673607535.519192,2.490334,77.09207691636563
1673607535.5202,2.48103,77.14070490347657
1673607535.521207,2.462375,77.18928688492328
1673607535.522214,2.483771,77.23785736495391
1673607535.523221,2.47002,77.2864393464006
1673607535.524228,2.387152,77.3350213278473
1673607535.525235,2.320728,77.38359180787793
1673607535.526242,2.344817,77.43217378932462
1673607535.527249,2.397153,77.48075577077132
1673607535.528256,2.406072,77.52932625080196
1673607535.529263,2.343999,77.57790823224865
1673607535.5302699,2.302746,77.62647871227928
1673607535.531277,2.3089,77.67506069372598
1673607535.532285,2.321569,77.72368868083691
1673607535.533292,2.33032,77.77227066228362
1673607535.534299,2.322291,77.82084114231425
1673607535.535306,2.330368,77.86942312376094
1673607535.536313,2.340393,77.91800510520764
1673607535.53732,2.348543,77.96657558523827
1673607535.538327,2.352726,78.01515756668496
1673607535.539334,2.359554,78.11996369159324
1673607535.540341,2.367775,78.22924252360515
1673607535.541348,2.377464,78.35580087350834
1673607535.542355,2.383209,78.4142387134001
1673607535.543362,2.377776,78.46882045915694
1673607535.544369,2.367703,78.5585720477327
1673607535.545377,2.369362,78.64975468240344
1673607535.546384,2.370059,78.66962386639676
1673607535.547391,2.358472,78.75955572601431
1673607535.548398,2.343062,78.7953586617793
1673607535.549405,2.333109,78.83065889191685
1673607535.550412,2.356236,78.86595076499235
1673607535.551419,2.403307,78.9012509951299
1673607535.5524259,2.430593,78.93654286820541
1673607535.553433,2.464731,78.97184309834296
1673607535.55444,2.481872,79.00714332848051
1673607535.5554469,2.486271,79.042435201556
1673607535.556454,2.464563,79.07773543169355
1673607535.557462,2.428502,79.11306909007935
1673607535.558469,2.408524,79.1483693202169
1673607535.559476,2.406601,79.1836611932924
1673607535.560483,2.440979,79.21896142342996
1673607535.56149,2.483194,79.25426165356751
1673607535.562497,2.479756,79.289553526643
1673607535.563504,2.462183,79.32485375678056
1673607535.564511,2.398547,79.3601539869181
1673607535.565518,2.342845,79.3954458599936
1673607535.566525,2.32794,79.43074609013117
1673607535.567532,2.340922,79.46604632026872
1673607535.568539,2.362438,79.50133819334421
1673607535.569546,2.372992,79.53663842348176
1673607535.570554,2.370829,79.57197208186756
1673607535.571561,2.350635,79.60727231200511
1673607535.572568,2.331498,79.6425641850806
1673607535.573575,2.337244,79.67786441521815
1673607535.5745819,2.355947,79.71315628829365
1673607535.575589,2.382632,79.74845651843121
1673607535.576596,2.405567,79.78375674856876
1673607535.5776029,2.420016,79.81904862164426
1673607535.57861,2.443575,79.85434885178181
1673607535.579617,2.458721,79.88964908191936
1673607535.5806239,2.459682,79.92494095499485
1673607535.581631,2.454394,79.96024118513242
1673607535.582639,2.445547,79.9955748435182
1673607535.583646,2.40975,80.03087507365576
1673607535.584653,2.387873,80.06616694673126
1673607535.58566,2.386984,80.10146717686881
1673607535.586667,2.374723,80.13676740700636
1673607535.587674,2.353063,80.17205928008185
1673607535.588681,2.383065,80.2073595102194
1673607535.589688,2.418405,80.24265974035697
1673607535.590695,2.412852,80.27795161343246
1673607535.591702,2.385229,80.31325184357001
1673607535.592709,2.331402,80.34855207370757
1673607535.593716,2.286278,80.38384394678306
1673607535.594723,2.3024810000000002,80.41914417692061
1673607535.595731,2.346139,80.4544778353064
1673607535.5967379,2.378209,80.4897697083819
1673607535.597745,2.398499,80.52506993851945
1673607535.598752,2.39785,80.56037016865702
1673607535.5997589,2.386888,80.59566204173251
1673607535.600766,2.377872,80.63096227187006
1673607535.601773,2.387441,80.66626250200761
1673607535.6027799,2.401096,80.68745609251312
1673607535.603787,2.421218,80.6477234487363
1673607535.604794,2.431892,80.68415958307509
1673607535.6058009,2.426434,80.72381557796852
1673607535.606808,2.40749,80.77510756938483
1673607535.607816,2.390999,80.80104800095351
1673607535.608823,2.380421,80.79737674463519
1673607535.60983,2.368473,80.84825819551742
1673607535.610837,2.374843,80.876915
1673607535.611844,2.393379,80.87584500357892
1673607535.612851,2.414895,80.87099151820165
1673607535.613858,2.424727,80.8661368835264
1673607535.614865,2.429391,80.86128224885114
1673607535.615872,2.429848,80.85642876347387
1673607535.616879,2.434632,80.85157412879863
1673607535.617886,2.465164,80.84671949412338
1673607535.618893,2.507259,80.84186600874611
1673607535.6199,2.536901,80.83701137407085
1673607535.620908,2.542863,80.83215214220368
1673607535.6219149,2.526924,80.82729865682641
1673607535.622922,2.489613,80.82244402215116
1673607535.623929,2.433478,80.8175893874759
1673607535.6249359,2.357895,80.81273590209864
1673607535.625943,2.319718,80.80788126742338
1673607535.62695,2.322459,80.80302663274814
1673607535.6279569,2.335705,80.79817314737087
1673607535.628964,2.353712,80.79331851269562
1673607535.629971,2.351308,80.78846387802037
1673607535.6309779,2.355707,80.7836103926431
1673607535.631985,2.352654,80.77875575796784
1673607535.632993,2.337556,80.77389652610067
1673607535.634,2.325344,80.76904189142542
1673607535.635007,2.335729,80.76418840604815
1673607535.636014,2.357654,80.75933377137291
1673607535.637021,2.360515,80.75447913669765
1673607535.638028,2.337917,80.74962565132039
1673607535.639035,2.330633,80.74477101664513
1673607535.640042,2.347413,80.73991638196988
1673607535.641049,2.353591,80.73506289659261
1673607535.642056,2.358664,80.73020826191737
1673607535.643063,2.356621,80.72535362724211
1673607535.64407,2.359818,80.72050014186485
1673607535.645077,2.381623,80.71564550718959
1673607535.646085,2.395013,80.71078627532242
1673607535.6470919,2.391263,80.70593278994515
1673607535.648099,2.385878,80.7010781552699
1673607535.649106,2.401889,80.69622352059464
1673607535.6501129,2.42391,80.69137003521737
1673607535.65112,2.413308,80.68651540054213
1673607535.652127,2.379507,80.68166076586688
1673607535.6531339,2.36477,80.67680728048961
1673607535.654141,2.37756,80.67195264581436
1673607535.655148,2.383378,80.6670980111391
1673607535.6561549,2.372632,80.66224452576184
1673607535.657162,2.377632,80.6573898910866
1673607535.65817,2.401817,80.65253065921941
1673607535.659177,2.399701,80.64767602454417
1673607535.660184,2.40023,80.64282253916689
1673607535.661191,2.39898,80.63796790449165
1673607535.662198,2.39285,80.63311326981639
1673607535.663205,2.376574,80.62825978443912
1673607535.664212,2.362871,80.62340514976387
1673607535.665219,2.359217,80.61855051508863
1673607535.666226,2.371141,80.61369702971136
1673607535.667233,2.394965,80.6088423950361
1673607535.66824,2.396961,80.5819642011919
1673607535.669247,2.374411,80.533203
1673607535.670254,2.360636,80.44276044983819
1673607535.671262,2.364193,80.50332057568534
1673607535.6722689,2.359722,80.47660623462089
1673607535.673276,2.3471,80.41967283118741
1673607535.674283,2.340754,80.4294033776824
1673607535.6752899,2.345899,80.36577110441002
1673607535.676297,2.348062,80.31188095183596
1673607535.677304,2.34698,80.32477350009826
1673607535.6783109,2.361092,80.30042542730793
1673607535.679318,2.381887,80.27607158893085
1673607535.680325,2.406192,80.25171775055377
1673607535.6813319,2.437998,80.22736967776343
1673607535.682339,2.483074,80.20301583938635
1673607535.683347,2.50584,80.17863893866233
1673607535.684354,2.519495,80.15428510028525
1673607535.685361,2.515168,80.1299370274949
1673607535.686368,2.476679,80.10558318911784
1673607535.687375,2.41213,80.08122935074076
1673607535.688382,2.350947,80.05688127795041
1673607535.689389,2.352077,80.03252743957334
1673607535.690396,2.369362,80.00817360119626
1673607535.691403,2.397345,79.98382552840592
1673607535.69241,2.45336,79.95947169002883
1673607535.693417,2.495551,79.93511785165177
1673607535.694424,2.500599,79.91076977886142
1673607535.695431,2.471847,79.88641594048434
1673607535.696439,2.445643,79.86203903976032
1673607535.6974459,2.447085,79.83769096696999
1673607535.698453,2.442542,79.8133371285929
1673607535.69946,2.4323,79.78898329021582
1673607535.7004669,2.407947,79.76463521742548
1673607535.701474,2.35263,79.74028137904841
1673607535.702481,2.33246,79.71592754067133
1673607535.7034879,2.352991,79.69157946788098
1673607535.704495,2.354192,79.66722562950392
1673607535.705502,2.33371,79.64287179112684
1673607535.7065089,2.286831,79.61852371833649
1673607535.707516,2.287624,79.59416987995942
1673607535.708524,2.310343,79.56979297923539
1673607535.709531,2.312963,79.54543914085832
1673607535.710538,2.320896,79.52109106806797
1673607535.711545,2.350562,79.4967372296909
1673607535.712552,2.369362,79.47238339131381
1673607535.713559,2.35602,79.44803531852348
1673607535.714566,2.345322,79.4236814801464
1673607535.715573,2.361982,79.39932764176932
1673607535.71658,2.363208,79.37497956897899
1673607535.717587,2.35626,79.3506257306019
1673607535.718594,2.3590970000000002,79.32627189222482
1673607535.719601,2.353928,79.30192381943449
1673607535.720608,2.350009,79.27756998105741
1673607535.721616,2.374843,79.25319308033339
1673607535.7226229,2.421939,79.2637404960705
1673607535.72363,2.457519,79.20669970457797
1673607535.724637,2.492738,79.24012394677804
1673607535.7256439,2.514375,79.17220339198856
1673607535.726651,2.505816,79.17378700690641
1673607535.727658,2.466222,79.176445
1673607535.7286649,2.422395,79.12935229164677
1673607535.729672,2.408452,79.04312560204811
1673607535.730679,2.418717,79.0636045598474
1673607535.7316859,2.41201,79.03976201194249
1673607535.732693,2.391696,79.00783589015006
1673607535.733701,2.362414,78.97587953528777
1673607535.734708,2.349408,78.94395341349535
1673607535.735715,2.354481,78.91203484997041
1673607535.736722,2.34335,78.88010872817799
1673607535.737729,2.339432,78.84818260638558
1673607535.738736,2.362631,78.81626404286062
1673607535.739743,2.379579,78.78433792106821
1673607535.74075,2.368641,78.75241179927579
1673607535.741757,2.33859,78.72049323575085
1673607535.742764,2.316232,78.68856711395843
1673607535.743771,2.319935,78.656640992166
1673607535.744778,2.332989,78.62472242864106
1673607535.745785,2.347774,78.59279630684864
1673607535.746793,2.362511,78.56083995198635
1673607535.7477999,2.358111,78.5289213884614
1673607535.748807,2.353904,78.49699526666899
1673607535.749814,2.346139,78.46506914487657
1673607535.7508209,2.338903,78.43315058135163
1673607535.751828,2.339191,78.4012244595592
1673607535.752835,2.352486,78.369298337766793
1673607535.7538419,2.412515,78.33737977424184
1673607535.754849,2.510408,78.30545365244943
1673607535.755856,2.565533,78.273527530657
1673607535.7568629,2.574067,78.24160896713207
1673607535.75787,2.552768,78.20968284533964
1673607535.758878,2.525962,78.17772649047735
1673607535.759885,2.453576,78.14580036868493
1673607535.760892,2.342797,78.11388180515999
1673607535.761899,2.274739,78.08195568336757
1673607535.762906,2.296615,78.05002956157516
1673607535.763913,2.329671,78.0181109980502
1673607535.76492,2.348327,77.9861848762578
1673607535.765927,2.345922,77.95425875446537
1673607535.766934,2.344336,77.92234019094043
1673607535.767941,2.365708,77.89041406914801
1673607535.768948,2.385445,77.8584879473556
1673607535.769955,2.401192,77.82656938383064
1673607535.770962,2.416193,77.79464326203824
1673607535.77197,2.416794,77.76268690717593
1673607535.7729769,2.399822,77.73076834365098
1673607535.773984,2.375565,77.69884222185857
1673607535.774991,2.34537,77.66691610006615
1673607535.7759979,2.34549,77.6349975365412
1673607535.777005,2.361236,77.60307141474878
1673607535.778012,2.366862,77.57114529295637
1673607535.7790189,2.383907,77.53922672943142
1673607535.780026,2.396215,77.50730060763901
1673607535.781033,2.394653,77.47537448584659
1673607535.7820399,2.374988,77.44345592232165
1673607535.783047,2.379531,77.41152980052922
1673607535.784055,2.408043,77.37957344566694
1673607535.785062,2.43319,77.34764732387451
1673607535.786069,2.447855,77.29579926537912
1673607535.787076,2.460596,77.258888
1673607535.788083,2.456052,77.13838167279411
1673607535.78909,2.424271,77.12654818303571
1673607535.790097,2.374074,77.06013461144659
1673607535.791104,2.325416,77.14854098712446
1673607535.792111,2.306785,77.114174
1673607535.793118,2.329767,77.09467442455305
1673607535.794125,2.350009,77.06811807820696
1673607535.795132,2.341716,77.04231121939604
1673607535.796139,2.32294,77.01026277037874
1673607535.797147,2.338951,76.97818397245139
1673607535.7981539,2.409486,76.94614311066161
1673607535.799161,2.458841,76.91409466164431
1673607535.800168,2.470284,76.88204621262702
1673607535.8011749,2.471054,76.85000535083724
1673607535.802182,2.485189,76.81795690181994
1673607535.803189,2.462519,76.78590845280264
1673607535.8041959,2.4179,76.75386759101286
1673607535.805203,2.391504,76.72181914199557
1673607535.80621,2.366045,76.68977069297826
1673607535.807217,2.377368,76.65772983118848
1673607535.808224,2.384171,76.62568138217118
1673607535.809232,2.372776,76.59360258424384
1673607535.810239,2.367174,76.56155413522653
1673607535.811246,2.36429,76.52951327343675
1673607535.812253,2.353207,76.49746482441945
1673607535.81326,2.360948,76.46541637540216
1673607535.814267,2.369458,76.43337551361238
