measure_time,emg_ch_1,grip_force_inter
1673607724.063376,43.948563,0.068338
1673607724.0643828,43.937721,0.05049030157217723
1673607724.0653899,43.932358,0.08596074415274463
1673607724.066397,43.928947,0.0506285498330949
1673607724.0674038,43.929981,0.06884202786377709
1673607724.0684109,43.924572,0.08581395990453461
1673607724.069418,43.916325,0.06909709966618979
1673607724.0704248,43.916084,0.086427
1673607724.0714319,43.926205,0.08841290453460621
1673607724.072439,43.937191,0.12288964540740299
1673607724.0734458,43.938538,0.1274428937235501
1673607724.0744529,43.936905,0.13199722024199798
1673607724.075461,43.934666,0.13655585956964894
1673607724.0764678,43.933296,0.14110910788579603
1673607724.0774748,43.936207,0.1456634344042439
1673607724.091574,43.91058,0.28814260679187503
1673607724.0925808,43.913609,0.29767818879448793
1673607724.0935879,43.920315,0.3072160288084678
1673607724.094595,43.920052,0.31675386882244766
1673607724.0956018,43.929619,0.32628945082506056
1673607724.0966089,43.928009,0.3358272908390404
1673607724.097616,43.93623,0.34536513085302023
1673607724.0986228,43.949406,0.3549007128556331
1673607724.0996299,43.947529,0.364438552869613
1673607724.100638,43.943058,0.3739854249290606
1673607724.1016448,43.947048,0.3835210069316735
1673607724.1026518,43.950077,0.3930588469456534
1673607724.103659,43.94611,0.40259668695963324
1673607724.1046658,43.943802,0.4121322689622461
1673607724.1056728,43.946663,0.4216701089762259
1673607724.10668,43.941639,0.4312079489902058
1673607724.1076868,43.931519,0.4407435309928187
1673607724.1086938,43.933224,0.45028137100679855
1673607724.109701,43.936951,0.4598192110207784
1673607724.1107078,43.925293,0.46935479302339134
1673607724.1117148,43.910725,0.4788926330373712
1673607724.1127229,43.909714,0.48843950509681877
1673607724.11373,43.909184,0.4979773451107986
1673607724.1147368,43.910385,0.5075129271134116
1673607724.1157439,43.928394,0.5170507671273914
1673607724.116751,43.940197,0.5265886071413712
1673607724.1177578,43.939522,0.5361241891439841
1673607724.1187649,43.93594,0.5456620291579639
1673607724.119772,43.933273,0.5551998691719437
1673607724.1207788,43.94075,0.5647354511745567
1673607724.1217859,43.952747,0.5742732911885365
1673607724.122793,43.952888,0.5838111312025165
1673607724.1237998,43.94878,0.5933467132051293
1673607724.1248069,43.947239,0.6028845532191092
1673607724.125815,43.948586,0.6124314252785568
1673607724.1268218,43.95248,0.6219670072811697
1673607724.1278288,43.938828,0.6315048472951496
1673607724.128836,43.910267,0.6410426873091295
1673607724.1298428,43.900219,0.6505782693117423
1673607724.1308498,43.893463,0.6601161093257222
1673607724.131857,43.886971,0.669653949339702
1673607724.1328638,43.881874,0.6791895313423149
1673607724.1338708,43.871441,0.6887273713562947
1673607724.134878,43.860935,0.6982652113702745
1673607724.1358848,43.858917,0.7078007933728875
1673607724.1368918,43.860382,0.7173386333868673
1673607724.1378999,43.870117,0.726885505446315
1673607724.138907,43.885551,0.7364233454602949
1673607724.1399138,43.901299,0.7459589274629077
1673607724.1409209,43.919235,0.7554967674768875
1673607724.141928,43.918682,0.7650346074908674
1673607724.1429348,43.940845,0.7745701894934802
1673607724.1439419,43.973396,0.7841080295074601
1673607724.144949,43.971497,0.7936458695214399
1673607724.1459558,43.965271,0.803181451524053
1673607724.146963,43.970055,0.8254394674612634
1673607724.14797,43.963226,0.8590417319980925
1673607724.1489768,43.958298,0.8785335011921793
1673607724.1499848,43.965321,0.9381539651966627
1673607724.150992,43.962074,0.8948252570338578
1673607724.1519988,43.939548,0.8939626437768241
1673607724.1530058,43.926373,0.918573
1673607724.154013,43.918201,0.9246141654350417
1673607724.1550198,43.911301,0.9428253717215069
1673607724.1560268,43.916374,0.9558323230220839
1673607724.157034,43.936687,0.9589628976932847
1673607724.1580408,43.945484,0.9620927312246487
1673607724.1590478,43.941902,0.9652233058958496
1673607724.160055,43.935364,0.9683538805670505
1673607724.1610618,43.93034,0.9714837140984144
1673607724.1620688,43.930702,0.9831654806866953
1673607724.1630769,43.926567,1.0118784601812112
1673607724.164084,43.923801,1.0165170102502978
1673607724.1650908,43.921326,1.0411938483547925
1673607724.1660979,43.91695,1.0849973495469718
1673607724.167105,43.915989,1.1097368515792638
1673607724.1681118,43.921444,1.1267629584996217
1673607724.169119,43.920197,1.143793097176295
1673607724.170126,43.91428,1.1608232358529684
1673607724.1711328,43.916927,1.177849342773326
1673607724.17214,43.914257,1.1948794814499994
1673607724.173147,43.906322,1.2119096201266728
1673607724.1741538,43.907982,1.2289357270470307
1673607724.1751618,43.907406,1.245981992748966
1673607724.176169,43.908272,1.2630121314256393
1673607724.1771758,43.910194,1.2800382383459972
1673607724.1781828,43.910507,1.2970683770226705
1673607724.17919,43.914787,1.3140985156993439
1673607724.1801968,43.916443,1.3311246226197015
1673607724.1812038,43.922119,1.348154761296375
1673607724.182211,43.928658,1.3651848999730483
1673607724.1832178,43.928707,1.3822110068934061
1673607724.1842248,43.919018,1.3992411455700795
1673607724.185232,43.917477,1.4162712842467529
1673607724.1862388,43.908798,1.4332973911671107
1673607724.1872458,43.90332,1.450327529843784
1673607724.1882539,43.910072,1.4673737955457193
1673607724.189261,43.90118,1.4844039342223927
1673607724.1902678,43.897453,1.5014300411427506
1673607724.191275,43.895817,1.518460179819424
1673607724.192282,43.896011,1.5354903184960973
1673607724.1932888,43.890362,1.552516425416455
1673607724.194296,43.8862,1.5695465640931283
1673607724.197317,43.888462,1.620632948366833
1673607724.198324,43.897453,1.637663087043506
1673607724.1993308,43.901371,1.654689193963864
1673607724.2003388,43.90255,1.6717354596657994
1673607724.201346,43.898945,1.6887655983424728
1673607724.2023528,43.894833,1.7057917052628304
1673607724.2033598,43.902164,1.7228218439395038
1673607724.204367,43.908344,1.7398519826161771
1673607724.2053738,43.907574,1.756878089536535
1673607724.2063808,43.902958,1.7739082282132084
1673607724.207388,43.895,1.7909383668898817
1673607724.2083948,43.892307,1.8079644738102396
1673607724.2094018,43.890144,1.824994612486913
1673607724.210409,43.884182,1.8420247511635863
1673607724.2114158,43.877068,1.8590508580839442
1673607724.2124228,43.877453,1.8760809967606173
1673607724.213431,43.874733,1.8942240052443384
1673607724.214438,43.874687,1.946446321888412
1673607724.2154448,43.876537,1.9668341862184073
1673607724.216452,43.874447,2.002316788268956
1673607724.217459,43.877499,2.073510263885578
1673607724.2184658,43.881897,2.1113524721030044
1673607724.219473,43.888508,2.183069311874106
1673607724.22048,43.897453,2.184881
1673607724.2214868,43.910385,2.275993886334281
1673607724.222494,43.907719,2.448901057701478
1673607724.223501,43.895721,2.5064778684147795
1673607724.2245078,43.892021,2.510501
1673607724.2255158,43.8894,2.56156354176611
1673607724.226523,43.884975,2.513322161182642
1673607724.2275298,43.883724,2.562317775923719
1673607724.2285368,43.8806,2.6169727281831188
1673607724.229544,43.874039,2.6891649265617548
1673607724.2305508,43.868893,2.7196529032025416
1673607724.2315578,43.862232,2.748801808926347
1673607724.232565,43.860935,2.777950714650152
1673607724.2335718,43.867764,2.8070927195913526
1673607724.2345788,43.871319,2.836241625315158
1673607724.235586,43.869831,2.8653905310389636
1673607724.2365928,43.873871,2.8945325359801637
1673607724.2375998,43.877163,2.923681441703969
1673607724.238608,43.878075,2.9528579505581947
1673607724.239615,43.881947,2.982006856282
1673607724.2406218,43.882835,3.0111488612232002
1673607724.241629,43.885696,3.0402977669470057
1673607724.242636,43.895744,3.069446672670811
1673607724.2436428,43.898052,3.0985886776120113
1673607724.24465,43.890144,3.1277375833358168
1673607724.245657,43.881611,3.156886489059622
1673607724.2466638,43.871368,3.1860284940008228
1673607724.247671,43.86512,3.215177399724628
1673607724.248678,43.859276,3.2443263054484333
1673607724.2496848,43.859325,3.2734683103896334
1673607724.2506928,43.862473,3.3026448192438593
1673607724.2517,43.865982,3.331793724967665
1673607724.2527068,43.870335,3.360935729908865
1673607724.2537138,43.86668,3.3900846356326704
1673607724.254721,43.861656,3.4192335413564754
1673607724.2557278,43.863964,3.448375546297676
1673607724.2567348,43.843697,3.4775244520214814
1673607724.257742,43.837013,3.506673357745287
1673607724.2587488,43.849205,3.535815362686487
1673607724.2597558,43.869423,3.5649642684102925
1673607724.260763,43.880936,3.594113174134098
1673607724.2617698,43.899879,3.623255179075298
1673607724.2627769,43.911827,3.6524040847991035
1673607724.263785,43.898006,3.681580593653329
1673607724.264792,43.884087,3.7107294993771345
1673607724.2657988,43.882427,3.7398715043183346
1673607724.266806,43.880455,3.76902041004214
1673607724.267813,43.875214,3.7981693157659455
1673607724.2688198,43.870022,3.827311320707146
1673607724.269827,43.871105,3.876476813244402
1673607724.270834,43.873028,3.9530448071599045
1673607724.2718408,43.87072,3.9540542067238915
1673607724.272848,43.863941,3.988956716328963
1673607724.273855,43.859131,4.020131233759457
1673607724.2748618,43.854683,4.039303327856025
1673607724.2758698,43.8549,4.040586717005738
1673607724.276877,43.85281,4.047998797808505
1673607724.2778838,43.859829,4.090457873500261
1673607724.2788908,43.880047,4.055080770213876
1673607724.279898,43.893871,4.109833908679065
1673607724.2809048,43.903751,4.123534728945026
1673607724.2819118,43.908871,4.130821925655915
1673607724.282919,43.910892,4.138109122366804
1673607724.2839258,43.897404,4.145394593889077
1673607724.2849329,43.873772,4.152681790599966
1673607724.28594,43.86882,4.1599689873108545
1673607724.2869468,43.876247,4.167254458833129
1673607724.2879539,43.868988,4.174541655544017
1673607724.288962,43.866703,4.181835753009367
1673607724.289969,43.855022,4.189122949720256
1673607724.2909758,43.854301,4.19640842124253
1673607724.291983,43.858868,4.203695617953418
1673607724.29299,43.863773,4.210982814664307
1673607724.2939968,43.855862,4.21826828618658
1673607724.295004,43.857162,4.2255554828974695
1673607724.296011,43.85899,4.232842679608358
1673607724.2970178,43.864349,4.240128151130632
1673607724.298025,43.876968,4.24741534784152
1673607724.299032,43.877979,4.254702544552409
1673607724.3000388,43.883411,4.261988016074683
1673607724.3010468,43.884998,4.269282113540033
1673607724.302054,43.882908,4.276569310250921
1673607724.3030608,43.884857,4.283854781773195
1673607724.3040679,43.885696,4.291141978484084
1673607724.305075,43.88435,4.298429175194973
1673607724.3060818,43.885098,4.305714646717246
1673607724.3070889,43.88868,4.313001843428135
1673607724.308096,43.882092,4.320289040139024
1673607724.3091028,43.877331,4.327574511661298
1673607724.3101099,43.875626,4.334861708372187
1673607724.311117,43.877621,4.342148905083075
1673607724.3121238,43.875359,4.349434376605348
1673607724.3131309,43.876179,4.356721573316237
1673607724.314139,43.875214,4.364015670781588
1673607724.315146,43.868843,4.371302867492476
1673607724.3161528,43.870911,4.37858833901475
1673607724.31716,43.868725,4.3858755357256385
1673607724.318167,43.872452,4.393162732436528
1673607724.3191738,43.878414,4.400448203958801
1673607724.320181,43.88596,4.40773540066969
1673607724.321188,43.892212,4.415022597380578
1673607724.3221948,43.901539,4.422308068902852
1673607724.323202,43.886948,4.429595265613741
1673607724.324209,43.880527,4.43688246232463
1673607724.3252158,43.878555,4.444167933846903
1673607724.3262239,43.88221,4.472730740581784
1673607724.327231,43.890915,4.482323
1673607724.3282378,43.891418,4.482323
1673607724.3292449,43.884975,4.5096746428230805
1673607724.330252,43.883053,4.532311812112542
1673607724.3312588,43.887474,4.508751857687724
1673607724.3322659,43.88834,4.486362038626609
1673607724.333273,43.885216,4.468141638054363
1673607724.3342798,43.882595,4.492847177353993
1673607724.3352869,43.865959,4.509740262120206
1673607724.336294,43.855934,4.521504925358625
1673607724.3373008,43.879616,4.533266803402148
1673607724.3383079,43.891804,4.545031466640566
1673607724.339316,43.886345,4.556807270658567
1673607724.340323,43.886177000000004,4.568571933896986
1673607724.3413298,43.889473,4.580333811940509
1673607724.342337,43.890194,4.592098475178927
1673607724.343344,43.887333,4.6038631384173465
1673607724.3443508,43.888992,4.61562501646087
1673607724.345358,43.890072,4.627389679699288
1673607724.346365,43.879494,4.639154342937706
1673607724.3473718,43.873653,4.65091622098123
1673607724.348379,43.877258,4.6626808842196485
1673607724.349386,43.878147,4.674445547458067
1673607724.3503928,43.872593,4.68620742550159
1673607724.3514009,43.865261,4.697983229519591
1673607724.352408,43.861103,4.70974789275801
1673607724.3534148,43.86454,4.721509770801533
1673607724.3544219,43.879807,4.733274434039951
1673607724.355429,43.887981,4.7450390972783705
1673607724.3564358,43.892067,4.756800975321894
1673607724.3574429,43.889854,4.768565638560312
1673607724.35845,43.875961,4.78033030179873
1673607724.3594568,43.848171,4.792092179842253
1673607724.3604639,43.838047,4.8038568430806725
1673607724.361471,43.849731,4.815621506319091
1673607724.3624778,43.856655,4.827383384362614
1673607724.3634849,43.857426,4.839148047601033
1673607724.364493,43.858746,4.850923851619034
1673607724.3655,43.862305,4.862688514857452
1673607724.3665068,43.86055,4.874450392900975
1673607724.367514,43.850094,4.8862150561393936
1673607724.368521,43.854733,4.897979719377813
1673607724.3695278,43.862282,4.909741597421336
1673607724.370535,43.863506,4.921506260659754
1673607724.371542,43.86512,4.933270923898173
1673607724.3725488,43.871368,4.9450328019416965
1673607724.373556,43.879253,4.956797465180115
1673607724.3745627,43.876034,4.968559343223638
1673607724.3755698,43.876392,4.980324006462057
1673607724.3765779,43.873917,4.992099810480057
1673607724.377585,43.862137,5.003864473718476
1673607724.3785918,43.858891,5.015626351761999
1673607724.3795989,43.859974,5.0273910150004175
1673607724.380606,43.865887,5.039155678238837
1673607724.3816128,43.878414,5.05091755628236
1673607724.3826199,43.878101,5.062682219520778
1673607724.383627,43.868317,5.074446882759197
1673607724.3846338,43.856609,5.08620876080272
1673607724.3856409,43.838867,5.097973424041139
1673607724.386648,43.817757,5.109738087279558
1673607724.3876548,43.81485,5.121499965323081
1673607724.3886619,43.833313,5.133264628561499
1673607724.38967,43.835236,5.222384889842632
1673607724.390677,43.839733,5.259805197901764
1673607724.3916838,43.848217,5.206167850059595
1673607724.392691,43.856728,5.260305516452074
1673607724.393698,43.87466,5.296562138769671
1673607724.3947048,43.879303,5.3156937711561385
1673607724.395712,43.883366,5.386834
1673607724.3967187,43.883583,5.385721228898427
1673607724.3977258,43.886585,5.351896241135555
1673607724.398733,43.891563,5.384844533944259
1673607724.3997397,43.897358,5.417785026494249
1673607724.4007468,43.894642,5.450733319302953
1673607724.4017549,43.89024,5.483712813146513
1673607724.402762,43.889999,5.516661105955217
1673607724.4037688,43.894279,5.549601598505207
1673607724.4047759,43.887306,5.582549891313911
1673607724.405783,43.885674,5.615498184122615
1673607724.4067898,43.883629,5.648438676672605
1673607724.4077969,43.855549,5.681386969481308
1673607724.408804,43.811653,5.714335262290012
1673607724.4098108,43.780663,5.747275754840002
1673607724.4108179,43.765926,5.780224047648706
1673607724.411825,43.768909,5.81317234045741
1673607724.4128318,43.762947,5.8461128330074
1673607724.4138389,43.759026,5.879061125816104
1673607724.414847,43.767273,5.912040619659664
1673607724.415854,43.788452,5.944988912468368
1673607724.4168608,43.817303,5.977929405018358
1673607724.417868,43.837326,6.010877697827063
1673607724.4188747,43.858265,6.043818190377052
1673607724.4198818,43.880264,6.0767664831857555
1673607724.420889,43.897717,6.10971477599446
1673607724.4218957,43.918873,6.142655268544449
1673607724.4229028,43.926517,6.175603561353154
1673607724.42391,43.919304,6.208551854161858
1673607724.4249167,43.895962,6.241492346711848
1673607724.4259238,43.878101,6.274440639520551
1673607724.4269319,43.875767,6.307420133364111
1673607724.427939,43.861103,6.340368426172816
1673607724.4289458,43.841125,6.373308918722806
1673607724.4299529,43.857304,6.40625721153151
1673607724.43096,43.846992,6.439205504340213
1673607724.4319668,43.819008,6.4721459968902035
1673607724.4329739,43.819225,6.505094289698907
1673607724.433981,43.833458,6.538042582507611
1673607724.4349878,43.833313,6.570983075057601
1673607724.4359949,43.82151,6.603931367866305
1673607724.437002,43.818985,6.6368796606750085
1673607724.4380088,43.832569,6.6698201532249985
1673607724.4390159,43.839394,6.702768446033702
1673607724.440024,43.849106,6.735747939877263
1673607724.4410307,43.853699,6.768688432427253
1673607724.4420378,43.850887,6.801636725235957
1673607724.443045,43.860214,6.834585018044661
1673607724.4440517,43.857716,6.867525510594651
1673607724.4450588,43.852402,6.900473803403354
1673607724.446066,43.85091,6.933422096212059
1673607724.4470727,43.848843,6.966362588762048
1673607724.4480798,43.858147,6.999310881570752
1673607724.449087,43.859711,7.0322591743794565
1673607724.4500937,43.863819,7.065199666929446
1673607724.4511008,43.868702,7.098147959738149
1673607724.4521089,43.861416,7.13112745358171
1673607724.453116,43.850239,7.19135028803052
1673607724.4541228,43.861153,7.239072550309967
1673607724.4551299,43.877209,7.250114
1673607724.456137,43.868675,7.2757620028605485
1673607724.4571438,43.852615,7.325141917024321
1673607724.4581509,43.854542,7.405954084883167
1673607724.459158,43.853218,7.41780953921335
1673607724.4601648,43.8512,7.46623939341917
1673607724.4611719,43.852833,7.552578529327611
1673607724.462179,43.85038,7.572800678154989
1673607724.4631858,43.844177,7.568857439376742
1673607724.4641929,43.836437,7.564913266845527
1673607724.465201,43.829369,7.560965359302445
1673607724.4662077,43.826508,7.5691354377682405
1673607724.4672148,43.828312,7.633010178545888
1673607724.468222,43.828094,7.660607275154984
1673607724.4692287,43.825787,7.73347038769671
1673607724.4702358,43.820477,7.802603475739729
1673607724.471243,43.813381,7.855319834827248
1673607724.4722497,43.811436,7.90802371371612
1673607724.4732568,43.816437,7.96074007280364
1673607724.474264,43.825909,8.013456431891159
1673607724.4752707,43.834465,8.066160310780031
1673607724.4762778,43.838768,8.118876669867552
1673607724.4772859,43.843384,8.17164294974966
1673607724.478293,43.843506,8.224359308837181
1673607724.4792998,43.836678,8.277063187726053
1673607724.4803069,43.833817,8.329779546813572
1673607724.4833279,43.756744,8.487916143877484
1673607724.484335,43.729771,8.540632502965003
1673607724.4853418,43.714985,8.593336381853875
1673607724.4863489,43.718662,8.646052740941395
1673607724.487356,43.733303,8.698769100028915
1673607724.4883628,43.747585,8.751472978917786
1673607724.4893699,43.748234,8.804189338005306
1673607724.490378,43.728134,8.856955617887415
1673607724.4913847,43.732677,8.909659496776289
1673607724.4923918,43.754604,8.962375855863808
1673607724.493399,43.769291,9.015092214951327
1673607724.4944057,43.786457,9.0677960938402
1673607724.4954128,43.798069,9.120512452927718
1673607724.49642,43.836319,9.173228812015239
1673607724.4974267,43.878845,9.225932690904111
1673607724.4984338,43.913078,9.27864904999163
1673607724.499441,43.914497,9.33136540907915
1673607724.5004478,43.903969,9.384069287968021
1673607724.5014548,43.895123,9.436785647055542
1673607724.5024629,43.867256,9.48955192693765
1673607724.50347,43.832832,9.542268286025172
1673607724.5044768,43.810234,9.594972164914044
1673607724.5054839,43.808239,9.647688524001563
1673607724.506491,43.818096,9.700404883089082
1673607724.5074978,43.817421,9.753108761977954
1673607724.5085049,43.789967,9.805825121065475
1673607724.509512,43.782059,9.858541480152994
1673607724.5105188,43.796242,9.911245359041866
1673607724.5115259,43.813072,9.963961718129385
1673607724.512533,43.828217,10.016678077216906
1673607724.5135398,43.842762,10.069381956105776
1673607724.5145469,43.85899,10.122098315193297
1673607724.515555,43.869038,10.174864595075405
1673607724.5165617,43.883511,10.22756847396428
1673607724.5266318,43.840214,11.143331684756586
1673607724.5276399,43.835838,11.345533108726752
1673607724.528647,43.833385,11.369274667143538
1673607724.5296538,43.826054,11.438780439198855
1673607724.5306609,43.813744,11.542812030035757
1673607724.531668,43.813046,11.625969374344303
1673607724.5326748,43.815689,11.672423591797807
1673607724.5336819,43.81831,11.70885401978546
1673607724.534689,43.818096,11.772929071229274
1673607724.5356958,43.811989,11.846769405460439
1673607724.5367029,43.811699,11.920627224970842
1673607724.53771,43.80658,11.994485044481246
1673607724.5387168,43.814995,12.068325378712409
1673607724.5397239,43.836533,12.142183198222812
1673607724.540732,43.840668,12.216110958850177
1673607724.5417387,43.837688,12.289951293081339
1673607724.5427458,43.832687,12.363809112591744
1673607724.543753,43.824127,12.437666932102147
1673607724.5447598,43.810787,12.51150726633331
1673607724.5457668,43.803116,12.585365085843714
1673607724.546774,43.799728,12.659222905354117
1673607724.5477808,43.794319,12.733063239585281
1673607724.5487878,43.803768,12.806921059095684
1673607724.549795,43.813622,12.880778878606087
1673607724.5508018,43.817135,12.954619212837251
1673607724.5518088,43.82848,13.028477032347654
1673607724.5528169,43.849491,13.102404792975017
1673607724.553824,43.858387,13.176262612485422
1673607724.5548308,43.863293,13.250102946716584
1673607724.5558379,43.858532,13.323960766226987
1673607724.556845,43.85358,13.397818585737392
1673607724.5578518,43.855381,13.471658919968554
1673607724.5588589,43.849781,13.545516739478959
1673607724.559866,43.828167,13.619374558989362
1673607724.5608728,43.812901,13.693214893220524
1673607724.5618799,43.807781,13.76707271273093
1673607724.562887,43.795185,13.840930532241332
1673607724.5638938,43.78706,13.914770866472495
1673607724.5649009,43.788548,13.9886286859829
1673607724.565909,43.781937,14.062556446610262
1673607724.5669158,43.770664,14.136396780841427
1673607724.5679228,43.766384,14.21025460035183
1673607724.56893,43.77504,14.284112419862232
1673607724.5699368,43.795666,14.357952754093397
1673607724.5709438,43.822903,14.4318105736038
1673607724.571951,43.845573,14.504685257449344
1673607724.5729578,43.853241,14.577533370052457
1673607724.5739648,43.850334,14.650407116118265
1673607724.574972,43.840141,14.723289505960896
1673607724.5759788,43.834492,14.794920618831943
1673607724.5769858,43.83329,14.83356203862661
1673607724.5779939,43.827087,14.92298053576538
1673607724.579001,43.826462,14.977635491060788
1673607724.5800078,43.837494,15.033158703357886
1673607724.5810149,43.85817,15.102022805957539
1673607724.582022,43.870983,15.170886908557193
1673607724.5830288,43.868362,15.239734708102255
1673607724.5840359,43.852737,15.308598810701907
1673607724.585043,43.834465,15.37746291330156
1673607724.5860498,43.831535,15.446310712846621
1673607724.5870569,43.826317,15.515174815446274
1673607724.588064,43.820091,15.584038918045927
1673607724.5890708,43.808094,15.652886717590988
1673607724.5900779,43.784412,15.721750820190643
1673607724.591086,43.765228,15.790680135008666
1673607724.5920928,43.753716,15.859527934553727
1673607724.5930998,43.774822,15.92839203715338
1673607724.594107,43.812229,15.997256139753034
1673607724.5951138,43.837833,16.066103939298095
1673607724.5961208,43.85276,16.134968041897746
1673607724.597128,43.859779,16.2038321444974
1673607724.5981348,43.874519,16.272679944042462
1673607724.5991418,43.86483,16.341544046642117
1673607724.600149,43.855476,16.410408149241768
1673607724.6011558,43.849033,16.47925594878683
1673607724.6021628,43.847351,16.548120051386483
1673607724.6031709,43.844322,16.61704936620451
1673607724.604178,43.830189,16.68591346880416
1673607724.6051848,43.814392,16.75476126834922
1673607724.6061919,43.799488,16.823625370948875
1673607724.607199,43.786842,16.892489473548526
1673607724.6082058,43.794102,16.961337273093587
1673607724.6092129,43.800785,17.030201375693242
1673607724.61022,43.81105,17.099065478292896
1673607724.6112268,43.832085,17.167913277837954
1673607724.6122339,43.852089,17.23677738043761
1673607724.613241,43.864445,17.305641483037263
1673607724.6142478,43.863628,17.374489282582324
1673607724.6152549,43.859974,17.443353385181975
1673607724.616263,43.860237,17.5122827
1673607724.6172698,43.868797,17.58113049954506
1673607724.6182768,43.873844,17.649994602144716
1673607724.619284,43.875961,17.71885870474437
1673607724.6202908,43.873917,17.787706504289428
1673607724.6212978,43.892117,17.856570606889083
1673607724.622305,43.915867,17.925434709488737
1673607724.6233118,43.89072,17.994282509033795
1673607724.6243188,43.871681,18.06314661163345
1673607724.625326,43.862137,18.132010714233104
1673607724.6263328,43.858124,18.200858513778165
1673607724.6273398,43.85894,18.269722616377816
1673607724.6283479,43.863773,18.33865193119584
1673607724.629355,43.855236,18.407516033795496
1673607724.6303618,43.850357,18.476363833340557
1673607724.6313689,43.838337,18.545227935940208
1673607724.632376,43.823288,18.614092038539862
1673607724.6333828,43.817448,18.682939838084923
1673607724.6343899,43.798119,18.751803940684578
1673607724.635397,43.78093,18.83773555364807
1673607724.6364038,43.776287,18.93140342036242
1673607724.6374109,43.786049,19.004272798569726
1673607724.638418,43.802326,19.069076747734858
1673607724.6394248,43.830162,19.172866238197425
1673607724.640432,43.857376,19.261957
1673607724.64144,43.876801,19.338141989272945
1673607724.6424468,43.899929,19.433354314973773
1673607724.6434538,43.902718,19.530030779685262
1673607724.644461,43.887909,19.64943588167396
1673607724.6454678,43.880527,19.702298291381002
1673607724.6464748,43.878773,19.755173218826545
1673607724.647482,43.869469,19.80804814627209
1673607724.6484888,43.856823,19.86091055597913
1673607724.6494958,43.852425,19.913785483424675
1673607724.650503,43.848312,19.96666041087022
1673607724.6515098,43.841366,20.019522820577258
1673607724.6525168,43.83622,20.072397748022805
1673607724.6535249,43.832062,20.12532274642237
1673607724.654532,43.828987,20.178197673867913
1673607724.6555388,43.832687,20.231060083574956
1673607724.6565459,43.808044,20.2839350110205
1673607724.657553,43.754242,20.336809938466043
1673607724.6585598,43.645435,20.389672348173082
1673607724.6595669,43.627548,20.44254727561863
1673607724.660574,43.649811,20.495422203064173
1673607724.6615808,43.708492,20.548284612771212
1673607724.662588,43.775761,20.60115954021676
1673607724.663595,43.855984,20.654034467662303
1673607724.6646018,43.91885,20.706896877369342
1673607724.6656098,43.945438,20.759821875768907
1673607724.666617,43.9771,20.812696803214454
1673607724.6676238,43.98275,20.865559212921493
1673607724.6686308,43.937866,20.918434140367037
1673607724.669638,43.91082,20.971309067812584
1673607724.6706448,43.894951,21.024171477519623
1673607724.6716518,43.874687,21.077046404965166
1673607724.672659,43.848915,21.129921332410714
1673607724.6736658,43.820595,21.182783742117753
1673607724.6746728,43.801773,21.235658669563296
1673607724.67568,43.804081,21.288533597008843
1673607724.6766868,43.825909,21.341396006715883
1673607724.6776938,43.839874,21.394270934161426
1673607724.6787019,43.836029,21.44719593256099
1673607724.679709,43.8368,21.500070860006538
1673607724.6807158,43.844322,21.552933269713577
1673607724.6817229,43.86031,21.60580819715912
1673607724.68273,43.884327,21.658683124604668
1673607724.6837368,43.893776,21.711545534311707
1673607724.684744,43.897163,21.76442046175725
1673607724.685751,43.910267,21.817295389202798
1673607724.6867578,43.921085,21.870157798909837
1673607724.687765,43.893364,21.92303272635538
1673607724.688772,43.850262,21.975907653800924
1673607724.6897788,43.8242,22.028770063507967
1673607724.6907868,43.821991,22.08169506190753
1673607724.691794,43.827133,22.134569989353075
1673607724.6928008,43.845573,22.187432399060114
1673607724.6938078,43.866463,22.24030732650566
1673607724.694815,43.87846,22.293182253951205
1673607724.6958218,43.88678,22.346044663658244
1673607724.6968288,43.890434,22.39891959110379
1673607724.697836,43.880623,22.451794518549335
1673607724.6988428,43.877884,22.504656928256374
1673607724.6998498,43.891754,22.55753185570192
1673607724.700857,43.901947,22.637838361945636
1673607724.7018638,43.905937,22.71571275226514
1673607724.7028708,43.902092,22.86060313701237
1673607724.7038789,43.885746,22.873457007139457
1673607724.704886,43.880409,22.941762536887197
1673607724.7058928,43.882069,22.956357882017127
1673607724.7069,43.878605,22.88112950977587
1673607724.707907,43.868675,22.912054733905578
1673607724.7089138,43.861946,22.916161
1673607724.709921,43.858025,22.947506314559423
1673607724.710928,43.856895,22.987628317195487
1673607724.7119348,43.846798,23.027740821251378
1673607724.712942,43.837471,23.06786282388744
1673607724.713949,43.83353,23.107984826523502
1673607724.7149558,43.840282,23.148097330579397
1673607724.7159638,43.848049,23.18825732753614
1673607724.716971,43.856968,23.2283793301722
1673607724.7179778,43.863026,23.268491834228094
1673607724.7189848,43.865288,23.308613836864154
1673607724.719992,43.863628,23.34873583950022
1673607724.7209988,43.874973,23.388848343556113
1673607724.7220058,43.89072,23.428970346192173
1673607724.723013,43.883148,23.469092348828237
1673607724.7240198,43.879013,23.509204852884128
1673607724.7250268,43.869709,23.549326855520192
1673607724.726034,43.860527,23.589448858156256
1673607724.7270408,43.858604,23.629561362212147
1673607724.7280478,43.847641,23.66968336484821
1673607724.729056,43.85067,23.70984336180495
1673607724.730063,43.848194,23.749965364441014
1673607724.7310698,43.84824,23.79007786849691
1673607724.732077,43.850548,23.83019987113297
1673607724.733084,43.843819,23.870321873769033
1673607724.7340908,43.834805,23.910434377824927
1673607724.735098,43.837063,23.950556380460988
1673607724.736105,43.841896,23.990678383097052
1673607724.7371118,43.849445,24.030790887152943
1673607724.738119,43.850719,24.070912889789007
1673607724.739126,43.858963,24.111034892425067
1673607724.7401328,43.861416,24.15114739648096
1673607724.7411408,43.857258,24.191307393437704
1673607724.742148,43.870094,24.231429396073764
1673607724.7431548,43.884926,24.27154190012966
1673607724.7441618,43.894711,24.311663902765723
1673607724.745169,43.904377,24.351785905401783
1673607724.7461758,43.906925,24.391898409457678
1673607724.7471828,43.891346,24.43202041209374
1673607724.74819,43.874519,24.472142414729802
1673607724.7491968,43.868099,24.512254918785697
1673607724.7502038,43.859276,24.552376921421757
1673607724.751211,43.842064,24.59249892405782
1673607724.7522178,43.845791,24.632611428113712
1673607724.7532248,43.855263,24.672733430749776
1673607724.754233,43.863869,24.688995
1673607724.75524,43.873486,24.67801655089392
1673607724.7562468,43.869976,24.70421211158798
1673607724.758261,43.820763,24.72980623319027
1673607724.7592678,43.748833,24.766233993563766
1673607724.760275,43.682865,24.791060416309012
1673607724.761282,43.646904,24.785798184549357
1673607724.7622888,43.634354,24.7913120727056
1673607724.763296,43.659164,24.804459445881786
1673607724.764303,43.714554,24.814974540631667
1673607724.7653098,43.791866,24.825487146012524
1673607724.7663178,43.870815,24.833639031994913
1673607724.767325,43.939548,24.833281833672263
1673607724.7683318,43.978374,24.83292471991361
1673607724.7693388,43.979576,24.832567521590956
1673607724.770346,43.965366,24.832210323268306
1673607724.7713528,43.946568,24.831853209509653
1673607724.7723598,43.929234,24.831496011187
1673607724.773367,43.916061,24.83113881286435
1673607724.7743738,43.889977,24.830781699105696
1673607724.7753808,43.862667,24.830424500783042
1673607724.776388,43.851727,24.830067302460392
1673607724.7773948,43.847931,24.82971018870174
1673607724.7784019,43.843723,24.829352990379085
1673607724.77941,43.845909,24.82899545380045
1673607724.780417,43.859058,24.828638255477795
1673607724.7814238,43.862305,24.828281141719142
1673607724.782431,43.858459,24.827923943396492
1673607724.783438,43.867016,24.827566745073838
1673607724.7844448,43.884735,24.827209631315185
1673607724.785452,43.903919,24.826852432992535
1673607724.786459,43.903461,24.826495234669885
1673607724.7874658,43.891541,24.826138120911228
1673607724.788473,43.888149,24.825780922588578
1673607724.78948,43.876419,24.825423724265928
1673607724.7904868,43.868629,24.82506661050727
1673607724.7914948,43.864662,24.824709073928634
1673607724.792502,43.854973,24.82435187560598
1673607724.7935088,43.848049,24.823994761847327
1673607724.7945158,43.843674,24.823637563524677
1673607724.795523,43.840717,24.823280365202024
1673607724.7965298,43.838554,24.82292325144337
1673607724.7975368,43.83514,24.82256605312072
1673607724.798544,43.841248,24.822208854798067
1673607724.7995508,43.843384,24.821851741039413
1673607724.8005579,43.83514,24.821494542716763
1673607724.801565,43.83836,24.821137344394113
1673607724.8025718,43.856922,24.820780230635457
1673607724.8035789,43.87043,24.820423032312807
1673607724.804587,43.874928,24.820065495734166
1673607724.805594,43.868027,24.819708297411516
1673607724.8066008,43.871441,24.819351183652863
1673607724.807608,43.877331,24.81899398533021
1673607724.808615,43.874134,24.81863678700756
1673607724.8096218,43.851849,24.818279673248906
1673607724.810629,43.843361,24.817922474926252
1673607724.811636,43.842232,24.817565276603602
1673607724.8126428,43.828938,24.81720816284495
1673607724.81365,43.822712,24.816850964522295
1673607724.814657,43.817757,24.816493766199645
1673607724.8156638,43.813793,24.816136652440992
1673607724.8166718,43.810307,24.81577911586235
1673607724.817679,43.808407,24.83664429296782
1673607724.8186858,43.82069,24.841173879351455
1673607724.8196929,43.847691,24.833717
1673607724.8207,43.867256,24.86638008700834
1673607724.8217068,43.880264,24.8439385758226
1673607724.8227139,43.873219,24.804487349785408
1673607724.823721,43.848724,24.763731327056018
1673607724.8247278,43.84478,24.743263
1673607724.8257349,43.866344,24.73174279995231
1673607724.826742,43.865913,24.71776350633199
1673607724.8277488,43.846031,24.706177236520816
1673607724.8287559,43.838459,24.694588223098506
1673607724.829764,43.844803,24.682988235231665
1673607724.830771,43.844467,24.671399221809356
1673607724.8317778,43.843987,24.65981295199818
1673607724.832785,43.837688,24.64822393857587
1673607724.833792,43.836632,24.636634925153558
1673607724.8347988,43.841991,24.625048655342383
1673607724.835806,43.843002,24.613459641920073
1673607724.836813,43.853268,24.601870628497764
1673607724.8378198,43.85865,24.590284358686585
1673607724.838827,43.855888,24.580454
1673607724.839834,43.856392,24.583347747496422
1673607724.8408408,43.855381,24.586467460071514
1673607724.8418489,43.857571,24.53883173557463
1673607724.842856,43.85519,24.585377703624225
1673607724.8438628,43.854202,24.526186
1673607724.8448699,43.852135,24.529727027420122
1673607724.845877,43.844059,24.544275
1673607724.8468838,43.825451,24.529091118264187
1673607724.8478909,43.81057,24.47158295180005
1673607724.848898,43.792542,24.470064873122467
1673607724.8499048,43.786194,24.468547153838514
1673607724.8509119,43.784077,24.467029075160934
1673607724.851919,43.784245,24.465510996483353
1673607724.8529258,43.79528,24.463993277199396
1673607724.8539329,43.811146,24.462475198521815
1673607724.854941,43.819874,24.46095568226973
1673607724.855948,43.809536,24.45943760359215
1673607724.8569548,43.810665,24.457919884308193
1673607724.857962,43.793118,24.456401805630613
1673607724.858969,43.788094,24.45488372695303
1673607724.8599758,43.793884,24.45336600766908
1673607724.860983,43.78862,24.451847928991498
1673607724.86199,43.797516,24.450329850313917
1673607724.8629968,43.828072,24.448812131029964
1673607724.864004,43.845959,24.447294052352383
1673607724.865011,43.8549,24.445775973674802
1673607724.8660178,43.871586,24.444258254390846
1673607724.8670259,43.878727,24.44273873813876
1673607724.868033,43.864037,24.44122065946118
1673607724.8690398,43.847977,24.439702940177224
1673607724.8700469,43.835693,24.438184861499643
1673607724.871054,43.849876,24.436666782822062
1673607724.8720608,43.870598,24.428736206485457
1673607724.8730679,43.869663,24.403393022889844
1673607724.874075,43.858025,24.39597129535161
1673607724.8750818,43.854923,24.417643
1673607724.8760889,43.857834,24.40263394420601
1673607724.877096,43.856174,24.37383369249106
1673607724.8781028,43.854855,24.363377
1673607724.8791099,43.846607,24.363377
1673607724.880118,43.848072,24.363377
1673607724.881125,43.860214,24.363377
1673607724.8821318,43.862835,24.363377
1673607724.883139,43.838409,24.363377
1673607724.884146,43.819584,24.363377
1673607724.8851528,43.813118,24.363377
1673607724.88616,43.796459,24.363377
1673607724.887167,43.790447,24.363377
1673607724.8881738,43.799366,24.3417830443385
1673607724.889181,43.799969,24.309101
1673607724.8901877,43.788094,24.331450702432043
1673607724.8911948,43.786049,24.33306822646007
1673607724.8922029,43.799488,24.29084774807743
1673607724.89321,43.829922,24.290460150244506
1673607724.8942168,43.858578,24.29007264417243
1673607724.8952239,43.876369,24.289685046339507
1673607724.896231,43.876179,24.289297448506584
1673607724.8972378,43.864735,24.288909942434508
1673607724.8982449,43.855213,24.288522344601585
1673607724.899252,43.834492,24.288134746768662
1673607724.9002588,43.822205,24.28774724069659
1673607724.9012659,43.806339,24.287359642863663
1673607724.902273,43.806049,24.28697204503074
1673607724.9032798,43.811966,24.286584538958667
1673607724.9042869,43.828121,24.28619694112574
1673607724.905295,43.843891,24.285808976249417
1673607724.906302,43.857616,24.28542137841649
1673607724.9073088,43.857258,24.285033872344417
1673607724.908316,43.849133,24.284646274511495
1673607724.909323,43.837063,24.28425867667857
1673607724.9103298,43.831173,24.283871170606496
1673607724.911337,43.832664,24.283483572773573
1673607724.9123437,43.833385,24.283096066701496
1673607724.9133508,43.82468,24.282708468868574
1673607724.914358,43.821918,24.28232087103565
1673607724.9153647,43.828335,24.281933364963578
1673607724.9163718,43.831844,24.281545767130652
1673607724.9173799,43.835979,24.281157802254327
1673607724.918387,43.839516,24.2807702044214
1673607724.9193938,43.84425,24.280382698349328
1673607724.9204009,43.845596,24.279995100516405
1673607724.921408,43.827568,24.27960750268348
1673607724.9224148,43.805256,24.279219996611406
1673607724.9234219,43.788452,24.278832398778484
1673607724.924429,43.78862,24.278444800945557
1673607724.9254358,43.797226,24.278057294873484
1673607724.9264429,43.804176,24.27766969704056
1673607724.92745,43.799007,24.277282099207635
1673607724.9284568,43.800449,24.276894593135562
1673607724.9294639,43.817471,24.27650699530264
1673607724.930472,43.832016,24.27611903042631
1673607724.931479,43.833458,24.27573143259339
1673607724.9324858,43.836872,24.275343926521316
1673607724.933493,43.832352,24.27495632868839
1673607724.9344997,43.833984,24.274568822616317
1673607724.9355068,43.843025,24.274181224783394
1673607724.936514,43.850166,24.273793626950468
1673607724.9375207,43.853794,24.273406120878395
1673607724.9385278,43.860264,24.273018523045472
1673607724.939535,43.857906,24.272923
1673607724.9405417,43.866154,24.272923
1673607724.9415488,43.866463,24.230986283738673
1673607724.9425569,43.858723,24.303488442720763
1673607724.943564,43.856079,24.31293166245831
1673607724.9445708,43.852375,24.29472466483909
1673607724.9455779,43.852642,24.305516841917022
1673607724.946585,43.849133,24.29446676609442
1673607724.9475918,43.833843,24.379554108700834
1673607724.9485989,43.795353,24.384177819999998
1673607724.949606,43.762779,24.36535625862069
1673607724.9506128,43.742222,24.346539153103446
1673607724.9516199,43.716499,24.327717591724138
1673607724.952627,43.710682,24.30911863653414
1673607724.9536338,43.727077,24.31073774704891
1673607724.9546409,43.761383,24.312357240966598
1673607724.955649,43.805618,24.31397826849595
1673607724.9566557,43.833458,24.315597379010722
1673607724.9576628,43.867714,24.31721687292841
1673607724.95867,43.890385,24.318836366846096
1673607724.9596767,43.900002,24.32045547736087
1673607724.9606838,43.902527,24.322074971278557
1673607724.961691,43.889927,24.323694465196244
1673607724.9626977,43.878796,24.325313575711014
1673607724.9637048,43.86488,24.3269330696287
1673607724.964712,43.837906,24.32855256354639
1673607724.9657187,43.805233,24.330171674061162
1673607724.9667258,43.784412,24.33179116797885
1673607724.9677339,43.769989,24.3334121955082
1673607724.968741,43.771046,24.33503168942589
1673607724.9697478,43.786312,24.33665079994066
1673607724.9707549,43.793213,24.338270293858347
1673607724.971762,43.790737,24.339889787776034
1673607724.9727688,43.788139,24.341508898290805
1673607724.9737759,43.786457,24.34312839220849
1673607724.974783,43.782322,24.344747886126182
1673607724.9757898,43.819202,24.346366996640953
1673607724.9767969,43.856464,24.34798649055864
1673607724.977804,43.863506,24.349605984476327
1673607724.9788108,43.870312,24.351225094991097
1673607724.9798179,43.860191,24.352844588908784
1673607724.980826,43.861946,24.354465616438137
1673607724.9818327,43.86507,24.356084726952908
1673607724.9828398,43.853699,24.357704220870595
1673607724.983847,43.853531,24.359323714788285
1673607724.9848537,43.859493,24.360942825303056
1673607724.9858608,43.84745,24.362562319220743
1673607724.986868,43.822372,24.36418181313843
1673607724.9878747,43.79903,24.3658009236532
1673607724.9888818,43.789871,24.367420417570887
1673607724.989889,43.776768,24.369039911488578
1673607724.9908957,43.780567,24.37065902200335
1673607724.9919028,43.789776,24.372278515921035
1673607724.9929109,43.780567,24.37389954345039
1673607724.993918,43.861752,24.375519037368075
1673607724.9949248,43.866344,24.377138147882846
1673607724.9959319,43.867523,24.378757641800533
1673607724.996939,43.87608,24.38037713571822
1673607724.9979458,43.875526,24.369533420600856
1673607724.9989529,43.86293,24.339185300429186
1673607724.99996,43.852234,24.32719
1673607725.0009668,43.852016,24.320845479494515
1673607725.0019739,43.854374,24.289678904625656
1673607725.002981,43.854012,24.281240286531588
1673607725.0039878,43.850285,24.32046592966142
1673607725.0049949,43.840908,24.309101
1673607725.006003,43.827881,24.301138307567125
1673607725.0070097,43.813622,24.29485925512637
1673607725.0080168,43.801533,24.301924458512158
1673607725.009024,43.78886,24.330520279208393
1673607725.0100307,43.782562,24.339116518474373
1673607725.0110378,43.776024,24.350942946828802
1673607725.012045,43.772633,24.30134179375298
1673607725.0130517,43.792542,24.290018934066097
1673607725.0140588,43.822807,24.287724234665223
1673607725.015066,43.825211,24.28542953526435
1673607725.0160728,43.819611,24.283135379116175
1673607725.0170798,43.829659,24.2808406797153
1673607725.0180879,43.836872,24.27854380730363
1673607725.019095,43.829681,24.276249107902757
1673607725.0201018,43.830452,24.273954951754583
1673607725.0211089,43.84269,24.27166025235371
1673607725.022116,43.842495,24.269365552952834
1673607725.0231228,43.829971,24.26707139680466
1673607725.0241299,43.831654,24.26477669740379
1673607725.025137,43.840935,24.262481998002915
1673607725.0261438,43.84639,24.26018784185474
1673607725.0271509,43.840694,24.257893142453867
1673607725.028158,43.829201,24.255598443052993
1673607725.0291648,43.817493,24.242710483686594
1673607725.0301719,43.815353,24.273514131742242
1673607725.03118,43.801651,24.253785238912734
1673607725.0321867,43.801483,24.26178238390093
1673607725.0331938,43.816196,24.26026863484487
1673607725.034201,43.834251,24.229256516928945
1673607725.0352077,43.856922,24.205751351988567
1673607725.0362148,43.871971,24.17449012386635
1673607725.037222,43.879421,24.15121266452074
1673607725.0382288,43.881489,24.141639460768186
1673607725.0392358,43.87656,24.135262976110436
1673607725.040243,43.880577,24.128886491452686
1673607725.0412498,43.881683,24.122511516379372
1673607725.0422568,43.876537,24.116135031721623
1673607725.0432649,43.857811,24.109752508726128
1673607725.044272,43.84293,24.10337602406838
1673607725.0452788,43.837734,24.097001048995065
1673607725.0462859,43.830475,24.090624564337315
1673607725.047293,43.824417,24.084248079679565
1673607725.0482998,43.821461,24.07787310460625
1673607725.0493069,43.800835,24.0714966199485
1673607725.050314,43.781696,24.06512013529075
1673607725.0513208,43.776722,24.058745160217438
1673607725.0523279,43.784607,24.052368675559688
1673607725.053335,43.792202,24.045992190901938
1673607725.0543418,43.809898,24.039617215828624
1673607725.0553489,43.82449,24.033240731170874
1673607725.056357,43.820545,24.02685820817538
1673607725.0573637,43.842377,24.020483233102066
1673607725.0583708,43.854805,23.9879689876161
1673607725.059378,43.860237,23.935513335322195
1673607725.0603848,43.855286,23.929205
1673607725.0613918,43.841824,23.912967659833132
1673607725.062399,43.833168,23.894764605526444
1673607725.0634058,43.829323,23.8270605202864
1673607725.0644128,43.810474,23.837293557463042
1673607725.06542,43.788212,23.77182459252203
1673607725.0664268,43.774101,23.867633719331742
1673607725.0674338,43.759964,23.871727124949327
1673607725.0684419,43.770855,23.868282221926943
1673607725.069449,43.783451,23.864840578037025
1673607725.0704558,43.792877,23.86139974893023
1673607725.0714629,43.809418,23.857958105040314
1673607725.07247,43.820789,23.84449669527897
1673607725.0734768,43.836151,23.83876
1673607725.0744839,43.859756,23.80093314616118
1673607725.075491,43.863506,23.809957528724674
1673607725.0764978,43.839779,23.810822942317838
1673607725.0775049,43.846752,23.796868498960087
1673607725.078512,43.87476,23.782914055602337
1673607725.0795188,43.886753,23.768962915853336
1673607725.0805259,43.883148,23.755008472495586
1673607725.081534,43.865406,23.74104081470284
1673607725.0825408,43.859299,23.727089674953838
1673607725.0835478,43.867065,23.713135231596087
1673607725.084555,43.872475,23.699180788238337
1673607725.0855618,43.868221,23.685229648489337
1673607725.0865688,43.846149,23.671275205131586
1673607725.087576,43.826126,23.65732076177384
1673607725.0885828,43.827183,23.643369622024835
1673607725.0895898,43.823769,23.629415178667088
1673607725.090597,43.820427,23.615460735309338
1673607725.0916038,43.814995,23.601509595560337
1673607725.0926108,43.80521,23.587555152202587
1673607725.0936189,43.804008,23.573587494409836
1673607725.094626,43.817951,23.55963305105209
1673607725.0956328,43.844036,23.545681911303088
1673607725.0966399,43.851273,23.531727467945338
1673607725.097647,43.847569,23.517773024587587
1673607725.0986538,43.843891,23.503821884838587
1673607725.0996609,43.846294,23.489867441480836
1673607725.100668,43.853241,23.475912998123086
1673607725.1016748,43.850887,23.461961858374085
1673607725.1026819,43.853916,23.448007415016335
1673607725.103689,43.859566,23.434052971658584
1673607725.1046958,43.870071,23.420101831909584
1673607725.1057029,43.863941,23.406147388551833
1673607725.106711,43.853554,23.392179730759086
1673607725.1077178,43.841774,23.378228591010085
1673607725.1087248,43.834972,23.364274147652335
1673607725.109732,43.822231,23.350319704294584
1673607725.1107388,43.810402,23.336368564545584
1673607725.1117458,43.814224,23.322414121187833
1673607725.112753,43.820114,23.308459677830083
1673607725.1137598,43.821316,23.294508538081082
1673607725.1147668,43.816822,23.280554094723332
1673607725.115774,43.820763,23.26659965136558
1673607725.1167808,43.832062,23.25264851161658
1673607725.1177878,43.833504,23.23869406825883
1673607725.1187959,43.835667,23.224726410466083
1673607725.119803,43.846725,23.210771967108332
1673607725.1208098,43.855648,23.196820827359332
1673607725.1218169,43.865143,23.18286638400158
1673607725.122824,43.861225,23.16808691249404
1673607725.1238308,43.853916,23.13245158498212
1673607725.1248379,43.850719,23.115156
1673607725.125845,43.831676,23.046253692789968
1673607725.1268518,43.790112,23.035365927899687
1673607725.1278589,43.761166,23.10866433285646
1673607725.128866,43.748642,23.031842677157844
1673607725.1298728,43.740875,23.112049905579397
1673607725.1308799,43.744556,23.075606703218117
1673607725.131888,43.752056,23.04178115111974
1673607725.1328948,43.763954,23.03167940686124
1673607725.1339018,43.783886,23.021575270525013
1673607725.134909,43.801361,23.011471134188785
1673607725.1359158,43.816795,23.001369389930286
1673607725.1369228,43.839779,22.991265253594058
1673607725.13793,43.873196,22.98116111725783
1673607725.1389368,43.901466,22.971059372999335
1673607725.1399438,43.889591,22.960955236663104
1673607725.140951,43.870358,22.950851100326876
1673607725.1419578,43.868221,22.94074935606838
1673607725.1429648,43.865238,22.930645219732153
1673607725.1439729,43.85865,22.920531515085
1673607725.14498,43.865501,22.91042737874877
1673607725.1459868,43.870285,22.900325634490272
1673607725.1469939,43.867714,22.890221498154045
1673607725.148001,43.858147,22.880117361817817
1673607725.1490078,43.842041,22.870015617559318
1673607725.1500149,43.832951,22.85991148122309
1673607725.151022,43.822613,22.849807344886862
1673607725.1520288,43.80064,22.839705600628363
1673607725.1530359,43.779751,22.829601464292136
1673607725.154043,43.769028,22.819497327955908
1673607725.1550498,43.777515,22.809395583697412
1673607725.156057,43.786697,22.79929144736118
1673607725.157065,43.792252,22.78917774271403
1673607725.1580718,43.820114,22.779075998455532
1673607725.1590788,43.841148,22.768971862119304
1673607725.160086,43.852352,22.758867725783077
1673607725.1610928,43.880383,22.748765981524578
1673607725.1620998,43.89209,22.73866184518835
1673607725.163107,43.882069,22.728557708852122
1673607725.1641138,43.859779,22.718455964593623
1673607725.1651208,43.842041,22.708351828257396
1673607725.166128,43.835739,22.698247691921168
1673607725.1671348,43.827518,22.688145947662672
1673607725.1681418,43.819511,22.67804181132644
1673607725.1691499,43.812782,22.66792810667929
1673607725.170157,43.807732,22.65782397034306
1673607725.1711638,43.800472,22.647722226084564
1673607725.1721709,43.79771,22.637618089748337
1673607725.173178,43.794582,22.62751395341211
1673607725.1741848,43.797829,22.61741220915361
1673607725.1751919,43.797588,22.607308072817382
1673607725.176199,43.793068,22.597203936481154
1673607725.1772058,43.801003,22.584339810681925
1673607725.178213,43.832256,22.559792506078665
1673607725.17922,43.843723,22.529814484263234
1673607725.1802268,43.844395,22.50501315784454
1673607725.1812348,43.851151,22.495451930870086
1673607725.182242,43.857353,22.497616234144015
1673607725.1832488,43.863148,22.47786646828803
1673607725.1842558,43.858337,22.47876889058403
1673607725.185263,43.845718,22.45305301216023
1673607725.1862698,43.847111,22.468166194463606
1673607725.1872768,43.856728,22.47870686821171
1673607725.188284,43.859539,22.489247541959813
1673607725.1892908,43.830692,22.49978572028326
1673607725.1902978,43.798191,22.510326394031363
1673607725.191305,43.786987,22.504231611680574
1673607725.1923118,43.785496,22.459138748688606
1673607725.1933188,43.767899,22.438470192394803
1673607725.1943269,43.769703,22.41111545070926
1673607725.195334,43.799175,22.396718225321887
1673607725.1963408,43.83033,22.414939445398186
1673607725.1973479,43.844925,22.427732
1673607725.198355,43.846992,22.422181083690987
1673607725.1993618,43.852257,22.409643
1673607725.200369,43.850933,22.403834403433475
1673607725.201376,43.854542,22.37967792705602
1673607725.2023828,43.861198,22.343256575107297
1673607725.20339,43.861416,22.33155921602289
1673607725.204397,43.857906,22.34905482717521
1673607725.2054038,43.847519,22.33153867097539
1673607725.2064118,43.834682,22.31527467424882
1673607725.207419,43.822037,22.299026064463334
1673607725.2084258,43.818264,22.282781301413117
1673607725.2094328,43.818913,22.266532691627628
1673607725.21044,43.812759,22.250284081842143
1673607725.2114468,43.816555,22.234039318791925
1673607725.2124538,43.828575,22.21779070900644
1673607725.213461,43.825714,22.20154209922095
1673607725.2144678,43.826557,22.185297336170734
1673607725.2154748,43.836414,22.16904872638525
1673607725.216482,43.839561,22.15280011659976
1673607725.2174888,43.836391,22.136555353549543
1673607725.2184958,43.834179,22.120306743764058
1673607725.2195039,43.835667,22.104042747037486
1673607725.220511,43.831676,22.087794137251997
1673607725.2215178,43.822952,22.07154937420178
1673607725.222525,43.807854,22.055300764416295
1673607725.223532,43.808239,22.039052154630806
1673607725.2245388,43.822109,22.02280739158059
1673607725.225546,43.821198,22.006558781795103
1673607725.226553,43.825523,21.990310172009615
1673607725.2275598,43.843025,21.9740654089594
1673607725.228567,43.849251,21.957816799173912
1673607725.229574,43.836678,21.941568189388423
1673607725.2305808,43.834179,21.92532342633821
1673607725.2315888,43.830715,21.909059429611638
1673607725.232596,43.800327,21.89281081982615
1673607725.2336028,43.769436,21.876566056775932
1673607725.2346098,43.766815,21.860317446990447
1673607725.235617,43.776047,21.844068837204958
1673607725.2366238,43.792782,21.82782407415474
1673607725.2376308,43.812229,21.811575464369255
1673607725.238638,43.826797,21.795326854583767
1673607725.2396448,43.848412,21.77908209153355
1673607725.2406518,43.862522,21.762833481748064
1673607725.241659,43.863605,21.746584871962575
1673607725.2426658,43.861198,21.684425666189796
1673607725.2436728,43.866272,21.672456703933253
1673607725.244681,43.865601,21.62879597758703
1673607725.245688,43.863846,21.595585
1673607725.2466948,43.857979,21.607286348831664
1673607725.247702,43.849781,21.59001815876043
1673607725.248709,43.844322,21.553578412017167
1673607725.2497158,43.851849,21.50506697186457
1673607725.250723,43.855408,21.4504201852205
1673607725.25173,43.848412,21.422435498664196
1673607725.2527368,43.837353,21.407168465747734
1673607725.253744,43.830933,21.39189781762101
1673607725.254751,43.833744,21.376627169494288
1673607725.2557578,43.839203,21.361360136577822
1673607725.2567658,43.830307,21.34607502761007
1673607725.257773,43.827374,21.33080437948335
1673607725.2587798,43.825813,21.315537346566884
1673607725.2597868,43.832016,21.30026669844016
1673607725.260794,43.837254,21.28499605031344
1673607725.2618008,43.837494,21.269729017396973
1673607725.2628078,43.832062,21.254458369270253
1673607725.263815,43.825714,21.23918772114353
1673607725.2648218,43.824127,21.223920688227064
1673607725.2658288,43.826653,21.20865004010034
1673607725.266836,43.83675,21.193379391973618
1673607725.2678428,43.849686,21.178112359057156
1673607725.2688498,43.854324,21.162841710930433
1673607725.269858,43.854252,21.14755660196268
1673607725.270865,43.853123,21.132285953835957
1673607725.2718718,43.842232,21.11701892091949
1673607725.272879,43.836319,21.101748272792772
1673607725.273886,43.843143,21.08647762466605
1673607725.2748928,43.850861,21.071210591749583
1673607725.2759,43.844009,21.05593994362286
1673607725.276907,43.835739,21.040669295496137
1673607725.2779138,43.842182,21.025402262579675
1673607725.278921,43.848553,21.010131614452952
1673607725.279928,43.849323,20.99486096632623
1673607725.2809348,43.847088,20.979593933409763
1673607725.2819428,43.835548,20.96430882444201
1673607725.28295,43.836823,20.94903817631529
1673607725.2940269,43.832497,20.781075507762374
1673607725.295035,43.831776,20.76579039879462
1673607725.296042,43.831196,20.750519750667898
1673607725.2970488,43.827736,20.73330647747318
1673607725.298056,43.835213,20.739432473056745
1673607725.299063,43.847038,20.683840914639962
1673607725.3000698,43.8512,20.69216625887962
1673607725.301077,43.84454,20.709164
1673607725.302084,43.847691,20.65844234048641
1673607725.3030908,43.861416,20.636808
1673607725.304098,43.86483,20.623877427277062
1673607725.305105,43.857353,20.63177896471149
1673607725.3061118,43.854683,20.63584579236123
1673607725.3071198,43.854614,20.63451500600313
1673607725.308127,43.846054,20.63318547866713
1673607725.3091338,43.83353,20.631856266086654
1673607725.3101408,43.820885,20.63052673875065
1673607725.311148,43.817181,20.62919721141465
1673607725.3121548,43.813213,20.627867998834173
1673607725.3131618,43.813866,20.626538471498172
1673607725.314169,43.820354,20.62520894416217
1673607725.3151758,43.827038,20.62387973158169
1673607725.3161829,43.82896,20.62255020424569
1673607725.31719,43.836006,20.62122067690969
1673607725.3181968,43.847206,20.619891464329214
1673607725.3192039,43.848915,20.61656729296782
1673607725.320212,43.851318,20.60063
1673607725.321219,43.854443,20.58850907773009
1673607725.3222258,43.870144,20.508954608219465
1673607725.323233,43.854492,20.500225066965683
1673607725.32424,43.837639,20.4914955257119
1673607725.3252468,43.840427,20.48276805111088
1673607725.326254,43.855789,20.4740385098571
1673607725.327261,43.865982,20.465308968603317
1673607725.3282678,43.846462,20.456581494002297
1673607725.329275,43.843433,20.447851952748515
1673607725.330282,43.838146,20.439122411494733
1673607725.3312888,43.832592,20.430394936893713
1673607725.3322968,43.832302,20.421657129028894
1673607725.333304,43.83942,20.412927587775112
1673607725.3343108,43.841438,20.404200113174092
1673607725.3353179,43.841728,20.39547057192031
1673607725.336325,43.841248,20.386741030666528
1673607725.3373318,43.831341,20.378013556065508
1673607725.3383389,43.821579,20.369284014811726
1673607725.339346,43.802517,20.360554473557944
1673607725.3403528,43.778355,20.351826998956923
1673607725.3413599,43.755516,20.34309745770314
1673607725.342367,43.767033,20.33436791644936
1673607725.3433738,43.787033,20.325640441848336
1673607725.345389,43.836945,20.30817309272974
1673607725.346396,43.861561,20.299443551475957
1673607725.3474028,43.890507,20.290716076874936
1673607725.34841,43.909161,20.281986535621154
1673607725.349417,43.905048,20.273256994367372
1673607725.3504238,43.88863,20.264529519766352
1673607725.351431,43.876442,20.25579997851257
1673607725.352438,43.860477,20.247070437258788
1673607725.3534448,43.850334,20.238342962657768
1673607725.354452,43.844444,20.229613421403986
1673607725.355459,43.843266,20.220883880150204
1673607725.3564658,43.842064,20.21215640554918
1673607725.3574739,43.850334,20.203418597684365
1673607725.358481,43.857544,20.194689056430583
1673607725.3594878,43.85817,20.185961581829563
1673607725.3604949,43.859203,20.17723204057578
1673607725.361502,43.863701,20.168502499322
1673607725.3625088,43.863434,20.159775024720975
1673607725.3635159,43.855335,20.151045483467197
1673607725.364523,43.831989,20.142315942213415
1673607725.3655298,43.813141,20.13358846761239
1673607725.3665369,43.801941,20.124858926358613
1673607725.367544,43.799534,20.11612938510483
1673607725.3685508,43.811459,20.107401910503807
1673607725.3695579,43.826244,20.098672369250025
1673607725.370566,43.839226,20.102802454697187
1673607725.371573,43.85305,20.112192
1673607725.3725798,43.867355,20.094292774916546
1673607725.373587,43.869083,20.076014
1673607725.374594,43.86805,20.007057458209587
1673607725.3756008,43.868629,20.008116267713195
1673607725.376608,43.860142,20.0591827017395
1673607725.377615,43.856438,20.04395052142554
1673607725.3786218,43.860455,20.076014
1673607725.379629,43.860504,20.05641252014903
1673607725.380636,43.860382,20.053613532472358
1673607725.3816428,43.860645,20.050815207434812
1673607725.3826509,43.861176,20.048013569201625
1673607725.383658,43.855526,20.045214581524952
1673607725.3846648,43.849491,20.042416256487407
1673607725.3856719,43.84692,20.039617268810733
1673607725.386679,43.842041,20.03681828113406
1673607725.3876858,43.832809,20.034019956096515
1673607725.3886929,43.836174,20.03122096841984
1673607725.3897,43.822372,20.02842198074317
1673607725.3907068,43.813816,20.025623655705623
1673607725.3917139,43.807323,20.02282466802895
1673607725.392721,43.807686,20.020025680352273
1673607725.3937278,43.803646,20.017227355314727
1673607725.3947349,43.808575,20.014428367638054
1673607725.395743,43.831535,20.01162672940487
1673607725.39675,43.843143,20.008827741728197
1673607725.3977568,43.842159,20.00602941669065
1673607725.398764,43.847137,20.00323042901398
1673607725.399771,43.870598,20.0004314413373
1673607725.4007778,43.876488,19.997633116299756
1673607725.401785,43.853458,19.994834128623083
1673607725.402792,43.834419,19.99203514094641
1673607725.4037988,43.82074,19.989236815908864
1673607725.404806,43.811146,19.98643782823219
1673607725.4058127,43.794029,19.983639503194645
1673607725.4068198,43.787586,19.980840515517972
1673607725.4078279,43.784607,19.978038877284785
1673607725.408835,43.783813,19.975239889608112
1673607725.4098418,43.785736,19.972441564570566
1673607725.4108489,43.805283,19.969642576893893
1673607725.411856,43.832424,19.96684358921722
1673607725.4128628,43.849827,19.964045264179674
1673607725.4138699,43.832664,19.961246276503
1673607725.414877,43.814873,19.958447288826328
1673607725.4158838,43.816219,19.955648963788782
1673607725.4168909,43.822639,19.95284997611211
1673607725.417898,43.843338,19.950050988435436
1673607725.4189048,43.862137,19.94725266339789
1673607725.4199119,43.877621,19.944453675721217
1673607725.42092,43.888222,19.94165203748803
1673607725.421927,43.899784,19.938853049811357
1673607725.4229338,43.893559,19.93605472477381
1673607725.423941,43.881584,19.933255737097138
1673607725.424948,43.861153,19.93673639055794
1673607725.4259548,43.835499,19.932678186456844
1673607725.426962,43.818409,19.900811202383792
1673607725.4279687,43.813984,19.907385673581306
1673607725.4289758,43.819683,19.9070104368145
1673607725.429983,43.830982,19.925215889604196
1673607725.4309897,43.85413,19.907003289153756
1673607725.4319968,43.864037,19.888787731759656
1673607725.4330049,43.860672,19.902922007868384
1673607725.434012,43.874928,19.947398822245074
1673607725.4350188,43.88089,19.94192580940441
1673607725.4360259,43.874493,19.936451500562598
1673607725.437033,43.867329,19.930977191720785
1673607725.4380398,43.855717,19.925504178880118
1673607725.4390469,43.843819,19.92002987003831
1673607725.440054,43.851513,19.914555561196497
1673607725.4410608,43.858627,19.90908254835583
1673607725.4420679,43.856873,19.903608239514018
1673607725.443075,43.857784,19.89813393067221
1673607725.4440818,43.856823,19.89266091783154
1673607725.4450889,43.85865,19.88718660898973
1673607725.446097,43.856297,19.881707116143335
1673607725.447104,43.848915,19.876232807301523
1673607725.4481108,43.841629,19.870759794460856
1673607725.449118,43.836391,19.865285485619044
1673607725.4501247,43.834011,19.85981247277838
1673607725.4511318,43.827808,19.854338163936568
1673607725.452139,43.826077,19.848863855094756
1673607725.4531457,43.826797,19.84339084225409
1673607725.4541528,43.828407,19.83791653341228
1673607725.45516,43.83894,19.832442224570467
1673607725.4561667,43.848892,19.826969211729804
1673607725.4571738,43.845932,19.82149490288799
1673607725.4581819,43.844612,19.816015410041594
1673607725.459189,43.85067,19.81054110119978
1673607725.4601958,43.857185,19.805068088359118
1673607725.4612029,43.857304,19.799593779517306
1673607725.46221,43.860264,19.794119470675493
1673607725.4632168,43.858627,19.78864645783483
1673607725.4642239,43.849133,19.783172148993017
1673607725.465231,43.844803,19.777697840151205
1673607725.4662378,43.834492,19.77222482731054
1673607725.4672449,43.821148,19.76675051846873
1673607725.468252,43.812637,19.761276209626917
1673607725.4692588,43.820377,19.75580319678625
1673607725.4702659,43.834297,19.75032888794444
1673607725.471274,43.843433,19.744849395098043
1673607725.4722807,43.848484,19.739376382257376
1673607725.4732878,43.860332,19.733902073415567
1673607725.474295,43.875839,19.728427764573755
1673607725.4753017,43.870792,19.722954751733088
1673607725.4763088,43.854923,19.717480442891276
1673607725.477316,43.850044,19.712006134049467
1673607725.4783227,43.843819,19.7065331212088
1673607725.4793298,43.845791,19.701058812366988
1673607725.480337,43.851055,19.695584503525176
1673607725.4813437,43.861298,19.69011149068451
1673607725.4823508,43.855141,19.6846371818427
1673607725.4833589,43.839153,19.679157688996302
1673607725.484366,43.825981,19.673683380154493
1673607725.4853728,43.829708,19.668210367313826
1673607725.4863799,43.843266,19.662736058472014
1673607725.487387,43.853268,19.6572617496302
1673607725.4883938,43.868748,19.651788736789538
1673607725.4894009,43.883293,19.646314427947726
1673607725.490408,43.873413,19.64521137151703
1673607725.4914148,43.859035,19.653005397711016
1673607725.4924219,43.857616,19.623762
1673607725.493429,43.856319,19.638737173104435
1673607725.4944358,43.838745,19.680661931888544
1673607725.4954429,43.820908,19.619781996658713
1673607725.496451,43.80872,19.613955629470674
1673607725.4974577,43.803864,19.646111778756847
1673607725.4984648,43.793861,19.664314449213162
1673607725.499472,43.80088,19.674425886254117
1673607725.5004787,43.813553,19.659847177107686
1673607725.5014858,43.830139,19.645265015745025
1673607725.502493,43.835789,19.630682854382368
1673607725.5034997,43.851513,19.616104145235937
1673607725.5045068,43.874638,19.605675
1673607725.505514,43.872498,19.621624935160906
1673607725.5065207,43.858097,19.638183187649023
1673607725.5075278,43.85471,19.593147246781115
1673607725.5085359,43.862858,19.599957027896995
1673607725.509543,43.867619,19.599264207389748
1673607725.5105498,43.862617,19.62150854598581
1673607725.5115569,43.859589,19.6146259792787
1673607725.512564,43.86668,19.60774341257159
1673607725.5135708,43.86668,19.60086247526001
1673607725.5145779,43.841991,19.5939799085529
1673607725.515585,43.810112,19.58709734184579
1673607725.5165918,43.802204,19.58021640453421
1673607725.5175989,43.809826,19.573333837827096
1673607725.518606,43.829731,19.566451271119988
1673607725.5196128,43.831776,19.559570333808406
1673607725.5206199,43.818024,19.552687767101297
1673607725.521628,43.822639,19.545798682812077
1673607725.5226347,43.844227,19.538917745500495
1673607725.5236418,43.872475,19.532035178793386
1673607725.524649,43.891514,19.525152612086277
1673607725.5256557,43.887306,19.51827167477469
1673607725.5266628,43.883389,19.511389108067583
1673607725.52767,43.887379,19.504506541360474
1673607725.5286767,43.884926,19.497625604048892
1673607725.5296838,43.878845,19.490743037341783
1673607725.530691,43.870407,19.48386047063467
1673607725.5316978,43.85466,19.47697953332309
1673607725.5327048,43.847038,19.47009696661598
1673607725.5337129,43.847233,19.46320788232676
1673607725.53472,43.85257,19.45632531561965
1673607725.5357268,43.857353,19.44944437830807
1673607725.5367339,43.855213,19.44256181160096
1673607725.537741,43.855453,19.43567924489385
1673607725.5387478,43.847591,19.428798307582266
1673607725.5397549,43.840382,19.421915740875157
1673607725.540762,43.854973,19.415033174168048
1673607725.5417688,43.866875,19.408152236856466
1673607725.5427759,43.868149,19.401269670149357
1673607725.543783,43.866848,19.394387103442245
1673607725.5447898,43.855816,19.387506166130663
1673607725.5457969,43.835766,19.380623599423554
1673607725.546805,43.828552,19.373734515134334
1673607725.5478117,43.835739,19.366853577822752
1673607725.5488188,43.84235,19.359971011115643
1673607725.549826,43.849346,19.353088444408534
1673607725.5508327,43.849373,19.346207507096953
1673607725.5518398,43.856823,19.33932494038984
1673607725.552847,43.867428,19.33244237368273
1673607725.5538538,43.861176,19.32556143637115
1673607725.5548608,43.863747,19.31867886966404
1673607725.555868,43.857063,19.269343873420738
1673607725.5568748,43.846439,19.255711680019076
1673607725.5578818,43.843868,19.249983927992368
1673607725.5588899,43.844948,19.219633675804527
1673607725.559897,43.854012,19.207689
1673607725.5609038,43.856968,19.170573907010017
1673607725.5619109,43.859421,19.190908386174016
1673607725.562918,43.863796,19.182434726752504
1673607725.5639248,43.872379,19.184258062470196
1673607725.5649319,43.883411,19.1789981909066
1673607725.565939,43.887596,19.164000856140856
1673607725.5669458,43.885338,19.1490070718805
1673607725.5679529,43.881035,19.13400973711476
1673607725.56896,43.870815,19.119012402349014
1673607725.5699668,43.862953,19.10401861808866
1673607725.5709739,43.850117,19.089021283322914
1673607725.571982,43.845596,19.074009746535612
1673607725.5729887,43.846416,19.05901596227526
1673607725.5739958,43.844322,19.044018627509516
1673607725.575003,43.846752,19.02902129274377
1673607725.5760098,43.853722,19.014027508483416
1673607725.5770168,43.859539,18.999030173717674
1673607725.578024,43.860767,18.98403283895193
1673607725.5790308,43.860191,18.969039054691574
1673607725.5800378,43.861874,18.95404171992583
1673607725.581045,43.864998,18.939044385160088
1673607725.5820518,43.866562,18.924050600899733
1673607725.5961509,43.810833,18.714087914179316
1673607725.597159,43.80677,18.699076377392014
1673607725.5981658,43.8311,18.68408259313166
1673607725.5991728,43.854805,18.669085258365914
1673607725.60018,43.88459,18.65408792360017
1673607725.6011868,43.908585,18.639094139339814
1673607725.6021938,43.905216,18.624096804574073
1673607725.603201,43.907551,18.609099469808328
1673607725.6042078,43.895771,18.594105685547973
1673607725.6052148,43.888462,18.579108350782228
1673607725.606222,43.889301,18.564111016016486
1673607725.6072288,43.889206,18.54911723175613
1673607725.6082358,43.879448,18.534119896990386
1673607725.6092439,43.864998,18.519108360203084
1673607725.610251,43.856297,18.50411102543734
1673607725.6112578,43.849133,18.48631632371871
1673607725.6122649,43.850407,18.46808962446352
1673607725.613272,43.854443,18.465988
1673607725.6142788,43.858627,18.482236112991657
1673607725.6152859,43.853168,18.451343587982834
1673607725.616293,43.834225000000004,18.41490513090129
1673607725.6172998,43.826725,18.411722
1673607725.6183069,43.830742,18.378226727229375
1673607725.619314,43.847881,18.375544
1673607725.6203208,43.866344,18.363487596174284
1673607725.6213279,43.879734,18.350568709883106
1673607725.622336,43.896202,18.33763758979809
1673607725.6233428,43.893703,18.324721761955367
1673607725.6243498,43.887524,18.31180287566419
1673607725.625357,43.880455,18.29888398937301
1673607725.6263638,43.882259,18.28596816153029
1673607725.6273708,43.87709,18.273049275239106
1673607725.628378,43.867474,18.26013038894793
1673607725.6293848,43.85817,18.247214561105206
1673607725.6303918,43.853989,18.234295674814028
1673607725.631399,43.849419,18.22137678852285
1673607725.6324058,43.842522,18.208460960680128
1673607725.6334128,43.845623,18.19554207438895
1673607725.6344209,43.853771,18.182610954303932
1673607725.635428,43.839252,18.169692068012754
1673607725.6364348,43.829128,18.156776240170032
1673607725.6374419,43.838242,18.143857353878854
1673607725.638449,43.840237,18.130938467587672
1673607725.6394558,43.842041,18.12228
1673607725.6404629,43.849731,18.116151132808774
1673607725.64147,43.862019,18.11044925917978
1673607725.6424768,43.872089,18.109516367103694
1673607725.6434839,43.887043,18.073081927753933
1673607725.644491,43.899879,18.049915
1673607725.6454978,43.899158,18.029626710061994
1673607725.6465049,43.890194,18.002540017878427
1673607725.647513,43.879856,18.013739
1673607725.6485198,43.874374,18.013463632285518
1673607725.6495268,43.872547,18.01276293757107
1673607725.650534,43.861271,18.01206224285662
1673607725.6515408,43.848843,18.011361714026336
1673607725.6525478,43.845428,18.01066101931189
1673607725.653555,43.845791,18.00996032459744
1673607725.6545618,43.852402,18.009259795767157
1673607725.6555688,43.862667,18.00855910105271
1673607725.656576,43.860958,18.00785840633826
1673607725.6575828,43.864204,18.00715787750798
1673607725.6585898,43.874973,18.00645718279353
1673607725.6595979,43.876225,18.005755824542423
1673607725.660605,43.87101,18.005055129827973
1673607725.6616118,43.86882,18.00435460099769
1673607725.6626189,43.870598,18.00365390628324
1673607725.663626,43.867161,18.002953211568794
1673607725.6646328,43.868412,18.00225268273851
1673607725.6656399,43.864037,18.00155198802406
1673607725.666647,43.856174,18.000851293309616
1673607725.6676538,43.853363,18.000150764479333
1673607725.6686609,43.856056,17.999450069764883
1673607725.669668,43.861198,17.998749375050433
1673607725.6706748,43.862522,17.99804884622015
1673607725.6716819,43.853603,17.997348151505705
1673607725.67269,43.848312,17.996646793254595
1673607725.6736968,43.849445,17.995946264424312
1673607725.6747038,43.854084,18.006138957081546
1673607725.675711,43.857113,18.045592408820024
1673607725.6767178,43.863316,18.03579064520744
1673607725.6777248,43.867882,18.02460672532189
1673607725.678732,43.866154,18.048929058954393
1673607725.6797388,43.868172,17.96342960237389
1673607725.6807458,43.873123,18.013739
1673607725.681753,43.868629,18.049519282165367
1673607725.6827598,43.868942,18.05011632369299
1673607725.6837668,43.870865,18.051297591046637
1673607725.6847749,43.870407,18.053465838429865
1673607725.685782,43.872883,18.055632034491065
1673607725.6867888,43.869759,18.05779771772176
1673607725.6877959,43.859348,18.059963913782962
1673607725.688803,43.855335,18.062130109844162
1673607725.6898098,43.844971,18.064295793074855
1673607725.6908169,43.851608,18.066461989136055
1673607725.691824,43.849998,18.06862818519726
1673607725.6928308,43.841824,18.070793868427952
1673607725.693838,43.84026,18.072960064489152
1673607725.694845,43.848194,18.075126260550352
1673607725.6958518,43.847641,18.07729194378105
1673607725.6968598,43.85038,18.079460191164276
1673607725.697867,43.850285,18.081626387225477
1673607725.6988738,43.856728,18.08379207045617
1673607725.6998808,43.855694,18.085958266517373
1673607725.700888,43.844875,18.088124462578573
1673607725.7018948,43.839756,18.090290145809266
1673607725.7029018,43.840382,18.09245634187047
1673607725.703909,43.845791,18.09462253793167
1673607725.7049158,43.854179,18.096788221162363
1673607725.7059228,43.860527,18.098954417223563
1673607725.70693,43.867188,18.101120613284767
1673607725.7079368,43.86834,18.10328629651546
1673607725.7089438,43.878918,18.10545249257666
1673607725.7099519,43.87851,18.107620739959888
1673607725.710959,43.873989,18.10978693602109
1673607725.7119658,43.861225,18.111952619251785
1673607725.7129729,43.853386,18.114118815312985
1673607725.71398,43.855839,18.116285011374185
1673607725.7149868,43.856945,18.11845069460488
1673607725.715994,43.865215,18.12061689066608
1673607725.717001,43.87714,18.12228
1673607725.7180078,43.879375,18.13099263471626
1673607725.719015,43.875214,18.14948971275328
1673607725.720022,43.872692,18.136112258464472
1673607725.7210288,43.878365,18.171812253218885
1673607725.7220368,43.892162,18.14381504862932
1673607725.723044,43.876728,18.114205939914164
1673607725.7240508,43.866993,18.1301039022413
1673607725.7250578,43.853291,18.114714881735814
1673607725.726065,43.842281,18.143064494099416
1673607725.7270718,43.849346,18.152170951364884
1673607725.7280788,43.866222,18.15281719742489
1673607725.729086,43.862377,18.140369
1673607725.7300928,43.857162,18.140369
1673607725.7310998,43.870815,18.140369
1673607725.732107,43.887573,18.13422003361144
1673607725.7331138,43.881779,18.14109394182165
1673607725.7341208,43.877258,18.176548
1673607725.7351289,43.882549,18.176548
1673607725.736136,43.888439,18.176548
1673607725.7371428,43.883533,18.176548
1673607725.73815,43.869831,18.18347478445398
1673607725.739157,43.857689,18.190562541624598
1673607725.7401638,43.848915,18.180045159155576
1673607725.741171,43.837521,18.169525286186325
1673607725.742178,43.82283,18.159005413217074
1673607725.7431848,43.819946,18.148488030748048
1673607725.744192,43.819729,18.15700225226514
1673607725.745199,43.819683,18.217021424892703
1673607725.7462058,43.848122,18.230824
1673607725.7472138,43.88887,18.22626915021459
1673607725.748221,43.910435,18.212734
1673607725.7492278,43.910172,18.203116028605482
1673607725.7502348,43.90041,18.186418477825466
1673607725.751242,43.909111,18.213079210670337
1673607725.7522488,43.901901,18.21432096932522
1673607725.7532558,43.885338,18.21556302202667
1673607725.754263,43.879375,18.21680507472812
1673607725.7552698,43.884277,18.218046833383006
1673607725.7562768,43.877522,18.219288886084456
1673607725.757284,43.870239,18.220530938785906
1673607725.7582908,43.874252,18.221772697440787
1673607725.7592978,43.88464,18.22301475014224
1673607725.760306,43.893486,18.22425797902996
1673607725.761313,43.889713,18.22550003173141
1673607725.7623198,43.88892,18.226741790386292
1673607725.763327,43.8881,18.227983843087745
1673607725.764334,43.875839,18.229225895789195
1673607725.7653408,43.860477,18.230467654444077
1673607725.766348,43.852856,18.231709707145527
1673607725.767355,43.85228,18.23295175984698
1673607725.7683618,43.84882,18.23419351850186
1673607725.769369,43.852375,18.23543557120331
1673607725.770376,43.855862,18.236677623904765
1673607725.7713828,43.849205,18.237919382559646
1673607725.7723908,43.850765,18.239162611447366
1673607725.773398,43.8643,18.240404664148816
1673607725.7744048,43.876659,18.2416464228037
1673607725.7754118,43.873604,18.24288847550515
1673607725.776419,43.875046,18.2441305282066
1673607725.7774258,43.880817,18.245372286861485
1673607725.7784328,43.88274,18.246614339562935
1673607725.77944,43.883991,18.247856392264385
1673607725.7804468,43.880169,18.249098150919266
1673607725.7814538,43.883965,18.25034020362072
1673607725.782461,43.880768,18.25158225632217
1673607725.7834678,43.877041,18.25282401497705
1673607725.7844748,43.874687,18.2540660676785
1673607725.785483,43.875626,18.255309296566224
1673607725.78649,43.873531,18.256551349267674
1673607725.7874968,43.868435,18.257793107922556
1673607725.788504,43.862953,18.25903516062401
1673607725.789511,43.8624,18.26027721332546
1673607725.7905178,43.84156,18.26151897198034
1673607725.791525,43.821991,18.26276102468179
1673607725.792532,43.805016,18.264003077383244
1673607725.7935388,43.790474,18.265244836038125
1673607725.794546,43.804585,18.266486888739575
1673607725.795553,43.832878,18.288379676042908
1673607725.7965598,43.859901,18.292365545064378
1673607725.7975678,43.878845,18.30700860872675
1673607725.798575,43.888748,18.28800863694875
1673607725.7995818,43.899376,18.278209659275156
1673607725.8005888,43.909546,18.307767729375296
1673607725.801596,43.909954,18.321268
1673607725.8026028,43.899689,18.286495083671035
1673607725.8036098,43.887093,18.278718601096806
1673607725.804617,43.882618,18.286751870766963
1673607725.8056238,43.879375,18.289308224334093
1673607725.8066308,43.873245,18.291865183241867
1673607725.807638,43.871826,18.294422142149646
1673607725.8086448,43.866417,18.296978495716772
1673607725.8096519,43.857811,18.299535454624547
1673607725.81066,43.858219,18.302094834894927
1673607725.811667,43.844875,18.313670188796184
1673607725.8126738,43.833458,18.289424044825942
1673607725.813681,43.821651,18.267
1673607725.814688,43.816555,18.267
1673607725.8156948,43.834251,18.267
1673607725.816702,43.863003,18.267
1673607725.817709,43.884857,18.267
1673607725.8187158,43.895336,18.267
1673607725.819723,43.903175,18.267
1673607725.82073,43.915482,18.267
1673607725.8217368,43.920002,18.267
1673607725.8227448,43.932743,18.267
1673607725.823752,43.920891,18.267
1673607725.8247588,43.907837,18.267
1673607725.8257658,43.884953,18.267
1673607725.826773,43.861153,18.267
1673607725.8277798,43.866875,18.267
1673607725.8287868,43.867401,18.267
1673607725.829794,43.861031,18.267
1673607725.8308008,43.864662,18.267
1673607725.8318079,43.869301,18.267
1673607725.832815,43.855358,18.267
1673607725.8338218,43.840981,18.267
1673607725.8348289,43.82336,18.267
1673607725.835837,43.805691,18.267
1673607725.836844,43.806988,18.267
1673607725.8378508,43.822254,18.267
1673607725.838858,43.833359,18.267
1673607725.839865,43.843746,18.267
1673607725.8408718,43.871296,18.267
1673607725.841879,43.901394,18.267
1673607725.842886,43.916203,18.267
1673607725.8438928,43.91832,18.267
1673607725.8449,43.911491,18.267
1673607725.845907,43.907863999999996,18.267
1673607725.8469138,43.903175,18.267
1673607725.8479218,43.891994,18.267
1673607725.848929,43.881657,18.267
1673607725.8499358,43.872738,18.267
1673607725.8509429,43.865669,18.267
1673607725.85195,43.849514,18.267
1673607725.8529568,43.81105,18.267
1673607725.8539639,43.779316,18.267
1673607725.854971,43.790665,18.267
1673607725.8559778,43.800713,18.267
1673607725.8569849,43.827038,18.267
1673607725.857992,43.86692,18.267
1673607725.8589988,43.888412,18.267
1673607725.8600059,43.912888,18.267
1673607725.861014,43.944981,18.267
1673607725.862021,43.957024,18.267
1673607725.8630278,43.945679,18.267
1673607725.864035,43.924572,18.23271256829559
1673607725.865042,43.912792,18.26536975107296
1673607725.8660488,43.910507,18.301798780639007
1673607725.867056,43.903534,18.32549987134503
1673607725.868063,43.894352,18.322090220872695
1673607725.8690698,43.886562,18.32068212145749
1673607725.870077,43.876369,18.33868132388664
1673607725.871084,43.869373,18.302967426900587
1673607725.8720908,43.866535,18.294746489270388
1673607725.8730989,43.863194,18.299257646277496
1673607725.874106,43.86274,18.29197044956661
1673607725.8751128,43.874878,18.284684978044336
1673607725.8761199,43.880936,18.277397781333445
1673607725.877127,43.870117,18.270110584622557
1673607725.8781338,43.867355,18.262825113100284
1673607725.8791409,43.870457,18.255537916389397
1673607725.880148,43.875889,18.248250719678506
1673607725.8811548,43.877571,18.240965248156233
1673607725.8821619,43.876995,18.233678051445345
1673607725.883169,43.880337,18.226390854734454
1673607725.8841758,43.884304,18.21910538321218
1673607725.8851829,43.88245,18.211818186501294
1673607725.886191,43.883823,18.204524089035942
1673607725.887198,43.881344,18.197236892325055
1673607725.8882048,43.880047,18.18995142080278
1673607725.889212,43.880409,18.18266422409189
1673607725.890219,43.87101,18.175377027381003
1673607725.8912258,43.869709,18.16809155585873
1673607725.892233,43.86692,18.16080435914784
1673607725.89324,43.861679,18.153517162436952
1673607725.8942468,43.853649,18.14623169091468
1673607725.895254,43.862041,18.13894449420379
1673607725.896261,43.88221,18.1316572974929
1673607725.8972678,43.898342,18.124371825970627
1673607725.8982759,43.897812,18.117077728505276
1673607725.899283,43.888847,18.10979053179439
1673607725.9002898,43.876682,18.102505060272115
1673607725.9012969,43.878822,18.095217863561228
1673607725.902304,43.881203,18.087930666850337
1673607725.9033108,43.872162,18.080645195328064
1673607725.9043179,43.867764,18.073357998617176
1673607725.905325,43.883701,18.066070801906285
1673607725.9063318,43.901634,18.058785330384012
1673607725.9073389,43.891346,18.051498133673125
1673607725.908346,43.869228,18.044210936962234
1673607725.9093528,43.845284,18.03692546543996
1673607725.9103599,43.841438,18.029638268729073
1673607725.911368,43.836124,18.022344171263722
1673607725.912375,43.819393,18.015056974552834
1673607725.9133818,43.817204,18.00777150303056
1673607725.914389,43.825405,18.00048430631967
1673607725.915396,43.844948,17.993197109608783
1673607725.9164028,43.855213,17.98591163808651
1673607725.91741,43.872524,17.97862444137562
1673607725.918417,43.896324,18.024230830233666
1673607725.9194238,43.91486,18.000469725387365
1673607725.920431,43.915508,18.011457261802576
1673607725.9214377,43.910748,17.934074904148783
1673607725.9224448,43.908558,17.923292
1673607725.9234529,43.888054,17.931626814929057
1673607725.92446,43.880863,17.914207313078347
1673607725.9254668,43.879856,17.93083454349167
1673607725.9264739,43.883076,17.933591044417025
1673607725.927481,43.887306,17.838321301144493
1673607725.9284878,43.894928,17.824536461495402
1673607725.9294949,43.892574,17.812654975505087
1673607725.930502,43.883366,17.800773489514768
1673607725.9315088,43.884663,17.788894816376246
1673607725.9325159,43.881897,17.777013330385927
1673607725.933523,43.870552000000004,17.765131844395608
1673607725.9345298,43.865864,17.75325317125709
1673607725.9355369,43.869518,17.74137168526677
1673607725.936545,43.874229,17.729478947869264
1673607725.937552,43.882645,17.717597461878945
1673607725.9385588,43.88702,17.705718788740423
1673607725.939566,43.890915,17.693837302750108
1673607725.940573,43.89291,17.68195581675979
1673607725.9415798,43.894951,17.670077143621267
1673607725.942587,43.896564,17.658195657630948
1673607725.9435937,43.893028,17.646316984492426
1673607725.9446008,43.891369,17.63443549850211
1673607725.945608,43.884064,17.62255401251179
1673607725.9466147,43.877499,17.61067533937327
1673607725.9476218,43.87476,17.59879385338295
1673607725.9486299,43.870575,17.586901115985444
1673607725.949637,43.865501,17.57501962999513
1673607725.9506438,43.864758,17.563140956856607
1673607725.9516509,43.862499,17.551259470866288
1673607725.952658,43.858868,17.53937798487597
1673607725.9536648,43.852402,17.527499311737447
1673607725.9546719,43.851776,17.515617825747132
1673607725.955679,43.857784,17.503736339756813
1673607725.9566858,43.852856,17.49185766661829
1673607725.9576929,43.86216,17.479976180627972
1673607725.9587,43.869324,17.468094694637657
1673607725.9597068,43.873966,17.456216021499134
1673607725.9607139,43.88113,17.444334535508816
1673607725.961722,43.8881,17.43244179811131
1673607725.962729,43.888775,17.42056031212099
1673607725.9637358,43.891228,17.40868163898247
1673607725.964743,43.893101,17.396800152992153
1673607725.9657497,43.89423,17.38492147985363
1673607725.9667568,43.89505,17.373039993863312
1673607725.967764,43.893269,17.361158507872993
1673607725.9687707,43.883533,17.349279834734475
1673607725.9697778,43.881203,17.337398348744156
1673607725.970785,43.878292,17.325516862753837
1673607725.9717917,43.872089,17.313638189615315
1673607725.9727988,43.863914,17.301756703624996
1673607725.9738069,43.860645,17.290134
1673607725.974814,43.866634,17.289047366388555
1673607725.9758208,43.871609,17.254620212207914
1673607725.9768279,43.870647,17.270457791607058
1673607725.977835,43.877621,17.237712552324194
1673607725.9788418,43.885551,17.26786943252265
1673607725.9798489,43.889233,17.203200045779685
1673607725.980856,43.896034,17.252653764481526
1673607725.9818628,43.892815,17.230173201716738
1673607725.9828699,43.885841,17.162713555528583
1673607725.983877,43.88892,17.153439007063962
1673607725.9848838,43.891994,17.144166654278433
1673607725.9858909,43.892883,17.13489210581381
1673607725.986899,43.893776,17.125608774632845
1673607725.9879057,43.882572,17.11633642184731
1673607725.9889128,43.873413,17.10706187338269
1673607725.98992,43.86853,17.097787324918073
1673607725.9909267,43.862545,17.08851497213254
1673607725.9919338,43.858124,17.07924042366792
1673607725.992941,43.855526,17.0699658752033
1673607725.9939477,43.853939,17.06069352241777
1673607725.9949548,43.841679,17.05141897395315
1673607725.995962,43.829563,17.04214442548853
1673607725.9969687,43.838577,17.032872072702997
1673607725.9979758,43.855164,17.02359752423838
1673607725.9989839,43.870838,17.01431419305741
1673607725.999991,43.889664,17.00503964459279
1673607726.0009978,43.904762,16.995767291807258
1673607726.0020049,43.908512,16.986492743342637
1673607726.003012,43.91077,16.97721819487802
1673607726.0040188,43.921371,16.967945842092487
1673607726.0050259,43.919209,16.958671293627866
1673607726.006033,43.909592,16.94939674516325
1673607726.0070398,43.898006,16.940124392377715
1673607726.0080469,43.888702,16.930849843913098
1673607726.009054,43.888966,16.921575295448477
1673607726.0100608,43.883774,16.912302942662944
1673607726.0110679,43.875359,16.903028394198326
1673607726.012076,43.872475,16.893745063017356
1673607726.0130827,43.870647,16.884472710231826
1673607726.0140898,43.872665,16.875198161767205
1673607726.015097,43.873318,16.865923613302584
1673607726.0161037,43.87476,16.856651260517054
1673607726.0171108,43.879036,16.847376712052434
1673607726.018118,43.887405,16.838102163587813
1673607726.0191247,43.88858,16.828829810802283
1673607726.0201318,43.885361,16.819555262337662
1673607726.021139,43.891396,16.810280713873045
1673607726.0221457,43.901875,16.80100836108751
1673607726.0231528,43.894424,16.79173381262289
1673607726.0241609,43.884926,16.782450481441924
1673607726.025168,43.875961,16.773175932977303
1673607726.0261748,43.875481,16.763903580191773
1673607726.0271819,43.873604,16.754629031727152
1673607726.028189,43.875408,16.74535448326253
1673607726.0291958,43.868149,16.736082130477
1673607726.0302029,43.867908,16.72680758201238
1673607726.03121,43.871899,16.71753303354776
1673607726.0322168,43.875721,16.70826068076223
1673607726.0332239,43.879253,16.69898613229761
1673607726.034231,43.884544,16.68971158383299
1673607726.0352378,43.870358,16.68043923104746
1673607726.0362449,43.86478,16.671164682582837
1673607726.037253,43.871441,16.66188135140187
1673607726.0382597,43.875816,16.652608998616337
1673607726.0392668,43.880142,16.64333445015172
1673607726.040274,43.89315,16.6340599016871
1673607726.0412807,43.904041,16.624787548901566
1673607726.0422878,43.906036,16.641556725387368
1673607726.043295,43.904449,16.6779949055794
1673607726.0443017,43.891441,16.682531291607056
1673607726.0453088,43.873726,16.685835100381496
1673607726.046316,43.867233,16.693163
1673607726.0473228,43.864708,16.671135613733906
1673607726.0483298,43.877789,16.64583573390558
1673607726.0493379,43.895313,16.650172227651968
1673607726.050345,43.893677,16.62273924892704
1673607726.0513518,43.881104,16.600488918615643
1673607726.0523589,43.871754,16.59698326487077
1673607726.053366,43.874973,16.593477611125895
1673607726.0543728,43.880936,16.589972787317986
1673607726.0553799,43.885914,16.586467133573112
1673607726.056387,43.871513,16.58296147982824
1673607726.0573938,43.871078,16.579456656020334
1673607726.0584009,43.879375,16.57595100227546
1673607726.059408,43.890194,16.572445348530586
1673607726.0604148,43.901108,16.568940524722677
1673607726.0614219,43.900337,16.565434870977807
1673607726.06243,43.899258,16.561925897485068
1673607726.0634367,43.899448,16.55842107367716
1673607726.0644438,43.892765,16.554915419932286
1673607726.065451,43.890987,16.551409766187415
1673607726.0664577,43.888077,16.547904942379507
1673607726.0674648,43.880962,16.544399288634633
1673607726.068472,43.875866,16.54089363488976
1673607726.0694788,43.887646,16.53738881108185
1673607726.0704858,43.882427,16.53388315733698
1673607726.071493,43.871632,16.530377503592106
1673607726.0724998,43.867836,16.526872679784198
1673607726.0735068,43.859852,16.523367026039324
1673607726.0745149,43.855095,16.51985805254659
1673607726.075522,43.855576,16.516352398801715
1673607726.0765288,43.854443,16.512847574993806
1673607726.0775359,43.849998,16.527402231759655
1673607726.078543,43.847256,16.51508094636472
1673607726.0795498,43.855862,16.543039846924177
1673607726.0805569,43.868004,16.548441
1673607726.081564,43.879208,16.564088804482594
1673607726.0825708,43.879543,16.58229999523242
1673607726.0835779,43.86488,16.568721158798283
1673607726.084585,43.853939,16.56653
1673607726.0865989,43.875214,16.51062727523067
1673607726.087607,43.893223,16.508803740433446
1673607726.0886137,43.908463,16.506982362134323
1673607726.0896208,43.901661,16.505160552535582
1673607726.090628,43.899136,16.503338742936844
1673607726.0916348,43.886993,16.50151736463772
1673607726.0926418,43.879349,16.49969555503898
1673607726.093649,43.882137,16.497873745440238
1673607726.0946558,43.895481,16.496052367141118
1673607726.0956628,43.902332,16.494230557542377
1673607726.09667,43.894833,16.494165
1673607726.0976768,43.886948,16.47647907081545
1673607726.0986838,43.894207,16.458264970441004
1673607726.0996919,43.90202,16.493906230329042
1673607726.100699,43.913513,16.476078
1673607726.1017058,43.91851,16.512255
1673607726.1027129,43.913631,16.51200482832618
1673607726.10372,43.90493,16.493785492131614
1673607726.1047268,43.903584,16.47596715241188
1673607726.1057339,43.896828,16.471965270256117
1673607726.106741,43.889542,16.46796338810035
1673607726.1077478,43.885986,16.463962453359873
1673607726.1087549,43.886082,16.459960571204107
1673607726.109762,43.876152,16.43948503890215
1673607726.1107688,43.864422,16.44058098330949
1673607726.1117759,43.856655,16.410467798761612
1673607726.112784,43.849323,16.3663300969591
1673607726.1137908,43.857594,16.364053450184283
1673607726.1147978,43.869324,16.361776264302957
1673607726.115805,43.874397,16.359499078421635
1673607726.1168118,43.859085,16.357222431646814
1673607726.1178188,43.844444,16.35494524576549
1673607726.118826,43.853821,16.352668059884166
1673607726.1198328,43.852715,16.350391413109346
1673607726.1208398,43.858772,16.348114227228024
1673607726.121847,43.877403,16.345837041346698
1673607726.1228538,43.899929,16.34356039457188
1673607726.1238608,43.905724,16.341283208690555
1673607726.1248689,43.905724,16.33900386638321
1673607726.125876,43.902355,16.336726680501883
1673607726.1268828,43.898438,16.334450033727066
1673607726.1278899,43.89856,16.33217284784574
1673607726.128897,43.886372,16.329895661964414
1673607726.1299038,43.884087,16.327619015189597
1673607726.134939,43.878582,16.31623362488948
1673607726.1359458,43.869686,16.313956978114664
1673607726.1369529,43.870743,16.31167979223334
1673607726.137961,43.880455,16.30940044992599
1673607726.1389678,43.892765,16.30712380315117
1673607726.1399748,43.90707,16.304846617269845
1673607726.140982,43.910435,16.302569431388523
1673607726.1419888,43.910244,16.300292784613703
1673607726.1429958,43.910866,16.29801559873238
1673607726.144003,43.910675,16.295738412851055
1673607726.1450098,43.909546,16.293461766076238
1673607726.1460168,43.90332,16.291184580194912
1673607726.147024,43.900818,16.28890739431359
1673607726.1480308,43.89505,16.28663074753877
1673607726.1490378,43.889641,16.284353561657447
1673607726.1500459,43.886272,16.282074219350097
1673607726.151053,43.885048,16.27979703346877
1673607726.1520598,43.879589,16.277520386693954
1673607726.1530669,43.872883,16.27524320081263
1673607726.154074,43.870815,16.272966014931306
1673607726.1550808,43.870262,16.270689368156486
1673607726.1560879,43.881176,16.268412182275164
1673607726.157095,43.873341,16.266134996393838
1673607726.1581018,43.875935,16.26385834961902
1673607726.1591089,43.882572,16.261581163737695
1673607726.160116,43.882019,16.25930397785637
1673607726.1611228,43.88274,16.27477233341272
1673607726.1621299,43.893776,16.308885045779686
1673607726.163138,43.900242,16.297207964200478
1673607726.1641448,43.894329,16.295179
1673607726.1651518,43.8787,16.32777190092879
1673607726.166159,43.863266,16.265597565632458
1673607726.1671658,43.835476,16.275567487601336
1673607726.1681728,43.813335,16.327117074541558
1673607726.16918,43.808022,16.280897685918855
1673607726.1701868,43.817276,16.288241327658973
1673607726.1711938,43.846004,16.300229927310667
1673607726.172201,43.866295,16.31221852696236
1673607726.1732078,43.882668,16.324204288403912
1673607726.1742148,43.905697,16.336192888055606
1673607726.1752229,43.930267,16.348192840547878
1673607726.17623,43.933491,16.36018144019957
1673607726.1772368,43.926495,16.37216720164112
1673607726.1782439,43.919041,16.384155801292813
1673607726.179251,43.904976,16.396144400944507
1673607726.1802578,43.890217,16.40813016238606
1673607726.1812649,43.903126,16.42011876203775
1673607726.182272,43.934139,16.432107361689443
1673607726.1832788,43.939571,16.444093123130994
1673607726.1842859,43.930965,16.456081722782688
1673607726.185293,43.915413,16.39670810729614
1673607726.1862998,43.906059,16.401077090367192
1673607726.187307,43.905216,16.43486253945173
1673607726.188315,43.908031,16.424182186456843
1673607726.1893218,43.899639,16.453494660705772
1673607726.1903288,43.894089,16.457989
1673607726.191336,43.88269,16.474085838379025
1673607726.1923428,43.883797,16.508519987839772
1673607726.1933498,43.892548,16.528614873390556
1673607726.194357,43.891201,16.53820145016519
1673607726.1953638,43.887691,16.54687451534383
1673607726.1963708,43.886562,16.555549634291165
1673607726.197378,43.884712,16.564224753238495
1673607726.1983848,43.887066,16.57289781841714
1673607726.1993918,43.892883,16.58157293736447
1673607726.2003999,43.900723,16.590256271386565
1673607726.201407,43.905315,16.5989313903339
1673607726.2024138,43.904953,16.60760445551254
1673607726.2034209,43.904255,16.616279574459874
1673607726.204428,43.903389,16.624954693407204
1673607726.2054348,43.901493,16.63362775858585
1673607726.2064419,43.899281,16.64230287753318
1673607726.207449,43.892475,16.650977996480513
1673607726.2084558,43.890121,16.659651061659154
1673607726.209463,43.889591,16.66832618060649
1673607726.21047,43.883484,16.677001299553822
1673607726.2114768,43.878387,16.685674364732463
1673607726.2124848,43.878242,16.69435769875456
1673607726.213492,43.879063,16.70303281770189
1673607726.2144988,43.877716,16.710298812350977
1673607726.2155058,43.88084,16.694245579637577
1673607726.216513,43.882069,16.712463749702028
1673607726.2175198,43.88678,16.7240103869814
1673607726.2185268,43.886635,16.66428821316166
1673607726.219534,43.881248,16.742655661740166
1673607726.2205408,43.874928,16.691450712684787
1673607726.2215478,43.864807,16.678757358607534
1673607726.222555,43.850189,16.711252000000002
1673607726.2235618,43.827831,16.711094962366534
1673607726.2245688,43.80064,16.709730092070718
1673607726.2255769,43.764172,16.70836392928409
1673607726.226584,43.747078,16.706999058988274
1673607726.2275908,43.769318,16.70563451181516
1673607726.2285979,43.801434,16.704269641519343
1673607726.229605,43.85276,16.702904771223526
1673607726.2306118,43.885384,16.70154022405041
1673607726.231619,43.893822,16.700175353754595
1673607726.232626,43.917454,16.69881048345878
1673607726.2336328,43.950127,16.697445936285664
1673607726.23464,43.978661,16.696081065989848
1673607726.235647,43.972458,16.69471619569403
1673607726.2366538,43.955029,16.69335164852092
1673607726.2376618,43.95015,16.691985485734293
1673607726.238669,43.947193,16.690620615438476
1673607726.2396758,43.936085,16.68925606826536
1673607726.2406828,43.940727,16.687891197969545
1673607726.24169,43.945148,16.68652632767373
1673607726.2426968,43.941158,16.685161780500614
1673607726.2437038,43.930653,16.683796910204798
1673607726.244711,43.92469,16.68243203990898
1673607726.2457178,43.920677,16.681067492735867
1673607726.2467248,43.916996,16.67970262244005
1673607726.247732,43.907959,16.678337752144234
1673607726.2487388,43.896923,16.67697320497112
1673607726.2497458,43.894642,16.675608334675303
1673607726.2507539,43.892838,16.674242171888675
1673607726.251761,43.886707,16.67287730159286
1673607726.2527678,43.882572,16.671512754419744
1673607726.253775,43.884926,16.670147884123928
1673607726.254782,43.885674,16.66878301382811
1673607726.2557888,43.904137,16.667418466654997
1673607726.256796,43.900723,16.66605359635918
1673607726.257803,43.898872,16.664688726063364
1673607726.2588098,43.899689,16.663324178890253
1673607726.259817,43.891514,16.661959308594437
1673607726.260824,43.894592,16.660594438298617
1673607726.2618308,43.905048,16.659229891125506
1673607726.2628388,43.907261,16.657863728338878
1673607726.263846,43.90226,16.65649885804306
1673607726.2648528,43.896397,16.655134310869947
1673607726.2658598,43.89286,16.65376944057413
1673607726.266867,43.890987,16.652404570278314
1673607726.2678738,43.886925,16.6510400231052
1673607726.2688808,43.878174,16.649675152809383
1673607726.269888,43.868916,16.648310282513567
1673607726.2708948,43.86507,16.646945735340452
1673607726.2719018,43.865383,16.645580865044636
1673607726.272909,43.874878,16.64421599474882
1673607726.2739158,43.883221,16.642851447575705
1673607726.2749228,43.889301,16.64148657727989
1673607726.275931,43.884254,16.64012041449326
1673607726.276938,43.885239,16.638755544197444
1673607726.2779448,43.885456,16.63739099702433
1673607726.278952,43.88839,16.636026126728513
1673607726.279959,43.891563,16.634661256432697
1673607726.2809658,43.896156,16.633296709259586
1673607726.281973,43.900169,16.63193183896377
1673607726.28298,43.901058,16.63056696866795
1673607726.2839868,43.899567,16.62920242149484
1673607726.284994,43.897308,16.627837551199022
1673607726.286001,43.896442,16.626472680903206
1673607726.2870078,43.89072,16.62510813373009
1673607726.2880158,43.880795,16.623741970943463
1673607726.289023,43.891804,16.622377100647647
1673607726.2900298,43.901253,16.621012553474532
1673607726.2910368,43.900002,16.65150788078207
1673607726.292044,43.896324,16.687951663805435
1673607726.2930508,43.893486,16.674933576680072
1673607726.2940578,43.896084,16.686419886272258
1673607726.295065,43.89185,16.656977
1673607726.2960718,43.887596,16.72358689890867
1673607726.2970788,43.892883,16.719824491671453
1673607726.298086,43.90255,16.688415013210797
1673607726.2990928,43.906181,16.65869867453505
1673607726.3000998,43.911854,16.653646807970997
1673607726.301108,43.923225,16.64996574865109
1673607726.302115,43.925606,16.646288171884944
1673607726.3031218,43.920845,16.642611465757234
1673607726.304129,43.911709,16.638933888991087
1673607726.305136,43.910625,16.63525631222494
1673607726.3061428,43.914928,16.63157960609723
1673607726.30715,43.915459,16.627902029331082
1673607726.308157,43.903488,16.62422445256493
1673607726.3091638,43.894112,16.620547746437225
1673607726.310171,43.886539,16.616870169671074
1673607726.311178,43.887356,16.613192592904927
1673607726.3121848,43.884857,16.609515886777217
1673607726.3131928,43.881298,16.605834827457315
1673607726.3142,43.877403,16.602157250691167
1673607726.3152068,43.876827,16.598480544563458
1673607726.3162138,43.877453,16.594802967797307
1673607726.317221,43.883221,16.59112539103116
1673607726.3182278,43.888245,16.58744868490345
1673607726.3192348,43.895241,16.583771108137302
1673607726.320242,43.888317,16.580093531371155
1673607726.3212488,43.880672,16.576416825243445
1673607726.3222558,43.882572,16.572739248477298
1673607726.323263,43.883293,16.56906167171115
1673607726.3242698,43.871944,16.56538496558344
1673607726.3252769,43.873627,16.561707388817293
1673607726.326285,43.883003,16.558026329497388
1673607726.327292,43.887787,16.55434875273124
1673607726.3282988,43.884037,16.55067204660353
1673607726.329306,43.878315,16.546994469837383
1673607726.330313,43.884617,16.543316893071232
1673607726.3313198,43.90036,16.539640186943526
1673607726.332327,43.900387,16.535962610177375
1673607726.333334,43.896347,16.532285033411227
1673607726.3343408,43.886177000000004,16.528608327283518
1673607726.335348,43.875671,16.52493075051737
1673607726.336355,43.878677,16.521253173751223
1673607726.3373618,43.879063,16.517576467623513
1673607726.3383698,43.871826,16.513895408303608
1673607726.339377,43.866081,16.51021783153746
1673607726.3403838,43.8643,16.50654112540975
1673607726.3413908,43.87495,16.502863548643603
1673607726.342398,43.885098,16.499185971877456
1673607726.3434048,43.895073,16.495509265749746
1673607726.3444118,43.91214,16.505721901072704
1673607726.345419,43.921852,16.4888874527897
1673607726.3464258,43.923488999999996,16.48788586981402
1673607726.3474329,43.927216,16.470294876519667
1673607726.34844,43.932095,16.482114958989033
1673607726.3494468,43.940147,16.481977622317597
1673607726.3504539,43.935749,16.463762819070322
1673607726.351462,43.920509,16.445527862660946
1673607726.352469,43.902981,16.42730915951359
1673607726.3534758,43.894497,16.42181
1673607726.354483,43.896492,16.42181
1673607726.35549,43.909786,16.42181
1673607726.3564968,43.903511,16.42181
1673607726.357504,43.901947,16.401790108488317
1673607726.358511,43.907909,16.366499967569894
1673607726.3595178,43.905579,16.363728285926047
1673607726.360525,43.903343,16.360955947952192
1673607726.361532,43.9044,16.358183609978337
1673607726.3625388,43.902645,16.35541192833449
1673607726.3635468,43.901058,16.352636965040585
1673607726.364554,43.902981,16.349864627066726
1673607726.3655608,43.901299,16.347092945422883
1673607726.3665679,43.900314,16.344320607449024
1673607726.367575,43.90041,16.34154826947517
1673607726.3685818,43.898079,16.338776587831326
1673607726.3695889,43.891876,16.336004249857467
1673607726.370596,43.887356,16.333231911883612
1673607726.3716028,43.891396,16.330460230239765
1673607726.3726099,43.887836,16.32768789226591
1673607726.373617,43.886345,16.32491555429205
1673607726.3746238,43.890072,16.32214387264821
1673607726.3756309,43.890747,16.319371534674353
1673607726.376639,43.890793,16.316596571380444
1673607726.377646,43.892284,16.31382423340659
1673607726.3786528,43.896057,16.311052551762742
1673607726.37966,43.905411,16.308280213788887
1673607726.380667,43.912575,16.305507875815028
1673607726.3816738,43.917023,16.302736194171185
1673607726.382681,43.918751,16.299963856197326
1673607726.383688,43.913536,16.29719151822347
1673607726.3846948,43.911541,16.294419836579628
1673607726.385702,43.907284,16.29164749860577
1673607726.386709,43.904255,16.288875160631914
1673607726.3877158,43.90041,16.286103478988068
1673607726.3887239,43.905243,16.283328515694162
1673607726.389731,43.895889,16.280556177720303
1673607726.3907378,43.887669,16.27778449607646
1673607726.3917449,43.885818,16.275012158102605
1673607726.392752,43.879761,16.272239820128746
1673607726.3937588,43.878918,16.269468138484903
1673607726.3947659,43.881203,16.266695800511044
1673607726.395773,43.884857,16.26392346253719
1673607726.3967798,43.888557,16.261151780893343
1673607726.3977869,43.893364,16.258379442919487
1673607726.398794,43.898247,16.255607104945632
1673607726.3998008,43.900578,16.252835423301786
1673607726.4008079,43.9025,16.25006308532793
1673607726.401816,43.907093,16.24728812203402
1673607726.402823,43.90868,16.244515784060166
1673607726.4038298,43.910603,16.24174410241632
1673607726.404837,43.908295,16.25360728278493
1673607726.405844,43.903679,16.220522615256257
1673607726.4068508,43.902454,16.230621365760612
1673607726.407858,43.892334,16.240904
1673607726.408865,43.883511,16.25411330011919
1673607726.4098718,43.87923,16.24566773104435
1673607726.410879,43.878582,16.240904
1673607726.411886,43.87923,16.21373093133047
1673607726.4128928,43.881248,16.191017030750896
1673607726.4139009,43.890915,16.214343903671914
1673607726.414908,43.894543,16.180865344301385
1673607726.4159148,43.89666,16.182651676758045
1673607726.4169219,43.899399,16.129702738197423
1673607726.417929,43.900505,16.10603599188544
1673607726.4189358,43.901829,16.175945835479254
1673607726.4199429,43.903416,16.15104800738975
1673607726.42095,43.905048,16.132368
1673607726.4219568,43.916565,16.118695579876015
1673607726.4229639,43.922646,16.10047437544696
1673607726.423971,43.906204,16.124041941344778
1673607726.4249778,43.896564,16.14641996995708
1673607726.4259849,43.881321,16.136279018593562
1673607726.426993,43.874374,16.13475515226332
1673607726.428,43.880119,16.137791385675023
1673607726.4290068,43.882668,16.140826900281468
1673607726.430014,43.883461,16.14386313369317
1673607726.431021,43.876778,16.146899367104872
1673607726.4320278,43.870983,16.149934881711314
1673607726.433035,43.870598,16.152971115123016
1673607726.434042,43.870285,16.156007348534718
1673607726.4350488,43.879929,16.159042863141163
1673607726.436056,43.895916,16.162079096552866
1673607726.4370627,43.899857,16.16511461115931
1673607726.4380698,43.907043,16.168150844571013
1673607726.4390779,43.915169,16.171189953203747
1673607726.440085,43.914833,16.17422618661545
1673607726.4410918,43.915028,16.177261701221894
1673607726.4420989,43.920002,16.180297934633597
1673607726.443106,43.926735,16.1833341680453
1673607726.4441128,43.923679,16.186369682651744
1673607726.4451199,43.916615,16.189405916063446
1673607726.446127,43.915363,16.19244214947515
1673607726.4471338,43.915916,16.195477664081594
1673607726.4481409,43.915749,16.198513897493296
1673607726.449148,43.910412,16.201550130904998
1673607726.4501548,43.905148,16.20458564551144
1673607726.4511619,43.894592,16.207621878923142
1673607726.45217,43.890816,16.21066098755588
1673607726.453177,43.88858,16.213697220967582
1673607726.4541838,43.893124,16.216732735574027
1673607726.455191,43.896973,16.21976896898573
1673607726.456198,43.901684,16.22280520239743
1673607726.4572048,43.886417,16.225840717003873
1673607726.458212,43.883774,16.22887695041558
1673607726.4592187,43.891441,16.23191246502202
1673607726.4602258,43.897549,16.234948698433723
1673607726.461233,43.904182,16.237984931845425
1673607726.4622397,43.913776,16.240904
1673607726.4632468,43.912239,16.241715989498807
1673607726.4642549,43.908512,16.256076256080117
1673607726.465262,43.899979,16.205828942789033
1673607726.4662688,43.905697,16.222815
1673607726.4672759,43.910675,16.221460622317597
1673607726.468283,43.911926,16.21214244362336
1673607726.4692898,43.904472,16.287155898426324
1673607726.4702969,43.897957,16.20992742060086
1673607726.471304,43.890747,16.260161080760096
1673607726.4723108,43.882309,16.271501407264452
1673607726.4733179,43.8787,16.282844419140936
1673607726.474325,43.881538,16.29418743101742
1673607726.4753318,43.888462,16.305527757521773
1673607726.4763389,43.890987,16.27854390965435
1673607726.477347,43.889591,16.2225193490701
1673607726.478354,43.898365,16.22263850119218
1673607726.4793608,43.912525,16.18137499713945
1673607726.480368,43.917358,16.240904
1673607726.4813747,43.910362,16.240904
1673607726.4823818,43.906445,16.240904
1673607726.483389,43.911709,16.240904
1673607726.4843957,43.917912,16.240904
1673607726.4854028,43.921013,16.240904
1673607726.48641,43.921516,16.240904
1673607726.4874167,43.913944,16.240904
1673607726.4884238,43.909832,16.240904
1673607726.4894319,43.915073,16.240904
1673607726.490439,43.90036,16.240904
1673607726.4914458,43.886154,16.240904
1673607726.4924529,43.883892,16.240904
1673607726.49346,43.88274,16.240904
1673607726.4944668,43.882092,16.240904
1673607726.4954739,43.881443,16.240904
1673607726.5136008,43.8242,16.240904
1673607726.5146089,43.827686,16.240904
1673607726.515616,43.832687,16.240904
1673607726.5166228,43.853481,16.240904
1673607726.5176299,43.886299,16.240904
1673607726.518637,43.923367,16.240904
1673607726.5196438,43.943394,16.240904
1673607726.5206509,43.93676,16.240904
1673607726.521658,43.93837,16.240904
1673607726.5226648,43.953011,16.240904
1673607726.5236719,43.955776,16.240904
1673607726.524679,43.93272,16.240904
1673607726.5256858,43.922695,16.240904
1673607726.5266929,43.911373,16.240904
1673607726.527701,43.910915,16.265580194563665
1673607726.5287077,43.933777,16.28954747818832
1673607726.5297148,43.941544,16.282593472579876
1673607726.530722,43.923611,16.26437508059132
1673607726.5317287,43.914955,16.233315324749643
1673607726.5327358,43.914593000000004,16.2487533318236
1673607726.533743,43.915604,16.272095469241776
1673607726.5347497,43.919403,16.263870451835956
1673607726.5357568,43.907478,16.285692516090585
1673607726.536764,43.898727,16.294044516437744
1673607726.5377707,43.901058,16.29251092998339
1673607726.5387778,43.907429,16.290976980378087
1673607726.5397859,43.919235,16.28944157816899
1673607726.540793,43.922119,16.287907628563687
1673607726.5417998,43.911659,16.286374042109333
1673607726.5428069,43.911156,16.284840092504027
1673607726.543814,43.921997,16.283306142898724
1673607726.5448208,43.923946,16.28177255644437
1673607726.5458279,43.921131,16.280238606839067
1673607726.546835,43.906971,16.278704657233764
1673607726.5478418,43.895554,16.277171070779406
1673607726.5488489,43.892189,16.275637121174103
1673607726.549856,43.889351,16.2741031715688
1673607726.5508628,43.88084,16.272569585114447
1673607726.5518699,43.881466,16.271035635509143
1673607726.552878,43.898365,16.269500233300047
1673607726.5538847,43.899014,16.26796664684569
1673607726.5548918,43.902092,16.266432697240386
1673607726.555899,43.901974,16.264898747635083
1673607726.5569057,43.896877,16.26336516118073
1673607726.5579128,43.897621,16.261831211575426
1673607726.55892,43.890747,16.26029726197012
1673607726.5599267,43.888439,16.258763675515766
1673607726.5609338,43.886059,16.257229725910463
1673607726.561941,43.89024,16.25569577630516
1673607726.5629478,43.895264,16.254162189850803
1673607726.5639548,43.902164,16.2526282402455
1673607726.5649629,43.907261,16.251092838036403
1673607726.56597,43.907238,16.2495588884311
1673607726.5669768,43.909904,16.248025301976746
1673607726.5679839,43.915195,16.246491352371443
1673607726.568991,43.913441,16.24495740276614
1673607726.5699978,43.907551,16.243423816311783
1673607726.575033,43.899326,16.235754431436213
1673607726.5760398,43.897934,16.23422084498186
1673607726.5770469,43.904663,16.232686895376556
1673607726.578055,43.915123,16.23115149316746
1673607726.5790617,43.914112,16.229617906713106
1673607726.5800688,43.908176,16.2280839571078
1673607726.581076,43.910412,16.226550007502496
1673607726.5820827,43.907501,16.225016421048142
1673607726.5830898,43.89447,16.22348247144284
1673607726.584097,43.89185,16.191941502622797
1673607726.5851038,43.893005,16.199795741058654
1673607726.5861108,43.898247,16.222815
1673607726.587118,43.879543,16.180131716261325
1673607726.5881248,43.854202,16.172048806628517
1673607726.5891318,43.849854,16.186636
1673607726.5901399,43.852089,16.186636
1673607726.591147,43.862881,16.1978327200763
1673607726.5921538,43.879086,16.227363825983314
1673607726.5931609,43.871563,16.240276354666857
1673607726.594168,43.883148,16.2392774195172
1673607726.5951748,43.913994,16.238278720857874
1673607726.5961819,43.917023,16.237279785708218
1673607726.597189,43.911518,16.236280850558558
1673607726.5981958,43.922359,16.23528215189923
1673607726.5992029,43.923824,16.234283216749574
1673607726.60021,43.915581,16.233284281599918
1673607726.6012168,43.91909,16.232285582940587
1673607726.6022239,43.924545,16.23128664779093
1673607726.603232,43.92255,16.230286766679956
1673607726.6042387,43.923344,16.22928806802063
1673607726.6052458,43.928345,16.228289132870973
1673607726.606253,43.926998,16.227290197721317
1673607726.6072598,43.929329,16.226291499061986
1673607726.6082668,43.924763,16.22529256391233
1673607726.609274,43.920918,16.224293628762673
1673607726.6102808,43.915413,16.223294930103346
1673607726.6112878,43.909256,16.222295994953686
1673607726.612295,43.912239,16.22129705980403
1673607726.6133018,43.913513,16.220298361144703
1673607726.6143088,43.911037,16.219299425995047
1673607726.6153169,43.903416,16.218299544884072
1673607726.616324,43.90416,16.217300609734416
1673607726.6173308,43.908199,16.216301911075085
1673607726.6183379,43.91053,16.21530297592543
1673607726.619345,43.909328,16.214304040775772
1673607726.6203518,43.912647,16.213305342116445
1673607726.6213589,43.904495,16.212306406966785
1673607726.622366,43.892162,16.21130747181713
1673607726.6233728,43.883846,16.210308773157802
1673607726.6243799,43.881897,16.209309838008146
1673607726.625387,43.884975,16.208310902858486
1673607726.6263938,43.893269,16.20731220419916
1673607726.6274009,43.900818,16.206313269049502
1673607726.628409,43.906467,16.205313387938528
1673607726.6294158,43.910385,16.182275076299476
1673607726.6304228,43.91647,16.150457
1673607726.63143,43.919113,16.165937644815255
1673607726.6324368,43.913944,16.15518468597997
1673607726.6334438,43.90921,16.138255777300905
1673607726.634451,43.907909,16.13605694396757
1673607726.6354578,43.905266,16.129164569725862
1673607726.6364648,43.899929,16.193662447782547
1673607726.637472,43.893799,16.20581242274678
1673607726.6384788,43.897739,16.18447959850592
1673607726.6394858,43.906059,16.179925278550424
1673607726.6404939,43.908031,16.175366645791943
1673607726.641501,43.91452,16.170812325836447
1673607726.6425078,43.923851,16.166259084081698
1673607726.6435149,43.927479,16.161704764126203
1673607726.644522,43.919689,16.157150444170707
1673607726.6455288,43.916229,16.152597202415958
1673607726.6465359,43.917961,16.148042882460462
1673607726.647543,43.907574,16.143488562504967
1673607726.6485498,43.892284,16.138935320750218
1673607726.6495569,43.87608,16.134381000794722
1673607726.650564,43.866222,16.132368
1673607726.6515708,43.865551,16.132368
1673607726.6525779,43.873676,16.132368
1673607726.653586,43.895191,16.14293069933238
1673607726.6545928,43.88488,16.139771769487485
1673607726.6555998,43.879974,16.16480716928946
1673607726.656607,43.887356,16.186636
1673607726.6576138,43.900795,16.164500731998093
1673607726.6586208,43.915123,16.161651669845053
1673607726.659628,43.932217,16.168547
1673607726.6606348,43.945171,16.168547
1673607726.6616418,43.955414,16.168547
1673607726.662649,43.947651,16.168547
1673607726.6636558,43.941326,16.168547
1673607726.6646628,43.938873,16.168547
1673607726.6656709,43.926975,16.168547
1673607726.666678,43.918201,16.168547
1673607726.6676848,43.914955,16.168547
1673607726.6686919,43.911854,16.168547
1673607726.669699,43.91029,16.168547
1673607726.6707058,43.916035,16.168547
1673607726.6717129,43.91267,16.168547
1673607726.67272,43.902668,16.168547
1673607726.6737268,43.900482,16.168547
1673607726.6747339,43.901493,16.168547
1673607726.675741,43.905651,16.168547
1673607726.6767478,43.907429,16.168547
1673607726.6777549,43.910339,16.168547
1673607726.678763,43.910339,16.168547
1673607726.6797698,43.919064,16.168547
1673607726.6807768,43.926327,16.168547
1673607726.681784,43.929161,16.168547
1673607726.6827908,43.921879,16.168547
1673607726.6837978,43.920555,16.168547
1673607726.684805,43.920868,16.168547
1673607726.6858118,43.927864,16.168547
1673607726.6868188,43.91832,16.168547
1673607726.687826,43.909184,16.168547
1673607726.6888328,43.906948,16.168547
1673607726.6898398,43.899979,16.168547
1673607726.6908479,43.898079,16.168547
1673607726.691855,43.899689,16.168547
1673607726.6928618,43.894112,16.168547
1673607726.6938689,43.895241,16.168547
1673607726.694876,43.900024,16.168547
1673607726.6958828,43.897476,16.168547
1673607726.6968899,43.900578,16.168547
1673607726.697897,43.899689,16.168547
1673607726.6989038,43.897404,16.168547
1673607726.6999109,43.889687,16.168547
1673607726.700918,43.878967,16.168547
1673607726.7019248,43.86459,16.10032305865522
1673607726.702932,43.853027,16.11337285550787
1673607726.70394,43.86322,16.096945568295588
1673607726.7049468,43.884975,16.13109105007153
1673607726.7059538,43.897453,16.062040964234622
1673607726.706961,43.894642,16.113140203624226
1673607726.7079678,43.896156,16.114279
1673607726.7089748,43.895794,16.04243361802575
1673607726.709982,43.893871,16.023827
1673607726.7109888,43.893101,16.034754203795536
1673607726.7119958,43.90036,16.045683995136372
1673607726.713003,43.910099,16.056613786477207
1673607726.7140098,43.919643,16.067540990272743
1673607726.7150168,43.922405,16.079352693848353
1673607726.7160249,43.920315,16.11350230472103
1673607726.717032,43.915604,16.09305944759556
1673607726.7180388,43.922092,16.085560662828946
1673607726.7190459,43.942482,16.023827
1673607726.720053,43.945896,16.025111987365914
1673607726.732138,43.90868,16.01213022126194
1673607726.7331448,43.914257,16.008453147372474
1673607726.7341518,43.909451,16.004775202757486
1673607726.735159,43.909279,16.001097258142494
1673607726.7361658,43.909088,15.99742018425303
1673607726.7371728,43.908463,15.99374223963804
1673607726.73818,43.909328,15.990064295023052
1673607726.7391868,43.915749,15.986387221133585
1673607726.7401938,43.921589,15.982709276518596
1673607726.7412019,43.923561,15.97902784900151
1673607726.742209,43.92255,15.975349904386519
1673607726.7432158,43.919716,15.971672830497054
1673607726.7442229,43.920364,15.967994885882064
1673607726.74523,43.915676,15.964316941267073
1673607726.7462368,43.913609,15.960639867377608
1673607726.747244,43.909016,15.95696192276262
1673607726.748251,43.907982,15.95328397814763
1673607726.7492578,43.903824,15.949606904258165
1673607726.750265,43.891804,15.945928959643174
1673607726.751272,43.889904,15.942251015028186
1673607726.7522788,43.892956,15.938573941138719
1673607726.7532868,43.899689,15.934892513621632
1673607726.754294,43.893871,15.931214569006643
1673607726.7553008,43.90041,15.927537495117177
1673607726.7563078,43.906685,15.923859550502188
1673607726.757315,43.911251,15.920181605887198
1673607726.7583218,43.915123,15.916504531997733
1673607726.7593288,43.917023,15.912826587382742
1673607726.760336,43.923126,15.909148642767754
1673607726.7613428,43.928104,15.905471568878289
