measure_time,emg_ch_1,grip_force_inter
1673607822.734125,42.626621,-1.270335
1673607822.735132,42.630085,-1.2341494945568987
1673607822.736139,42.634819,-1.2330562879479292
1673607822.737146,42.638618,-1.2319633401473429
1673607822.738153,42.636311,-1.2308701335383734
1673607822.739161,42.63958,-1.229775891695873
1673607822.740168,42.643883,-1.2286826850869037
1673607822.741175,42.644341,-1.2275897372863172
1673607822.742182,42.639843,-1.2264965306773479
1673607822.743189,42.632153,-1.2254033240683784
1673607822.744196,42.622341,-1.224310376267792
1673607822.745203,42.620972,-1.2232171696588225
1673607822.74621,42.617462,-1.2221239630498533
1673607822.747217,42.614456,-1.2210310152492667
1673607822.748224,42.612606,-1.2199378086402974
1673607822.749231,42.613232000000004,-1.2188446020313282
1673607822.751246,42.614552,-1.2166574123882412
1673607822.752253,42.618519,-1.2155642057792717
1673607822.75326,42.624699,-1.2144712579786854
1673607822.754267,42.630348,-1.213378051369716
1673607822.755274,42.633064,-1.2122848447607466
1673607822.756281,42.634987,-1.2111918969601603
1673607822.757288,42.635708,-1.2100986903511908
1673607822.758295,42.639988,-1.2090054837422215
1673607822.759302,42.642513,-1.207912535941635
1673607822.760309,42.641071,-1.2068193293326657
1673607822.761316,42.631741,-1.2057261227236964
1673607822.762323,42.624889,-1.2046331749231098
1673607822.76333,42.611477,-1.2035399683141406
1673607822.764338,42.609119,-1.20244572647164
1673607822.765345,42.614674,-1.2013525198626707
1673607822.766352,42.61359,-1.2002595720620841
1673607822.767359,42.61227,-1.1991663654531148
1673607822.768366,42.615925,-1.1980731588441456
1673607822.769373,42.614311,-1.196980211043559
1673607822.77038,42.613663,-1.1958870044345897
1673607822.771387,42.615517,-1.1947937978256205
1673607822.772394,42.619099,-1.193700850025034
1673607822.773401,42.623016,-1.1926076434160646
1673607822.774408,42.629097,-1.1915144368070953
1673607822.775415,42.6315,-1.1904214890065088
1673607822.77743,42.632343,-1.188234040555039
1673607822.778437,42.629627,-1.1871410927544523
1673607822.779444,42.632221,-1.186047886145483
1673607822.780451,42.630253,-1.1849546795365138
1673607822.781458,42.627296,-1.1838617317359272
1673607822.782465,42.624409,-1.182768525126958
1673607822.783472,42.62138,-1.1816753185179887
1673607822.784479,42.617199,-1.1805823707174021
1673607822.785486,42.611645,-1.1733510176442536
1673607822.786493,42.607029,-1.161792
1673607822.7875,42.600440999999996,-1.161792
1673607822.788507,42.596764,-1.1479729356223176
1673607822.789515,42.600201,-1.1467825293276108
1673607822.790522,42.605537,-1.1439585451728247
1673607822.791529,42.606499,-1.0967375655698617
1673607822.792536,42.613304,-1.107525
1673607822.793543,42.620682,-1.0923950252681764
1673607822.79455,42.629387,-1.0677301322301713
1673607822.795557,42.637077,-1.059175778997985
1673607822.796564,42.640446,-1.0506214257657984
1673607822.797571,42.631767,-1.042069097711934
1673607822.798578,42.631599,-1.0335147444797474
1673607822.799585,42.626839,-1.024960391247561
1673607822.800592,42.622726,-1.0164080631936967
1673607822.8016,42.620541,-1.0078456092482222
1673607822.802607,42.617893,-0.9992912560160356
1673607822.803614,42.615517,-0.9907389279621712
1673607822.804621,42.614891,-0.9821845747299848
1673607822.805628,42.610588,-0.9736302214977983
1673607822.806635,42.608349,-0.9650778934439339
1673607822.807642,42.606861,-0.9565235402117475
1673607822.808649,42.604816,-0.947969186979561
1673607822.809656,42.609673,-0.9394168589256965
1673607822.810663,42.612366,-0.93086250569351
1673607822.81167,42.612724,-0.9223081524613236
1673607822.812677,42.614311,-0.9137558244074592
1673607822.813684,42.614937,-0.9052014711752727
1673607822.814692,42.62138,-0.8966390172297982
1673607822.815699,42.623615,-0.8880846639976117
1673607822.816706,42.622608,-0.8795323359437472
1673607822.817713,42.619579,-0.8709779827115608
1673607822.81872,42.612389,-0.8624236294793743
1673607822.819727,42.604218,-0.8538713014255099
1673607822.820734,42.595562,-0.8453169481933235
1673607822.821741,42.58955,-0.836762594961137
1673607822.822748,42.58847,-0.8282102669072725
1673607822.823755,42.595032,-0.8196559136750861
1673607822.824762,42.603592,-0.8111015604428996
1673607822.825769,42.59787,-0.8025492323890352
1673607822.826777,42.591042,-0.7939867784435606
1673607822.827784,42.586834,-0.7854324252113742
1673607822.828791,42.589405,-0.7768800971575097
1673607822.829798,42.59306,-0.7683257439253233
1673607822.830805,42.58419,-0.7597713906931368
1673607822.831812,42.59626,-0.7512190626392724
1673607822.832819,42.605705,-0.742664709407086
1673607822.833826,42.612797,-0.7341103561748994
1673607822.834833,42.618328,-0.725558028121035
1673607822.83584,42.623497,-0.7170036748888486
1673607822.836847,42.63316,-0.7084493216566621
1673607822.837854,42.642609,-0.6998969936027977
1673607822.838861,42.646358,-0.6916846836588851
1673607822.839869,42.65131,-0.709541
1673607822.840876,42.655399,-0.71106782546495
1673607822.841883,42.650471,-0.763808
1673607822.84289,42.635036,-0.7630489003338102
1673607822.843897,42.625755,-0.7439420166905103
1673607822.844904,42.621887,-0.7105543289630513
1673607822.845911,42.61359,-0.724213547925608
1673607822.846918,42.606258,-0.6746236022889843
1673607822.847925,42.602749,-0.6927773868431002
1673607822.848932,42.599792,-0.7101099999243856
1673607822.8499389,42.599815,-0.7274385096408318
1673607822.850946,42.60157,-0.7447711227221172
1673607822.851954,42.602604,-0.694001022174535
1673607822.852961,42.605873,-0.6740797427890346
1673607822.853968,42.610706,-0.7258311862184073
1673607822.854975,42.619167,-0.6923922484501669
1673607822.855982,42.627487,-0.6559476151645207
1673607822.856989,42.63126,-0.655266
1673607822.857996,42.636791,-0.6192691487839771
1673607822.859003,42.635685,-0.6157920603687909
1673607822.86001,42.631935,-0.6124804369896342
1673607822.861017,42.631477,-0.60916802942308
1673607822.862024,42.631332,-0.6058556218565259
1673607822.863031,42.640469,-0.6025439984773692
1673607822.864038,42.624989,-0.599231590910815
1673607822.865046,42.613159,-0.5959160465946713
1673607822.866053,42.609264,-0.5926036390281172
1673607822.86706,42.608521,-0.5892920156489604
1673607822.868067,42.607388,-0.5859796080824062
1673607822.869074,42.606213,-0.5826672005158521
1673607822.870081,42.6059,-0.5793555771366954
1673607822.871088,42.607868,-0.5760431695701412
1673607822.8720949,42.608734,-0.5727315461909844
1673607822.8751159,42.592388,-0.5627951076787194
1673607822.876123,42.590031,-0.5594827001121653
1673607822.877131,42.593159,-0.5561671557960216
1673607822.878138,42.600754,-0.5528547482294675
1673607822.879145,42.603951,-0.5495431248503108
1673607822.880152,42.608448,-0.5462307172837566
1673607822.881159,42.611355,-0.5429183097172025
1673607822.882166,42.611668,-0.5396066863380456
1673607822.883173,42.615898,-0.5362942787714916
1673607822.88418,42.615204,-0.5329818712049375
1673607822.885187,42.609119,-0.5296702478257806
1673607822.886194,42.602821,-0.5263578402592265
1673607822.887201,42.607533,-0.5230454326926723
1673607822.888208,42.611595,-0.5197338093135156
1673607822.889215,42.610394,-0.5164214017469615
1673607822.890223,42.607533,-0.5131058574308178
1673607822.89123,42.610226,-0.5097934498642637
1673607822.892237,42.615517,-0.506481826485107
1673607822.893244,42.618496,-0.5031694189185527
1673607822.8942509,42.618641,-0.499857795539396
1673607822.895258,42.630085,-0.49654538797284187
1673607822.896265,42.636669,-0.4932329804062877
1673607822.8972719,42.633427,-0.489921357027131
1673607822.898279,42.634483,-0.48660894946057687
1673607822.899286,42.636574,-0.4832965418940227
1673607822.9002929,42.632874,-0.4799849185148659
1673607822.9013,42.626308,-0.4766725109483118
1673607822.902308,42.624336,-0.457705284624553
1673607822.903315,42.622944,-0.4201
1673607822.904322,42.617893,-0.42590538721983784
1673607822.905329,42.608952,-0.39518276673180264
1673607822.906336,42.603111,-0.41930910332193455
1673607822.907343,42.603062,-0.4015894984119228
1673607822.90835,42.600704,-0.37183450146699265
1673607822.909357,42.596741,-0.365824
1673607822.910364,42.600082,-0.383913
1673607822.911371,42.601933,-0.3776660350835322
1673607822.912378,42.602654,-0.3530486976633285
1673607822.913385,42.607918,-0.33615717759237185
1673607822.914392,42.618568,-0.3444160944311989
1673607822.9154,42.630878,-0.33529826938578566
1673607822.9164069,42.63364,-0.3261912270095368
1673607822.917414,42.63398,-0.31708202809945507
1673607822.918421,42.625851,-0.3079728291893733
1673607822.9194279,42.618641,-0.2988657868131244
1673607822.920435,42.622005,-0.2897565879030427
1673607822.921442,42.625057,-0.28064738899296093
1673607822.9224489,42.620995,-0.2715403466167121
1673607822.923456,42.61203,-0.26243114770663034
1673607822.924463,42.610561,-0.25332194879654857
1673607822.9254699,42.607124,-0.24421490642029975
1673607822.926477,42.598663,-0.23510570751021798
1673607822.927485,42.599144,-0.22598788246480472
1673607822.928492,42.607269,-0.21687868355472298
1673607822.929499,42.61768,-0.2077716411784741
1673607822.930506,42.6134,-0.1986624422683924
1673607822.931513,42.614891,-0.18955324335831064
1673607822.93252,42.610394,-0.18044620098206177
1673607822.933527,42.614746,-0.17133700207198002
1673607822.934534,42.612965,-0.16222780316189828
1673607822.935541,42.602558,-0.15312076078564943
1673607822.936548,42.594334,-0.14401156187556768
1673607822.937555,42.587627,-0.1349023629654859
1673607822.938562,42.585705,-0.12579532058923704
1673607822.939569,42.583588,-0.11668612167915529
1673607822.940577,42.585922,-0.10756829663374204
1673607822.9415839,42.590679,-0.09846125425749316
1673607822.942591,42.597099,-0.08935205534741147
1673607822.943598,42.599262,-0.0802428564373297
1673607822.9446049,42.595081,-0.07113581406108083
1673607822.945612,42.595295,-0.062026615150999054
1673607822.946619,42.598663,-0.052917416240917337
1673607822.9476259,42.604313,-0.04381037386466846
1673607822.948633,42.608566,-0.034701174954586744
1673607822.94964,42.615803,-0.02559197604450497
1673607822.9506469,42.624817,-0.016484933668256152
1673607822.951654,42.62994,-0.007375734758174379
1673607822.952662,42.632008,0.0017420902872389288
1673607822.953669,42.62727,0.010851289197320646
1673607822.954676,42.632969,0.01995833157356952
1673607822.955683,42.631527,0.029067530483651238
1673607822.95669,42.629219,0.02013489402238628
1673607822.957697,42.630108,0.014062
1673607822.958704,42.625107,0.0017783872198378625
1673607822.959711,42.616886,-0.01643704576877235
1673607822.960718,42.615177,-0.009582229375298044
1673607822.961725,42.613689,0.021305625655698622
1673607822.962732,42.620033,0.006574626460071512
1673607822.963739,42.609142,0.02180606580829757
1673607822.964746,42.609264,0.03216
1673607822.965754,42.605106,0.03451590932612145
1673607822.9667609,42.599697,0.037769344605457895
1673607822.967768,42.598206,0.04102355029333788
1673607822.968775,42.596378,0.04427775598121786
1673607822.9697819,42.604023,0.04753119126055431
1673607822.970789,42.612534,0.05078539694843429
1673607822.971796,42.61573,0.05403960263631427
1673607822.9728029,42.613735,0.05729303791565073
1673607822.97381,42.620922,0.060547243603530705
1673607822.974817,42.620972,0.06380144929141068
1673607822.9758239,42.619888,0.06705488457074713
1673607822.976831,42.624409,0.07030909025862711
1673607822.977839,42.62537,0.07356637758068123
1673607822.978846,42.626476,0.07682058326856121
1673607822.979853,42.627705,0.08007401854789767
1673607822.98086,42.627056,0.08332822423577764
1673607822.981867,42.620541,0.08658242992365763
1673607822.982874,42.611115,0.08983586520299408
1673607822.983881,42.602772,0.09309007089087407
1673607822.984888,42.592628,0.09634427657875402
1673607822.985895,42.587437,0.09959771185809049
1673607822.986902,42.586906,0.10285191754597048
1673607822.987909,42.588757,0.11341816881258941
1673607822.988916,42.594048,0.122605
1673607822.989923,42.596981,0.15918473031026253
1673607822.990931,42.600513,0.18567051502145923
1673607822.9919379,42.607006,0.16745402979737783
1673607822.992945,42.611595,0.1778678065745593
1673607822.993952,42.611523,0.20464049164677806
1673607822.9949589,42.610588,0.2326615253873659
1673607822.995966,42.626431,0.2293985636017151
1673607822.996973,42.626621,0.21828045357786616
1673607822.9979799,42.622509,0.2277521883112548
1673607822.998987,42.624409,0.2372261659370738
1673607822.999994,42.628353,0.24670014356289283
1673607823.001001,42.6259,0.25617187829628146
1673607823.002008,42.617126,0.26564585592210044
1673607823.003016,42.609505,0.2751288051176409
1673607823.004023,42.606884,0.2846027827434599
1673607823.00503,42.603062,0.29407451747684854
1673607823.006037,42.59782,0.30354849510266757
1673607823.007044,42.599262,0.31302247272848654
1673607823.008051,42.598446,0.3224942074618752
1673607823.009058,42.597363,0.3319681850876942
1673607823.010065,42.597294,0.34144216271351324
1673607823.011072,42.599216,0.3509138974469018
1673607823.012079,42.600491,0.36038787507272085
1673607823.013086,42.600754,0.3698618526985399
1673607823.014093,42.60186,0.3793335874319285
1673607823.0151,42.605034,0.3888075650577475
1673607823.016108,42.610176,0.39829051425328793
1673607823.0171149,42.611622,0.40776224898667657
1673607823.018122,42.611935,0.4172362266124956
1673607823.019129,42.610706,0.42671020423831463
1673607823.0201359,42.606861,0.4361819389717032
1673607823.021143,42.59919,0.44565591659752224
1673607823.02215,42.592438,0.4084857506549178
1673607823.023157,42.586235,0.4474794665871122
1673607823.024164,42.575993,0.45280916332856463
1673607823.025171,42.568829,0.43458723742550653
1673607823.026178,42.563324,0.4714308311874106
1673607823.027185,42.562313,0.4288345419647115
1673607823.028193,42.563442,0.46819571990464837
1673607823.0292,42.579624,0.47026038637446405
1673607823.030207,42.598087,0.480607561097852
1673607823.031214,42.597363,0.480873825982686
1673607823.032221,42.610947,0.47640448017080017
1673607823.033228,42.622559,0.47193619244267665
1673607823.034235,42.631428,0.46746684663079086
1673607823.035242,42.636406,0.5069769628040057
1673607823.036249,42.624096,0.49324205411203814
1673607823.037256,42.615032,0.5258164363376252
1673607823.038263,42.620178,0.5450630766166485
1673607823.03927,42.617317,0.5534111195120376
1673607823.040277,42.609673,0.5617611392113327
1673607823.041285,42.608303,0.5701190661262523
1673607823.0422919,42.606018,0.5784671090216414
1673607823.043299,42.599216,0.5868171287209366
1673607823.044306,42.596088,0.5951671484202318
1673607823.045313,42.594528,0.6035151913156208
1673607823.04632,42.591785,0.6118652110149161
1673607823.047327,42.589718,0.6202152307142113
1673607823.048334,42.583469,0.6285632736096003
1673607823.049341,42.580345,0.6369132933088955
1673607823.050348,42.583782,0.6452633130081906
1673607823.051355,42.589577,0.6536113559035798
1673607823.052362,42.592026,0.6619613756028749
1673607823.05337,42.594864,0.6703193025177945
1673607823.054377,42.606068,0.6786693222170896
1673607823.055384,42.613518,0.6870173651124787
1673607823.056391,42.623688,0.6953673848117738
1673607823.057398,42.62804,0.703717404511069
1673607823.058405,42.626141,0.7120654474064582
1673607823.059412,42.617294,0.7204154671057533
1673607823.060419,42.60799,0.7287654868050485
1673607823.061426,42.609528,0.7371135297004376
1673607823.062433,42.618279,0.7454635493997328
1673607823.06344,42.604431,0.753813569099028
1673607823.064447,42.594501,0.762161611994417
1673607823.065454,42.58955,0.7705116316937122
1673607823.066462,42.588806,0.7788695586086317
1673607823.067469,42.589119,0.7872176015040208
1673607823.068476,42.589863,0.795567621203316
1673607823.069483,42.590008,0.8039176409026112
1673607823.07049,42.590897,0.8122656837980002
1673607823.071497,42.595947,0.8206157034972954
1673607823.072504,42.605465,0.8289657231965906
1673607823.073511,42.611404,0.8373137660919797
1673607823.074518,42.613953,0.8456637857912749
1673607823.075525,42.613037,0.85401380549057
1673607823.076532,42.612797,0.8623618483859592
1673607823.077539,42.615032,0.8707118680852544
1673607823.078547,42.613495,0.8790697950001738
1673607823.079554,42.618568,0.887419814699469
1673607823.080561,42.622295,0.8957678575948581
1673607823.081568,42.615585,0.9041178772941533
1673607823.082575,42.60532,0.9124678969934484
1673607823.083582,42.59626,0.9208159398888376
1673607823.084589,42.591164,0.9291659595881328
1673607823.085596,42.590729,0.9385252446351932
1673607823.086603,42.584309,0.956739323557463
1673607823.08761,42.578781,0.968605578545888
1673607823.088617,42.578251,0.934419205531712
1673607823.089624,42.579838,0.9233087467811159
1673607823.090631,42.586403,0.959745530758226
1673607823.091639,42.587364,0.9882857206197854
1673607823.092646,42.588612,0.9700753245112065
1673607823.093653,42.595779,0.9576450674773486
1673607823.09466,42.611935,0.9745403456187987
1673607823.095667,42.632248,0.9847836545320462
1673607823.096674,42.620731,0.9950293890453205
1673607823.097681,42.611115,1.0052751235585948
1673607823.098688,42.612103,1.0155184324718423
1673607823.099695,42.613712,1.0257641669851167
1673607823.100702,42.60936,1.036009901498391
1673607823.101709,42.595848,1.0462532104116384
1673607823.102716,42.589165,1.056498944924913
1673607823.103724,42.591209,1.0667543818382945
1673607823.104731,42.586716,1.0770001163515688
1673607823.105738,42.584068,1.0872434252648164
1673607823.106745,42.587917,1.0974891597780907
1673607823.107752,42.59621,1.107734894291365
1673607823.108759,42.605732,1.1160776588796186
1673607823.109766,42.609119,1.0839837789699571
1673607823.110773,42.606354,1.136646758941345
1673607823.11178,42.608181,1.1559892598331347
1673607823.112787,42.611042,1.189925
1673607823.113794,42.608349,1.1913008681449688
1673607823.116816,42.60965,1.2062413297567953
1673607823.117823,42.620636,1.1908145626518052
1673607823.11883,42.631069,1.1993543641091358
1673607823.119837,42.625229,1.2078941655664663
1673607823.120844,42.610706,1.2164319452904975
1673607823.121851,42.602581,1.224971746747828
1673607823.122858,42.596809,1.2335115482051586
1673607823.123865,42.59573,1.2420493279291898
1673607823.124872,42.590969,1.2505891293865203
1673607823.125879,42.584694,1.259128930843851
1673607823.126886,42.587963,1.267666710567882
1673607823.127893,42.585514,1.2762065120252126
1673607823.128901,42.593254,1.2847544004157414
1673607823.129908,42.598927,1.2932942018730722
1673607823.130915,42.596115,1.3018319815971031
1673607823.131922,42.604794,1.310371783054434
1673607823.132929,42.607006,1.3189115845117645
1673607823.133936,42.60561,1.3274493642357954
1673607823.134943,42.602318,1.335989165693126
1673607823.13595,42.599144,1.3445289671504568
1673607823.136957,42.607342,1.3530667468744877
1673607823.137964,42.613232000000004,1.3616065483318183
1673607823.138971,42.609985,1.370146349789149
1673607823.139978,42.608181,1.37868412951318
1673607823.140986,42.608974,1.387232017903709
1673607823.141993,42.607174,1.3957718193610396
1673607823.143,42.602676,1.4043095990850707
1673607823.144007,42.600971,1.4128494005424013
1673607823.145014,42.596836,1.4213892019997318
1673607823.146021,42.593685,1.429926981723763
1673607823.147028,42.590729,1.4384667831810936
1673607823.148035,42.588856,1.4470065846384241
1673607823.149042,42.591763,1.455544364362455
1673607823.150049,42.590919,1.4792376080114449
1673607823.151056,42.593567,1.5033131440152598
1673607823.152063,42.593422,1.4980855575685341
1673607823.15307,42.592964,1.5463689871244635
1673607823.154078,42.594456,1.5567916595135909
1673607823.155085,42.590801,1.5469180143027412
1673607823.156092,42.589287,1.583345775870291
1673607823.157099,42.593399,1.6128902799237006
1673607823.158106,42.588326,1.624087
1673607823.159113,42.583347,1.6332747636811598
1673607823.16012,42.585201,1.656710218867886
1673607823.161127,42.587387,1.6801456740546121
1673607823.162134,42.596569,1.7035755810748643
1673607823.163141,42.608761,1.7270110362615905
1673607823.164148,42.597027,1.7504464914483169
1673607823.165155,42.594769,1.7738763984685688
1673607823.166163,42.597195,1.7973340463211915
1673607823.16717,42.601017,1.820769501507918
1673607823.168177,42.601765,1.8441994085281699
1673607823.169184,42.603832,1.8676348637148963
1673607823.170191,42.604912,1.8910703189016225
1673607823.171198,42.606716,1.9145002259218744
1673607823.172205,42.607773,1.9379356811086008
1673607823.173212,42.610756,1.961371136295327
1673607823.174219,42.61417,1.9848010433155792
1673607823.175226,42.612293,2.0082364985023053
1673607823.176233,42.610489,2.0316719536890315
1673607823.17724,42.611141,2.0551018607092835
1673607823.178247,42.615105,2.0785373158960097
1673607823.179255,42.614651,2.1019949637486324
1673607823.180262,42.610996,2.125430418935359
1673607823.183283,42.597485,2.1957312363290633
1673607823.18429,42.593277,2.2191611433493152
1673607823.185297,42.587509,2.242596598536042
1673607823.186304,42.580944,2.266032053722768
1673607823.187311,42.584431,2.28946196074302
1673607823.188318,42.586281,2.312897415929746
1673607823.189325,42.59193,2.3363328711164724
1673607823.190332,42.597172,2.3597627781367247
1673607823.19134,42.598614,2.3832204259893475
1673607823.192347,42.594528,2.4066558811760737
1673607823.193354,42.599289,2.4300857881963256
1673607823.194361,42.603012,2.4535212433830518
1673607823.195368,42.602821,2.4769566985697784
1673607823.196375,42.622318,2.5003866055900303
1673607823.197382,42.618065,2.5238220607767565
1673607823.198389,42.615082,2.5472575159634827
1673607823.199396,42.613277,2.5706874229837346
1673607823.200403,42.613758,2.594122878170461
1673607823.20141,42.611763,2.617558333357187
1673607823.202417,42.608902,2.6409882403774394
1673607823.203424,42.603664,2.6644236955641656
1673607823.204432,42.595417,2.6878813434167883
1673607823.205439,42.59436,2.712325697020262
1673607823.206446,42.587677,2.745675
1673607823.207453,42.582916,2.750669530758226
1673607823.20846,42.581497,2.803530409058403
1673607823.209467,42.576931,2.843788111587983
1673607823.210474,42.571136,2.898262015736767
1673607823.211481,42.557072,2.8288984174016685
1673607823.212488,42.54147,2.908485
1673607823.213495,42.542408,2.906061056747735
1673607823.214502,42.547409,2.8916903358917025
1673607823.215509,42.555149,2.9009234110110595
1673607823.216517,42.56599,2.9101674180213934
1673607823.217524,42.575127,2.919402679518946
1673607823.218531,42.578445,2.926574
1673607823.219538,42.595875,2.926574
1673607823.220545,42.615948,2.9395508355184745
1673607823.221552,42.643257,2.980849
1673607823.222559,42.660854,2.994577489985694
1673607823.223566,42.666096,3.0492295609058404
1673607823.224573,42.651192,3.0845576788268954
1673607823.22558,42.620804,3.0770249845326263
1673607823.226587,42.598518,3.0980897840677106
1673607823.227594,42.588516,3.1191495966710874
1673607823.228601,42.599216,3.140214396206172
1673607823.229609,42.587845,3.1612991434680895
1673607823.230616,42.582413,3.182363943003174
1673607823.231623,42.589024,3.2034237556065506
1673607823.23263,42.600105,3.2244885551416353
1673607823.233637,42.613064,3.24555335467672
1673607823.234644,42.623039,3.266613167280097
1673607823.235651,42.619843,3.287677966815181
1673607823.236658,42.615204,3.308742766350266
1673607823.237665,42.610516,3.3298025789536427
1673607823.238672,42.609409,3.3508673784887275
1673607823.239679,42.610828,3.371932178023812
1673607823.240686,42.600609,3.3929919906271886
1673607823.241694,42.595177,3.414076737889106
1673607823.242701,42.59568,3.4351415374241907
1673607823.243708,42.593132,3.456201350027567
1673607823.244715,42.585514,3.477266149562652
1673607823.245722,42.593639,3.4983309490977366
1673607823.246729,42.597942,3.5193907617011133
1673607823.247736,42.59626,3.5404555612361976
1673607823.248743,42.593807,3.5615203607712824
1673607823.24975,42.593662,3.582580173374659
1673607823.250757,42.595921,3.603644972909744
1673607823.251764,42.599865,3.6247097724448287
1673607823.252771,42.596859,3.645769585048205
1673607823.253778,42.589119,3.66683438458329
1673607823.254786,42.590992,3.687919131845207
1673607823.255793,42.599697,3.708983931380292
1673607823.2568,42.604263,3.7300437439836687
1673607823.257807,42.606236,3.7496927522651404
1673607823.258814,42.607006,3.740337711492608
1673607823.259821,42.611958,3.7598068927038626
1673607823.260828,42.618015,3.804345539928486
1673607823.261835,42.620682,3.8225656940867907
1673607823.262842,42.609074,3.8504755460181213
1673607823.263849,42.590153,3.867262
1673607823.264856,42.582699,3.907067926323319
1673607823.265863,42.575943,3.929547221268479
1673607823.266871,42.565968,3.938566764682508
1673607823.267878,42.56955,3.968931023762219
1673607823.268885,42.579887,3.9992880943336244
1673607823.269892,42.573444,4.033180979499404
1673607823.270899,42.551205,4.048161
1673607823.271906,42.548008,4.091573098235575
1673607823.272913,42.550102,4.109544933237959
1673607823.27392,42.552143,4.26240161237928
1673607823.274927,42.558369,4.207234856389987
1673607823.275934,42.572964,4.235763147562582
1673607823.276941,42.58609,4.3017184793678664
1673607823.277948,42.591858,4.2536358674296615
1673607823.278955,42.598736,4.273944907875086
1673607823.279963,42.616692,4.315552199019784
1673607823.28097,42.622246,4.3571201265966994
1673607823.281977,42.617439,4.398678213281671
1673607823.282984,42.619217,4.440246140858587
1673607823.283991,42.6134,4.4818140684355035
1673607823.284998,42.604286,4.523372155120474
1673607823.286005,42.595562,4.56494008269739
1673607823.287012,42.590679,4.606508010274307
1673607823.288019,42.585442,4.648066096959277
1673607823.289026,42.585224,4.689634024536193
1673607823.290033,42.586136,4.73120195211311
1673607823.29104,42.584934,4.77276003879808
1673607823.292048,42.591713,4.814367329942778
1673607823.293055,42.599407,4.855935257519694
1673607823.294062,42.605873,4.897493344204665
1673607823.295069,42.616764,4.939061271781581
1673607823.296076,42.629169,4.980629199358497
1673607823.297083,42.623016,5.022187286043468
1673607823.29809,42.61417,5.063755213620384
1673607823.299097,42.617798,5.1053231411973
1673607823.300104,42.62215,5.146881227882271
1673607823.301111,42.622414,5.188449155459187
1673607823.302118,42.623329,5.2300170830361035
1673607823.303125,42.621094,5.271575169721074
1673607823.304132,42.61013,5.31314309729799
1673607823.30514,42.602245,5.354750388442688
1673607823.306147,42.596115,5.396318316019604
1673607823.307154,42.588638,5.437876402704575
1673607823.308161,42.564671,5.479444330281491
1673607823.309168,42.551952,5.521012257858407
1673607823.310175,42.554283,5.562570344543378
1673607823.311182,42.569405,5.604138272120294
1673607823.312189,42.593639,5.64570619969721
1673607823.313196,42.615562,5.687264286382181
1673607823.314203,42.626213,5.728832213959097
1673607823.31521,42.625347,5.7704001415360135
1673607823.316217,42.625973,5.811958228220984
1673607823.317225,42.618736,5.853565519365682
1673607823.318232,42.612125,5.895133446942598
1673607823.319239,42.612797,5.9366915336275685
1673607823.320246,42.620083,5.978259461204485
1673607823.321253,42.612511,6.019827388781401
1673607823.32226,42.603832,6.061385475466372
1673607823.323267,42.603832,6.102953403043288
1673607823.324274,42.598206,6.144521330620204
1673607823.325281,42.587627,6.19281308297568
1673607823.326288,42.581089,6.209482628040058
1673607823.327295,42.579311,6.249013345649583
1673607823.328302,42.57729,6.281588470195517
1673607823.329309,42.58765,6.293000843586075
1673607823.330317,42.572651,6.349514692491061
1673607823.331324,42.570148,6.38179
1673607823.332331,42.578178,6.4331631630901285
1673607823.333338,42.585873,6.472243
1673607823.334345,42.591427,6.485293186700541
1673607823.335352,42.588711000000004,6.507861138558191
1673607823.336359,42.589165,6.53043443447264
1673607823.337366,42.591835,6.553007730387089
1673607823.338373,42.595249,6.575575682244739
1673607823.33938,42.600296,6.5981489781591875
1673607823.340387,42.587124,6.6207222740736364
1673607823.341394,42.58176,6.643290225931287
1673607823.342402,42.584526,6.665884898072927
1673607823.343409,42.587029,6.688458193987376
1673607823.344416,42.595081,6.711026145845027
1673607823.345423,42.591644,6.733599441759475
1673607823.34643,42.581017,6.756172737673924
1673607823.347437,42.569813,6.778740689531575
1673607823.348444,42.562386,6.801313985446024
1673607823.349451,42.564117,6.823887281360472
1673607823.350458,42.560749,6.846455233218123
1673607823.361536,42.560509,7.216144289938007
1673607823.362543,42.573372,7.283419730329042
1673607823.36355,42.574524,7.312077364004767
1673607823.364557,42.5821,7.346502361230328
1673607823.3655639,42.595009,7.376746
1673607823.366571,42.602772,7.452211435041717
1673607823.367579,42.608013,7.541448587326244
1673607823.368586,42.623257,7.604936303420224
1673607823.369593,42.638809,7.668408989278387
1673607823.3706,42.65321,7.731896705372367
1673607823.371607,42.654026,7.7953844214663475
1673607823.372614,42.647778,7.85885710732451
1673607823.373621,42.637272,7.9223448234184906
1673607823.374628,42.62542,7.9858325395124705
1673607823.375635,42.622101,8.049305225370633
1673607823.376642,42.623425,8.112792941464614
1673607823.377649,42.616501,8.176280657558594
1673607823.378656,42.611523,8.239753343416757
1673607823.379663,42.610008,8.303241059510736
1673607823.380671,42.619362,8.366788896547988
1673607823.381678,42.619987,8.430276612641968
1673607823.382685,42.616238,8.49374929850013
1673607823.383692,42.617943,8.557237014594111
1673607823.384699,42.620636,8.620724730688092
1673607823.385706,42.612846,8.684197416546255
1673607823.386713,42.601692,8.747685132640234
1673607823.3877199,42.596809,8.811157818498398
1673607823.388727,42.594048,8.874645534592377
1673607823.389734,42.585632,8.938133250686358
1673607823.3907409,42.588638,9.00160593654452
1673607823.391748,42.596088,9.0650936526385
1673607823.392756,42.599575,9.12864148967575
1673607823.393763,42.600658,9.192129205769731
1673607823.39477,42.610588,9.255601891627894
1673607823.395777,42.611282,9.319089607721875
1673607823.396784,42.595295,9.382577323815855
1673607823.397791,42.589863,9.446050009674018
1673607823.398798,42.58424,9.509537725767998
1673607823.399805,42.576954,9.573025441861978
1673607823.400812,42.575367,9.644297450643776
1673607823.401819,42.575752,9.747715968526467
1673607823.402826,42.574215,9.795429101311084
1673607823.403833,42.557888,9.8629003710062
1673607823.40484,42.541855,9.951429942775393
1673607823.405848,42.537167,9.995219240286055
1673607823.406855,42.532959,10.06349411063424
1673607823.407862,42.542145,10.136357522174535
1673607823.408869,42.555534,10.193058889842634
1673607823.4098759,42.557457,10.277214560854437
1673607823.410883,42.575272,10.364858437289774
1673607823.41189,42.607246,10.452502313725113
1673607823.4128969,42.644459,10.540125441136672
1673607823.413904,42.662296,10.627769317572008
1673607823.414911,42.655853,10.715413194007347
1673607823.4159179,42.646191,10.803036321418906
1673607823.416925,42.645493,10.890680197854245
1673607823.417933,42.654438,10.97840707038469
1673607823.41894,42.659149,11.066050946820027
1673607823.419947,42.644363,11.153674074231587
1673607823.420954,42.634987,11.241317950666925
1673607823.421961,42.629963,11.328961827102262
1673607823.422968,42.61549,11.416584954513823
1673607823.423975,42.589165,11.50422883094916
1673607823.424982,42.559357,11.591872707384496
1673607823.425989,42.535507,11.679495834796057
1673607823.426996,42.515026,11.767139711231394
1673607823.428003,42.51767,11.85478358766673
1673607823.42901,42.551685,11.942406715078292
1673607823.430017,42.567699,12.030050591513628
1673607823.431025,42.593182,12.117777464044075
1673607823.4320319,42.602631,12.205400591455636
1673607823.433039,42.612415,12.293044467890972
1673607823.434046,42.641937,12.380688344326309
1673607823.4350529,42.664341,12.46831147173787
1673607823.43606,42.670303,12.555955348173207
1673607823.437067,42.662708,12.643599224608543
1673607823.4380739,42.64352,12.731222352020104
1673607823.439081,42.632896,12.818866228455441
1673607823.440088,42.627945,12.906510104890778
1673607823.4410949,42.618496,12.994133232302339
1673607823.442102,42.614506,13.081777108737676
1673607823.44311,42.611309,13.169503981268122
1673607823.444117,42.604961,13.25714785770346
1673607823.445124,42.599072,13.34477098511502
1673607823.446131,42.592052,13.418845
1673607823.447138,42.587555,13.433596991416309
1673607823.448145,42.588348,13.521596102741357
1673607823.449152,42.586689,13.581655
1673607823.450159,42.585102,13.588316030996662
1673607823.451166,42.587677,13.621295751609058
1673607823.452173,42.593613,13.657410851216023
1673607823.45318,42.586521,13.763019185026227
1673607823.454187,42.569767,13.838752315927515
1673607823.455194,42.556255,13.865086566772238
1673607823.456202,42.55241,13.920660460475196
1673607823.4572089,42.551136,13.976168632922592
1673607823.458216,42.563805,14.0316899496211
1673607823.459223,42.579044,14.08721126631961
1673607823.4602299,42.594841,14.142719438767006
1673607823.461237,42.61758,14.198240755465514
1673607823.462244,42.653259,14.253762072164022
1673607823.4632509,42.647034,14.309270244611419
1673607823.464258,42.648258,14.364791561309929
1673607823.465265,42.637753,14.420312878008437
1673607823.4662719,42.614311,14.475821050455833
1673607823.467279,42.612965,14.531342367154343
1673607823.468287,42.62114,14.5869162608573
1673607823.469294,42.620468,14.642437577555809
1673607823.470301,42.621742,14.697945750003205
1673607823.471308,42.624626,14.753467066701715
1673607823.472315,42.619579,14.808988383400223
1673607823.473322,42.617222,14.86449655584762
1673607823.474329,42.611958,14.92001787254613
1673607823.475336,42.607197,14.975539189244637
1673607823.476343,42.610008,15.031047361692034
1673607823.47735,42.605946,15.086568678390542
1673607823.478357,42.607628,15.142089995089052
1673607823.479364,42.612606,15.197598167536448
1673607823.480371,42.603832,15.253119484234956
1673607823.481379,42.591042,15.308693377937914
1673607823.4823859,42.589886,15.36420155038531
1673607823.483393,42.590271,15.41972286708382
1673607823.4844,42.591595,15.475244183782328
1673607823.4854069,42.596954,15.530752356229724
1673607823.486414,42.600273,15.586273672928234
1673607823.487421,42.608109,15.641794989626742
1673607823.4884279,42.615372,15.697303162074139
1673607823.489435,42.612003,15.752824478772647
1673607823.490442,42.605392,15.808345795471157
1673607823.4914489,42.6078,15.863853967918553
1673607823.492456,42.604649,15.919375284617061
1673607823.493464,42.593712,15.97494917832002
1673607823.494471,42.576546,16.030470495018527
1673607823.495478,42.571064,16.085978667465923
1673607823.496485,42.558754,16.141499984164433
1673607823.497492,42.557217,16.197021300862943
1673607823.498499,42.577194,16.25252947331034
1673607823.499506,42.589237,16.30805079000885
1673607823.500513,42.592987,16.363572106707355
1673607823.50152,42.597435,16.419080279154752
1673607823.502527,42.608349,16.47460159585326
1673607823.503534,42.622128,16.53012291255177
1673607823.504541,42.625515,16.585631084999168
1673607823.505548,42.621502,16.641152401697674
1673607823.506556,42.607727,16.696726295400634
1673607823.5075629,42.591427,16.75223446784803
1673607823.50857,42.571014,16.80775578454654
1673607823.509577,42.558922,16.863277101245046
1673607823.5105839,42.56181,16.918785273692443
1673607823.511591,42.572216,16.973595989985697
1673607823.512598,42.580608,17.089101503933254
1673607823.5136049,42.594479,17.170584206962328
1673607823.514612,42.608543,17.22799866237482
1673607823.515619,42.608902,17.31382951156138
1673607823.516626,42.597244,17.37347126037196
1673607823.517633,42.565487,17.42812674058178
1673607823.518641,42.554211,17.498818220977352
1673607823.519648,42.558346,17.58780864353839
1673607823.520655,42.552792,17.61183873300971
1673607823.521662,42.554573,17.627737318307904
1673607823.522669,42.574574,17.643635903606103
1673607823.523676,42.598999,17.682386478810276
1673607823.524683,42.615757,17.746149567801154
1673607823.52569,42.637077,17.809912656792037
1673607823.526697,42.660831,17.87366065035465
1673607823.527704,42.66576,17.914407469003336
1673607823.528711,42.64011,17.99798166150179
1673607823.529718,42.585754,18.077472031473533
1673607823.530725,42.539547,18.114865839055796
1673607823.531733,42.533825,18.189035730631705
1673607823.5327399,42.554573,18.26038897973295
1673607823.533747,42.580223,18.33501826204101
1673607823.534754,42.593807,18.38565572943981
1673607823.5357609,42.607559,18.424338284692418
1673607823.536768,42.619194,18.484175771807536
1673607823.537775,42.638523,18.5479396653219
1673607823.540796,42.686722,18.739216250246262
1673607823.541803,42.677685,18.8029650481419
1673607823.54281,42.672588,18.866728941656262
1673607823.543818,42.66333,18.930553217645546
1673607823.544825,42.653259,18.994317111159912
1673607823.545832,42.637489,19.058065909055546
1673607823.546839,42.625443,19.121829802569913
1673607823.547846,42.614723,19.185593696084275
1673607823.548853,42.61227,19.24934249397991
1673607823.54986,42.60537,19.313106387494276
1673607823.550867,42.602749,19.37687028100864
1673607823.551874,42.604889,19.440619078904277
1673607823.552881,42.608109,19.50438297241864
1673607823.553888,42.602531,19.568146865933006
1673607823.554895,42.589382,19.63189566382864
1673607823.555902,42.585823,19.695659557343003
1673607823.55691,42.593494,19.75948383333229
1673607823.5579169,42.637272,19.823232631227924
1673607823.558924,42.647514,19.886996524742287
1673607823.559931,42.646454,19.950760418256653
1673607823.560938,42.629627,20.014509216152288
1673607823.561945,42.629242,20.078273109666654
1673607823.562952,42.623425,20.142037003181017
1673607823.563959,42.621262,20.20578580107665
1673607823.564966,42.623161,20.269549694591017
1673607823.565973,42.607582,20.33331358810538
1673607823.56698,42.594936,20.397062386001018
1673607823.567987,42.578876,20.46082627951538
1673607823.568995,42.568851,20.524650555504664
1673607823.570002,42.570271,20.58841444901903
1673607823.571009,42.574646,20.652163246914665
1673607823.572016,42.5858,20.71592714042903
1673607823.573023,42.604095,20.779691033943394
1673607823.57403,42.612343,20.843439831839028
1673607823.575037,42.612869,20.93004248724672
1673607823.576044,42.619289,20.95969682904149
1673607823.577051,42.623665,21.02437033571769
1673607823.578058,42.635323,21.112839890345647
1673607823.579065,42.643402,21.286889811788345
1673607823.580072,42.638329,21.24074116595136
1673607823.581079,42.620132,21.28385414612634
1673607823.582087,42.619579,21.384866085836908
1673607823.583094,42.615658,21.396589
1673607823.584101,42.579479,21.477053712046164
1673607823.585108,42.571808,21.566496591962746
1673607823.586115,42.590248,21.655918296955104
1673607823.587122,42.592533,21.745361176871686
1673607823.588129,42.571064,21.83480405678827
1673607823.589136,42.559021,21.924225761780626
1673607823.590143,42.555752,22.01366864169721
1673607823.59115,42.558971,22.103111521613787
1673607823.592157,42.57188,22.192533226606145
1673607823.593164,42.599575,22.281976106522727
1673607823.594172,42.628258,22.371503686136197
1673607823.595179,42.639317,22.46094656605278
1673607823.596186,42.612797,22.550368271045137
1673607823.597193,42.593662,22.63981115096172
1673607823.5982,42.586834,22.7292540308783
1673607823.599207,42.586834,22.81867573587066
1673607823.600214,42.595898,22.908118615787238
1673607823.601221,42.603252,22.99756149570382
1673607823.602228,42.602749,23.086983200696178
1673607823.603235,42.591091,23.17642608061276
1673607823.604242,42.544453,23.265868960529343
1673607823.605249,42.516277,23.3552906655217
1673607823.606256,42.527359,23.444733545438282
1673607823.607264,42.546398,23.534261125051753
1673607823.608271,42.562866,23.62368283004411
1673607823.609278,42.58931,23.713125709960693
1673607823.610285,42.604912,23.802568589877275
1673607823.611292,42.611549,23.891990294869633
1673607823.612299,42.604359,23.98143317478621
1673607823.613306,42.603519,24.070876054702794
1673607823.614313,42.611572,24.16029775969515
1673607823.61532,42.621094,24.249740639611733
1673607823.616327,42.642632,24.339183519528316
1673607823.617334,42.668571,24.428605224520673
1673607823.618341,42.682709,24.518048104437256
1673607823.619349,42.678837,24.607575684050726
1673607823.620356,42.677395,24.69701856396731
1673607823.621363,42.673042,24.786440268959666
1673607823.62237,42.660999,24.875883148876245
1673607823.623377,42.651169,24.965326028792827
1673607823.624384,42.64167,25.054747733785184
1673607823.625391,42.631695,25.144190613701767
1673607823.626398,42.619194,25.23363349361835
1673607823.627405,42.617149,25.323055198610707
1673607823.628412,42.628712,25.412498078527285
1673607823.629419,42.628231,25.501940958443868
1673607823.630426,42.610107,25.53923
1673607823.631433,42.597557,25.61444287625179
1673607823.632441,42.586617,25.720319676204102
1673607823.633448,42.583084,25.800377894134478
1673607823.634455,42.579624,25.873246769964243
1673607823.635462,42.58556,25.968657253218883
1673607823.636469,42.596741,26.043762032904148
1673607823.637476,42.609627,26.10993342669845
1673607823.638483,42.630733,26.24105476847878
1673607823.63949,42.644989,26.30533946685879
1673607823.640497,42.637608,26.315128110086455
1673607823.641504,42.620876,26.32491675331412
1673607823.642511,42.603542,26.334703079154657
1673607823.643518,42.581593,26.438946637663886
1673607823.644526,42.575848,26.54836900190749
1673607823.645533,42.564621,26.63820218916958
1673607823.64654,42.545006,26.72729182183914
1673607823.647547,42.534233,26.816402550798703
1673607823.648554,42.549404,26.905513279758264
1673607823.649561,42.597099,26.994602912427826
1673607823.650568,42.609142,27.083713641387387
1673607823.651575,42.588684,27.17282437034695
1673607823.652582,42.54921,27.261914003016514
1673607823.653589,42.483173,27.351024731976075
1673607823.654596,42.44783,27.440135460935636
1673607823.655603,42.464828,27.5292250936052
1673607823.656611,42.506107,27.61842020772476
1673607823.657618,42.525818,27.707530936684325
1673607823.658625,42.534138,27.796620569353884
1673607823.659632,42.558949,27.88573129831345
1673607823.660639,42.602581,27.97484202727301
1673607823.661646,42.636909,28.063931659942572
1673607823.662653,42.677372,28.153042388902133
1673607823.66366,42.715405,28.242153117861697
1673607823.664667,42.738964,28.33124275053126
1673607823.665674,42.717133,28.42035347949082
1673607823.666681,42.686939,28.50946420845038
1673607823.667688,42.672661,28.598553841119944
1673607823.668695,42.648762,28.68766457007951
1673607823.669703,42.621407,28.776859684199067
1673607823.67071,42.605515,28.86597041315863
1673607823.671717,42.604263,28.955060045828194
1673607823.672724,42.618088,29.044170774787755
1673607823.673731,42.631165,29.13328150374732
1673607823.674738,42.633713,29.22237113641688
1673607823.675745,42.629433,29.311481865376443
1673607823.676752,42.635323,29.400592594336004
1673607823.677759,42.65696,29.489682227005567
1673607823.678766,42.66309,29.578792955965127
1673607823.679773,42.654099,29.667903684924692
1673607823.68078,42.644051,29.756993317594254
1673607823.681788,42.632919,29.846188431713813
1673607823.682795,42.620514,29.935299160673377
1673607823.683802,42.615517,30.02438879334294
1673607823.684809,42.598541,30.1134995223025
1673607823.685816,42.587749,30.202610251262065
1673607823.686823,42.572601,30.291699883931624
1673607823.68783,42.558033,30.38081061289119
1673607823.688837,42.540077,30.46992134185075
1673607823.689844,42.533222,30.559010974520312
1673607823.690851,42.544258,30.627780436337623
1673607823.691858,42.570053,30.688846699404053
1673607823.692865,42.59388,30.836325170720077
1673607823.693872,42.615273,30.951246382927994
1673607823.69488,42.632801,31.061643384358607
1673607823.695887,42.628231,31.163928181406437
1673607823.696894,42.574333,31.327836749642348
1673607823.697901,42.556808,31.46114477253219
1673607823.698908,42.559189,31.55280501692491
1673607823.699915,42.568012,31.6739070286123
1673607823.700922,42.572147,31.789732630901288
1673607823.701929,42.595875,31.92389824672229
1673607823.702936,42.630348,32.0560543340143
1673607823.703943,42.64975,32.16532698890996
1673607823.70495,42.658066,32.27459964380563
1673607823.705957,42.649147,32.38384642922807
1673607823.706965,42.62381,32.49322256201663
1673607823.707972,42.609818,32.602495216912295
1673607823.708979,42.611042,32.711742002334745
1673607823.709986,42.617485,32.82101465723041
1673607823.710993,42.616886,32.930287312126076
1673607823.712,42.61417,33.03953409754852
1673607823.713007,42.611309,33.14880675244418
1673607823.714014,42.599503,33.25807940733985
1673607823.715021,42.581642,33.36732619276229
1673607823.716028,42.573059,33.47659884765796
1673607823.717035,42.56551,33.58587150255362
1673607823.718042,42.563732,33.695118287976065
1673607823.719049,42.571159,33.80974968581645
1673607823.720057,42.580345,33.94997403147353
1673607823.721064,42.572338,34.0592942918455
1673607823.722071,42.552338,34.16858155923719
1673607823.723078,42.563251,34.28427113066285
1673607823.724085,42.580898,34.4266986509299
1673607823.725092,42.570248,34.56111604077253
1673607823.726099,42.524643,34.70716399761621
1673607823.727106,42.505962,34.805997862660945
1673607823.728113,42.480213,34.985603020109345
1673607823.72912,42.468002,35.087373482361166
1673607823.730127,42.498295,35.18914394461299
1673607823.731134,42.520893,35.290890313478855
1673607823.732142,42.513943,35.39275714927447
1673607823.733149,42.521397,35.49452761152629
1673607823.734156,42.540268,35.596273980392155
1673607823.735163,42.590488,35.698044442643976
1673607823.73617,42.636356,35.7998149048958
1673607823.737177,42.665134,35.901561273761665
1673607823.738184,42.689247,36.003331736013486
1673607823.739191,42.690186,36.1051021982653
1673607823.740198,42.660976,36.206848567131175
1673607823.741205,42.621525,36.30861902938299
1673607823.742212,42.581787,36.41038949163481
1673607823.743219,42.546711,36.51213586050068
1673607823.744226,42.471729,36.6139063227525
1673607823.745234,42.396843,36.71577315854812
1673607823.746241,42.31842,36.81754362079993
1673607823.747248,42.316235,36.9192899896658
1673607823.748255,42.372585,37.02106045191762
1673607823.749262,42.44841,37.12283091416944
1673607823.750269,42.520844,37.22457728303531
1673607823.751276,42.614288,37.32634774528713
1673607823.752283,42.667465,37.428118207538944
1673607823.75329,42.687851,37.52986457640482
1673607823.754297,42.701267,37.63163503865663
1673607823.755304,42.712181,37.733405500908454
1673607823.756311,42.706604,37.83515186977432
1673607823.757319,42.703457,37.91746917739628
1673607823.758326,42.702183,37.96443939437291
1673607823.759333,42.699657,38.344319726134586
1673607823.76034,42.67783,38.407994510566134
1673607823.761347,42.687035,38.54781635278791
1673607823.762354,42.692276,38.60669947939489
1673607823.763361,42.675903,38.41360583834049
1673607823.764368,42.674438,38.50866119241774
1673607823.765375,42.676311,38.57937725601907
1673607823.766382,42.670181,38.690133977296256
1673607823.767389,42.652729,38.80249191091022
1673607823.768396,42.635948,38.914823244634604
1673607823.769403,42.609432,39.02718117824857
1673607823.770411,42.597652,39.13964551142088
1673607823.771418,42.605682,39.25200344503485
1673607823.772425,42.622269,39.36433477875923
1673607823.773432,42.630707,39.4766927123732
1673607823.774439,42.614819,39.589050645987165
1673607823.775446,42.610874,39.70138197971155
1673607823.776453,42.620178,39.81373991332551
1673607823.77746,42.629459,39.926097846939484
1673607823.778467,42.620491,40.03842918066386
1673607823.779474,42.616116,40.150787114277826
1673607823.780481,42.616837,40.2631450478918
1673607823.781488,42.621861,40.375476381616174
1673607823.782496,42.621021,40.48794071478849
1673607823.783503,42.62804,40.60029864840246
1673607823.78451,42.627007,40.71262998212684
1673607823.785517,42.607101,40.824987915740806
1673607823.786524,42.585945,40.93734584935477
1673607823.787531,42.574982,41.049677183079154
1673607823.788538,42.565464,41.16203511669312
1673607823.789545,42.571522,41.27439305030709
1673607823.790552,42.589287,41.38672438403147
1673607823.791559,42.589237,41.49908231764544
1673607823.792566,42.561062,41.6114402512594
1673607823.793573,42.533848,41.72377158498379
1673607823.795588,42.551685,41.94859385177006
1673607823.796595,42.558323,42.060951785384034
1673607823.797602,42.592628,42.17328311910841
1673607823.798609,42.626572,42.28564105272238
1673607823.799616,42.6497,42.39799898633635
1673607823.800623,42.668404,42.51033032006073
1673607823.80163,42.644676,42.622688253674696
1673607823.802637,42.614601,42.73504618728866
1673607823.803644,42.613209,42.847377521013044
1673607823.804651,42.606426,42.95973545462701
1673607823.805658,42.589577,43.07209338824098
1673607823.806665,42.581978,43.18442472196536
1673607823.807673,42.588829,43.296889055137676
1673607823.80868,42.608593,43.40924698875164
1673607823.809687,42.587749,43.521578322476024
1673607823.810694,42.535339,43.63393625608999
1673607823.811701,42.510674,43.7756766948021
1673607823.812708,42.496681,43.88908381354316
1673607823.813715,42.493439,44.03093555065554
1673607823.814722,42.486538,44.16028239914163
1673607823.815729,42.474758,44.22165851883643
1673607823.816736,42.453697,44.37629158631378
1673607823.817743,42.480766,44.456288985935636
1673607823.81875,42.557335,44.57988807939914
1673607823.819757,42.644894,44.69038220171674
1673607823.820765,42.700668,44.781541178662344
1673607823.821772,42.731247,44.871501438303426
1673607823.822779,42.709755,44.961440400534556
1673607823.823786,42.69968,45.051400660175645
1673607823.824793,42.751896,45.14136091981673
1673607823.8258,42.752186,45.23129988204786
1673607823.826807,42.68148,45.32126014168894
1673607823.827814,42.636791,45.41122040133003
1673607823.828821,42.607845,45.50115936356116
1673607823.829828,42.566399,45.59111962320224
1673607823.830835,42.52327,45.68107988284333
1673607823.831842,42.508366,45.77101884507446
1673607823.83285,42.512478,45.86106429435535
1673607823.833857,42.557697,45.95102455399644
1673607823.834864,42.620781,46.04096351622757
1673607823.835871,42.608448,46.13092377586865
1673607823.836878,42.55534,46.22088403550974
1673607823.837885,42.550797,46.31082299774087
1673607823.838892,42.564526,46.40078325738195
1673607823.839899,42.575535,46.490743517023034
1673607823.840906,42.576809,46.58068247925417
1673607823.841913,42.576809,46.67064273889525
1673607823.84292,42.577122,46.760602998536335
1673607823.843927,42.602341,46.85054196076747
1673607823.844934,42.642967,46.940502220408554
1673607823.845942,42.645901,47.03054766968945
1673607823.846949,42.611862,47.120507929330536
1673607823.847956,42.591618,47.210446891561666
1673607823.848963,42.606308,47.30040715120275
1673607823.84997,42.607845,47.39036741084384
1673607823.850977,42.625011,47.48030637307497
1673607823.851984,42.64328,47.57026663271605
1673607823.852991,42.619987,47.66022689235713
1673607823.853998,42.60371,47.75016585458827
1673607823.855005,42.612679,47.84012611422935
1673607823.856012,42.618927,47.93008637387043
1673607823.857019,42.63797,48.02002533610157
1673607823.858027,42.665737,48.12443049022413
1673607823.859034,42.680714,48.15189
1673607823.860041,42.700836,48.24823552670482
1673607823.861048,42.728119,48.278519
1673607823.862055,42.734203,48.33460688912732
1673607823.863062,42.706196,48.4216004624553
1673607823.864069,42.692299,48.51269047067239
1673607823.865076,42.688141,48.618188746781115
1673607823.866083,42.635395,48.683892059117994
1673607823.86709,42.552216,48.75502942269178
1673607823.868097,42.490505,48.830180342164866
1673607823.869104,42.481152,48.9053134702271
1673607823.870111,42.50642,48.98046438970018
1673607823.871119,42.543442,49.05568647481671
1673607823.872126,42.597725,49.1308373942898
1673607823.873133,42.656746,49.205970522352025
1673607823.87414,42.689487,49.281121441825114
1673607823.875147,42.708672,49.33862573342871
1673607823.876154,42.738121,49.42488052419547
1673607823.877161,42.76012,49.515975304721024
1673607823.878168,42.770214,49.542804060085835
1673607823.879175,42.747856,49.62576485077473
1673607823.880182,42.704105,49.716862766809726
1673607823.8811889,42.666962,49.7750521349547
1673607823.882196,42.655254,49.87940159833134
1673607823.883204,42.660229,49.9553949189318
1673607823.884211,42.65155,50.02705324349561
1673607823.885218,42.636143,50.09859469555245
1673607823.886225,42.644413,50.17015308851671
1673607823.887232,42.664005,50.241711481480976
1673607823.888239,42.665325,50.31325293353782
1673607823.889246,42.654701,50.38481132650208
1673607823.890253,42.619793,50.456369719466345
1673607823.89126,42.578011,50.527911171523186
1673607823.892267,42.579933,50.59946956448745
1673607823.893274,42.590248,50.67102795745172
1673607823.894281,42.601379,50.742569409508555
1673607823.895288,42.591499,50.814127802472825
1673607823.896296,42.580223,50.88575395906679
1673607823.897303,42.591427,50.95731235203105
1673607823.89831,42.581474,51.028853804087895
1673607823.899317,42.575222,51.10041219705216
1673607823.900324,42.606213,51.17197059001642
1673607823.901331,42.652969,51.26165417930377
1673607823.902338,42.673935,51.370955210965434
1673607823.9033449,42.667587,51.49824743776824
1673607823.904352,42.659557,51.570919
1673607823.905359,42.640278,51.645020135637665
1673607823.9063659,42.618568,51.73440798330949
1673607823.907373,42.605106,51.79939385503099
1673607823.908381,42.610008,51.88091066746126
1673607823.909388,42.598541,51.95378093061516
1673607823.910395,42.54224,52.0300548215563
1673607823.911402,42.494999,52.10920945961278
1673607823.912409,42.480576,52.18836409766926
1673607823.913416,42.491272,52.267499996464835
1673607823.914423,42.497356,52.346654634521315
1673607823.91543,42.515724,52.425809272577794
1673607823.916437,42.557289,52.50494517137337
1673607823.917444,42.560917,52.58409980942985
1673607823.919458,42.596741,52.74239034628191
1673607823.920465,42.68771,52.82154498433839
1673607823.921473,42.723625,52.90077457943848
1673607823.92248,42.719513,52.97992921749496
1673607823.923487,42.675255,53.05906511629054
1673607823.924494,42.606644,53.13821975434702
1673607823.9255009,42.588612,53.2173556531426
1673607823.926508,42.572628,53.296510291199084
1673607823.927515,42.546661,53.375664929255564
1673607823.9285219,42.624264,53.45480082805114
1673607823.929529,42.665737,53.53395546610762
1673607823.930536,42.670376,53.6131101041641
1673607823.9315429,42.667393,53.69224600295968
1673607823.93255,42.698261,53.77140064101616
1673607823.933558,42.725307,53.85063023611625
1673607823.934565,42.730671,53.92978487417273
1673607823.935572,42.71949,54.00892077296831
1673607823.936579,42.701675,54.08807541102479
1673607823.937586,42.698959,54.16723004908127
1673607823.938593,42.745575,54.246365947876846
1673607823.9396,42.774494,54.30721076680973
1673607823.940607,42.733795,54.36186892608488
1673607823.941614,42.66201,54.430379441716326
1673607823.942621,42.567532,54.475251200286124
1673607823.943628,42.515434,54.51168899141631
1673607823.944635,42.527935,54.56236816090584
1673607823.945642,42.560631,54.617023083929425
1673607823.94665,42.596401,54.686263856461615
1673607823.9476569,42.638954,54.7444680286123
1673607823.948664,42.664703,54.76981362005415
1673607823.949671,42.70752,54.788343532837565
1673607823.9506779,42.754398,54.80686905880451
1673607823.951685,42.762642,54.82539897158792
1673607823.952692,42.733242,54.84392888437134
1673607823.9536989,42.711052,54.86245441033828
1673607823.954706,42.709873,54.950146944206004
1673607823.955713,42.696892,54.988765330472106
1673607823.9567199,42.687565,55.06402625810014
1673607823.957727,42.665688,55.14061689952365
1673607823.958735,42.63559,55.21728006996365
1673607823.959742,42.597603,55.29387071138716
1673607823.960749,42.570679,55.37044322055654
1673607823.961756,42.520409,55.44703386198004
1673607823.962763,42.524689,55.523624503403546
1673607823.96377,42.559402,55.60019701257293
1673607823.964777,42.623497,55.67678765399643
1673607823.965784,42.687397,55.753378295419935
1673607823.966791,42.699345,55.82995080458931
1673607823.967798,42.684921,55.90654144601282
1673607823.968805,42.665257,55.98313208743632
1673607823.969812,42.641407,56.0597045966057
1673607823.970819,42.641117,56.136295238029206
1673607823.971827,42.630276,56.212958408469206
1673607823.9728339,42.621502,56.28953091763859
1673607823.973841,42.600849,56.366121559062094
1673607823.974848,42.591835,56.442712200485595
1673607823.9758549,42.581234,56.519284709654976
1673607823.976862,42.581955,56.595875351078476
1673607823.977869,42.629795,56.672465992501984
1673607823.9788759,42.664604,56.749038501671365
1673607823.979883,42.635395,56.825629143094865
1673607823.98089,42.586929,56.90221978451837
1673607823.9818969,42.554451,56.978792293687746
1673607823.982904,42.522575,57.055382935111254
1673607823.983912,42.50774,57.13204610555126
1673607823.984919,42.516106,57.20863674697476
1673607823.985926,42.529305,57.28520925614414
1673607823.986933,42.547554,57.36179989756764
1673607823.98794,42.568153,57.43839053899115
1673607823.988947,42.597099,57.51496304816053
1673607823.989954,42.640614,57.59155368958403
1673607823.990961,42.692806,57.66814433100754
1673607823.991968,42.72699,57.74471684017692
1673607823.992975,42.722713,57.82130748160042
1673607823.993982,42.738266,57.89789812302393
1673607823.994989,42.744759,57.9744706321933
1673607823.995996,42.71925,58.05106127361681
1673607823.997004,42.707928,58.12772444405681
1673607823.9980109,42.68689,58.20429695322619
1673607823.999018,42.660591,58.2808875946497
1673607824.000025,42.633713,58.3574782360732
1673607824.0010319,42.5896,58.43405074524258
1673607824.002039,42.541637,58.51064138666609
1673607824.003046,42.494713,58.58723202808959
1673607824.0040529,42.478798,58.66380453725897
1673607824.00506,42.4781,58.727875616595135
1673607824.006067,42.496681,58.781740035518474
1673607824.0070739,42.487476,58.86687719241774
1673607824.008081,42.51339,58.93975176752504
1673607824.009089,42.565945,59.00027938879619
1673607824.010096,42.585201,59.04304169384835
1673607824.011103,42.592941,59.11060136909871
1673607824.01211,42.612797,59.17535848224076
1673607824.013117,42.65155,59.200285633285645
1673607824.014124,42.71069,59.243610210360465
1673607824.015131,42.762161,59.29842416655138
1673607824.016138,42.766418,59.3532381227423
1673607824.017145,42.770096,59.408039102144336
1673607824.018152,42.755985,59.462853058335256
1673607824.019159,42.736343,59.51766701452617
1673607824.020166,42.692467,59.572467993928214
1673607824.021173,42.680904,59.62728195011913
1673607824.022181,42.711342,59.68214781346553
1673607824.0231879,42.734009,59.73694879286757
1673607824.024195,42.736801,59.79176274905849
1673607824.025202,42.680714,59.846576705249404
1673607824.0262089,42.595249,59.90137768465145
1673607824.027216,42.55022,59.95619164084236
1673607824.028223,42.532261,60.01100559703328
1673607824.0292299,42.460888,60.06580657643532
1673607824.030237,42.455044,60.12062053262624
1673607824.031244,42.498436,60.17543448881715
1673607824.032251,42.557793,60.2302354682192
1673607824.033258,42.617126,60.28504942441011
1673607824.034266,42.619026,60.33991528775651
1673607824.035273,42.608639,60.39472924394743
1673607824.03628,42.64386,60.44953022334947
1673607824.037287,42.682228,60.50434417954039
1673607824.038294,42.711796,60.5591581357313
1673607824.039301,42.719009,60.61395911513335
1673607824.040308,42.716244,60.66877307132427
1673607824.041315,42.717926,60.72358702751518
1673607824.042322,42.747955,60.778388006917226
1673607824.043329,42.766586,60.83320196310814
1673607824.044336,42.722134,60.88801591929906
1673607824.045343,42.61388,60.942816898701096
1673607824.04635,42.538826,60.997630854892016
1673607824.047358,42.511948,61.052496718238416
1673607824.0483649,42.50774,61.107297697640455
1673607824.049372,42.484276,61.162111653831374
1673607824.050379,42.481586,61.21692561002229
1673607824.0513859,42.513535,61.27172658942433
1673607824.052393,42.561951,61.326540545615245
1673607824.0534,42.618374,61.381354501806165
1673607824.054407,42.674702,61.43615548120821
1673607824.055414,42.722301,61.49096943739912
1673607824.056421,42.748123,61.545783393590035
1673607824.057428,42.723289,61.60058437299208
1673607824.058435,42.689968,61.655398329183
1673607824.059443,42.68158,61.710264192529394
1673607824.06045,42.672588,61.771295133365086
1673607824.061457,42.65749,61.85904606008583
1673607824.062464,42.636116,61.92521099284009
1673607824.063471,42.65826,61.97923123986648
1673607824.064478,42.675735,62.09217415384615
1673607824.065485,42.663811,62.139287741535526
1673607824.066492,42.632153,62.165266922195705
1673607824.067499,42.625538,62.235991226244344
1673607824.068506,42.597462,62.35515791273247
1673607824.069513,42.563202,62.42805561207119
1673607824.07052,42.534595,62.44119407634769
1673607824.071527,42.538681,62.454335651792626
1673607824.072535,42.547047,62.467489671911274
1673607824.0735419,42.56974,62.480628136187775
1673607824.074549,42.591187,62.49376971163271
1673607824.075556,42.597507,62.537084072484504
1673607824.076563,42.586258,62.65855680042919
1673607824.07757,42.606308,62.73682803623361
1673607824.078577,42.64352,62.84596814926085
1673607824.079584,42.694054,62.93778609652416
1673607824.080591,42.735695,63.01802366907452
1673607824.081598,42.735455,63.0982612416249
1673607824.082605,42.757233,63.17847981853783
1673607824.083612,42.754108,63.258717391088204
1673607824.08462,42.71603,63.33903094618834
1673607824.085627,42.673454,63.41926851873871
1673607824.086634,42.635059,63.49948709565164
1673607824.087641,42.571327,63.57972466820201
1673607824.088648,42.534641,63.659962240752385
1673607824.089655,42.547169,63.74018081766532
1673607824.090662,42.598328,63.82041839021569
1673607824.091669,42.591091,63.90065596276606
1673607824.092676,42.547504000000004,63.98087453967899
1673607824.093683,42.572987,64.06111211222937
1673607824.09469,42.589645,64.14134968477974
1673607824.095697,42.557697,64.22156826169267
1673607824.096704,42.56789,64.30180583424304
1673607824.097712,42.597004,64.38211938934317
1673607824.098719,42.623402,64.46233796625611
1673607824.099726,42.716053,64.54257553880647
1673607824.100733,42.76786,64.62281311135685
1673607824.10174,42.741657,64.70303168826979
1673607824.102747,42.707397,64.78326926082016
1673607824.103754,42.642368,64.86350683337054
1673607824.104761,42.573662,64.94372541028346
1673607824.105768,42.535435,65.02396298283384
1673607824.106775,42.480934,65.10420055538421
1673607824.107782,42.447712,65.18441913229714
1673607824.108789,42.477932,65.26465670484751
1673607824.109797,42.558468,65.34497025994764
1673607824.110804,42.606068,65.42520783249802
1673607824.111811,42.626236,65.50542640941094
1673607824.112818,42.61549,65.58566398196132
1673607824.113825,42.605465,65.66590155451169
1673607824.114832,42.620922,65.74612013142462
1673607824.115839,42.579502,65.82635770397499
1673607824.116846,42.535484,65.90659527652537
1673607824.117853,42.503437,65.9868138534383
1673607824.11886,42.479832,66.06705142598867
1673607824.119867,42.472042,66.14728899853904
1673607824.120874,42.496681,66.22750757545198
1673607824.121881,42.541252,66.30774514800235
1673607824.122889,42.540413,66.38805870310249
1673607824.123896,42.542912,66.46827728001541
1673607824.124903,42.669582,66.54851485256579
1673607824.12591,42.842724,66.62812444492131
1673607824.126917,42.85294,66.73868949570692
1673607824.127924,42.807911,66.80567266542644
1673607824.130945,42.606621,66.91979661093616
1673607824.131952,42.592506,67.0198556800229
1673607824.132959,42.571495,67.07900476645679
1673607824.133966,42.578613,67.0780378476954
1673607824.134974,42.602413,67.12300667286777
1673607824.135981,42.619026,67.35136645708155
1673607824.136988,42.636093,67.36373652605288
1673607824.137995,42.693142,67.36417026528007
1673607824.139002,42.711483,67.36460400450724
1673607824.140009,42.707062,67.36503764104995
1673607824.141016,42.690041,67.36547138027714
1673607824.142023,42.684799,67.36590511950432
1673607824.14303,42.700089,67.36633875604703
1673607824.144037,42.702541,67.36677249527422
1673607824.145044,42.65987,67.3672062345014
1673607824.146051,42.624386,67.3676398710441
1673607824.147058,42.620804,67.3680736102713
1673607824.148066,42.608521,67.36850776023638
1673607824.149073,42.605465,67.36894139677909
1673607824.15008,42.618446,67.36937513600627
1673607824.151087,42.647655,67.36980887523346
1673607824.152094,42.666771,67.37024251177615
1673607824.153101,42.661648,67.37067625100335
1673607824.154108,42.64941,67.37110999023054
1673607824.155115,42.657562,67.37154362677323
1673607824.156122,42.687805,67.37197736600042
1673607824.157129,42.694584,67.3724111052276
1673607824.158136,42.652706,67.37284474177031
1673607824.159143,42.570126,67.3732784809975
1673607824.160151,42.47781,67.37371263096259
1673607824.161158,42.361694,67.37414637018976
1673607824.162165,42.280006,67.37458000673247
1673607824.163172,42.28878,67.37501374595966
1673607824.164179,42.335468,67.37544748518684
1673607824.165186,42.399799,67.37588112172955
1673607824.166193,42.509014,67.37631486095674
1673607824.1672,42.632488,67.37674860018392
1673607824.168207,42.740837,67.37718223672663
1673607824.169214,42.837936,67.37761597595382
1673607824.170221,42.887821,67.37804971518099
1673607824.171228,42.840416,67.3784833517237
1673607824.172236,42.792381,67.37891750168879
1673607824.173243,42.755936,67.37935124091598
1673607824.17425,42.726704,67.37978487745869
1673607824.175257,42.697014,67.38021861668587
1673607824.176264,42.691002,67.38065235591306
1673607824.177271,42.695858,67.38108599245577
1673607824.178278,42.688766,67.38151973168294
1673607824.179285,42.691818,67.34760052217453
1673607824.180292,42.692444,67.3159293044826
1673607824.181299,42.672539,67.29771368128725
1673607824.182306,42.64352,67.2560158516929
1673607824.183313,42.61441,67.18949752360516
1673607824.18432,42.567074,67.164597
1673607824.185328,42.548488999999996,67.12819012017168
1673607824.186335,42.550652,67.12260303862661
1673607824.187342,42.533176,67.10364834398094
1673607824.188349,42.535507,67.07666804154796
1673607824.189356,42.537792,67.05399212132004
1673607824.190363,42.547794,67.03132156944444
1673607824.19137,42.535892,67.00864564921652
1673607824.192377,42.516685,66.93819288412017
1673607824.193384,42.515484,66.93703285744935
1673607824.194391,42.547455,66.92158274773486
1673607824.195398,42.548561,66.85894314663805
1673607824.196405,42.532047,66.81253985125149
1673607824.197413,42.576183,66.78624062163493
1673607824.19842,42.619194,66.76366576322445
1673607824.199427,42.654797,66.74109624924068
1673607824.200434,42.670952,66.71852139083022
1673607824.201441,42.660759,66.69594653241974
1673607824.202448,42.650661,66.67337701843597
1673607824.203455,42.617702,66.65080216002549
1673607824.204462,42.602631,66.62822730161503
1673607824.205469,42.643787,66.60565778763126
1673607824.206476,42.699177,66.58308292922078
1673607824.207483,42.69598,66.56050807081031
1673607824.20849,42.651672,66.53793855682655
1673607824.209497,42.645733,66.51536369841607
1673607824.210505,42.690426,66.49276746229877
1673607824.211512,42.715019,66.4701926038883
1673607824.212519,42.70747,66.44762308990452
1673607824.213526,42.679825,66.42504823149405
1673607824.214533,42.674461,66.40247337308358
1673607824.21554,42.675255,66.37990385909981
1673607824.216547,42.653885,66.35732900068933
1673607824.217554,42.630276,66.33475414227887
1673607824.218561,42.622536,66.3121846282951
1673607824.219568,42.631672,66.28960976988462
1673607824.220575,42.628017,66.26703491147416
1673607824.221582,42.595707,66.24446539749039
1673607824.22259,42.548103,66.22186916137308
1673607824.223597,42.560028,66.19929430296261
1673607824.224604,42.604504,66.17672478897885
1673607824.225611,42.609985,66.15414993056837
1673607824.226618,42.594528,66.13157507215789
1673607824.227625,42.613304,66.10900555817413
1673607824.228632,42.640564,66.08643069976365
1673607824.229639,42.656528,66.06385584135317
1673607824.230646,42.664364,66.0412863273694
1673607824.231653,42.686028,66.01871146895894
1673607824.23266,42.680759,65.99613661054846
1673607824.233667,42.666241,65.9735670965647
1673607824.234674,42.648979,65.95099223815423
1673607824.235682,42.634506,65.92839600203692
1673607824.236689,42.625538,65.90582114362644
1673607824.237696,42.637367,65.88325162964269
1673607824.238703,42.648716,65.8606767712322
1673607824.23971,42.647247,65.83810191282173
1673607824.240717,42.640446,65.81553239883796
1673607824.241724,42.639412,65.7929575404275
1673607824.242731,42.644291,65.76650577181688
1673607824.243738,42.645447,65.68352486742967
1673607824.244745,42.629002,65.71482134144016
1673607824.245752,42.607773,65.67979865148988
1673607824.246759,42.575344,65.66465945159752
1673607824.247767,42.527935,65.6828951888412
1673607824.248774,42.518486,65.70111405601907
1673607824.249781,42.520699,65.717392
1673607824.250788,42.527985,65.7153303543157
1673607824.251795,42.542408,65.699303
1673607824.252802,42.559067,65.699303
1673607824.253809,42.556255,65.699303
1673607824.254816,42.516876,65.699303
1673607824.255823,42.508148,65.699303
1673607824.25683,42.539524,65.70733392942299
1673607824.257837,42.513943,65.70923167858847
1673607824.258844,42.432808,65.71586985053635
1673607824.259851,42.414032,65.72707052074392
1673607824.260859,42.423119,65.7345067200763
1673607824.261866,42.413094,65.74488607508938
1673607824.262873,42.42831,65.7311753631075
1673607824.26388,42.445595,65.72226889384507
1673607824.264887,42.44194,65.71336242458263
1673607824.265894,42.467113,65.70445806385932
1673607824.266901,42.516708,65.69555159459688
1673607824.267908,42.527142,65.68664512533444
1673607824.268915,42.540077,65.67774076461113
1673607824.269922,42.590801,65.6688342953487
1673607824.270929,42.659317,65.65992782608626
1673607824.271936,42.750431,65.65102346536295
1673607824.272944,42.808033,65.64210856194401
1673607824.273951,42.798897,65.63320209268157
1673607824.274958,42.812336,65.624297731958265
1673607824.275965,42.824211,65.61539126269582
1673607824.276972,42.783367,65.6064847934334
1673607824.277979,42.730526,65.59758043271007
1673607824.278986,42.726391,65.58867396344765
1673607824.279993,42.747955,65.5797674941852
1673607824.281,42.732208,65.5708631334619
1673607824.282007,42.704731,65.56195666419946
1673607824.283014,42.681988,65.55305019493703
1673607824.284021,42.695786,65.54414583421371
1673607824.285028,42.708672,65.53523936495128
1673607824.286036,42.667419,65.52632446153234
1673607824.287043,42.599361,65.51741799226991
1673607824.28805,42.613953,65.50851363154659
1673607824.289057,42.659607,65.49960716228416
1673607824.290064,42.669655,65.49070069302172
1673607824.291071,42.670807,65.48179633229842
1673607824.292078,42.659534,65.47288986303597
1673607824.293085,42.654221,65.46398339377355
1673607824.294092,42.651936,65.45507903305023
1673607824.295099,42.628521,65.4461725637878
1673607824.296106,42.611885,65.43726609452536
1673607824.297113,42.58371,65.42836173380205
1673607824.298121,42.568275,65.41944683038311
1673607824.299128,42.55801,65.41054036112067
1673607824.300135,42.587029,65.40163600039736
1673607824.301142,42.607075,65.39272953113493
1673607824.302149,42.651863,65.38382306187249
1673607824.303156,42.686962,65.37491870114918
1673607824.304163,42.70182,65.36601223188674
1673607824.30517,42.712856,65.3571057626243
1673607824.306177,42.714825,65.348201401901
1673607824.307184,42.668453,65.33929493263855
1673607824.308191,42.604794,65.3083854943981
1673607824.309198,42.621647,65.301331
1673607824.310205,42.625515,65.25688403290415
1673607824.311213,42.615059,65.2769799206198
1673607824.31222,42.598206,65.283241
1673607824.313227,42.58419,65.25281663042442
1673607824.314234,42.59436,65.30843015522174
1673607824.315241,42.605034,65.25755002169248
1673607824.316248,42.571568,65.23145747424893
1673607824.317255,42.530701,65.26256137028474
1673607824.318262,42.518391,65.30150255988221
1673607824.319269,42.516346,65.34043453044804
1673607824.320276,42.527985,65.3793757200455
1673607824.321283,42.565125,65.41831690964295
1673607824.32229,42.600536,65.45724888020878
1673607824.323298,42.626068,65.49622694593276
1673607824.324305,42.642319,65.53516813553021
1673607824.325312,42.655975,65.57410010609605
1673607824.326319,42.664005,65.6130412956935
1673607824.327326,42.673885,65.65198248529097
1673607824.328333,42.647995,65.6909144558568
1673607824.32934,42.639244,65.72985564545426
1673607824.330347,42.6315,65.76879683505172
1673607824.331354,42.548203,65.80772880561754
1673607824.332361,42.435211,65.84666999521501
1673607824.333368,42.359169,65.88561118481248
1673607824.334375,42.325706,65.9245431553783
1673607824.335382,42.327126,65.96348434497575
1673607824.33639,42.398838,66.00246241069974
1673607824.337397,42.492619,66.04140360029719
1673607824.338404,42.541111,66.08033557086303
1673607824.339411,42.608109,66.11927676046048
1673607824.340418,42.714417,66.15821795005795
1673607824.341425,42.781876,66.19714992062377
1673607824.342432,42.809521,66.23609111022124
1673607824.343439,42.782787,66.27503229981869
1673607824.344446,42.718506,66.31396427038452
1673607824.345453,42.652752,66.35290545998198
1673607824.34646,42.602871,66.39184664957943
1673607824.347467,42.5695,66.43077862014528
1673607824.348475,42.559742,66.46975668586924
1673607824.349482,42.576111,66.50869787546671
1673607824.350489,42.600296,66.54762984603254
1673607824.351496,42.602989,66.58657103563
1673607824.352503,42.592484,66.62551222522745
1673607824.35351,42.594864,66.66444419579328
1673607824.354517,42.621983,66.70338538539075
1673607824.355524,42.664845,66.74232657498821
1673607824.356531,42.693623,66.78125854555404
1673607824.357538,42.710716,66.82019973515149
1673607824.358545,42.728962,66.85914092474896
1673607824.359552,42.736488,66.89807289531478
1673607824.360559,42.74995,66.93701408491225
1673607824.361567,42.718864,67.00079147854078
1673607824.362574,42.671627,67.10053522336115
1673607824.363581,42.658188,67.1691145312351
1673607824.364588,42.645542,67.22378006890797
1673607824.365595,42.645397,67.33373417048165
1673607824.366602,42.66785,67.37753913134684
1673607824.367609,42.642391,67.42390438388173
1673607824.368616,42.607174,67.53538562398664
1673607824.369623,42.593975,67.6342157454112
1673607824.37063,42.597294,67.6632953223532
1673607824.371637,42.604073,67.67622487461222
1673607824.372644,42.638931,67.68915136589769
1673607824.373652,42.668499,67.70209316205089
1673607824.374659,42.662922,67.75080857796853
1673607824.375666,42.648308,67.8566490965435
1673607824.376673,42.641045,67.96192121959943
1673607824.37768,42.63232,68.0126913935458
1673607824.378687,42.626984,68.03849457673624
1673607824.379694,42.624218,68.06430387008136
1673607824.380701,42.632751,68.0901131634265
1673607824.381708,42.639797,68.11591634661694
1673607824.382715,42.63131,68.14172563996206
1673607824.383722,42.60323,68.16753493330718
1673607824.384729,42.568851,68.19333811649763
1673607824.385736,42.550823,68.21914740984275
1673607824.386744,42.517067,68.24498114380657
1673607824.387751,42.50053,68.27079043715169
1673607824.388758,42.507862,68.29659362034214
1673607824.389765,42.514423,68.32240291368726
1673607824.390772,42.488869,68.34821220703238
1673607824.391779,42.463123,68.37401539022282
1673607824.392786,42.454998,68.39982468356794
1673607824.393793,42.480766,68.42563397691308
1673607824.3948,42.52916,68.45143716010352
1673607824.395807,42.612991,68.47724645344864
1673607824.3968139,42.715019,68.50304963663909
1673607824.397821,42.771969,68.52885892998421
1673607824.398829,42.764061,68.55469266394803
1673607824.399836,42.689919,68.58050195729315
1673607824.400843,42.683022,68.6063051404836
1673607824.40185,42.575848,68.63211443382872
1673607824.402857,42.383141,68.65792372717384
1673607824.403864,42.284595,68.68372691036429
1673607824.404871,42.32972,68.7095362037094
1673607824.405878,42.415833,68.73534549705452
1673607824.406885,42.472088,68.76114868024497
1673607824.407892,42.536877,68.7869579735901
1673607824.408899,42.581715,68.81276726693523
1673607824.409906,42.595177,68.83857045012567
1673607824.410913,42.598228,68.86437974347079
1673607824.411921,42.642727,68.89021347743461
1673607824.412928,42.706867,68.91602277077973
1673607824.413935,42.695618,68.94182595397018
1673607824.414942,42.675858,68.9676352473153
1673607824.415949,42.690159,68.99344454066042
1673607824.416956,42.710163,69.01924772385087
1673607824.417963,42.728939,69.04505701719599
1673607824.4189699,42.743866,69.07086020038643
1673607824.419977,42.751633,69.09666949373157
1673607824.420984,42.748436,69.12247878707669
1673607824.4219909,42.715042,69.14828197026713
1673607824.422998,42.694153,69.17409126361225
1673607824.424006,42.663067,69.19992499757608
1673607824.425013,42.627991,69.2257342909212
1673607824.42602,42.605297,69.26168210965436
1673607824.427027,42.59359,69.2280044282308
1673607824.428034,42.564213,69.226883
1673607824.429041,42.547119,69.226883
1673607824.430048,42.544884,69.226883
1673607824.431055,42.553299,69.20884575679543
1673607824.432062,42.560127,69.190704
1673607824.433069,42.569935,69.19050559895088
1673607824.434076,42.594696,69.17244505412084
1673607824.435083,42.615467,69.1630018771778
1673607824.43609,42.630226,69.15355646410478
1673607824.437098,42.651577,69.1441021065118
1673607824.438105,42.675209,69.12621178397711
1673607824.439112,42.684799,69.09626218379023
1673607824.440119,42.694153,69.16181956556986
1673607824.4411259,42.683647,69.17180942775393
1673607824.442133,42.671745,69.09839220975758
1673607824.44314,42.66898,69.08976335988557
1673607824.4441469,42.651192,69.0811365528284
1673607824.445154,42.619579,69.07250770295639
1673607824.446161,42.608662,69.06387885308438
1673607824.4471679,42.607269,69.0552520460272
1673607824.448175,42.623543,69.04662319615521
1673607824.449183,42.634869,69.03798617502385
1673607824.45019,42.611958,69.02935732515184
1673607824.451197,42.579117,69.02073051809467
1673607824.452204,42.544403,69.01210166822267
1673607824.453211,42.495193,69.00347281835066
1673607824.454218,42.459419,68.99484601129349
1673607824.455225,42.425209,68.98621716142148
1673607824.456232,42.423767,68.97758831154947
1673607824.457239,42.461342,68.9689615044923
1673607824.458246,42.538994,68.96033265462029
1673607824.459253,42.590153,68.95170380474829
1673607824.46026,42.635803,68.94307699769112
1673607824.461267,42.69194,68.94377858130663
1673607824.462275,42.719082,68.94258227938022
1673607824.4632819,42.721268,68.92595635622318
1673607824.464289,42.708191,68.92398986123034
1673607824.465296,42.657993,68.90812414064362
1673607824.4663029,42.598396,68.9123784587506
1673607824.46731,42.569405,68.92259219265617
1673607824.468317,42.572914,68.93382362422508
1673607824.4693239,42.56337,68.92335035423123
1673607824.470331,42.548393,68.95947637494353
1673607824.471338,42.552456,68.96906401535912
1673607824.4723449,42.58799,68.9786493859735
1673607824.473352,42.663116,68.9882370263891
1673607824.47436,42.705185,68.99783374600963
1673607824.475367,42.677658,69.00742138642524
1673607824.476374,42.683479,69.0170067570396
1673607824.477381,42.722134,69.0265943974552
1673607824.478388,42.722401,69.0361820378708
1673607824.479395,42.687035,69.04576740848516
1673607824.480402,42.615635,69.05535504890076
1673607824.481409,42.58424,69.06494268931637
1673607824.482416,42.580486,69.07452805993073
1673607824.483423,42.531059,69.08411570034633
1673607824.48443,42.49757,69.09370334076193
1673607824.485437,42.512669,69.1032887113763
1673607824.486444,42.551327,69.1128763517919
1673607824.487452,42.565392,69.12247307141243
1673607824.4884589,42.529354,69.1320584420268
1673607824.489466,42.522045,69.12649232141153
1673607824.490473,42.575317,69.12839007057701
1673607824.4914799,42.597122,69.16697945565093
1673607824.492487,42.586403,69.2113247363528
1673607824.493494,42.556473,69.19556956175488
1673607824.4945009,42.493244,69.21486638125894
1673607824.495508,42.480743,69.23428245744935
1673607824.496515,42.510048,69.28096944921316
1673607824.4975219,42.554043,69.29544450166905
1673607824.498529,42.6334,69.27563606573634
1673607824.499537,42.727497,69.2665526445962
1673607824.500544,42.795555,69.25747781704275
1673607824.501551,42.808392,69.248405137886
1673607824.502558,42.74971,69.26761945029797
1673607824.503565,42.673355,69.32695639699571
1673607824.504572,42.615032,69.34193173009061
1673607824.505579,42.568588,69.35882474302741
1673607824.506586,42.538849,69.34793551835956
1673607824.507593,42.522408,69.3473748197425
1673607824.5086,42.48394,69.36559033087008
1673607824.509607,42.478317,69.40822854697187
1673607824.510614,42.524929,69.45054664997616
1673607824.511621,42.549957,69.44959423843585
1673607824.512629,42.545052,69.45657839952324
1673607824.5136359,42.515194,69.52572056223175
1673607824.514643,42.539112,69.59174884044309
1673607824.51565,42.618927,69.64733770095
1673607824.5166569,42.666096,69.70291340121531
1673607824.517664,42.644459,69.75850226172223
1673607824.518671,42.643211,69.81409112222914
1673607824.5196779,42.719105,69.86966682249447
1673607824.520685,42.796371,69.92525568300138
1673607824.521692,42.799595,69.9808445435083
1673607824.5226989,42.74966,70.0364202437736
1673607824.523706,42.696819,70.09200910428052
1673607824.524714,42.677155,70.14765060575382
1673607824.525721,42.672539,70.20323946626074
1673607824.526728,42.67992,70.25881516652606
1673607824.527735,42.680351,70.31440402703298
1673607824.528742,42.653858,70.36999288753988
1673607824.529749,42.62833,70.4255685878052
1673607824.530756,42.599216,70.48115744831212
1673607824.531763,42.566906,70.53674630881903
1673607824.53277,42.539112,70.59232200908434
1673607824.533777,42.521515,70.64791086959126
1673607824.534784,42.532433,70.70349973009817
1673607824.535791,42.581978,70.7590754303635
1673607824.536798,42.630325,70.81466429087041
1673607824.537806,42.629795,70.87030579234371
1673607824.5388129,42.63739,70.92588149260902
1673607824.53982,42.657032,70.98147035311594
1673607824.540827,42.674656,71.03705921362285
1673607824.5418339,42.69194,71.09263491388818
1673607824.542841,42.706772,71.14822377439509
1673607824.543848,42.692131,71.20381263490201
1673607824.5448549,42.581066,71.25938833516732
1673607824.545862,42.460743,71.31497719567423
1673607824.546869,42.461224,71.37056605618115
1673607824.547876,42.465019,71.42614175644647
1673607824.548883,42.463024,71.48173061695337
1673607824.549891,42.483315,71.53737211842667
1673607824.550898,42.5019,71.59296097893359
1673607824.551905,42.545628,71.64853667919891
1673607824.552912,42.566326,71.70412553970583
1673607824.553919,42.561089,71.75880027038627
1673607824.554926,42.654438,71.84938442884386
1673607824.555933,42.744827,71.88770856123276
1673607824.55694,42.699463,71.93626938199513
1673607824.557947,42.595154,72.07664977714748
1673607824.558954,42.520168,72.16044379886456
1673607824.559961,42.490986,72.21296583617193
1673607824.560968,42.545174,72.34171809083536
1673607824.561975,42.574886,72.37891859319072
1673607824.562983,42.602364,72.48117965991494
1673607824.5639899,42.644989,72.58331979349497
1673607824.564997,42.658836,72.68548411370384
1673607824.566004,42.666168,72.78764843391271
1673607824.5670109,42.740116,72.88978856749274
1673607824.568018,42.723625,72.9919528877016
1673607824.569025,42.68343,73.09411720791047
1673607824.570032,42.623207,73.19625734149051
1673607824.571039,42.559475,73.29842166169938
1673607824.572046,42.449516,73.40058598190825
1673607824.573053,42.339291,73.50272611548827
1673607824.57406,42.328037,73.60489043569714
1673607824.575068,42.400833,73.70715150242135
1673607824.576075,42.480648,73.80931582263023
1673607824.577082,42.543152,73.91145595621026
1673607824.578089,42.613567,74.01362027641913
1673607824.579096,42.693573,74.11578459662799
1673607824.580103,42.740311,74.21792473020803
1673607824.58111,42.752186,74.3200890504169
1673607824.582117,42.751343,74.42225337062577
1673607824.583124,42.730911,74.52439350420579
1673607824.584131,42.70372,74.62655782441466
1673607824.585138,42.670135,74.72872214462353
1673607824.586145,42.627224,74.83086227820357
1673607824.587152,42.620659,74.93302659841243
1673607824.58816,42.637848,75.03528766513665
1673607824.5891669,42.629868,75.13742779871667
1673607824.590174,42.617439,75.23959211892554
1673607824.591181,42.605179,75.34175643913441
1673607824.592188,42.584309,75.44389657271445
1673607824.593195,42.552986,75.54606089292332
1673607824.594202,42.508511,75.64822521313218
1673607824.595209,42.514545,75.75036534671221
1673607824.596216,42.544453,75.85252966692109
1673607824.597223,42.596066,75.95469398712996
1673607824.59823,42.626743,76.05683412070998
1673607824.599237,42.680111,76.15899844091885
1673607824.600245,42.707638,76.26125950764308
1673607824.601252,42.75507,76.36342382785193
1673607824.602259,42.750477,76.46556396143197
1673607824.603266,42.697109,76.56772828164084
1673607824.604273,42.678741,76.66989260184971
1673607824.60528,42.683479,76.77203273542973
1673607824.606287,42.686123,76.8741970556386
1673607824.607294,42.657104,76.97561137353992
1673607824.608301,42.618614,77.06803196661897
1673607824.609308,42.648376,77.18031295278969
1673607824.610315,42.657513,77.32123468963051
1673607824.611322,42.644218,77.41402130758226
1673607824.612329,42.627823,77.51960862660944
1673607824.613337,42.597267,77.5885449306317
1673607824.614344,42.516998,77.6377495312351
1673607824.615351,42.37458,77.77445331092036
1673607824.616358,42.25219,77.84774962426883
1673607824.617365,42.173073,77.92371502370437
1673607824.618372,42.170475,77.99969841163137
1673607824.619379,42.237236,78.07568179955838
1673607824.620386,42.358978,78.15164719899391
1673607824.621393,42.454372,78.22763058692091
1673607824.6224,42.528465,78.30361397484792
1673607824.623407,42.623352,78.37957937428345
1673607824.624414,42.73526,78.45556276221046
1673607824.625422,42.835896,78.5316181041033
1673607824.626429,42.874046,78.6076014920303
1673607824.627436,42.850727,78.68356689146584
1673607824.628443,42.801228,78.75955027939284
1673607824.62945,42.747787,78.83553366731984
1673607824.630457,42.705524,78.91149906675538
1673607824.631464,42.691532,78.98748245468238
1673607824.632471,42.678139,79.06346584260939
1673607824.633478,42.654797,79.22226482832617
1673607824.634485,42.652031,79.28255102932063
1673607824.635492,42.666866,79.42421696924178
1673607824.636499,42.643139,79.51736001096805
1673607824.637506,42.632774,79.6260868567342
1673607824.638514,42.616932,79.68210105770149
1673607824.639521,42.59996,79.77259549928469
1673607824.640528,42.586475,79.8095303511323
1673607824.641535,42.576065,79.93659025732542
1673607824.642542,42.572361,80.00823190900348
1673607824.643549,42.618206,80.0798905253161
1673607824.644556,42.663403,80.15154914162872
1673607824.645563,42.663692,80.22319079330678
1673607824.64657,42.669029,80.2948494096194
1673607824.647577,42.654724,80.36650802593202
1673607824.648584,42.585945,80.43814967761008
1673607824.649591,42.507454,80.5098082939227
1673607824.650599,42.510914,80.5815347687735
1673607824.651606,42.555389,80.65319338508611
1673607824.652613,42.578037,80.72483503676418
1673607824.65362,42.567986,80.7964936530768
1673607824.654627,42.552193,80.86815226938941
1673607824.655634,42.566566,80.93979392106748
1673607824.656641,42.550533,81.0114525373801
1673607824.657648,42.554379,81.08311115369271
1673607824.658655,42.52599,81.15475280537078
1673607824.659662,42.555485,81.2264114216834
1673607824.660669,42.600586,81.29807003799601
1673607824.661676,42.578396,81.36971168967408
1673607824.662683,42.583179,81.4413703059867
1673607824.663691,42.680759,81.51309678083749
1673607824.664698,42.734322,81.58473843251555
1673607824.665705,42.715164,81.65639704882817
1673607824.666712,42.698982,81.72805566514079
1673607824.667719,42.689728,81.79969731681885
1673607824.668726,42.707832,81.87135593313147
1673607824.669733,42.721077,81.94301454944409
1673607824.67074,42.703865,82.01465620112215
1673607824.671747,42.653065,82.0748018903195
1673607824.672754,42.587578,82.10112460309892
1673607824.673761,42.536423,82.14740204816404
1673607824.674768,42.451126,82.6799114514218
1673607824.675776,42.271446,82.66070764395734
1673607824.676783,42.151218,82.83234317302573
1673607824.67779,42.122971,82.86512734123224
1673607824.678797,42.172112,82.91359743246446
1673607824.682825,42.633354,83.23369582472621
1673607824.683832,42.804089,83.29683889203079
1673607824.684839,42.833347,83.35999691151802
1673607824.685846,42.846642,83.42315493100524
1673607824.686853,42.830029,83.48629799830984
1673607824.687861,42.791466,83.54951582652764
1673607824.688868,42.794907,83.61267384601487
1673607824.689875,42.787189,83.67581691331945
1673607824.690882,42.756439,83.73897493280668
1673607824.691889,42.721535,83.8021329522939
1673607824.692896,42.69146,83.8652760195985
1673607824.693903,42.658043,83.92843403908572
1673607824.69491,42.634434,83.99159205857295
1673607824.695917,42.664391,84.05473512587753
1673607824.696924,42.676506,84.11789314536476
1673607824.697931,42.672131,84.181051164852
1673607824.698938,42.672153,84.24419423215657
1673607824.699945,42.692612,84.3073522516438
1673607824.700953,42.716579,84.37057007986161
1673607824.70196,42.724876,84.43372809934884
1673607824.702967,42.690884,84.49687116665342
1673607824.703974,42.629459,84.56002918614065
1673607824.704981,42.581474,84.62318720562789
1673607824.705988,42.499809,84.68633027293247
1673607824.706995,42.405617,84.7494882924197
1673607824.708002,42.392876,84.81264631190692
1673607824.709009,42.438095,84.87578937921151
1673607824.710016,42.498558,84.93894739869873
1673607824.711023,42.552338,85.00210541818596
1673607824.71203,42.574982,85.06524848549054
1673607824.713038,42.568829,85.12846631370834
1673607824.714045,42.546158,85.19162433319558
1673607824.715052,42.553299,85.25476740050017
1673607824.716059,42.622749,85.31792541998739
1673607824.717066,42.709969,85.38108343947462
1673607824.718073,42.74538,85.4442265067792
1673607824.71908,42.706028,85.50738452626643
1673607824.720087,42.636623,85.57054254575367
1673607824.721094,42.598976,85.63368561305825
1673607824.722101,42.59626,85.69684363254548
1673607824.723108,42.597244,85.7600016520327
1673607824.724115,42.638111,85.8231447193373
1673607824.725122,42.669582,85.88630273882453
1673607824.72613,42.620708,85.9387363003096
1673607824.727137,42.600536,85.937885472103
1673607824.728144,42.621021,85.95148687995227
1673607824.729151,42.599697,86.00679387124464
1673607824.730158,42.548779,86.00427417504169
1673607824.731165,42.497765,86.02247660729614
1673607824.732172,42.407829,86.00832339379475
1673607824.733179,42.284813,86.00301197237438
1673607824.734186,42.407829,86.04094515712923
1673607824.735193,42.272072,86.0458333701776
1673607824.7362,42.36261,86.03536777039675
1673607824.737207,42.48233,86.02490464826737
1673607824.738215,42.566086,86.01442913788065
1673607824.739222,42.68372,86.00396353809981
1673607824.740229,42.74514,86.00152732618027
1673607824.741236,42.815411,86.01073352647676
1673607824.742243,42.859261,85.99754058904921
1673607824.74325,42.831158,85.98435077494965
1673607824.744257,42.763603,85.9711578375221
1673607824.745264,42.738892,85.95796490009455
1673607824.746271,42.717087,85.94477508599499
1673607824.747278,42.635109,85.93158214856744
1673607824.748285,42.567314,85.9183892111399
1673607824.749292,42.542385,85.90519939704033
1673607824.750299,42.554668,85.89200645961279
1673607824.751307,42.610275,85.87880102887327
1673607824.752314,42.661312,85.86560809144572
1673607824.753321,42.687443,85.85241827734616
1673607824.754328,42.700474,85.83922533991861
1673607824.755335,42.687878,85.82603240249107
1673607824.756342,42.667057,85.8128425883915
1673607824.757349,42.676266,85.79964965096396
1673607824.758356,42.718071,85.78645671353641
1673607824.759363,42.739204,85.77326689943685
1673607824.76037,42.719612,85.76007396200929
1673607824.761377,42.692852,85.74688102458174
1673607824.762384,42.644485,85.73369121048218
1673607824.763392,42.57032,85.72048577974267
1673607824.764399,42.560848,85.70729284231513
1673607824.765406,42.588516,85.69410302821557
1673607824.766413,42.605755,85.68091009078802
1673607824.76742,42.624023,85.66771715336047
1673607824.768427,42.629845,85.65452733926091
1673607824.769434,42.644821,85.64133440183336
1673607824.770441,42.661625,85.59886581258942
1673607824.771448,42.643593,85.57131775226514
1673607824.772455,42.635635,85.58953395327771
1673607824.773462,42.68396,85.57980155364807
1673607824.774469,42.694416,85.59058042823081
1673607824.775476,42.66737,85.59738664576876
1673607824.776484,42.645134,85.59977158750596
1673607824.777491,42.643185,85.6066810386266
1673607824.778498,42.645855,85.54861225554231
1673607824.779505,42.651672,85.51051866793826
1673607824.780512,42.634193,85.51507240698577
1673607824.781519,42.613953,85.51962506797004
1673607824.782526,42.607319,85.52417880701755
1673607824.783533,42.60162,85.52873254606506
1673607824.78454,42.55426,85.53328520704933
1673607824.785547,42.454155,85.53783894609684
1673607824.786554,42.378113,85.54239268514435
1673607824.787561,42.365158,85.54694534612864
1673607824.788569,42.404968,85.55150339742903
1673607824.789576,42.473412,85.55605713647653
1673607824.790583,42.562122,85.56060979746081
1673607824.79159,42.628113,85.55062816165952
1673607824.792597,42.699081,85.55592837759238
1673607824.793604,42.726318,85.55037810061994
1673607824.794611,42.704464,85.59221757415355
1673607824.795618,42.716824,85.58010816686532
1673607824.796625,42.751751,85.57451804744873
1673607824.797632,42.763508,85.580345
1673607824.798639,42.71199,85.580345
1673607824.799646,42.628616,85.51714120672389
1673607824.800653,42.531277,85.49191128562872
1673607824.801661,42.457855,85.49477462491889
1673607824.802668,42.4417,85.4976352552788
1673607824.803675,42.438744,85.50049520840614
1673607824.804682,42.471607,85.50335583876604
1673607824.805689,42.510315,85.50621646912595
1673607824.806696,42.523056,85.50907642225329
1673607824.807703,42.501465,85.51193705261319
1673607824.80871,42.434753,85.5147976829731
1673607824.809717,42.460548,85.51765763610044
1673607824.810724,42.5257,85.52051826646034
1673607824.811731,42.564598,85.52337889682025
1673607824.812738,42.62191,85.52623884994759
1673607824.813746,42.724754,85.52910218923776
1673607824.814753,42.875755,85.53196281959767
1673607824.821802,42.379894,85.52609187529805
1673607824.822809,42.35078,85.507996
1673607824.823816,42.380856,85.52181608224076
1673607824.824823,42.441246,85.526085
1673607824.82583,42.512764,85.48386361611827
1673607824.826838,42.638111,85.45760021025029
1673607824.827845,42.707157,85.43938194849785
1673607824.828852,42.774662,85.42116755905727
1673607824.829859,42.840965,85.40294903669003
1673607824.830866,42.825245,85.3847305143228
1673607824.831873,42.774639,85.36651630505271
1673607824.83288,42.686409,85.34829778268548
1673607824.833887,42.619915,85.33007926031824
1673607824.834894,42.65797,85.31186505104816
1673607824.835901,42.655087,85.29364652868092
1673607824.836908,42.637753,85.27542800631369
1673607824.837915,42.616283,85.2572137970436
1673607824.838923,42.585342,85.23897802228777
1673607824.83993,42.576691,85.22075949992053
1673607824.840937,42.565727,85.20254529065045
1673607824.841944,42.475189,85.18432676828321
1673607824.842951,42.551544,85.16610824591596
1673607824.843958,42.719585,85.14789403664588
1673607824.844965,42.778629,85.12967551427865
1673607824.845972,42.766899,85.11145699191141
1673607824.846979,42.708382,85.09324278264133
1673607824.847986,42.678719,85.07502426027409
1673607824.848993,42.66785,85.05680573790686
1673607824.85,42.658379,85.03859152863677
1673607824.851007,42.641117,85.02037300626954
1673607824.852015,42.62167,85.0021372315137
1673607824.853022,42.582653,84.98391870914647
1673607824.854029,42.530941,84.96570449987638
1673607824.855036,42.477402,84.94748597750915
1673607824.856043,42.428455,84.87547834263233
1673607824.85705,42.415138,84.87484
1673607824.858057,42.465069,84.83857042560801
1673607824.859064,42.498558,84.82035189153754
1673607824.860071,42.536709,84.80076331998092
1673607824.861078,42.585968,84.71249112422508
1673607824.862085,42.663837,84.72891096757272
1673607824.863092,42.734802,84.69320785792611
1673607824.8641,42.75745,84.67490932306707
1673607824.865107,42.734276,84.65514106752141
1673607824.866114,42.721893,84.63537749196048
1673607824.867121,42.718239,84.61560923641481
1673607824.868128,42.708599,84.59584098086916
1673607824.869135,42.686821,84.57607740530823
1673607824.870142,42.66124,84.55630914976255
1673607824.871149,42.636093,84.5365408942169
1673607824.872156,42.628616,84.51677731865597
1673607824.873163,42.609119,84.49700906311031
1673607824.87417,42.585415,84.47724080756464
1673607824.875177,42.560608,84.45747723200371
1673607824.876184,42.540653,84.43770897645805
1673607824.877192,42.526085,84.41792200097342
1673607824.878199,42.493557,84.39815374542776
1673607824.879206,42.468075,84.37839016986683
1673607824.880213,42.482571,84.35862191432116
1673607824.88122,42.523151,84.3388536587755
1673607824.882227,42.487354,84.31909008321458
1673607824.883234,42.474277,84.29932182766892
1673607824.884241,42.487186,84.27955357212325
1673607824.885248,42.52409,84.25978999656232
1673607824.886255,42.588856,84.24002174101666
1673607824.887262,42.64893,84.22025348547099
1673607824.888269,42.686962,84.20048990991008
1673607824.889277,42.692181,84.18070293442544
1673607824.890284,42.698624,84.16093467887977
1673607824.891291,42.725357,84.14117110331885
1673607824.892298,42.742786,84.12140284777318
1673607824.893305,42.732712,84.10163459222753
1673607824.894312,42.641479,84.0818710166666
1673607824.895319,42.534065,84.06210276112093
1673607824.896326,42.499496,84.04233450557527
1673607824.897333,42.506538,84.02257093001434
1673607824.89834,42.529713,84.00280267446868
1673607824.899347,42.583996,83.98303441892301
1673607824.900354,42.66922,83.96327084336208
1673607824.901361,42.752762,83.94350258781643
1673607824.902369,42.71949,83.92371561233179
1673607824.903376,42.730118,83.90394735678613
1673607824.904383,42.741966,83.8841837812252
1673607824.90539,42.700474,83.86441552567953
1673607824.906397,42.623928,83.84464727013388
1673607824.907404,42.583542,83.82488369457295
1673607824.908411,42.642246,83.80511543902728
1673607824.909418,42.685162,83.78534718348162
1673607824.910425,42.660881,83.76558360792069
1673607824.911432,42.638714,83.74581535237503
1673607824.9124389,42.624939,83.7260517768141
1673607824.913446,42.618999,83.70628352126843
1673607824.914454,42.613472,83.68649654578381
1673607824.915461,42.636261,83.66672829023814
1673607824.916468,42.624844,83.64696471467722
1673607824.917475,42.522335,83.62719645913155
1673607824.918482,42.414417,83.60548723223654
1673607824.919489,42.33239,83.55198270100144
1673607824.920496,42.276833,83.51554645148988
1673607824.921503,42.285797,83.481903
1673607824.92251,42.351143,83.47886651740582
1673607824.923517,42.437782,83.44737128963051
1673607824.924524,42.556881,83.4531763125894
1673607824.930567,42.764854,83.27179021164216
1673607824.931574,42.764183,83.26946574248926
1673607824.932581,42.742378,83.26856836849642
1673607824.933588,42.706726,83.2237223796142
1673607824.9345949,42.692467,83.210548
1673607824.935602,42.687443,83.19507089618139
1673607824.936609,42.674583,83.156281
1673607824.9376159,42.657104,83.16168829582837
1673607824.938623,42.650398,83.16576211045398
1673607824.939631,42.647968,83.13739565916752
1673607824.940638,42.608521,83.10905604463724
1673607824.941645,42.588711000000004,83.080723139296
1673607824.942652,42.607075,83.05238352476572
1673607824.943659,42.622128,83.02404391023543
1673607824.944666,42.632462,82.9957110048942
1673607824.945673,42.632706,82.96737139036392
1673607824.94668,42.62328,82.93903177583364
1673607824.947687,42.639004,82.9106988704924
1673607824.948694,42.648067,82.88235925596211
1673607824.949701,42.642345,82.85401964143183
1673607824.950708,42.65213,82.8256867360906
1673607824.951715,42.65506,82.7973471215603
1673607824.952723,42.649342,82.76898067027385
1673607824.95373,42.649796,82.74064105574357
1673607824.954737,42.645828,82.71230815040232
1673607824.955744,42.629192,82.68396853587204
1673607824.9567509,42.58371,82.65563563053081
1673607824.957758,42.495552000000004,82.62729601600053
1673607824.958765,42.361599,82.59895640147025
1673607824.9597719,42.273296,82.570623496129
1673607824.960779,42.28854,82.54228388159872
1673607824.961786,42.376431,82.51394426706844
1673607824.9627929,42.438698,82.48561136172721
1673607824.9638,42.505795,82.45727174719693
1673607824.964808,42.610947,82.42890529591045
1673607824.965815,42.698456,82.40056568138017
1673607824.966822,42.741726,82.37223277603894
1673607824.967829,42.78714,82.34389316150866
1673607824.968836,42.823296,82.31555354697838
1673607824.969843,42.820507,82.28722064163713
1673607824.97085,42.782406,82.25888102710685
1673607824.971857,42.724396,82.23054141257657
1673607824.972864,42.712208,82.20220850723534
1673607824.973871,42.714321,82.17386889270506
1673607824.974878,42.69574,82.15116735503099
1673607824.975885,42.666649,82.10209628400955
1673607824.976892,42.617512,82.05006050464397
1673607824.9779,42.602364,82.02413914449214
1673607824.9789069,42.631477,81.96318597947494
1673607824.979914,42.617199,81.94775617647059
1673607824.980921,42.576015,81.91862540844063
1673607824.9819279,42.567337,81.878908375179
1673607824.982935,42.572628,81.86069333015722
1673607824.983942,42.567482,81.83117767199046
1673607824.9849489,42.568275,81.80618174248927
1673607824.985956,42.575249,81.8110926921241
1673607824.986963,42.625973,81.74745067254108
1673607824.9879699,42.649822,81.66182299237005
1673607824.988977,42.602459,81.66060358997613
1673607824.989985,42.570534,81.66079394713027
1673607824.990992,42.555412,81.64258203433477
1673607824.991999,42.523777,81.61609701154491
1673607824.993006,42.513271,81.58566355167277
1673607824.994013,42.584789,81.55523009180062
1673607824.99502,42.687611,81.52480383681956
1673607824.996027,42.731438,81.49437037694743
1673607824.997034,42.726727,81.46393691707529
1673607824.998041,42.746632,81.43351066209422
1673607824.999048,42.784496,81.40307720222208
1673607825.000055,42.774208,81.37264374234995
1673607825.001062,42.7048,81.34221748736887
1673607825.002069,42.639893,81.31178402749674
1673607825.003077,42.711868,81.28132174806034
1673607825.0040839,42.750648,81.25089549307926
1673607825.005091,42.678139,81.22046203320713
1673607825.006098,42.618256,81.19002857333498
1673607825.0071049,42.614243,81.15960231835392
1673607825.008112,42.610443,81.12916885848178
1673607825.009119,42.594166,81.09873539860965
1673607825.0101259,42.588566,81.06830914362858
1673607825.011133,42.601116,81.03787568375644
1673607825.01214,42.626789,81.0074422238843
1673607825.0131469,42.631287,80.97701596890323
1673607825.014154,42.59597,80.9465825090311
1673607825.015162,42.552673,80.91612022959468
1673607825.016169,42.52195,80.88568676972255
1673607825.017176,42.515049,80.85526051474149
1673607825.018183,42.53791,80.82482705486935
1673607825.01919,42.562458,80.7943935949972
1673607825.020197,42.570896,80.76396734001614
1673607825.021204,42.573444,80.73353388014401
1673607825.022211,42.580151,80.70310042027187
1673607825.023218,42.555439,80.6726741652908
1673607825.024225,42.528824,80.64224070541866
1673607825.025232,42.534138,80.61180724554653
1673607825.026239,42.583252,80.58138099056545
1673607825.027246,42.63929,80.55094753069332
1673607825.028254,42.633617,80.52048525125691
1673607825.0292609,42.642487,80.49005899627583
1673607825.030268,42.695641,80.4596255364037
1673607825.031275,42.723793,80.42919207653156
1673607825.0322819,42.75964,80.3987658215505
1673607825.033289,42.745575,80.36833236167836
1673607825.034296,42.671024,80.33789890180623
1673607825.0353029,42.541325,80.30747264682516
1673607825.03631,42.416698,80.27703918695302
1673607825.037317,42.370087,80.24660572708088
1673607825.0383239,42.395374,80.30981953242727
1673607825.039331,42.458866,80.26620197377831
1673607825.040339,42.521637,80.29542241201717
1673607825.041346,42.542912,80.26420185407724
1673607825.042353,42.558636,80.24481913730632
1673607825.04336,42.615585,80.26093300381497
1673607825.044367,42.640205,80.24456060419648
1673607825.045374,42.685352,80.22634971513708
1673607825.046381,42.736679,80.225677
1673607825.047388,42.734756,80.22144274088785
1673607825.048395,42.738747,80.21707932550702
1673607825.049402,42.772331,80.21271487687603
1673607825.050409,42.758606,80.20835042824505
1673607825.051416,42.740501,80.20398701286423
1673607825.052423,42.715523,80.19962256423325
1673607825.053431,42.721775,80.19525398260167
1673607825.0544379,42.742233,80.19089056722083
1673607825.055445,42.720669,80.18652611858985
1673607825.056452,42.694225,80.18216166995887
1673607825.0574589,42.700836,80.17779825457805
1673607825.058466,42.704273,80.17343380594707
1673607825.059473,42.692661,80.16906935731609
1673607825.0604799,42.675232,80.16470594193525
1673607825.061487,42.593494,80.16034149330427
1673607825.062494,42.5144,80.15597704467329
1673607825.063501,42.482594,80.15161362929247
1673607825.064508,42.42384,80.14724918066149
1673607825.065516,42.35857,80.14288059902991
1673607825.066523,42.372776,80.13851615039893
1673607825.06753,42.418598,80.1341527350181
1673607825.068537,42.488148,80.12978828638713
1673607825.069544,42.650711,80.12542383775614
1673607825.070551,42.810963,80.12106042237531
1673607825.071558,42.816975,80.11669597374433
1673607825.072565,42.772835,80.11233152511335
1673607825.073572,42.72699,80.10796810973252
1673607825.074579,42.69521,80.10360366110154
1673607825.075586,42.677898,80.09923921247056
1673607825.076593,42.644772,80.09487579708973
1673607825.0776,42.552841,80.09051134845875
1673607825.078608,42.514305,80.08614276682718
1673607825.0796149,42.528561,80.08177935144634
1673607825.080622,42.540894,80.07741490281536
1673607825.081629,42.568588,80.07305045418438
1673607825.0826359,42.599361,80.06868703880356
1673607825.083643,42.623928,80.06432259017258
1673607825.08465,42.637272,80.0599581415416
1673607825.085657,42.618736,80.05559472616076
1673607825.086664,42.561447,80.05123027752978
1673607825.087671,42.56818,80.0468658288988
1673607825.088678,42.556301,80.04250241351798
1673607825.089685,42.571976,80.038137964887
1673607825.090693,42.629555,80.03376938325542
1673607825.0917,42.720406,80.02940493462444
1673607825.092707,42.786732,80.02504151924362
1673607825.093714,42.746033,80.02067707061263
1673607825.094721,42.705524,80.01631262198165
1673607825.095728,42.729225,80.01194920660082
1673607825.096735,42.731846,80.00758475796984
1673607825.097742,42.714897,80.00322030933886
1673607825.098749,42.721558,79.99885689395803
1673607825.099756,42.696892,79.99449244532705
1673607825.100763,42.651432,79.9873869661421
1673607825.10177,42.618519,79.95600469487485
1673607825.102777,42.602676,79.96091936050038
1673607825.103785,42.603447,79.93568508946171
1673607825.1047919,42.603855,80.00440257837064
1673607825.105799,42.563274,79.96799647294398
1673607825.106806,42.495792,79.93156713328564
1673607825.107813,42.437687,79.90497203147353
1673607825.10882,42.396385,79.936234
1673607825.109827,42.419128,79.93787530480331
1673607825.110834,42.478172,79.94889474865774
1673607825.111841,42.544594,79.95991680189974
1673607825.112848,42.611141,79.97093885514175
1673607825.113855,42.683407,79.98195829899616
1673607825.114862,42.799305,79.99298035223818
1673607825.11587,42.849285,80.00401284303062
1673607825.116877,42.812527,80.01503489627262
1673607825.117884,42.747375,80.02605434012705
1673607825.118891,42.688885,80.03707639336905
1673607825.119898,42.668045,80.04809844661106
1673607825.120905,42.661888,80.05911789046547
1673607825.121912,42.642899,80.07013994370749
1673607825.122919,42.624458,80.0811619969495
1673607825.123926,42.563156,80.09218144080391
1673607825.124933,42.518005,80.10320349404593
1673607825.12594,42.493629,80.11422554728794
1673607825.126947,42.470501,80.12524499114235
1673607825.127954,42.469372,80.13626704438437
1673607825.128962,42.4743,80.1472995351768
1673607825.129969,42.501156,80.15831897903121
1673607825.130976,42.602631,80.16934103227322
1673607825.131983,42.710331,80.18036308551524
1673607825.13299,42.765888,80.19138252936965
1673607825.133997,42.781994,80.20240458261166
1673607825.135004,42.764469,80.21342663585368
1673607825.136011,42.747715,80.22444607970809
1673607825.137018,42.74538,80.2354681329501
1673607825.138025,42.747353,80.24649018619212
1673607825.139032,42.734421,80.25750963004653
1673607825.140039,42.703838,80.26853168328854
1673607825.141047,42.668331,80.27956417408097
1673607825.142054,42.6115,80.29058622732299
1673607825.143061,42.564934,80.3016056711774
1673607825.144068,42.525509,80.31262772441941
1673607825.145075,42.465599,80.32364977766143
1673607825.146082,42.447327,80.33466922151584
1673607825.147089,42.447712,80.34569127475785
1673607825.148096,42.482811,80.35671332799987
1673607825.149103,42.5695,80.36773277185428
1673607825.15011,42.657009,80.3787548250963
1673607825.151117,42.681171,80.38977687833831
1673607825.152124,42.665016,80.40079632219272
1673607825.153131,42.617847,80.41181837543473
1673607825.154139,42.593372,80.42285086622717
1673607825.155146,42.619507,80.50063903357942
1673607825.156153,42.628258,80.49979398855507
1673607825.15716,42.655712,80.497025
1673607825.158167,42.704033,80.52820846924178
1673607825.159174,42.670303,80.48609491236009
1673607825.160181,42.656071,80.51059378159275
1673607825.161188,42.660809,80.547052525537
1673607825.162195,42.613831,80.59953740223862
1673607825.163202,42.581955,80.55693359465904
1673607825.164209,42.608326,80.54491101699968
1673607825.165216,42.588516,80.53779370192352
1673607825.166224,42.551857,80.53066964696568
1673607825.167231,42.541664,80.52355233188952
1673607825.168238,42.589191,80.5164367017838
1673607825.169245,42.669029,80.515114
1673607825.170252,42.664364,80.45526506509299
1673607825.171259,42.599983,80.47292401883195
1673607825.172266,42.549236,80.46530747198078
1673607825.173273,42.528103,80.44898689405244
1673607825.17428,42.503582,80.43267017989729
1673607825.175287,42.48661,80.41634960196895
1673607825.176294,42.465958,80.40002902404062
1673607825.177301,42.449829,80.38371230988547
1673607825.178308,42.500721,80.36739173195713
1673607825.179316,42.561447,80.35105569893607
1673607825.180323,42.545628,80.33473898478091
1673607825.18133,42.602654,80.31841840685257
1673607825.182337,42.668186,80.30209782892423
1673607825.183344,42.71949,80.2857811147691
1673607825.184351,42.777859,80.26946053684075
1673607825.185358,42.816879,80.25313995891241
1673607825.186365,42.813007,80.23682324475726
1673607825.187372,42.783894,80.22050266682893
1673607825.188379,42.747665,80.2041820889006
1673607825.189386,42.66629,80.18786537474544
1673607825.190393,42.581787,80.17154479681712
1673607825.191401,42.539284,80.15520876379604
1673607825.192408,42.528824,80.1388881858677
1673607825.193415,42.554932,80.12257147171255
1673607825.194422,42.568733,80.10625089378422
1673607825.195429,42.588303,80.08993031585588
1673607825.196436,42.632706,80.07361360170073
1673607825.197443,42.658043,80.0572930237724
1673607825.19845,42.672466,80.04097244584406
1673607825.199457,42.688477,80.02465573168891
1673607825.200464,42.6842,80.00833515376057
1673607825.201471,42.669174,79.99201457583224
1673607825.202478,42.671288,79.97569786167709
1673607825.203486,42.680546,79.95936182865601
1673607825.204493,42.685978,79.94304125072769
1673607825.2055,42.69915,79.92672453657254
1673607825.206507,42.723145,79.9104039586442
1673607825.207514,42.715115,79.89408338071586
1673607825.208521,42.69759,79.8777666665607
1673607825.209528,42.695377,79.86144608863238
1673607825.210535,42.669147,79.84512551070404
1673607825.211542,42.648426,79.82880879654888
1673607825.212549,42.653332,79.81248821862056
1673607825.213556,42.644966,79.79616764069222
1673607825.214563,42.663044,79.77985092653707
1673607825.21557,42.6754,79.76353034860873
1673607825.216578,42.653065,79.74719431558766
1673607825.217585,42.647057,79.73087373765932
1673607825.218592,42.648689,79.71455702350417
1673607825.219599,42.641937,79.69790846161183
1673607825.220606,42.645348,79.67313637187128
1673607825.221613,42.644699,79.62530130376729
1673607825.22262,42.644676,79.610611
1673607825.223627,42.640709,79.58060341075794
1673607825.224634,42.634003,79.54342622743947
1673607825.225641,42.650085,79.57648963316214
1673607825.226648,42.658161,79.47155172176039
1673607825.227655,42.613255,79.47981297424893
1673607825.228663,42.544281,79.45754250022078
1673607825.22967,42.502811,79.42225009233759
1673607825.230677,42.482498,79.38696603966461
1673607825.231684,42.472088,79.35167363178142
1673607825.232691,42.477066,79.31638122389825
1673607825.233698,42.482861,79.28109717122526
1673607825.234705,42.50774,79.24580476334208
1673607825.235712,42.556232,79.21051235545889
1673607825.236719,42.667202,79.17522830278591
1673607825.237726,42.784302,79.13993589490272
1673607825.238733,42.820026,79.10464348701954
1673607825.23974,42.772739,79.06935943434655
1673607825.240747,42.714489,79.03406702646338
1673607825.241755,42.66148,78.99874119773939
1673607825.242762,42.623615,78.9634487898562
1673607825.243769,42.618015,78.92816473718322
1673607825.244776,42.593735,78.89287232930005
1673607825.245783,42.530891,78.85757992141686
1673607825.24679,42.490746,78.82229586874388
1673607825.247797,42.495312,78.78700346086069
1673607825.248804,42.536156,78.75171105297751
1673607825.249811,42.591404,78.71642700030452
1673607825.250818,42.633667,78.68113459242134
1673607825.251825,42.674774,78.64584218453815
1673607825.252832,42.660206,78.61055813186518
1673607825.25384,42.663162,78.57523230314119
1673607825.254847,42.676796,78.539939895258
1673607825.255854,42.664246,78.50465584258502
1673607825.256861,42.647583,78.46936343470183
1673607825.257868,42.660156,78.43407102681866
1673607825.258875,42.686554,78.39878697414566
1673607825.259882,42.678261,78.36349456626249
1673607825.260889,42.651695,78.3282021583793
1673607825.261896,42.63179,78.29291810570632
1673607825.262903,42.579311,78.25762569782313
1673607825.26391,42.526878,78.22233328993995
1673607825.264917,42.437687,78.18704923726696
1673607825.265924,42.403599,78.15175682938379
1673607825.266932,42.412971,78.1164310006598
1673607825.267939,42.444923,78.08113859277663
1673607825.268946,42.463604,78.04585454010363
1673607825.269953,42.489422,78.01056213222046
1673607825.27096,42.552338,77.97526972433727
1673607825.271967,42.627247,77.93998567166429
1673607825.272974,42.725811,77.9046932637811
1673607825.273981,42.804111,77.86940085589792
1673607825.274988,42.852554,77.83411680322493
1673607825.275995,42.875057,77.819679
1673607825.277002,42.840511,77.76522593609918
1673607825.278009,42.790459,77.729233
1673607825.279017,42.75132,77.68459848271752
1673607825.280024,42.691315,77.64559570553172
1673607825.281031,42.646336,77.60455624892704
1673607825.282038,42.658813,77.56144183118741
1673607825.283045,42.684704,77.548347
1673607825.284052,42.686676,77.548347
1673607825.285059,42.662849,77.54553931648648
1673607825.286066,42.644123,77.54124855846871
1673607825.287073,42.632561,77.5369588162554
1673607825.28808,42.640083,77.53266805823763
1673607825.289087,42.650856,77.52837730021986
1673607825.290094,42.662804,77.52408755800654
1673607825.291101,42.663067,77.51979679998878
1673607825.292109,42.666721,77.51550197875318
1673607825.293116,42.653786,77.51121122073542
1673607825.294123,42.63369,77.5069214785221
1673607825.29513,42.628952,77.50263072050433
1673607825.296137,42.63018,77.49833996248655
1673607825.297144,42.648666,77.49405022027325
1673607825.298151,42.677177,77.48975946225548
1673607825.299158,42.672421,77.4854687042377
1673607825.300165,42.669342,77.48117896202439
1673607825.301172,42.675449,77.47688820400663
1673607825.302179,42.670521,77.47259744598885
1673607825.303186,42.669727,77.46830770377554
1673607825.304194,42.668499,77.46401288253995
1673607825.305201,42.663933,77.45972212452217
1673607825.306208,42.629025,77.45543238230886
1673607825.307215,42.580486,77.4511416242911
1673607825.308222,42.544041,77.44685086627332
1673607825.309229,42.536541,77.44256112406
1673607825.310236,42.548275,77.43827036604223
1673607825.311243,42.565392,77.43397960802447
1673607825.31225,42.567051,77.42968986581116
1673607825.313257,42.568443,77.42539910779338
1673607825.314264,42.586788,77.42110834977561
1673607825.315271,42.60614,77.41681860756229
1673607825.316278,42.620178,77.41252784954453
1673607825.317286,42.639725,77.40823302830894
1673607825.318293,42.650784,77.40394227029117
1673607825.3193,42.662899,77.39965252807785
1673607825.320307,42.682926,77.39536177006008
1673607825.321314,42.687347,77.39107101204232
1673607825.322321,42.684872,77.386781269829
1673607825.323328,42.674271,77.38249051181123
1673607825.324335,42.66153,77.37819975379345
1673607825.325342,42.69944,77.37391001158014
1673607825.326349,42.704201,77.36961925356238
1673607825.327356,42.614792,77.3653284955446
1673607825.328363,42.556232,77.36103875333129
1673607825.329371,42.583588,77.3567439320957
1673607825.330378,42.633858,77.35245317407792
1673607825.331385,42.65506,77.34816343186462
1673607825.332392,42.648571,77.34387267384685
1673607825.333399,42.636189,77.33958191582907
1673607825.334406,42.607246,77.33529217361576
1673607825.335413,42.556061,77.33100141559798
1673607825.33642,42.510555,77.32671065758022
1673607825.337427,42.477257,77.3224209153669
1673607825.338434,42.427326,77.31813015734913
1673607825.339441,42.415859,77.31383939933136
1673607825.340448,42.454685,77.2977985840286
1673607825.341455,42.536469,77.2795808397711
1673607825.342463,42.611355,77.32393727849309
1673607825.34347,42.621765,77.36281539294231
1673607825.344477,42.62381,77.33564203075089
1673607825.345484,42.6441,77.28317805102527
1673607825.346491,42.681026,77.276993
1673607825.347498,42.701653,77.24442271394517
1673607825.348505,42.768799,77.25720590414878
1673607825.349512,42.811134,77.24337599273093
1673607825.350519,42.8088,77.226290127656
1673607825.351526,42.773556,77.20920021667412
1673607825.352533,42.729324,77.19211030569224
1673607825.35354,42.719658,77.21105855089392
1673607825.354548,42.737232,77.24752738340487
1673607825.355555,42.687061,77.19619688841202
1673607825.356562,42.707661,77.19376228796186
1673607825.357569,42.758533,77.16625456843109
1673607825.358576,42.713238,77.13743436647592
1673607825.359583,42.652058,77.12472728889925
1673607825.36059,42.589478,77.11420121625058
1673607825.376703,42.7631,76.94578654583987
1673607825.37771,42.728191,76.93526047319119
1673607825.378717,42.696819,76.92473689251048
1673607825.379725,42.688335,76.91420085198999
1673607825.380732,42.683788,76.90367477934133
1673607825.381739,42.691868,76.89315119866062
1673607825.382746,42.698048,76.88262512601194
1673607825.383753,42.692684,76.87209905336329
1673607825.38476,42.680016,76.86157547268257
1673607825.385767,42.659435,76.8510494000339
1673607825.386774,42.615971,76.84052332738524
1673607825.387781,42.552891,76.82999974670453
1673607825.388788,42.462257,76.81947367405586
1673607825.389795,42.395542,76.8089476014072
1673607825.390802,42.402878,76.79842402072649
1673607825.391809,42.481297,76.78789794807781
1673607825.392817,42.577026,76.77736190755732
1673607825.393824,42.635563,76.76683583490866
1673607825.394831,42.666359,76.75631225422795
1673607825.395838,42.667225,76.74578618157928
1673607825.396845,42.683598,76.73526010893062
1673607825.397852,42.752884,76.7247365282499
1673607825.398859,42.813057,76.71421045560123
1673607825.399866,42.77483,76.70368438295257
1673607825.400873,42.702423,76.69316080227186
1673607825.40188,42.657082,76.68263472962319
1673607825.402887,42.653835,76.67210865697453
1673607825.403894,42.661865,76.66076306628517
1673607825.404902,42.667179,76.62501557759236
1673607825.405909,42.680447,76.60850067405818
1673607825.406916,42.686554,76.62574
1673607825.407923,42.678188,76.62574
1673607825.40893,42.683022,76.62451077610872
1673607825.409937,42.673595,76.6103596056271
1673607825.410944,42.637608,76.6408616103958
1673607825.411951,42.562866,76.60442550631704
1673607825.412958,42.486393,76.57222729486914
1673607825.413965,42.466896,76.5801635275239
1673607825.414972,42.5075,76.58809976017865
