measure_time,emg_ch_1,grip_force_inter
1673612059.877048,-8.560021,4.011983
1673612059.878055,-8.578004,4.012371083432658
1673612059.879062,-8.588943,4.0662295803425454
1673612059.880069,-8.587572,4.064742465978981
1673612059.881076,-8.5853370000000009,4.063255351615415
1673612059.882083,-8.577643,4.061768589314909
1673612059.88309,-8.564084,4.060281474951343
1673612059.884097,-8.55442,4.058794360587777
1673612059.885104,-8.543818,4.057307598287271
1673612059.886111,-8.540741,4.055820483923706
1673612059.887118,-8.538096,4.0543333695601405
1673612059.888125,-8.530812,4.052846607259634
1673612059.889132,-8.520691,4.051359492896069
1673612059.89014,-8.505882,4.049870970280264
1673612059.8911471,-8.50182,4.0483838559167
1673612059.892154,-8.509151,4.046897093616193
1673612059.893161,-8.518312,4.045409979252628
1673612059.8941681,-8.530259,4.043922864889062
1673612059.895175,-8.545164,4.042436102588556
1673612059.896182,-8.546126,4.04094898822499
1673612059.8971891,-8.546487,4.039461873861425
1673612059.898196,-8.559998,4.037975111560919
1673612059.899203,-8.561536,4.036487997197353
1673612059.9002101,-8.564902,4.0350008828337875
1673612059.901217,-8.576009,4.033514120533281
1673612059.902225,-8.577475,4.032025597917477
1673612059.903232,-8.573124,4.030538483553912
1673612059.904239,-8.565503,4.029051721253406
1673612059.905246,-8.554661,4.0275646068898405
1673612059.906253,-8.547641,4.026077492526275
1673612059.90726,-8.541462,4.024590730225769
1673612059.908267,-8.533649,4.023103615862203
1673612059.909274,-8.529538,4.021616501498638
1673612059.910281,-8.499079,4.020129739198132
1673612059.911288,-8.4860969999999991,4.018642624834566
1673612059.912295,-8.492876,4.017155510471
1673612059.913302,-8.517181,4.015668748170494
1673612059.914309,-8.540333,4.0141816338069285
1673612059.915317,-8.550526,4.012693111191125
1673612059.9163241,-8.564469,4.0112059968275595
1673612059.917331,-8.584975,4.009719234527053
1673612059.918338,-8.595337,4.008232120163488
1673612059.9193451,-8.595722,4.006745005799922
1673612059.920352,-8.578845,4.005258243499417
1673612059.921359,-8.562353,4.003771129135851
1673612059.9223661,-8.532904,4.002284014772285
1673612059.923373,-8.525499,4.000797252471779
1673612059.92438,-8.523239,3.9993101381082132
1673612059.9253871,-8.507806,3.997823023744648
1673612059.926394,-8.504728,3.996336261444142
1673612059.927402,-8.50593,3.994847738828338
1673612059.928409,-8.525307,3.993894
1673612059.929416,-8.558603,3.980605708353222
1673612059.930423,-8.565623,3.9780693597997137
1673612059.93143,-8.546367,3.9981586057210965
1673612059.932437,-8.537279,3.989874222222222
1673612059.933444,-8.553146,4.011983
1673612059.934451,-8.564301,3.9973996870083432
1673612059.935458,-8.572884,3.968397903525488
1673612059.936465,-8.578508,3.9652494856801908
1673612059.937472,-8.588173,3.973935028996455
1673612059.938479,-8.596996,3.9694960815271076
1673612059.939486,-8.593174,3.965056082921727
1673612059.940494,-8.583894,3.960611879772212
1673612059.9415011,-8.585793,3.938709696305125
1673612059.942508,-8.582379,3.922813193133047
1673612059.943515,-8.571609,3.9511299477825466
1673612059.9445221,-8.558867,3.9463408433849825
1673612059.945529,-8.54716,3.9645522100619934
1673612059.946536,-8.548578,3.975805
1673612059.9475431,-8.540669,3.9616183945172825
1673612059.94855,-8.531798,3.9540585197901765
1673612059.949557,-8.53211,3.975805
1673612059.9505641,-8.528481,3.99077431538828
1673612059.951571,-8.53074,3.981591755184744
1673612059.952579,-8.541125,3.9392398336969223
1673612059.953586,-8.54615,3.9383287526583697
1673612059.954593,-8.552449,3.9374178873113514
1673612059.9556,-8.558771,3.936506806272799
1673612059.956607,-8.564036,3.9355957252342466
1673612059.957614,-8.568364,3.934684859887228
1673612059.958621,-8.566897,3.9337737788486757
1673612059.959628,-8.568628,3.9328626978101235
1673612059.960635,-8.570912,3.931951832463105
1673612059.961642,-8.570527,3.9310407514245527
1673612059.962649,-8.563387,3.930129670386
1673612059.963656,-8.556439,3.9292188050389814
1673612059.964663,-8.548531,3.928307724000429
1673612059.965671,-8.541582,3.927395780195742
1673612059.9666781,-8.537375,3.92648469915719
1673612059.967685,-8.529947,3.925573833810171
1673612059.968692,-8.525355,3.9246627527716185
1673612059.9696991,-8.523264,3.9237516717330663
1673612059.970706,-8.528817,3.9228408063860476
1673612059.971713,-8.532063,3.9219297253474954
1673612059.9727201,-8.537208,3.921018644308943
1673612059.973727,-8.538986,3.9201077789619245
1673612059.974734,-8.538096,3.9191966979233723
1673612059.9757411,-8.544972,3.9182856168848197
1673612059.976748,-8.555815,3.9173747515378015
1673612059.977756,-8.564133,3.916462807733114
1673612059.978763,-8.568339,3.9155517266945616
1673612059.97977,-8.570311,3.914640861347543
1673612059.980777,-8.566801,3.9137297803089908
1673612059.981784,-8.565743,3.9128186992704386
1673612059.982791,-8.571104,3.91190783392342
1673612059.983798,-8.568292,3.9109967528848673
1673612059.984805,-8.550406,3.910085671846315
1673612059.985812,-8.540981,3.9091748064992964
1673612059.986819,-8.534491,3.908263725460744
1673612059.987826,-8.531005,3.907352644422192
1673612059.988833,-8.524875,3.9064417790751733
1673612059.98984,-8.521677,3.905530698036621
1673612059.990848,-8.524755,3.9046187542319335
1673612059.9918551,-8.51896,3.9037076731933813
1673612059.992862,-8.513383,3.9163022746781118
1673612059.993869,-8.516195,3.9085414231227653
1673612059.9948761,-8.534875,3.8378598271340008
1673612059.995883,-8.547881,3.826248754176611
1673612059.99689,-8.564926,3.831084
1673612059.9978971,-8.584591,3.831084
1673612059.998904,-8.59113,3.8174633366714352
1673612059.999911,-8.585048,3.8267450553171196
1673612060.0009181,-8.578485,3.844960138736591
1673612060.001925,-8.57019,3.844133572115178
1673612060.002933,-8.55918,3.8375695853323606
1673612060.00394,-8.550959,3.8310118085654206
1673612060.004947,-8.549203,3.8244555843024504
1673612060.005954,-8.553026,3.8178978075355103
1673612060.006961,-8.542255,3.8267848979737784
1673612060.007968,-8.53425,3.862543505484025
1673612060.008975,-8.52788,3.8346271964711494
1673612060.009982,-8.522614,3.8247638721983783
1673612060.010989,-8.520114,3.883035435518474
1673612060.011996,-8.519249,3.8519937453505007
1673612060.013003,-8.523119,3.90344
1673612060.01401,-8.526917,3.90344
1673612060.015017,-8.541511,3.90344
1673612060.016025,-8.558243,3.90344
1673612060.0170321,-8.563652,3.90344
1673612060.018039,-8.568292,3.90344
1673612060.019046,-8.576321,3.90344
1673612060.0200531,-8.581058,3.90344
1673612060.02106,-8.584543,3.90344
1673612060.022067,-8.584495,3.90344
1673612060.0230742,-8.579134,3.90344
1673612060.024081,-8.564878,3.90344
1673612060.025088,-8.556223,3.90344
1673612060.0260952,-8.552737,3.90344
1673612060.027102,-8.540885,3.90344
1673612060.02811,-8.531245,3.90344
1673612060.029117,-8.527567,3.90344
1673612060.030124,-8.524514,3.90344
1673612060.031131,-8.525091,3.90344
1673612060.032138,-8.526653,3.90344
1673612060.033145,-8.535909,3.90344
1673612060.034152,-8.546367,3.90344
1673612060.035159,-8.553843,3.90344
1673612060.036166,-8.558579,3.90344
1673612060.037173,-8.559348,3.90344
1673612060.03818,-8.559084,3.90344
1673612060.039187,-8.559998,3.90344
1673612060.040194,-8.566945,3.90344
1673612060.041202,-8.57786,3.90344
1673612060.0422091,-8.579711,3.90344
1673612060.043216,-8.566897,3.90344
1673612060.044223,-8.551415,3.90344
1673612060.0452302,-8.537663,3.90344
1673612060.046237,-8.533841,3.90344
1673612060.047244,-8.530524,3.90344
1673612060.0482512,-8.523024,3.90344
1673612060.049258,-8.515066,3.90344
1673612060.050265,-8.52086,3.90344
1673612060.0512722,-8.526894,3.90344
1673612060.052279,-8.528264,3.90344
1673612060.053287,-8.531342,3.90344
1673612060.054294,-8.532736,3.90344
1673612060.055301,-8.535452,3.90344
1673612060.056308,-8.543986,3.90344
1673612060.057315,-8.561152,3.90344
1673612060.058322,-8.567859,3.9145640128755366
1673612060.059329,-8.576321,3.854012638292799
1673612060.060336,-8.576442,3.835753937306317
1673612060.061343,-8.575528,3.895185427038627
1673612060.06235,-8.56959,3.8982646773962806
1673612060.063357,-8.559661,3.897109928009535
1673612060.064364,-8.550838,3.90344
1673612060.065371,-8.543722,3.90344
1673612060.066379,-8.53901,3.915599206008584
1673612060.0673862,-8.536895,3.9220612284623355
1673612060.068393,-8.532447,3.922848654856313
1673612060.0694,-8.526966,3.9236362677116667
1673612060.0704072,-8.522278,3.9244238805670206
1673612060.071414,-8.523961,3.925211306960998
1673612060.072421,-8.520931,3.9259989198163523
1673612060.0734282,-8.515931,3.926786532671706
1673612060.074435,-8.523528,3.9275739590656835
1673612060.075442,-8.54002,3.928361571921038
1673612060.076449,-8.549756,3.929148998315015
1673612060.077456,-8.547977,3.929936611170369
1673612060.078464,-8.536582,3.93072496987123
1673612060.079471,-8.533457,3.9315125827265844
1673612060.080478,-8.54038,3.9323000091205618
1673612060.081485,-8.541198,3.9330876219759157
1673612060.082492,-8.536077,3.9338752348312696
1673612060.083499,-8.543386,3.934662661225247
1673612060.084506,-8.56483,3.935450274080601
1673612060.085513,-8.580672,3.936237886935955
1673612060.08652,-8.585024,3.9370253133299324
1673612060.087527,-8.572667,3.9378129261852868
1673612060.088534,-8.546343,3.9386005390406407
1673612060.089541,-8.530259,3.939387965434618
1673612060.090548,-8.534467,3.9401755782899723
1673612060.091556,-8.542352,3.9409639369908334
1673612060.0925632,-8.542905,3.9417515498461873
1673612060.09357,-8.548602,3.9425389762401646
1673612060.094577,-8.550285,3.9433265890955185
1673612060.0955842,-8.541775,3.944114201950873
1673612060.096591,-8.546126,3.94490162834485
1673612060.097598,-8.551607,3.945689241200204
1673612060.098605,-8.569638,3.9464766675941814
1673612060.099612,-8.595049,3.9472642804495357
1673612060.100619,-8.602934,3.9480518933048896
1673612060.101626,-8.593726,3.948839319698867
1673612060.102633,-8.577451,3.949626932554221
1673612060.103641,-8.566152,3.950415291255082
1673612060.104648,-8.55204,3.951202904110436
1673612060.105655,-8.538193,3.9519903305044135
1673612060.106662,-8.521076,3.9527779433597674
1673612060.107669,-8.504921,3.9535655562151217
1673612060.108676,-8.498165,3.954352982609099
1673612060.109683,-8.509777,3.955140595464453
1673612060.11069,-8.519513,3.9559282083198073
1673612060.111697,-8.527399,3.9567156347137846
1673612060.112704,-8.532687,3.9575032475691385
1673612060.113711,-8.537952,3.9178178340486407
1673612060.114718,-8.54692,3.9302912026704817
1673612060.115725,-8.560214,3.939627
1673612060.116733,-8.572114,3.9259269582737244
1673612060.1177402,-8.568725,3.9768296232713403
1673612060.118747,-8.572354,4.0078391313468416
1673612060.119754,-8.579014,3.9979094647114928
1673612060.120761,-8.576777,4.008092614210777
1673612060.121768,-8.567811,4.011983
1673612060.122775,-8.558339,4.016637987695916
1673612060.123782,-8.554541,4.0225025500586415
1673612060.124789,-8.541751,4.0283685011408465
1673612060.125796,-8.531462,4.0342344522230515
1673612060.126803,-8.532928,4.040099014585777
1673612060.12781,-8.529418,4.045964965667982
1673612060.128818,-8.528048,4.051836471628105
1673612060.129825,-8.524105,4.05770242271031
1673612060.130832,-8.518263,4.063566985073035
1673612060.131839,-8.526437,4.06943293615524
1673612060.132846,-8.538073,4.075298887237445
1673612060.133853,-8.544395,4.0811634496001705
1673612060.13486,-8.550357,4.0870294006823755
1673612060.1358671,-8.556825,4.0928953517645805
1673612060.136874,-8.561705,4.098759914127306
1673612060.137881,-8.56483,4.104625865209511
1673612060.1388881,-8.569686,4.110491816291716
1673612060.139895,-8.571801,4.116356378654441
1673612060.140902,-8.567185,4.122222329736646
1673612060.14191,-8.566464,4.128093835696769
1673612060.142917,-8.55983,4.1339583980594945
1673612060.143924,-8.557617,4.1398243491416995
1673612060.144931,-8.543193,4.1456903002239045
1673612060.145938,-8.532471,4.15155486258663
1673612060.146945,-8.528673,4.157420813668835
1673612060.147952,-8.523601,4.16328676475104
1673612060.148959,-8.518672,4.169151327113765
1673612060.149966,-8.515618,4.17501727819597
1673612060.150973,-8.515258,4.180883229278175
1673612060.15198,-8.512181,4.1867477916409
1673612060.152987,-8.518696,4.192613742723105
1673612060.153995,-8.525091,4.1984852486832285
1673612060.155002,-8.532207,4.2043511997654335
1673612060.156009,-8.540885,4.210215762128159
1673612060.157016,-8.561825,4.216081713210364
1673612060.1580231,-8.589928,4.221947664292569
1673612060.15903,-8.611156,4.227812226655294
1673612060.160037,-8.617118,4.233678177737499
1673612060.1610441,-8.612839,4.239544128819704
1673612060.162051,-8.599496,4.245408691182429
1673612060.163058,-8.587812,4.251274642264633
1673612060.1640651,-8.579975,4.257140593346838
1673612060.165072,-8.562618,4.263005155709564
1673612060.166079,-8.545189,4.268871106791768
1673612060.167087,-8.529731,4.274742612751893
1673612060.168094,-8.513263,4.280607175114618
1673612060.169101,-8.500786,4.286473126196823
1673612060.170108,-8.493429,4.292339077279028
1673612060.171115,-8.490352,4.298203639641753
1673612060.172122,-8.492179,4.304069590723957
1673612060.173129,-8.498261,4.309935541806162
1673612060.174136,-8.510931,4.315800104168888
1673612060.175143,-8.523312,4.321666055251092
1673612060.17615,-8.532086,4.327532006333297
1673612060.177157,-8.53175,4.333396568696022
1673612060.178164,-8.536029,4.322140657367668
1673612060.179172,-8.541078,4.304539033857893
1673612060.1801791,-8.552377,4.371980969010727
1673612060.181186,-8.552209,4.398865167381975
1673612060.182193,-8.556752,4.396510233190272
1673612060.1832001,-8.543795,4.422906198855507
1673612060.184207,-8.535933,4.421258867938022
1673612060.185214,-8.548362,4.524569858130663
1673612060.1862211,-8.551847,4.530409749880782
1673612060.187228,-8.555021,4.522885430978934
1673612060.188235,-8.555526,4.53550962527881
1673612060.1892421,-8.563099,4.548133819578686
1673612060.190249,-8.5587,4.537176950882213
1673612060.191256,-8.547954,4.5362755971394515
1673612060.192264,-8.546487,4.545660752265141
1673612060.193271,-8.546631,4.545751326657129
1673612060.194278,-8.539756,4.563967506078665
1673612060.195285,-8.530644,4.5821837975679545
1673612060.196292,-8.518672,4.610564967967194
1673612060.197299,-8.527278,4.648215846109015
1673612060.198306,-8.538697,4.685866724250837
1673612060.199313,-8.541101,4.723508688832493
1673612060.20032,-8.545237,4.761159566974315
1673612060.201327,-8.552401,4.798810445116136
1673612060.202334,-8.555069,4.836452409697792
1673612060.203341,-8.54579,4.874103287839613
1673612060.204349,-8.529682,4.9117898202221
1673612060.2053561,-8.531919,4.949440698363921
1673612060.206363,-8.558026,4.987082662945577
1673612060.20737,-8.591443,5.024733541087398
1673612060.2083771,-8.622935,5.06238441922922
1673612060.209384,-8.62861,5.100026383810876
1673612060.210391,-8.638586,5.137677261952698
1673612060.2113981,-8.647,5.1753281400945195
1673612060.212405,-8.649092,5.212970104676175
1673612060.213412,-8.632816,5.250620982817996
1673612060.2144191,-8.611949,5.288271860959819
1673612060.215426,-8.605771,5.325913825541474
1673612060.216433,-8.610387,5.363564703683296
1673612060.217441,-8.608776,5.401251236065782
1673612060.218448,-8.603703,5.4388932006474375
1673612060.219455,-8.586178,5.476544078789259
1673612060.220462,-8.538025,5.514194956931081
1673612060.221469,-8.501603,5.551836921512737
1673612060.222476,-8.501723,5.589487799654559
1673612060.223483,-8.501219,5.62713867779638
1673612060.22449,-8.497131,5.664780642378036
1673612060.225497,-8.47713,5.702431520519857
1673612060.226504,-8.461672,5.740082398661679
1673612060.227511,-8.465494,5.777724363243335
1673612060.228518,-8.472081,5.815375241385157
1673612060.229526,-8.475712,5.853061773767642
1673612060.2305331,-8.481241,5.890712651909464
1673612060.23154,-8.482154,5.92835461649112
1673612060.232547,-8.483981,5.966005494632942
1673612060.2335541,-8.494343,6.003656372774763
1673612060.234561,-8.510642,6.0412983373564195
1673612060.235568,-8.526653,6.078949215498241
1673612060.2365751,-8.534563,6.116600093640063
1673612060.237582,-8.539996,6.154242058221718
1673612060.238589,-8.557906,6.19189293636354
1673612060.2395961,-8.557546,6.229543814505361
1673612060.240603,-8.547016,6.267185779087017
1673612060.24161,-8.535645,6.30381801382928
1673612060.242618,-8.52949,6.355729131616595
1673612060.243625,-8.526606,6.410361564719905
1673612060.244632,-8.535597,6.496386480686695
1673612060.245639,-8.606444,6.540045276108727
1673612060.246646,-8.6846,6.592417387935145
1673612060.247653,-8.700635,6.647062026221692
1673612060.24866,-8.680056,6.717907003338102
1673612060.249667,-8.655944,6.807087766809729
1673612060.250674,-8.634018,6.885081527237055
1673612060.251681,-8.628465,6.961662466930032
1673612060.252688,-8.624811,7.0382252766656945
1673612060.253695,-8.590384,7.114806216358671
1673612060.254703,-8.533504,7.191459675880902
1673612060.2557101,-8.481457,7.268040615573879
1673612060.256717,-8.464268,7.3446034253095425
1673612060.257724,-8.470182,7.421184365002519
1673612060.2587311,-8.486842,7.497765304695496
1673612060.259738,-8.497348,7.574328114431158
1673612060.260745,-8.496747,7.650909054124135
1673612060.2617521,-8.496314,7.7274899938171115
1673612060.262759,-8.497204,7.804052803552775
1673612060.263766,-8.498165,7.880633743245752
1673612060.2647731,-8.495064,7.957214682938728
1673612060.26578,-8.492155,8.03377749267439
1673612060.266787,-8.485568,8.110358432367368
1673612060.267795,-8.478477,8.187011891889599
1673612060.268802,-8.472634,8.263574701625261
1673612060.269809,-8.471,8.340155641318239
1673612060.270816,-8.473284,8.416736581011214
1673612060.271823,-8.4767690000000009,8.493299390746877
1673612060.27283,-8.48189,8.569880330439855
1673612060.273837,-8.489343,8.646461270132832
1673612060.274844,-8.489655,8.723024079868495
1673612060.275851,-8.507493,8.79960501956147
1673612060.276858,-8.536654,8.876185959254448
1673612060.277865,-8.54002,8.95274876899011
1673612060.278872,-8.524009,9.029329708683086
1673612060.27988,-8.519153,9.105983168205318
1673612060.2808871,-8.534347,9.182564107898296
1673612060.281894,-8.532784,9.259126917633958
1673612060.282901,-8.519442,9.335707857326934
1673612060.2839081,-8.508599,9.412288797019912
1673612060.284915,-8.506603,9.488851606755574
1673612060.285922,-8.501796,9.565432546448552
1673612060.2869291,-8.484054,9.642013486141527
1673612060.287936,-8.472682,9.71857629587719
1673612060.288943,-8.476673,9.795157235570167
1673612060.2899501,-8.483741,9.871738175263143
1673612060.290957,-8.48451,9.948300984998806
1673612060.291964,-8.485375,10.024881924691783
1673612060.292972,-8.489463,10.101535384214015
1673612060.293979,-8.490497,10.178098193949678
1673612060.294986,-8.497877,10.253725959942775
1673612060.295993,-8.508238,10.321786145922747
1673612060.297,-8.523889,10.376427307508939
1673612060.298007,-8.529081,10.441206699093945
1673612060.299014,-8.526942,10.511529228421555
1673612060.300021,-8.526653,10.561659721030043
1673612060.301028,-8.538,10.678293520858166
1673612060.302035,-8.555815,10.752652963280877
1673612060.303042,-8.572715,10.800479077014783
1673612060.304049,-8.581466,10.855585334824209
1673612060.305057,-8.568292,10.872905222046086
1673612060.3060641,-8.560815,10.89020872337655
1673612060.307071,-8.553074,10.907508128234161
1673612060.308078,-8.547377,10.927471659513591
1673612060.3090851,-8.535957,10.972697020108242
1673612060.310092,-8.514585,11.06923069420404
1673612060.311099,-8.513335,11.165787227327565
1673612060.3121061,-8.50783,11.262343760451088
1673612060.313113,-8.486866,11.358877434546885
1673612060.31412,-8.478428,11.45543396767041
1673612060.3151271,-8.474509,11.551990500793934
1673612060.316134,-8.483861,11.648524174889731
1673612060.317141,-8.5261,11.745080708013257
1673612060.318149,-8.543001,11.841728677247694
1673612060.319156,-8.535692,11.93826235134349
1673612060.320163,-8.534202,12.034818884467015
1673612060.32117,-8.544467,12.13137541759054
1673612060.322177,-8.548218,12.227909091686337
1673612060.323184,-8.546559,12.32446562480986
1673612060.324191,-8.542159,12.421022157933386
1673612060.325198,-8.542424,12.517555832029183
1673612060.326205,-8.544347,12.614112365152707
1673612060.327212,-8.535356,12.710668898276232
1673612060.328219,-8.532207,12.807202572372029
1673612060.329226,-8.518359,12.903759105495553
1673612060.330234,-8.507084,13.00040707472999
1673612060.3312411,-8.490544,13.096963607853516
1673612060.332248,-8.480568,13.193497281949313
1673612060.333255,-8.483644,13.290053815072836
1673612060.3342621,-8.474365,13.386610348196362
1673612060.335269,-8.466215,13.483144022292159
1673612060.336276,-8.480568,13.579700555415684
1673612060.3372831,-8.497828,13.676257088539208
1673612060.33829,-8.498815,13.772790762635005
1673612060.339297,-8.494175,13.86934729575853
1673612060.3403041,-8.484775,13.965903828882054
1673612060.341311,-8.482683,14.06243750297785
1673612060.342318,-8.479198,14.158994036101376
1673612060.343326,-8.47689,14.255642005335812
1673612060.344333,-8.469509,14.352175679431609
1673612060.34534,-8.480328,14.448732212555134
1673612060.346347,-8.492564,14.545288745678658
1673612060.347354,-8.485087,14.641822419774456
1673612060.348361,-8.48201,14.73837895289798
1673612060.349368,-8.473812,14.834935486021505
1673612060.350375,-8.466672,14.931469160117302
1673612060.351382,-8.466552,15.028025693240826
1673612060.352389,-8.474822,15.124582226364351
1673612060.353396,-8.476673,15.221115900460148
1673612060.354403,-8.477346,15.317672433583674
1673612060.355411,-8.492708,15.41432040281811
1673612060.3564181,-8.511868,15.510876935941635
1673612060.357425,-8.528048,15.60741061003743
1673612060.358432,-8.538096,15.703967143160956
1673612060.3594391,-8.53824,15.806874401525988
1673612060.360446,-8.538914,15.888582859833134
1673612060.361453,-8.55757,15.980501712446353
1673612060.3624601,-8.569662,16.108039483547927
1673612060.363467,-8.561152,16.197252766865315
1673612060.364474,-8.546511,16.27129761707201
1673612060.3654811,-8.532327,16.35257254840248
1673612060.366488,-8.527206,16.475167247437426
1673612060.367496,-8.517926,16.608997566523605
1673612060.368503,-8.489078,16.66034783641223
1673612060.36951,-8.455878,16.666354183318923
1673612060.370517,-8.47148,16.672361952519456
1673612060.371524,-8.498141,16.67836972171999
1673612060.372531,-8.517879,16.68437606862668
1673612060.373538,-8.510642,16.690383837827213
1673612060.374545,-8.497708,16.70295132657926
1673612060.375552,-8.502444,16.81037119456366
1673612060.376559,-8.51045,16.952399795422032
1673612060.377566,-8.503983,17.04476278200747
1673612060.378573,-8.495233,17.123690225780816
1673612060.37958,-8.500617,17.20263635945323
1673612060.380588,-8.511845,17.309823710369486
1673612060.3815951,-8.504248,17.394574682880307
1673612060.382602,-8.499632,17.49249117167382
1673612060.383609,-8.493646,17.554341952800954
1673612060.3846161,-8.484943,17.605772952551263
1673612060.385623,-8.482659,17.712225230329043
1673612060.38663,-8.48528,17.783132233190273
1673612060.3876371,-8.494439,17.865377639809296
1673612060.388644,-8.503839,17.92835265951359
1673612060.389651,-8.493021,17.99210496709825
1673612060.3906581,-8.466311,18.07105044868373
1673612060.391665,-8.446117,18.14997724052452
1673612060.392673,-8.453835,18.22899748108878
1673612060.39368,-8.462562,18.30794296267426
1673612060.394687,-8.479486,18.38686975451505
1673612060.395694,-8.499656,18.465815236100532
1673612060.396701,-8.503166,18.544760717686017
1673612060.397708,-8.505281,18.623687509526807
1673612060.398715,-8.509104,18.70263299111229
1673612060.399722,-8.521484,18.78157847269777
1673612060.400729,-8.521725,18.86050526453856
1673612060.401736,-8.522879,18.939450746124045
1673612060.402743,-8.512542,19.018396227709527
1673612060.40375,-8.501363,19.097323019550316
1673612060.404757,-8.490473,19.1762685011358
1673612060.405765,-8.479101,19.255288741700056
1673612060.4067721,-8.465302,19.33423422328554
1673612060.407779,-8.462273,19.41316101512633
1673612060.408786,-8.461528,19.492106496711813
1673612060.4097931,-8.479798,19.571051978297294
1673612060.4108,-8.501651,19.649978770138084
1673612060.411807,-8.516748,19.72892425172357
1673612060.4128141,-8.572667,19.80786973330905
1673612060.413821,-8.614329,19.88679652514984
1673612060.414828,-8.642385,19.965742006735322
1673612060.4158351,-8.672123,20.044687488320807
1673612060.416842,-8.672411,20.123614280161597
1673612060.41785,-8.658323,20.20263452072585
1673612060.418857,-8.623585,20.281580002311337
1673612060.419864,-8.591635,20.360506794152126
1673612060.420871,-8.581755,20.439452275737608
1673612060.421878,-8.559253,20.518397757323093
1673612060.422885,-8.514946,20.59732454916388
1673612060.423892,-8.479077,20.676270030749365
1673612060.424899,-8.469172,20.755215512334846
1673612060.425906,-8.484174,20.87766232832618
1673612060.426913,-8.490111,20.988729171156137
1673612060.42792,-8.48076,21.098037804005724
1673612060.428927,-8.465302,21.123843802575106
1673612060.429934,-8.484534,21.209371729136862
1673612060.430942,-8.507806,21.334472656734206
1673612060.4319491,-8.497275,21.427814480209822
1673612060.432956,-8.520836,21.484442173104433
1673612060.433963,-8.5712,21.59113464862932
1673612060.4349701,-8.605098,21.69333121816296
1673612060.435977,-8.585793,21.795202461820953
1673612060.436984,-8.560551,21.897097828435054
1673612060.4379911,-8.538,21.99899319504916
1673612060.438998,-8.506772,22.100864438707152
1673612060.440005,-8.472178,22.202759805321254
1673612060.4410121,-8.467032,22.30465517193536
1673612060.442019,-8.468572,22.40652641559335
1673612060.443027,-8.452104,22.5085182740319
1673612060.444034,-8.434097,22.610413640646
1673612060.445041,-8.432679,22.712284884303994
1673612060.446048,-8.436116,22.814180250918096
1673612060.447055,-8.442608,22.9160756175322
1673612060.448062,-8.443377,23.017946861190193
1673612060.449069,-8.439771,23.119842227804295
1673612060.450076,-8.444627,23.2217375944184
1673612060.451083,-8.454652,23.323608838076392
1673612060.45209,-8.458907,23.425504204690494
1673612060.453097,-8.478597,23.5273995713046
1673612060.454104,-8.480135,23.629270814962588
1673612060.455111,-8.490544,23.731166181576693
1673612060.456119,-8.508647,23.833158040015242
1673612060.4571261,-8.515547,23.928685153552696
1673612060.458133,-8.524322,24.008874991656732
1673612060.45914,-8.537352,24.070748429184547
1673612060.4601471,-8.530956,24.147661939914162
1673612060.461154,-8.518865,24.261224971871275
1673612060.462161,-8.503959,24.343240267525037
1673612060.4631681,-8.485064,24.420912668097284
1673612060.464175,-8.455542,24.488723806866954
1673612060.465182,-8.429554,24.5904153466031
1673612060.4661891,-8.415922,24.683124866893735
1673612060.467196,-8.416764,24.75728152360354
1673612060.468204,-8.429891,24.83152598123297
1673612060.469211,-8.451574,24.905700198126702
1673612060.470218,-8.448185,24.979856854836513
1673612060.471225,-8.44018,25.054031071730247
1673612060.472232,-8.446406,25.128205288623978
1673612060.473239,-8.453931,25.202361945333788
1673612060.474246,-8.466047,25.276536162227522
1673612060.475253,-8.474822,25.350710379121253
1673612060.47626,-8.480639,25.424867035831063
1673612060.477267,-8.501194,25.499041252724798
1673612060.478274,-8.499392,25.573215469618532
1673612060.479281,-8.48903,25.64737212632834
1673612060.480288,-8.490544,25.73425195851216
1673612060.481296,-8.488742,25.825416939213348
1673612060.4823031,-8.506796,25.93045813590844
1673612060.48331,-8.532375,25.997524383881736
1673612060.484317,-8.542304,26.10897407103695
1673612060.4853241,-8.563556,26.16486593323796
1673612060.486331,-8.604497,26.24465542560801
1673612060.487338,-8.629595,26.335754640915592
1673612060.4883451,-8.627527,26.515088301072705
1673612060.489352,-8.608463,26.644159734658913
1673612060.490359,-8.598414,26.757015992640667
1673612060.4913661,-8.588486,26.86987225062242
1673612060.492373,-8.518623,26.98270179074007
1673612060.493381,-8.504488,27.095664920178244
1673612060.494388,-8.576153,27.208521178159998
1673612060.495395,-8.599761,27.321350718277646
1673612060.496402,-8.591827,27.4342069762594
1673612060.497409,-8.579855,27.547063234241154
1673612060.498416,-8.561872,27.659892774358802
1673612060.499423,-8.535404,27.772749032340556
1673612060.50043,-8.544563,27.88560529032231
1673612060.501437,-8.551583,27.998434830439955
1673612060.502444,-8.502253,28.11129108842171
1673612060.503451,-8.439771,28.224147346403463
1673612060.504458,-8.416524,28.33697688652111
1673612060.505465,-8.434338,28.449833144502865
1673612060.506473,-8.4343610000000009,28.56279627394104
1673612060.5074801,-8.424938,28.675652531922793
1673612060.508487,-8.438016,28.78848207204044
1673612060.509494,-8.440492,28.901338330022195
1673612060.5105011,-8.424602,29.01419458800395
1673612060.511508,-8.417197,29.127024128121597
1673612060.512515,-8.413567,29.23988038610335
1673612060.5135221,-8.415009,29.352736644085105
1673612060.514529,-8.42828,29.465566184202753
1673612060.515536,-8.437199,29.578422442184507
1673612060.5165431,-8.443786,29.69127870016626
1673612060.51755,-8.475592,29.80410824028391
1673612060.518558,-8.519633,29.917071369722084
1673612060.519565,-8.572138,30.029927627703838
1673612060.520572,-8.60166,30.142757167821486
1673612060.521579,-8.609954,30.25561342580324
1673612060.522586,-8.591948,30.368469683784994
1673612060.523593,-8.568916,30.48129922390264
1673612060.5246,-8.55055,30.594155481884393
1673612060.525607,-8.516604,30.707011739866147
1673612060.526614,-8.456263,30.819841279983795
1673612060.527621,-8.418375,30.93269753796555
1673612060.528628,-8.420875,31.045553795947303
1673612060.529635,-8.414456,31.15838333606495
1673612060.530642,-8.421452,31.271239594046705
1673612060.53165,-8.417942,31.38420272348488
1673612060.5326571,-8.411668,31.497058981466633
1673612060.533664,-8.429674,31.60988852158428
1673612060.534671,-8.448522,31.722744779566035
1673612060.5356781,-8.451118,31.83560103754779
1673612060.536685,-8.460806,31.948430577665437
1673612060.537692,-8.478332,32.06128683564719
1673612060.5386992,-8.486626,32.17414309362894
1673612060.539706,-8.567666,32.28697263374659
1673612060.540713,-8.683806,32.39982889172835
1673612060.5417202,-8.784247,32.5126851497101
1673612060.542727,-8.85887,32.625514689827746
1673612060.543735,-8.849638,32.738477819265924
1673612060.544742,-8.82728,32.85133407724768
1673612060.545749,-8.766843,32.97461016618979
1673612060.546756,-8.680922,33.15451401334922
1673612060.547763,-8.586586,33.31524127610872
1673612060.54877,-8.445589,33.44770317303103
1673612060.549777,-8.326396,33.57518353096713
1673612060.550784,-8.256462,33.72987483551847
1673612060.551791,-8.248456,33.85261477038627
1673612060.552798,-8.310409,33.9896507167382
1673612060.553805,-8.366111,34.13537892896306
1673612060.554812,-8.377842,34.320104841856846
1673612060.555819,-8.385319,34.51623976940295
1673612060.556827,-8.39455,34.712560430781956
1673612060.5578341,-8.403229,34.90869535832806
1673612060.558841,-8.421548,35.10478385241594
1673612060.559848,-8.43328,35.300918779962046
1673612060.5608552,-8.435781,35.49705370750815
1673612060.561862,-8.440228,35.69314220159603
1673612060.562869,-8.454868,35.88927712914214
1673612060.5638762,-8.462369,36.08541205668824
1673612060.564883,-8.460349,36.281500550776116
1673612060.56589,-8.4503,36.47763547832222
1673612060.5668972,-8.443473,36.673770405868325
1673612060.567904,-8.443593,36.869858899956206
1673612060.568912,-8.44744,37.06617956133521
1673612060.569919,-8.461432,37.262314488881316
1673612060.570926,-8.4829,37.4584029829692
1673612060.571933,-8.493549,37.6545379105153
1673612060.57294,-8.494679,37.850672838061406
1673612060.573947,-8.496603,38.0423873397711
1673612060.574954,-8.502805,38.207046664520746
1673612060.575961,-8.508695,38.316658332538736
1673612060.576968,-8.506772,38.426076984978536
1673612060.577975,-8.504681,38.57714986981402
1673612060.578982,-8.50081,38.680946936591184
1673612060.579989,-8.491385,38.82138379136862
1673612060.580996,-8.501916,38.972151321649974
1673612060.582004,-8.513767,39.0795487318236
1673612060.5830112,-8.506291,39.17505887382018
1673612060.584018,-8.503334,39.30791348369634
1673612060.585025,-8.502324,39.44079955334278
1673612060.5860322,-8.50807,39.57368562298922
1673612060.587039,-8.551776,39.70654023286538
1673612060.588046,-8.585649,39.83942630251182
1673612060.5890532,-8.599641,39.97231237215826
1673612060.59006,-8.596851,40.10516698203442
1673612060.591067,-8.569999,40.23805305168086
1673612060.592074,-8.531365,40.37090766155702
1673612060.593081,-8.48802,40.50379373120346
1673612060.594089,-8.460494,40.636805639931
1673612060.595096,-8.469076,40.76969170957744
1673612060.596103,-8.49028,40.9025463194536
1673612060.59711,-8.554084,41.03543238910004
1673612060.598117,-8.61404,41.16831845874648
1673612060.599124,-8.633946,41.30117306862264
1673612060.600131,-8.608824,41.4494935
1673612060.601138,-8.602886,41.60429317882689
1673612060.602145,-8.610458,41.740699419070324
1673612060.603152,-8.598679,41.868223558655224
1673612060.604159,-8.57173,42.00531370338579
1673612060.605166,-8.512613,42.1606922715137
1673612060.606173,-8.464581,42.29523847567954
1673612060.607181,-8.461648,42.404659763948494
1673612060.6081882,-8.483933,42.54421729542203
1673612060.609195,-8.490256,42.63406614688797
1673612060.610202,-8.473861,42.665773188500296
1673612060.6112092,-8.48903,42.697480230112625
1673612060.612216,-8.516845,42.72917976532306
1673612060.613223,-8.514273,42.8460684055794
1673612060.61423,-8.507902,42.95514601191895
1673612060.615237,-8.511027,43.104869815212204
1673612060.616244,-8.50218,43.2591193030011
1673612060.617251,-8.487347,43.368023476689544
1673612060.618258,-8.474485,43.476953438721274
1673612060.619266,-8.467706,43.58598655412614
1673612060.620273,-8.462201,43.69491651615787
1673612060.62128,-8.464148,43.80382068984632
1673612060.622287,-8.459244,43.91275065187804
1673612060.623294,-8.453522,44.02168061390977
1673612060.624301,-8.449002,44.130584787598224
1673612060.625308,-8.431068,44.23951474962995
1673612060.626315,-8.424433,44.34844471166168
1673612060.627322,-8.431525,44.45734888535013
1673612060.628329,-8.455085,44.56627884738185
1673612060.629336,-8.502589,44.67520880941358
1673612060.630343,-8.556849,44.784112983102034
1673612060.63135,-8.587283,44.89304294513376
1673612060.632358,-8.591659,45.00207606053863
1673612060.6333652,-8.600193,45.11100602257036
1673612060.634372,-8.608704,45.2199101962588
1673612060.635379,-8.631903,45.32884015829053
1673612060.636386,-8.620676,45.437744331978976
1673612060.637393,-8.58774,45.54667429401071
1673612060.6384,-8.555021,45.65560425604244
1673612060.639407,-8.509753,45.76450842973088
1673612060.640414,-8.459388,45.87343839176261
1673612060.641421,-8.468668,45.98236835379434
1673612060.642428,-8.537663,46.091272527482786
1673612060.643435,-8.56608,46.20020248951452
1673612060.644443,-8.54115,46.30923560491938
1673612060.64545,-8.519537,46.41816556695111
1673612060.646457,-8.506219,46.52706974063956
1673612060.647464,-8.511147,46.635999702671285
1673612060.648471,-8.50771,46.744929664703015
1673612060.649478,-8.485832,46.853833838391466
1673612060.650485,-8.472754,46.96276380042319
1673612060.6514921,-8.483044,47.07169376245492
1673612060.652499,-8.478404,47.18059793614337
1673612060.653506,-8.479534,47.289527898175095
1673612060.6545131,-8.492155,47.398457860206825
1673612060.65552,-8.518432,47.50736203389528
1673612060.656527,-8.555165,47.616291995927
1673612060.657535,-8.582452,47.72532511133187
1673612060.658542,-8.60154,47.834229285020314
1673612060.659549,-8.603415,47.943159247052044
1673612060.660556,-8.608127,48.052089209083775
1673612060.661563,-8.584254,48.16099338277222
1673612060.66257,-8.567907,48.26992334480395
1673612060.663577,-8.545164,48.37885330683568
1673612060.664584,-8.502757,48.48809436233611
1673612060.665591,-8.487347,48.54650831235097
1673612060.666598,-8.47237,48.61825908869814
1673612060.667605,-8.438569,48.63944496829559
1673612060.668612,-8.414673,48.709713241297095
1673612060.66962,-8.406956,48.817652484978545
1673612060.670627,-8.405081,48.89170092538736
1673612060.671634,-8.402868,48.98230960181211
1673612060.672641,-8.40609,49.03765306390081
1673612060.6736481,-8.424481,49.062261508449026
1673612060.674655,-8.451503,49.08650430916303
1673612060.675662,-8.474318,49.110752850535505
1673612060.6766691,-8.491891,49.13500139190798
1673612060.677676,-8.508286,49.159244192621976
1673612060.678683,-8.523191,49.18349273399445
1673612060.6796901,-8.554708,49.20774127536692
1673612060.680697,-8.57875,49.23198407608092
1673612060.681704,-8.585841,49.25623261745339
1673612060.682712,-8.589279,49.28050412145974
1673612060.683719,-8.606853,49.30474692217374
1673612060.684726,-8.643009,49.33338595851216
1673612060.685733,-8.650726,49.436287
1673612060.68674,-8.635221,49.44342983261802
1673612060.687747,-8.618585,49.548786394849785
1673612060.688754,-8.570239,49.60054327038627
1673612060.689761,-8.518143,49.621906377830754
1673612060.690768,-8.499463,49.671459
1673612060.691775,-8.458523,49.67877406151645
1673612060.692782,-8.400176,49.743816
1673612060.693789,-8.38765,49.74469131645157
1673612060.694797,-8.412245,49.75236940349975
1673612060.6958041,-8.436381,49.76004022651099
1673612060.696811,-8.463571,49.76770923351299
1673612060.697818,-8.471216,49.77538005652422
1673612060.6988251,-8.460734,49.78305087953546
1673612060.699832,-8.460782,49.79071988653746
1673612060.700839,-8.477081,49.7983907095487
1673612060.7018461,-8.486482,49.80606153255994
1673612060.702853,-8.483813,49.81373053956194
1673612060.70386,-8.488429,49.82140136257318
1673612060.7048671,-8.481025,49.82907218558441
1673612060.705874,-8.477081,49.836741192586416
1673612060.706881,-8.47713,49.84441201559765
1673612060.707889,-8.466744,49.85209010264583
1673612060.708896,-8.460374,49.85975910964783
1673612060.709903,-8.46285,49.867429932659064
1673612060.71091,-8.472875,49.8751007556703
1673612060.711917,-8.476649,49.882769762672304
1673612060.712924,-8.489294,49.89044058568354
1673612060.713931,-8.502541,49.89811140869478
1673612060.714938,-8.499945,49.90578041569678
1673612060.715945,-8.495881,49.91345123870802
1673612060.716952,-8.509753,49.92112206171925
1673612060.717959,-8.510546,49.92879106872125
1673612060.718966,-8.512253,49.93646189173249
1673612060.719974,-8.51872,49.944139978780676
1673612060.7209811,-8.526245,49.95181080179191
1673612060.721988,-8.535501,49.95947980879391
1673612060.722995,-8.531486,49.96715063180515
1673612060.7240021,-8.526293,49.974821454816386
1673612060.725009,-8.52199,49.98249046181839
1673612060.726016,-8.514032,49.990161284829625
1673612060.7270231,-8.527783,49.997832107840864
1673612060.72803,-8.535621,50.005501114842865
1673612060.729037,-8.534106,50.013171937854096
1673612060.7300441,-8.531702,50.020842760865335
1673612060.731051,-8.514464,50.028511767867336
1673612060.732058,-8.503574,50.02630826609442
1673612060.733066,-8.490232,49.99388669964243
1673612060.734073,-8.478188,49.90317052742012
1673612060.73508,-8.465903,49.82352615188364
1673612060.736087,-8.45018,49.804375646722285
1673612060.737094,-8.496363,49.769501309728184
1673612060.738101,-8.529442,49.75682046781116
1673612060.739108,-8.540308,49.69431420738975
1673612060.740115,-8.564781,49.653362
1673612060.741122,-8.564541,49.62297201877005
1673612060.742129,-8.567691,49.55465521157722
1673612060.743136,-8.562426,49.48635457787095
1673612060.744143,-8.540068,49.41803777067812
1673612060.745151,-8.523961,49.34965626953908
1673612060.7461581,-8.513816,49.28133946234626
1673612060.747165,-8.492395,49.21303882863998
1673612060.748172,-8.469485,49.14472202144715
1673612060.7491791,-8.465254,49.07640521425433
1673612060.750186,-8.462465,49.00810458054805
1673612060.751193,-8.460614,48.93978777335522
1673612060.7522001,-8.457056,48.8714709661624
1673612060.753207,-8.474918,48.80317033245612
1673612060.754214,-8.499271,48.73485352526329
1673612060.7552211,-8.514826,48.66653671807047
1673612060.756228,-8.52247,48.59823608436419
1673612060.757235,-8.525884,48.52991927717136
1673612060.758243,-8.526052,48.46153777603233
1673612060.75925,-8.516557,48.39323714232605
1673612060.760257,-8.52134,48.32492033513323
1673612060.761264,-8.528865,48.2566035279404
1673612060.762271,-8.530788,48.18830289423412
1673612060.763278,-8.51908,48.1199860870413
1673612060.764285,-8.510667,48.05166927984847
1673612060.765292,-8.512349,47.98336864614219
1673612060.766299,-8.510161,47.91505183894937
1673612060.767306,-8.517975,47.84673503175654
1673612060.768313,-8.524442,47.77843439805026
1673612060.76932,-8.529827,47.710117590857436
1673612060.770328,-8.517686,47.6417360897184
1673612060.7713351,-8.49129,47.57341928252557
1673612060.772342,-8.479991,47.5051186488193
1673612060.773349,-8.49141,47.43680184162647
1673612060.7743561,-8.507902,47.36848503443364
1673612060.775363,-8.512493,47.30018440072737
1673612060.77637,-8.500834,47.23186759353454
1673612060.7773771,-8.506652,47.16355078634171
1673612060.778384,-8.532423,47.09525015263544
1673612060.779391,-8.579302,47.02693334544261
1673612060.7803981,-8.606925,46.95861653824978
1673612060.781405,-8.615267,46.890315904543506
1673612060.782412,-8.610218,46.82199909735068
1673612060.78342,-8.573821,46.75361759621165
1673612060.784427,-8.542159,46.68531696250537
1673612060.785434,-8.526052,46.61700015531254
1673612060.786441,-8.503334,46.54868334811972
1673612060.787448,-8.494944,46.48038271441344
1673612060.788455,-8.514104,46.40944834493445
1673612060.789462,-8.511941,46.34719810538865
1673612060.790469,-8.515186,46.24957412374821
1673612060.791476,-8.518792,46.165529470910826
1673612060.792483,-8.509969,46.13287899070322
1673612060.79349,-8.50069,46.11466598712447
1673612060.794497,-8.490448,46.00642115808298
1673612060.795505,-8.478644,45.9220989363528
1673612060.7965121,-8.441309,45.89718948688603
1673612060.797519,-8.427053,45.875721098673175
1673612060.798526,-8.493405,45.85241340552082
1673612060.7995331,-8.548242,45.82910571236846
1673612060.80054,-8.561152,45.80580353713589
1673612060.801547,-8.567907,45.78249584398353
1673612060.8025541,-8.569758,45.72840115995233
1673612060.803561,-8.564686,45.727806
1673612060.804568,-8.560478,45.65539294350417
1673612060.8055751,-8.529298,45.63645416595136
1673612060.806582,-8.474245,45.547518455412494
1673612060.807589,-8.421861,45.582212760610396
1673612060.808597,-8.418832,45.54632384266984
1673612060.809604,-8.447512,45.528816
1673612060.810611,-8.464749,45.527765578045084
1673612060.811618,-8.473187,45.50477603225458
1673612060.812625,-8.4641,45.48179192906489
1673612060.813632,-8.449339,45.45880238327439
1673612060.814639,-8.457296,45.435812837483894
1673612060.815646,-8.477467,45.412828734294195
1673612060.816653,-8.511315,45.3898391885037
1673612060.81766,-8.53877,45.3668496427132
1673612060.818667,-8.554517,45.343865539523506
1673612060.819674,-8.582235,45.320875993733004
1673612060.820682,-8.609785,45.297864677539295
1673612060.8216891,-8.616878,45.2748751317488
1673612060.822696,-8.617118,45.2518910285591
1673612060.823703,-8.597404,45.228901482768606
1673612060.8247101,-8.535501,45.205911936978104
1673612060.825717,-8.470399,45.18292783378841
1673612060.826724,-8.454412,45.15993828799791
1673612060.8277311,-8.458066,45.136948742207416
1673612060.828738,-8.438689,45.113964639017716
1673612060.829745,-8.415874,45.090975093227215
1673612060.8307521,-8.410008,45.06798554743672
1673612060.831759,-8.414817,45.04500144424702
1673612060.832766,-8.430491,45.022011898456526
1673612060.833774,-8.449555,44.999000582262816
1673612060.834781,-8.462826,44.976016479073124
1673612060.835788,-8.474798,44.95302693328262
1673612060.836795,-8.500209,44.93003738749212
1673612060.837802,-8.555262,44.90705328430243
1673612060.838809,-8.58274,44.88406373851193
1673612060.839816,-8.578894,44.86107419272143
1673612060.840823,-8.575576,44.83809008953173
1673612060.84183,-8.566874,44.81510054374124
1673612060.842837,-8.560431,44.792110997950736
1673612060.843844,-8.544395,44.769126894761044
1673612060.844851,-8.526173,44.74613734897054
1673612060.845859,-8.510618,44.72312603277683
1673612060.8468661,-8.49016,44.70013648698634
1673612060.847873,-8.476457,44.67715238379664
1673612060.84888,-8.461503,44.654162838006144
1673612060.8498871,-8.462417,44.63117329221564
1673612060.850894,-8.4572,44.60818918902595
1673612060.851901,-8.441791,44.58519964323545
1673612060.8529081,-8.452801,44.55762865212208
1673612060.853915,-8.47713,44.54019458130663
1673612060.854922,-8.497108,44.551952
1673612060.8559291,-8.518552,44.54536594778254
1673612060.856936,-8.518143,44.52715186886027
1673612060.857943,-8.512301,44.52945178498212
1673612060.858951,-8.514129,44.54496914568431
1673612060.859958,-8.510305,44.52675506676204
1673612060.860965,-8.518936,44.5302452
1673612060.861972,-8.529851,44.55308050879446
1673612060.862979,-8.532135,44.5558723615414
1673612060.863986,-8.599304,44.558664875394825
1673612060.864993,-8.679671,44.561457389248254
1673612060.866,-8.688519,44.564249241995185
1673612060.867007,-8.658804,44.56704175584862
1673612060.868014,-8.607862,44.56983426970205
1673612060.869021,-8.543169,44.57262612244898
1673612060.870028,-8.494559,44.57541863630241
1673612060.871036,-8.465831,44.57821379458184
1673612060.8720431,-8.432366,44.58100630843527
1673612060.87305,-8.423712,44.5837981611822
1673612060.874057,-8.447801,44.58659067503563
1673612060.8750641,-8.466528,44.589383188889066
1673612060.876071,-8.506964,44.592175041636
1673612060.877078,-8.52824,44.594967555489426
1673612060.8780851,-8.526677,44.597760069342854
1673612060.879092,-8.513046,44.600551922089785
1673612060.880099,-8.495353,44.60334443594322
1673612060.8811061,-8.492972,44.60613694979665
1673612060.882113,-8.490111,44.60892880254358
1673612060.883121,-8.479245,44.61172396082301
1673612060.884128,-8.451936,44.61451647467644
1673612060.885135,-8.42715,44.61730832742337
1673612060.886142,-8.459557,44.6201008412768
1673612060.887149,-8.54514,44.62289335513023
1673612060.888156,-8.621349,44.62568520787717
1673612060.889163,-8.6715699999999991,44.6284777217306
1673612060.89017,-8.695178,44.631270235584026
1673612060.891177,-8.699432,44.63406208833096
1673612060.892184,-8.666545,44.63685460218439
1673612060.893191,-8.644452,44.63964711603782
1673612060.894198,-8.610026,44.64243896878475
1673612060.895205,-8.477443,44.64523148263818
1673612060.896213,-8.449652,44.648026640917614
1673612060.8972201,-8.439819,44.65081915477104
1673612060.898227,-8.389478,44.65361100751797
1673612060.899234,-8.351061,44.6564035213714
1673612060.9002411,-8.367673,44.65919603522484
1673612060.901248,-8.40169,44.66198788797177
1673612060.902255,-8.420683,44.6647804018252
1673612060.9032621,-8.410585,44.667572915678626
1673612060.904269,-8.423856,44.67036476842556
1673612060.905276,-8.471264,44.67315728227899
1673612060.9062831,-8.488405,44.67594979613242
1673612060.90729,-8.492107,44.679629133047214
1673612060.908298,-8.533264,44.700255158082975
1673612060.909305,-8.563483,44.750938
1673612060.910312,-8.563123,44.752383516213634
1673612060.911319,-8.564301,44.77375789461135
1673612060.912326,-8.586802,44.82500634922527
1673612060.913333,-8.60666,44.841393
1673612060.91434,-8.594568,44.85116306723891
1673612060.915347,-8.560719,44.92768053492252
1673612060.916354,-8.494703,44.896916457189455
1673612060.917361,-8.414264,44.907302514270185
1673612060.918368,-8.394936,44.91768857135091
1673612060.919375,-8.416716,44.928072169611305
1673612060.920382,-8.419577,44.938458226692035
1673612060.92139,-8.4096,44.94885411905409
1673612060.9223971,-8.413086,44.93361535717692
1673612060.923404,-8.441502,44.96473060286055
1673612060.924411,-8.455469,45.00116751740582
1673612060.9254181,-8.439987,45.071013079637574
1673612060.926425,-8.437727,45.127029992610254
1673612060.927432,-8.474029,45.130833
1673612060.9284391,-8.532447,45.21624021030043
1673612060.929446,-8.544251,45.245138863993496
1673612060.930453,-8.528024,45.27039588918992
1673612060.9314601,-8.516557,45.295652914386345
1673612060.932467,-8.536534,45.32090396017339
1673612060.933475,-8.531942,45.34618490300731
1673612060.934482,-8.510571,45.37144192820374
1673612060.935489,-8.490737,45.39669297399079
1673612060.936496,-8.47124,45.42194999918721
1673612060.937503,-8.452921,45.44720702438363
1673612060.93851,-8.462609,45.47245807017068
1673612060.939517,-8.472682,45.497715095367106
1673612060.940524,-8.448305,45.52297212056353
1673612060.941531,-8.43429,45.54822316635058
1673612060.942538,-8.44744,45.573480191547006
1673612060.943545,-8.478044,45.59873721674343
1673612060.944552,-8.497612,45.623988262530474
1673612060.945559,-8.479462,45.6492452877269
1673612060.946567,-8.462994,45.67452623056082
1673612060.9475741,-8.455277,45.69978325575725
1673612060.948581,-8.447632,45.7250343015443
1673612060.949588,-8.443666,45.75029132674072
1673612060.9505951,-8.434385,45.77554835193714
1673612060.951602,-8.435564,45.80079939772419
1673612060.952609,-8.45143,45.826056422920615
1673612060.9536161,-8.468475,45.85131344811704
1673612060.954623,-8.497564,45.87656449390409
1673612060.95563,-8.497011,45.901821519100515
1673612060.9566371,-8.492348,45.92707854429694
1673612060.957644,-8.503238,45.952329590083984
1673612060.958652,-8.52021,45.97761053291791
1673612060.959659,-8.533746,46.00286755811433
1673612060.960666,-8.540116,46.02811860390138
1673612060.961673,-8.543313,46.05337562909781
1673612060.96268,-8.56519,46.07863265429423
1673612060.963687,-8.559421,46.103883700081276
1673612060.964694,-8.538457,46.1291407252777
1673612060.965701,-8.517638,46.154397750474125
1673612060.966708,-8.501314,46.179648796261176
1673612060.967715,-8.442368,46.2049058214576
1673612060.968722,-8.414408,46.230162846654025
1673612060.969729,-8.44393,46.25541389244108
1673612060.970736,-8.471865,46.280670917637494
1673612060.971744,-8.460758,46.30595186047142
1673612060.9727511,-8.447872,46.306255762517885
1673612060.973758,-8.468019,46.2809685026228
1673612060.974765,-8.47499,46.35608019070322
1673612060.9757721,-8.458643,46.3528998431092
1673612060.976779,-8.465326,46.3996038676681
1673612060.977786,-8.48201,46.43561490915594
1673612060.9787931,-8.512493,46.413326464839095
1673612060.9798,-8.532687,46.45693241177873
1673612060.980807,-8.526606,46.475151115879825
1673612060.9818141,-8.542832,46.49728814189044
1673612060.982821,-8.555406,46.52785882016027
1673612060.983829,-8.534971,46.55846569388153
1673612060.984836,-8.517254,46.58904361124165
1673612060.985843,-8.517446,46.61961428951149
1673612060.98685,-8.52812,46.65019220687161
1673612060.987857,-8.541558,46.68077012423173
1673612060.988864,-8.564204,46.71134080250156
1673612060.989871,-8.579278,46.74191871986169
1673612060.990878,-8.57673,46.772496637221806
1673612060.991885,-8.572643,46.80306731549164
1673612060.992892,-8.570551,46.833645232851765
1673612060.993899,-8.554108,46.864223150211885
1673612060.994906,-8.501579,46.89479382848172
1673612060.995913,-8.454724,46.92537174584184
1673612060.996921,-8.487828,46.9559786195631
1673612060.9979281,-8.498815,46.98655653692322
1673612060.998935,-8.486241,47.01712721519306
1673612060.999942,-8.47648,47.047705132553176
1673612061.0009491,-8.446382,47.078283049913296
1673612061.001956,-8.429121,47.108853728183135
1673612061.002963,-8.439386,47.139431645543254
1673612061.0039701,-8.42525,47.170009562903374
1673612061.004977,-8.410032,47.20058024117321
1673612061.005984,-8.419673,47.23115815853333
1673612061.0069911,-8.438256,47.26173607589345
1673612061.007998,-8.442463,47.292306754163285
1673612061.009006,-8.453835,47.322913627884546
1673612061.010013,-8.455758,47.353491545244665
1673612061.01102,-8.467971,47.384062223514505
1673612061.012027,-8.537592,47.414640140874624
1673612061.013034,-8.615147,47.445218058234744
1673612061.014041,-8.615844,47.47578873650458
1673612061.015048,-8.590168,47.5063666538647
1673612061.016055,-8.585432,47.53694457122482
1673612061.017062,-8.580648,47.567515249494654
1673612061.018069,-8.530379,47.59809316685478
1673612061.019076,-8.456599,47.6286710842149
1673612061.020083,-8.416187,47.65924176248473
1673612061.02109,-8.392531,47.68981967984486
1673612061.022098,-8.393853,47.720426553566114
1673612061.0231051,-8.421837,47.75100447092623
1673612061.024112,-8.423952,47.78157514919607
1673612061.025119,-8.41811,47.81215306655619
1673612061.0261261,-8.432222,47.84273098391631
1673612061.027133,-8.435299,47.87330166218615
1673612061.02814,-8.428544,47.898624
1673612061.0291471,-8.434121,47.898624
1673612061.030154,-8.425106,47.90872639618138
1673612061.031161,-8.41787,47.9388484620887
1673612061.0321681,-8.422558,47.8878069876161
1673612061.033175,-8.440468,47.916714
1673612061.034183,-8.458739,47.920621638054364
1673612061.03519,-8.47749,47.9469016749226
1673612061.036197,-8.493598,48.00150063090128
1673612061.037204,-8.505041,48.045483967406874
1673612061.038211,-8.502661,48.054605961676216
1673612061.039218,-8.497828,48.06372579638252
1673612061.040225,-8.485905,48.07284779065186
1673612061.041232,-8.485592,48.0819697849212
1673612061.042239,-8.485761,48.0910896196275
1673612061.043246,-8.492228,48.100211613896846
1673612061.044253,-8.496531,48.10933360816619
1673612061.04526,-8.505618,48.09920343347639
1673612061.046267,-8.525572,48.067063209773536
1673612061.047275,-8.521364,48.096840519313304
1673612061.0482821,-8.506363,48.13970127467811
1673612061.049289,-8.508022,48.1398381692491
1673612061.050296,-8.482659,48.103400154983305
1673612061.0513031,-8.46345,48.09208360753457
1673612061.05231,-8.480664,48.13491296185936
1673612061.053317,-8.458258,48.16344646161183
1673612061.0543242,-8.429025,48.151548405409045
1673612061.055331,-8.436549,48.15061410880436
1673612061.056338,-8.450085,48.149679590959664
1673612061.0573452,-8.46511,48.148745073114966
1673612061.058352,-8.497828,48.14781077651029
1673612061.05936,-8.530259,48.14687537370551
1673612061.060367,-8.551223,48.145940855860815
1673612061.061374,-8.555141,48.14500655925614
1673612061.062381,-8.539179,48.144072041411434
1673612061.063388,-8.512566,48.143137523566736
1673612061.064395,-8.483765,48.14220322696206
1673612061.065402,-8.474606,48.14126870911736
1673612061.066409,-8.494367,48.140334191272665
1673612061.067416,-8.527423,48.13939989466799
1673612061.068423,-8.506723,48.13846537682329
1673612061.06943,-8.47047,48.13753085897859
1673612061.070437,-8.457873,48.13659656237391
1673612061.071444,-8.450205,48.13566204452921
1673612061.072452,-8.471673,48.134726641724434
1673612061.0734591,-8.503935,48.133792123879736
1673612061.074466,-8.532687,48.13285782727506
1673612061.075473,-8.544155,48.13192330943036
1673612061.0764802,-8.54353,48.130988791585665
1673612061.077487,-8.530716,48.13005449498099
1673612061.078494,-8.525187,48.12911997713629
1673612061.0795012,-8.529682,48.12818545929159
1673612061.080508,-8.506123,48.12725116268691
1673612061.081515,-8.486217,48.12631664484221
1673612061.0825222,-8.484631,48.125382126997515
1673612061.083529,-8.48689,48.12444783039284
1673612061.084537,-8.471071,48.12351242758806
1673612061.085544,-8.459364,48.12257790974336
1673612061.086551,-8.452801,48.12164361313869
1673612061.087558,-8.451936,48.12070909529398
1673612061.088565,-8.446406,48.119774577449284
1673612061.089572,-8.442896,48.11884028084461
1673612061.090579,-8.425346,48.11790576299991
1673612061.091586,-8.408446,48.11697124515521
1673612061.092593,-8.418495,48.11603694855054
1673612061.0936,-8.431549,48.12735732021936
1673612061.094607,-8.445637,48.11023717143539
1673612061.095614,-8.46398,48.097614
1673612061.096621,-8.472442,48.13370741058655
1673612061.097629,-8.467345,48.10318079756795
1673612061.0986362,-8.458883,48.079525
1673612061.099643,-8.461119,48.067099056032426
1673612061.10065,-8.462657,48.08654667191225
1673612061.1016572,-8.480399,48.12298976704816
1673612061.102664,-8.485664,48.124915838290534
1673612061.103671,-8.479414,48.11227916385929
1673612061.1046782,-8.471384,48.09964248942805
1673612061.105685,-8.477443,48.08700880663375
1673612061.106692,-8.486217,48.074372132202505
1673612061.107699,-8.485352,48.0617384494082
1673612061.108706,-8.479702,48.04910177497697
1673612061.109714,-8.475616,48.036453133997966
1673612061.110721,-8.498045,48.023816459566724
1673612061.111728,-8.528168,48.01118277677242
1673612061.112735,-8.549732,48.019595293921334
1673612061.113742,-8.569518,48.025257
1673612061.114749,-8.561319,47.999896170243204
1673612061.115756,-8.5522570000000009,48.00188575327771
1673612061.116763,-8.549444,47.98129250786838
1673612061.11777,-8.560118,47.931801383881734
1673612061.118777,-8.531317,47.916714
1673612061.119784,-8.497204,47.96997836695279
1673612061.120791,-8.500522,47.975633541726275
1673612061.121798,-8.482203,47.969851319328455
1673612061.122806,-8.439891,47.96833176501209
1673612061.1238132,-8.41436,47.966813648306236
1673612061.12482,-8.4121,47.96529589100301
1673612061.125827,-8.435781,47.963777774297164
1673612061.1268342,-8.444098,47.96225965759131
1673612061.127841,-8.438809,47.96074190028809
1673612061.128848,-8.443161,47.95922378358224
1673612061.129855,-8.454412,47.95770602627901
1673612061.130862,-8.446286,47.95618790957317
1673612061.131869,-8.459027,47.954669792867314
1673612061.132876,-8.469942,47.95315203556409
1673612061.133883,-8.459941,47.95163391885824
1673612061.134891,-8.458378,47.95011436454187
1673612061.135898,-8.483621,47.94859624783602
1673612061.136905,-8.517469,47.947078490532796
1673612061.137912,-8.540645,47.94556037382695
1673612061.138919,-8.529418,47.9440422571211
1673612061.139926,-8.524489,47.94252449981787
1673612061.140933,-8.523576,47.941006383112025
1673612061.14194,-8.535308,47.93948826640617
1673612061.142947,-8.592548,47.937970509102946
1673612061.143954,-8.620363,47.9364523923971
1673612061.144961,-8.6622420000000009,47.93493427569125
1673612061.145968,-8.679503,47.93341651838802
1673612061.146975,-8.646496,47.931898401682176
1673612061.147983,-8.597284,47.93037884736581
1673612061.1489902,-8.54026,47.928860730659956
1673612061.149997,-8.488549,47.92734297335673
1673612061.151004,-8.413543,47.925824856650884
1673612061.152011,-8.341228,47.92430709934766
1673612061.153018,-8.362144,47.922788982641805
1673612061.154025,-8.411115,47.92127086593596
1673612061.155032,-8.437439,47.91975310863273
1673612061.156039,-8.442319,47.91823499192689
1673612061.157046,-8.443112,47.916716875221034
1673612061.158053,-8.448955,47.84444755280096
1673612061.15906,-8.49593,47.862661653314255
1673612061.160068,-8.526149,47.881259615164524
1673612061.161075,-8.513552,47.917733854599405
1673612061.162082,-8.499776,47.88817666980665
1673612061.163089,-8.526581,47.90479434010907
1673612061.164096,-8.534538,47.876920778437196
1673612061.165103,-8.50944,47.92292604558969
1673612061.16611,-8.485568,47.894526789786816
1673612061.1671171,-8.458403,47.99185462753319
1673612061.168124,-8.434314,47.99660593481843
1673612061.169131,-8.414288,48.001358367206045
1673612061.1701381,-8.392628,48.00611079959365
1673612061.171145,-8.376184,48.01086210687889
1673612061.172152,-8.375823,48.015614539266494
1673612061.17316,-8.385439,48.02037147206356
1673612061.174167,-8.396354,48.025122779348806
1673612061.175174,-8.419745,48.02987521173641
1673612061.176181,-8.459291,48.034627644124015
1673612061.177188,-8.476313,48.039378951409255
1673612061.178195,-8.466455,48.044131383796866
1673612061.179202,-8.461287,48.04888381618447
1673612061.180209,-8.476289,48.05363512346971
1673612061.181216,-8.478356,48.05838755585732
1673612061.182223,-8.481697,48.06313998824493
1673612061.18323,-8.484943,48.06789129553017
1673612061.184237,-8.484703,48.07264372791777
1673612061.185245,-8.480495,48.07740066071484
1673612061.186252,-8.480495,48.08215309310244
1673612061.187259,-8.480616,48.08690440038769
1673612061.188266,-8.49492,48.09165683277529
1673612061.1892731,-8.492492,48.0964092651629
1673612061.19028,-8.479726,48.101160572448144
1673612061.191287,-8.496074,48.10591300483575
1673612061.1922941,-8.512373,48.11066543722335
1673612061.193301,-8.480328,48.11541674450859
1673612061.194308,-8.434987,48.120169176896205
1673612061.1953151,-8.445107,48.12492160928381
1673612061.196322,-8.475375,48.12967291656905
1673612061.197329,-8.481241,48.134425348956654
1673612061.198337,-8.473908,48.13918228175372
1673612061.199344,-8.474653,48.143933589038966
1673612061.200351,-8.483044,48.14868602142657
1673612061.201358,-8.493189,48.153438453814175
1673612061.202365,-8.502709,48.158189761099415
1673612061.203372,-8.505546,48.16294219348703
1673612061.204379,-8.502228,48.16769462587463
1673612061.205386,-8.4829,48.17244593315987
1673612061.206393,-8.470663,48.17719836554748
1673612061.2074,-8.490617,48.18195079793509
1673612061.208407,-8.519586,48.18670210522033
1673612061.209414,-8.503622,48.19145453760793
1673612061.210422,-8.484342,48.196211470405
1673612061.2114291,-8.486529,48.2009639027926
1673612061.212436,-8.487059,48.20571521007785
1673612061.213443,-8.478717,48.25571112074304
1673612061.2144501,-8.476673,48.27707404291846
1673612061.215457,-8.470831,48.278519
1673612061.216464,-8.464773,48.29543484597043
1673612061.2174711,-8.458859,48.27958305882353
1673612061.218478,-8.453858,48.29568412267303
1673612061.219485,-8.467465,48.296608
1673612061.2204921,-8.470759,48.31401203905692
1673612061.221499,-8.469629,48.36733307446301
1673612061.222506,-8.486458,48.36362238940541
1673612061.223514,-8.512398,48.35811029628829
1673612061.224521,-8.579182,48.352604721729726
1673612061.225528,-8.648804,48.354324056529784
1673612061.226535,-8.691355,48.35934979523986
1673612061.227542,-8.689047,48.364374344144366
1673612061.228549,-8.65289,48.36940008285444
1673612061.229556,-8.594279,48.374425821564515
1673612061.230563,-8.539467,48.37945037046902
1673612061.23157,-8.460494,48.384476109179104
1673612061.232577,-8.382627,48.38950184788918
1673612061.233584,-8.341734,48.39452639679369
1673612061.234591,-8.337238,48.39955213550376
1673612061.235599,-8.350196,48.4045826334361
1673612061.2366061,-8.374717,48.409608372146174
1673612061.237613,-8.401426,48.41463292105068
1673612061.23862,-8.410369,48.41965865976076
1673612061.2396271,-8.426404,48.42468439847084
1673612061.240634,-8.448545,48.429708947375346
1673612061.241641,-8.457369,48.43473468608542
1673612061.2426481,-8.45934,48.439760424795494
1673612061.243655,-8.474629,48.4447849737
1673612061.244662,-8.526894,48.44981071241008
1673612061.2456691,-8.565647,48.45483645112016
1673612061.246676,-8.581105,48.45986100002467
1673612061.247683,-8.595169,48.46488673873474
1673612061.248691,-8.597501,48.46991723666708
1673612061.249698,-8.557786,48.47494178557159
1673612061.250705,-8.503767,48.47996752428166
1673612061.251712,-8.457657,48.484993262991736
1673612061.252719,-8.38907,48.49001781189625
1673612061.253726,-8.342142,48.495043550606326
1673612061.254733,-8.372025,48.51180650309966
1673612061.25574,-8.413663,48.546361387696706
1673612061.256747,-8.43429,48.549873
1673612061.257754,-8.447584,48.583050738498216
1673612061.258761,-8.455493,48.56933886814497
1673612061.259768,-8.446983,48.551119545064374
1673612061.260776,-8.434818,48.617811594994045
1673612061.2617831,-8.434001,48.60511180686695
1673612061.26279,-8.4472,48.638616604911775
1673612061.263797,-8.532375,48.64566049354436
1673612061.2648041,-8.644596,48.6512664385981
1673612061.265811,-8.674502,48.656871056486814
1673612061.266818,-8.63897,48.66247700154055
1673612061.2678251,-8.55781,48.66808294659429
1673612061.268832,-8.488236,48.673687564483
1673612061.269839,-8.463139,48.679293509536734
1673612061.2708461,-8.471144,48.68489945459047
1673612061.271853,-8.446887,48.690504072479186
1673612061.27286,-8.376833,48.696110017532924
1673612061.273868,-8.358441,48.70172127124675
1673612061.274875,-8.407893,48.70732588913546
1673612061.275882,-8.428977,48.71186602479142
1673612061.276889,-8.42501,48.69177078683834
1673612061.277896,-8.425803,48.644577839532666
1673612061.278903,-8.426909,48.72766156576981
1673612061.27991,-8.441358,48.76338677690583
1673612061.280917,-8.468019,48.75115179559043
1673612061.281924,-8.467225,48.722550321748884
1673612061.282931,-8.466144,48.77228917563527
1673612061.283938,-8.466552,48.77838786210762
1673612061.284945,-8.463066,48.80035028026906
1673612061.285953,-8.460278,48.875492
1673612061.2869601,-8.456166,48.89304248033373
1673612061.287967,-8.447079,48.89387479661421
1673612061.288974,-8.440804,48.88043543690715
1673612061.2899811,-8.439074,48.89041206256209
1673612061.290988,-8.460662,48.90038632632648
1673612061.291995,-8.471191,48.910362951981426
1673612061.2930021,-8.490136,48.92033957763637
1673612061.294009,-8.512373,48.93031384140077
1673612061.295016,-8.52788,48.9402904670557
1673612061.2960231,-8.56858,48.95026709271065
1673612061.29703,-8.590745,48.960241356475045
1673612061.298037,-8.551752,48.97021798212998
1673612061.299045,-8.489367,48.980204055347095
1673612061.300052,-8.481169,48.99017831911149
1673612061.301059,-8.48338,49.000154944766436
1673612061.302066,-8.478933,49.01013157042138
1673612061.303073,-8.493622,49.02010583418577
1673612061.30408,-8.477755,49.03008245984071
1673612061.305087,-8.423471,49.040059085495656
1673612061.306094,-8.405272,49.050033349260055
1673612061.307101,-8.420947,49.06000997491499
1673612061.308108,-8.424698,49.06998660056993
1673612061.309115,-8.416331,49.07996086433433
1673612061.310122,-8.411523,49.08993748998927
1673612061.31113,-8.428568,49.09992356320638
1673612061.3121371,-8.443353,49.109900188861324
1673612061.313144,-8.447031,49.11987445262572
1673612061.314151,-8.461022,49.129851078280666
1673612061.3151581,-8.468812,49.1398277039356
1673612061.316165,-8.487924,49.1498019677
1673612061.317172,-8.528937,49.15977859335494
1673612061.3181791,-8.580985,49.16975521900988
1673612061.319186,-8.633273,49.17972948277428
1673612061.320193,-8.721189,49.18970610842922
1673612061.3212001,-8.798672,49.19968273408416
1673612061.322207,-8.758549,49.209656997848555
1673612061.323214,-8.690273,49.2196336235035
1673612061.324222,-8.629018,49.22961969672061
1673612061.325229,-8.560431,49.23959396048501
1673612061.326236,-8.446647,49.24957058613995
1673612061.327243,-8.354836,49.25954721179489
1673612061.32825,-8.310793,49.26952147555929
1673612061.329257,-8.292089,49.27949810121423
1673612061.330264,-8.288917,49.289474726869166
1673612061.331271,-8.290287,49.23396977587029
1673612061.332278,-8.31452,49.27731285646161
1673612061.333285,-8.348416,49.26225957878427
1673612061.334292,-8.384887,49.29971651216023
1673612061.335299,-8.410562,49.354372695278975
1673612061.336307,-8.41525,49.40908729327611
1673612061.3373141,-8.449459,49.43337637425506
1673612061.338321,-8.489246,49.42098424082022
1673612061.339328,-8.515474,49.402764995708154
1673612061.3403351,-8.516148,49.40585657314936
1673612061.341342,-8.520114,49.41258501672189
1673612061.342349,-8.530284,49.41931505357967
1673612061.3433561,-8.509224,49.42604509043745
1673612061.344363,-8.476529,49.43277353400998
1673612061.34537,-8.430371,49.439503570867764
1673612061.3463771,-8.412292,49.44623360772554
1673612061.347384,-8.404071,49.45296205129808
1673612061.348391,-8.407172,49.459692088155855
1673612061.349399,-8.400826,49.4664284981546
1673612061.350406,-8.393036,49.47315694172713
1673612061.351413,-8.396787,49.479886978584915
1673612061.35242,-8.408326,49.48661701544269
1673612061.353427,-8.41513,49.493345459015224
1673612061.354434,-8.424649,49.500075495873006
1673612061.355441,-8.434842,49.50680553273078
1673612061.356448,-8.46047,49.51353397630332
1673612061.357455,-8.485761,49.520264013161096
1673612061.358462,-8.497997,49.52699405001888
1673612061.359469,-8.528889,49.53372249359141
1673612061.360476,-8.540044,49.54045253044919
1673612061.361484,-8.540597,49.54718894044793
1673612061.3624911,-8.535091,49.55391897730571
1673612061.363498,-8.525884,49.56064742087825
1673612061.364505,-8.505569,49.56737745773602
1673612061.3655121,-8.479342,49.574107494593804
1673612061.366519,-8.455613,49.58083593816634
1673612061.367526,-8.429049,49.58756597502412
1673612061.3685331,-8.398638,49.594296011881895
1673612061.36954,-8.409167,49.601024455454436
1673612061.370547,-8.416572,49.60775449231221
1673612061.3715541,-8.410514,49.614484529169985
1673612061.372561,-8.402965,49.621212972742526
1673612061.373568,-8.417172,49.6279430096003
1673612061.374576,-8.435852,49.634679419599046
1673612061.375583,-8.44381,49.64140786317158
1673612061.37659,-8.45333,49.64813790002936
1673612061.377597,-8.479486,49.654867936887136
1673612061.378604,-8.506603,49.66159638045968
1673612061.379611,-8.5098490000000009,49.66832641731745
1673612061.380618,-8.511821,49.67505645417523
1673612061.381625,-8.508094,49.68178489774777
1673612061.382632,-8.504656,49.68851493460554
1673612061.383639,-8.506532,49.695244971463325
1673612061.384646,-8.499175,49.70197341503586
1673612061.385653,-8.479269,49.70870345189364
1673612061.386661,-8.449723,49.71543986189238
1673612061.3876681,-8.47624,49.72216989875016
1673612061.388675,-8.530644,49.728898342322694
1673612061.389682,-8.585865,49.735628379180476
1673612061.3906891,-8.591899,49.74235841603825
1673612061.391696,-8.549059,49.749086859610784
1673612061.392703,-8.525499,49.755816896468566
1673612061.3937101,-8.537496,49.76254693332634
1673612061.394717,-8.538866,49.76927537689888
1673612061.395724,-8.50783,49.77600541375666
1673612061.3967311,-8.453762,49.779995
1673612061.397738,-8.390752,49.795085442060085
1673612061.398746,-8.377001,49.80849263599523
1673612061.399753,-8.396667,49.78245799141631
1673612061.40076,-8.404599,49.761906
1673612061.401767,-8.404888,49.76997382336115
1673612061.402774,-8.411812,49.77180017405818
1673612061.403781,-8.421861,49.73694582546495
1673612061.404788,-8.425082,49.707638
1673612061.405795,-8.442704,49.70518212599823
1673612061.406802,-8.462273,49.699967869633475
1673612061.407809,-8.469533,49.69475237854071
1673612061.408816,-8.465374,49.68943153004292
1673612061.409823,-8.463836,49.635764644815254
1673612061.41083,-8.474196,49.688969921316165
1673612061.411838,-8.464509,49.65510469551741
1673612061.4128451,-8.439122,49.72629187699642
1673612061.413852,-8.397892,49.743816
1673612061.414859,-8.400921,49.74218566094421
1673612061.4158661,-8.440107,49.71047106126341
1673612061.416873,-8.458186,49.7565792453505
1673612061.41788,-8.46773,49.672653719360994
1673612061.4188871,-8.471913,49.689548
1673612061.419894,-8.472707,49.689548
1673612061.420901,-8.48237,49.68639876537912
1673612061.4219081,-8.47588,49.652824024889576
1673612061.422915,-8.455445,49.647072458076096
1673612061.423923,-8.449532,49.641314081451085
1673612061.42493,-8.445901,49.6355611526753
1673612061.425937,-8.444026,49.62980958586182
1673612061.426944,-8.443161,49.62405665708603
1673612061.427951,-8.433376,49.618303728310245
1673612061.428958,-8.436165,49.612552161496765
1673612061.429965,-8.44756,49.606799232720974
1673612061.430972,-8.472466,49.60104630394519
1673612061.431979,-8.482443,49.59529473713171
1673612061.432986,-8.487732,49.58954180835592
1673612061.433993,-8.47588,49.58378887958013
1673612061.435,-8.440781,49.578037312766654
1673612061.436007,-8.411066,49.57228438399087
1673612061.437015,-8.428952,49.56652600736586
1673612061.4380221,-8.4403,49.560773078590074
1673612061.439029,-8.455398,49.55502151177659
1673612061.440036,-8.466119,49.5492685830008
1673612061.4410431,-8.491554,49.54351565422502
1673612061.44205,-8.528457,49.53776408741154
1673612061.443057,-8.516797,49.53201115863575
1673612061.4440641,-8.48201,49.52625822985996
1673612061.445071,-8.463403,49.52050666304648
1673612061.446078,-8.463066,49.51475373427069
1673612061.4470851,-8.455758,49.50900080549491
1673612061.448092,-8.442175,49.50324923868143
1673612061.4491,-8.441478,49.49749086205642
1673612061.450107,-8.455229,49.49173793328063
1673612061.451114,-8.459412,49.48598636646715
1673612061.452121,-8.451334,49.48023343769136
1673612061.453128,-8.460878,49.474480508915576
1673612061.454135,-8.495954,49.468728942102096
1673612061.455142,-8.512902,49.462976013326305
1673612061.456149,-8.542688,49.45722308455052
1673612061.457156,-8.589351,49.45147151773704
1673612061.458163,-8.639307,49.44571858896125
1673612061.45917,-8.669045,49.439965660185464
1673612061.460177,-8.62558,49.436287
1673612061.461184,-8.581802,49.44297939866476
1673612061.462192,-8.540717,49.454372
1673612061.4631991,-8.520523,49.461337987124466
1673612061.464206,-8.5117,49.51650275178997
1673612061.465213,-8.518816,49.515851164399905
1673612061.4662201,-8.537303,49.508148468973744
1673612061.467227,-8.517374,49.50864
1673612061.468234,-8.458403,49.51624298378636
1673612061.4692411,-8.386449,49.53076937383061
1673612061.470248,-8.348225,49.54027200479416
1673612061.471255,-8.371544,49.54977688596632
1673612061.4722621,-8.396305,49.55928176713848
1673612061.473269,-8.391401,49.568784398102025
1673612061.474277,-8.391689,49.57829828010863
1673612061.475284,-8.396498,49.58780316128079
1673612061.476291,-8.410105,49.59730579224434
1673612061.477298,-8.426044,49.6068106734165
1673612061.478305,-8.42727,49.61631555458866
1673612061.479312,-8.404047,49.625818185552205
1673612061.480319,-8.405056,49.63532306672437
1673612061.481326,-8.417558,49.64482794789652
1673612061.482333,-8.403277,49.654330578860076
1673612061.48334,-8.395801,49.66383546003223
1673612061.484347,-8.404672,49.673340341204394
1673612061.485354,-8.423712,49.68284297216794
1673612061.486361,-8.43893,49.6923478533401
1673612061.487369,-8.438617,49.701861735346704
1673612061.4883761,-8.441069,49.711366616518866
1673612061.489383,-8.436958,49.72086924748241
1673612061.49039,-8.448041,49.730374128654574
1673612061.4913971,-8.48213,49.73987900982674
1673612061.492404,-8.499656,49.74938164079028
1673612061.493411,-8.501122,49.758886521962445
1673612061.4944181,-8.492564,49.7683914031346
1673612061.495425,-8.479389,49.77789403409815
1673612061.496432,-8.48778,49.78739891527031
1673612061.4974391,-8.505185,49.79690379644247
1673612061.498446,-8.484126,49.80640642740602
1673612061.499454,-8.47475,49.81592030941262
1673612061.500461,-8.466432,49.82542519058478
1673612061.501468,-8.434842,49.834927821548334
1673612061.502475,-8.427077,49.84443270272049
1673612061.503482,-8.409841,49.85393758389265
1673612061.504489,-8.394334,49.8634402148562
1673612061.505496,-8.394743,49.87294509602836
1673612061.506503,-8.418639,49.882449977200515
1673612061.50751,-8.450085,49.89195260816407
1673612061.508517,-8.505017,49.901457489336224
1673612061.509524,-8.585552,49.910962370508386
1673612061.510531,-8.730878,49.92046500147193
1673612061.511538,-8.833796,49.929969882644095
1673612061.512546,-8.849542,49.939483764650696
1673612061.5135531,-8.794946,49.94898864582286
1673612061.51456,-8.71917,49.958491276786404
1673612061.515567,-8.652266,49.947295588936576
1673612061.5165741,-8.574806,49.97027636528374
1673612061.517581,-8.442295,49.99284357854589
1673612061.518588,-8.294446,50.03902765569862
1673612061.5195951,-8.21355,50.037233647114924
1673612061.520602,-8.234753,50.033257
1673612061.521609,-8.264371,50.06198379809297
1673612061.5226161,-8.285022,50.098425214592275
1673612061.523623,-8.3144,50.076380572246066
1673612061.524631,-8.340243,50.07466840980962
1673612061.525638,-8.373034,50.0811264650348
1673612061.526645,-8.380872,50.08758299136434
1673612061.527652,-8.368707,50.09404104658953
1673612061.528659,-8.359115,50.10049910181472
1673612061.529666,-8.372313,50.106955628144256
1673612061.530673,-8.385175,50.113413683369444
1673612061.53168,-8.417125,50.11987173859463
1673612061.532687,-8.426909,50.12632826492417
1673612061.533694,-8.45732,50.13278632014936
1673612061.534701,-8.472514,50.139244375374545
1673612061.535708,-8.467586,50.14570090170408
1673612061.536715,-8.473572,50.15215895692927
1673612061.537723,-8.478548,50.15862312773706
1673612061.5387301,-8.474653,50.16508118296225
1673612061.539737,-8.465831,50.17153770929178
1673612061.540744,-8.459532,50.17799576451697
1673612061.5417511,-8.456719,50.18445381974216
1673612061.542758,-8.45833,50.190910346071696
1673612061.543765,-8.477779,50.197368401296885
1673612061.5447721,-8.486169,50.20382645652207
1673612061.545779,-8.486722,50.21028298285161
1673612061.546786,-8.510691,50.2167410380768
1673612061.5477931,-8.526124,50.223199093301986
1673612061.5488,-8.495473,50.22965561963153
1673612061.549808,-8.454244,50.23611979043931
1673612061.550815,-8.450276,50.2425778456645
1673612061.551822,-8.461119,50.24903437199404
1673612061.552829,-8.441982,50.255492427219224
1673612061.553836,-8.431045,50.26195048244441
1673612061.554843,-8.430732,50.268407008773956
1673612061.55585,-8.432054,50.32258489630512
1673612061.556857,-8.432679,50.28706541630901
1673612061.557864,-8.429001,50.3410924308536
1673612061.558871,-8.431837,50.358887
1673612061.559878,-8.441189,50.3600082732475
1673612061.560885,-8.446671,50.39643259298998
1673612061.561892,-8.451479,50.42879444635194
1673612061.5629,-8.455085,50.37889522216925
1673612061.5639071,-8.453474,50.413585765489394
1673612061.564914,-8.463811,50.42087153795657
1673612061.565921,-8.482587,50.42815903568363
1673612061.5669281,-8.52086,50.43544653341068
1673612061.567935,-8.540092,50.44273230587786
1673612061.568942,-8.537856,50.45001980360492
1673612061.5699492,-8.542785,50.45730730133197
1673612061.570956,-8.529538,50.46459307379915
1673612061.571963,-8.520259,50.471880571526206
1673612061.5729702,-8.503238,50.47916806925326
1673612061.573977,-8.461599,50.48645384172044
1673612061.574985,-8.353321,50.49374824048701
1673612061.575992,-8.307019,50.501035738214064
1673612061.576999,-8.360869,50.50832151068124
1673612061.578006,-8.396787,50.5156090084083
1673612061.579013,-8.40758,50.52469949058403
1673612061.58002,-8.399215,50.533529053886504
1673612061.581027,-8.403229,50.500347194802096
1673612061.582034,-8.415707,50.48889444696067
1673612061.583041,-8.423399,50.51412476251788
1673612061.584048,-8.428063,50.55060096924177
1673612061.585055,-8.420466,50.52545930686695
1673612061.586062,-8.441911,50.539783
1673612061.587069,-8.483621,50.543798686695276
1673612061.588077,-8.466144,50.55877422799318
1673612061.5890841,-8.448474,50.56271908503278
1673612061.590091,-8.439987,50.56666300815736
1673612061.591098,-8.425587,50.57060786519696
1673612061.5921052,-8.412893,50.57455272223656
1673612061.593112,-8.404071,50.56425912848629
1673612061.594119,-8.398902,50.559351754455506
1673612061.5951262,-8.412125,50.56162891771473
1673612061.596133,-8.455253,50.5639055418728
1673612061.59714,-8.485015,50.56618270513202
1673612061.5981472,-8.488742,50.56845986839125
1673612061.599154,-8.501266,50.57073649254932
1673612061.600162,-8.509633,50.57301581221315
1673612061.601169,-8.514104,50.57529297547237
1673612061.602176,-8.508334,50.58882356366237
1673612061.603183,-8.490544,50.607039576877234
1673612061.60419,-8.471961,50.612141
1673612061.605197,-8.465807,50.65187019647115
1673612061.606204,-8.466865,50.62630813349225
1673612061.607211,-8.472442,50.63913813733906
1673612061.608218,-8.483284,50.634700312827846
1673612061.609225,-8.476433,50.63023
1673612061.610232,-8.474942,50.63023
1673612061.611239,-8.558099,50.63489675233361
1673612061.612246,-8.63171,50.64096956867901
1673612061.613254,-8.665127,50.64704813579747
1673612061.6142612,-8.693928,50.65312095214288
1673612061.615268,-8.687725,50.659192330795015
1673612061.616275,-8.635317,50.66526514714042
1673612061.6172822,-8.629402,50.671337963485826
1673612061.618289,-8.599496,50.67740934213796
1673612061.619296,-8.489871,50.683482158483365
1673612061.6203032,-8.398782,50.68955497482877
1673612061.62131,-8.348993,50.69562635348091
1673612061.622317,-8.278531,50.70169916982631
1673612061.623324,-8.264083,50.70777054847846
1673612061.624331,-8.256846,50.71384336482386
1673612061.625339,-8.284157,50.71992193194232
1673612061.626346,-8.320457,50.72599474828772
1673612061.627353,-8.347359,50.73206612693986
1673612061.62836,-8.394863,50.738138943285264
1673612061.629367,-8.434578,50.744211759630666
1673612061.630374,-8.439026,50.75028313828281
1673612061.631381,-8.433761,50.75635595462821
1673612061.632388,-8.416355,50.762428770973614
1673612061.633395,-8.417605,50.76850014962576
1673612061.634402,-8.455325,50.77457296597116
1673612061.635409,-8.475327,50.78064578231656
1673612061.636416,-8.465975,50.786717160968706
1673612061.637423,-8.438209,50.79278997731411
1673612061.638431,-8.4384,50.798868544432565
1673612061.6394382,-8.465422,50.80494136077797
1673612061.640445,-8.479077,50.81101273943011
1673612061.641452,-8.487323,50.81708555577551
1673612061.6424592,-8.478597,50.823158372120915
1673612061.643466,-8.437463,50.82920674678112
1673612061.644473,-8.408446,50.81142729661421
1673612061.64548,-8.414167,50.84809144159836
1673612061.646487,-8.414697,50.829792564400414
1673612061.647494,-8.406763,50.84957416666666
1673612061.648501,-8.402556,50.90531293818306
1673612061.649508,-8.425756,50.84953787871541
1673612061.650516,-8.459484,50.8887808989071
1673612061.651523,-8.491097,50.903685739928484
1673612061.65253,-8.489126,50.93902680321853
1673612061.653537,-8.471336,50.95859080614155
1673612061.654544,-8.450613,50.97815480906458
1673612061.655551,-8.435612,50.99771418035812
1673612061.656558,-8.437006,51.01727818328115
1673612061.657565,-8.442415,51.036842186204176
1673612061.658572,-8.450637,51.05640155749772
1673612061.659579,-8.460999,51.07596556042075
1673612061.660586,-8.446983,51.095529563343774
1673612061.661593,-8.436141,51.11508893463731
1673612061.6626,-8.434747,51.13465293756034
1673612061.663608,-8.40936,51.154235467001286
1673612061.6646152,-8.400705,51.17379946992431
1673612061.665622,-8.444242,51.19335884121786
1673612061.666629,-8.469917,51.212922844140884
1673612061.667636,-8.499439,51.23248221543443
1673612061.668643,-8.508815,51.25204621835746
1673612061.66965,-8.484558,51.271610221280476
1673612061.670657,-8.45845,51.29116959257402
1673612061.671664,-8.454435,51.31073359549705
1673612061.672671,-8.447945,51.330297598420074
1673612061.673678,-8.40972,51.34985696971362
1673612061.674685,-8.390151,51.36942097263665
1673612061.675693,-8.429458,51.38900350207759
1673612061.6767,-8.473885,51.40856750500061
1673612061.677707,-8.491265,51.42812687629416
1673612061.678714,-8.490833,51.447690879217184
1673612061.679721,-8.473284,51.46725488214021
1673612061.680728,-8.410201,51.48681425343376
1673612061.681735,-8.407821,51.50637825635678
1673612061.6827421,-8.444699,51.52594225927981
1673612061.683749,-8.457056,51.545501630573355
1673612061.684756,-8.464268,51.565065633496374
1673612061.6857631,-8.453931,51.5846296364194
1673612061.68677,-8.415201,51.60418900771295
1673612061.687777,-8.399095,51.62375301063597
1673612061.688785,-8.395921,51.64333554007692
1673612061.689792,-8.379838,51.662894911370465
1673612061.690799,-8.371111,51.68245891429349
1673612061.691806,-8.385464,51.70202291721651
1673612061.692813,-8.403085,51.72158228851006
1673612061.69382,-8.414577,51.74114629143308
1673612061.694827,-8.423087,51.76071029435611
1673612061.695834,-8.428472,51.780269665649655
1673612061.696841,-8.43905,51.79983366857268
1673612061.697848,-8.45309,51.83085094926155
1673612061.698855,-8.468211,51.829758801431986
1673612061.699862,-8.469605,51.824181
1673612061.70087,-8.472466,51.8497600102503
1673612061.701877,-8.485496,51.82160538531235
1673612061.702884,-8.485375,51.85826257081545
1673612061.703891,-8.478356,51.85211007103695
1673612061.7048981,-8.465494,51.868864366714355
1673612061.705905,-8.43905,51.878448
1673612061.706912,-8.411883,51.87500671725743
1673612061.7079191,-8.38592,51.870380371520746
1673612061.708926,-8.383564,51.86575512103638
1673612061.709933,-8.391088,51.861128775299704
1673612061.7109401,-8.392555,51.85650242956303
1673612061.711947,-8.400993,51.851877179078656
1673612061.712954,-8.42549,51.84725083334198
1673612061.713962,-8.451406,51.84262010659609
1673612061.714969,-8.471024,51.83799485611171
1673612061.715976,-8.52776,51.83336851037504
1673612061.716983,-8.592068,51.82874216463836
1673612061.71799,-8.644909,51.824116914154
1673612061.718997,-8.676498,51.819490568417315
1673612061.720004,-8.688206,51.81486422268064
1673612061.721011,-8.661665,51.810238972196274
1673612061.722018,-8.615747,51.8056126264596
1673612061.723025,-8.596876,51.800986280722924
1673612061.724032,-8.556728,51.79636103023855
1673612061.725039,-8.457393,51.791734684501876
1673612061.726047,-8.389791,51.78710395775598
1673612061.7270541,-8.387459,51.782477612019306
1673612061.728061,-8.339257,51.77785236153493
1673612061.729068,-8.284037,51.77322601579826
1673612061.7300751,-8.314808,51.76859967006158
1673612061.731082,-8.381737,51.76397441957721
1673612061.732089,-8.380823,51.759348073840535
1673612061.7330961,-8.358321,51.75472172810386
1673612061.734103,-8.380968,51.75009647761949
1673612061.73511,-8.409047,51.74547013188282
1673612061.7361171,-8.433737,51.74084378614614
1673612061.737124,-8.44732,51.73621853566177
1673612061.738131,-8.442945,51.731592189925095
1673612061.739139,-8.42549,51.7269614631792
1673612061.740146,-8.43679,51.72233621269483
1673612061.741153,-8.455132,51.71770986695815
1673612061.74216,-8.461335,51.71308352122148
1673612061.743167,-8.465687,51.708458270737104
1673612061.744174,-8.467057,51.70383192500043
1673612061.745181,-8.458931,51.699205579263754
1673612061.746188,-8.442968,51.69458032877939
1673612061.747195,-8.450926,51.689953983042706
1673612061.748202,-8.469749,51.68532763730603
1673612061.749209,-8.45244,51.680702386821665
1673612061.750216,-8.431405,51.67607604108499
1673612061.751224,-8.41525,51.671445314339095
1673612061.7522311,-8.425515,51.66681896860241
1673612061.753238,-8.462441,51.66219371811805
1673612061.754245,-8.493502,51.65756737238137
1673612061.7552521,-8.505858,51.6529410266447
1673612061.756259,-8.469245,51.648315776160324
1673612061.757266,-8.430106,51.64368943042365
1673612061.7582731,-8.419697,51.639063084686974
1673612061.75928,-8.43102,51.6344378342026
1673612061.760287,-8.425683,51.629811488465926
1673612061.7612941,-8.407893,51.625117437961414
1673612061.762301,-8.390968,51.58915030758226
1673612061.763308,-8.383204,51.60736616300716
1673612061.764316,-8.393853,51.624323543872194
1673612061.765323,-8.399359,51.588447969040246
1673612061.76633,-8.386161,51.573595986873514
1673612061.767337,-8.362096,51.640022916309015
1673612061.768344,-8.372337,51.571858128840205
1673612061.769351,-8.3814,51.585863716738196
1673612061.770358,-8.393108,51.534332764956616
1673612061.771365,-8.407196,51.52803330126351
1673612061.772372,-8.409143,51.52173234586695
1673612061.773379,-8.413687,51.51543139047039
1673612061.774386,-8.426284,51.509131926777286
1673612061.775393,-8.439867,51.502830971380725
1673612061.776401,-8.44655,51.49652404917035
1673612061.7774081,-8.464052,51.490223093773785
1673612061.778415,-8.500522,51.48392363008068
1673612061.779422,-8.52235,51.47762267468412
1673612061.7804291,-8.523889,51.47132171928756
1673612061.781436,-8.521605,51.465022255594455
1673612061.782443,-8.508286,51.4587213001979
1673612061.7834501,-8.492107,51.45242034480134
1673612061.784457,-8.479918,51.446120881108236
1673612061.785464,-8.46773,51.439819925711674
1673612061.7864711,-8.41561,51.43351897031511
1673612061.787478,-8.383227,51.42721950662201
1673612061.788485,-8.407845,51.42091855122545
1673612061.789493,-8.418447,51.41461162901507
1673612061.7905,-8.407677,51.408312165321966
1673612061.791507,-8.399695,51.402011209925405
1673612061.792514,-8.389166,51.395710254528844
1673612061.793521,-8.38866,51.38941079083574
1673612061.794528,-8.397075,51.38310983543918
1673612061.795535,-8.42751,51.376808880042624
1673612061.796542,-8.462826,51.37050941634952
1673612061.797549,-8.475927,51.36420846095296
1673612061.798556,-8.492876,51.3579075055564
1673612061.799563,-8.491987,51.351608041863294
1673612061.80057,-8.484823,51.34530708646673
1673612061.801578,-8.502373,51.339000164256355
1673612061.8025851,-8.543362,51.33269920885979
1673612061.803592,-8.604208,51.32639974516669
1673612061.804599,-8.59553,51.32009878977013
1673612061.8056061,-8.539731,51.31379783437357
1673612061.806613,-8.538457,51.30749837068046
1673612061.80762,-8.52937,51.30119741528391
1673612061.8086271,-8.481746,51.299564
1673612061.809634,-8.441574,51.299564
1673612061.810641,-8.410658,51.299564
1673612061.8116481,-8.34094,51.299564
1673612061.812655,-8.318078,51.28556378683834
1673612061.813662,-8.337767,51.253215008583695
1673612061.81467,-8.373347,51.3166681215733
1673612061.815677,-8.450757,51.30694980639008
1673612061.816684,-8.495544,51.28503759275155
1673612061.817691,-8.517975,51.271704703568304
1673612061.818698,-8.529514,51.259562278073595
1673612061.819705,-8.53187,51.24741697727092
1673612061.820712,-8.512133,51.23527167646825
1673612061.821719,-8.484967,51.223129250973535
1673612061.822726,-8.438833,51.21098395017087
1673612061.823733,-8.374862,51.1988386493682
1673612061.82474,-8.3479120000000009,51.18669622387348
1673612061.825747,-8.358634,51.17455092307081
1673612061.826755,-8.402965,51.22037447353362
1673612061.8277621,-8.443593,51.24314429296782
1673612061.828769,-8.441574,51.18104412494039
1673612061.829776,-8.425803,51.15674374916547
1673612061.8307831,-8.424505,51.16412874385549
1673612061.83179,-8.43352,51.09443851228901
1673612061.832797,-8.424722,51.09003333175356
1673612061.8338041,-8.416259,51.09195057464455
1673612061.834811,-8.385031,51.09585284453657
1673612061.835818,-8.359668,51.04221627706247
1673612061.8368251,-8.320386,51.02460029381596
1673612061.837832,-8.351542,51.019743297884965
1673612061.838839,-8.398685,51.01488515182469
1673612061.839847,-8.405682,51.01002240524732
1673612061.840854,-8.400826,51.00516540931632
1673612061.841861,-8.403927,51.00030726325605
1673612061.842868,-8.410922,50.995449117195776
1673612061.843875,-8.408326,50.99059212126478
1673612061.844882,-8.421741,50.98573397520451
1673612061.845889,-8.442584,50.98087582914424
1673612061.846896,-8.43328,50.97601883321324
1673612061.847903,-8.414961,50.97116068715297
1673612061.84891,-8.408254,50.966302541092695
1673612061.849917,-8.42275,50.9614455451617
1673612061.850924,-8.421957,50.95658739910143
1673612061.851932,-8.416499,50.95172465252406
1673612061.8529391,-8.410538,50.946866506463785
1673612061.856967,-8.474678,50.92743622248125
1673612061.857974,-8.514008,50.922578076420976
1673612061.8589811,-8.50896,50.917719930360704
1673612061.859988,-8.51009,50.912862934429704
1673612061.860995,-8.529755,50.90800478836943
1673612061.8620021,-8.512613,50.90314664230916
1673612061.863009,-8.483453,50.89828964637817
1673612061.864016,-8.466023,50.893431500317895
1673612061.865024,-8.433688,50.888568753740515
1673612061.866031,-8.39907,50.88371175780952
1673612061.867038,-8.40347,50.87885361174925
1673612061.872073,-8.368033,50.85456518170644
1673612061.87308,-8.370029,50.84970703564617
1673612061.874087,-8.381496,50.8448488895859
1673612061.875094,-8.392387,50.8399918936549
1673612061.876101,-8.410249,50.835133747594625
1673612061.877109,-8.465014,50.83027100101725
1673612061.8781161,-8.513816,50.82541285495698
1673612061.879123,-8.528577,50.82055585902599
1673612061.88013,-8.506026,50.815697712965715
1673612061.8811371,-8.470062,50.808925954220314
1673612061.882144,-8.467345,50.77496
1673612061.883151,-8.492059,50.770884448152565
1673612061.8841581,-8.510378,50.72365114353838
1673612061.885165,-8.510571,50.756859
1673612061.886172,-8.512109,50.755121122556034
1673612061.8871791,-8.486001,50.74063980286055
1673612061.888186,-8.451454,50.758848642584645
1673612061.889193,-8.425202,50.764370251549835
1673612061.890201,-8.423856,50.684003853562004
1673612061.891208,-8.417149,50.67997272707124
1673612061.892215,-8.410321,50.67594064601583
1673612061.893222,-8.422702,50.67190856496042
1673612061.894229,-8.42126,50.66787743846965
1673612061.895236,-8.409912,50.60833478350023
1673612061.896243,-8.391545,50.61118768867699
1673612061.89725,-8.396762,50.62381650711713
1673612061.898257,-8.414937,50.61396896297418
1673612061.899264,-8.414961,50.60412141883123
1673612061.900271,-8.393252,50.59427620601976
1673612061.901278,-8.375896,50.58442866187681
1673612061.902286,-8.408734,50.574571792407966
1673612061.9032931,-8.448041,50.564724248265016
1673612061.9043,-8.455733,50.554879035453546
1673612061.905307,-8.444266,50.545031491310596
1673612061.9063141,-8.445444,50.535183947167646
1673612061.907321,-8.466311,50.52533873435617
1673612061.908328,-8.476048,50.515491190213226
1673612061.9093351,-8.456119,50.505643646070276
1673612061.910342,-8.394767,50.4957984332588
1673612061.911349,-8.377554,50.48595088911585
1673612061.9123561,-8.400513,50.476103344972906
1673612061.913363,-8.452848,50.46625813216143
1673612061.914371,-8.515427,50.45640126269259
1673612061.915378,-8.543915,50.44655371854964
1673612061.916385,-8.515691,50.43670850573817
1673612061.917392,-8.469726,50.42686096159522
1673612061.918399,-8.475856,50.41701341745227
1673612061.919406,-8.501122,50.40716820464079
1673612061.920413,-8.44595,50.39732066049785
1673612061.92142,-8.401523,50.3874731163549
1673612061.922427,-8.375727,50.37762790354342
1673612061.923434,-8.379669,50.36778035940047
1673612061.924441,-8.391354,50.35793281525753
1673612061.925448,-8.390224,50.34808760244605
1673612061.926455,-8.361735,50.3382400583031
1673612061.927463,-8.320169,50.32838318883426
1673612061.9284701,-8.312981,50.318535644691316
1673612061.929477,-8.3382,50.30869043187984
1673612061.930484,-8.369717,50.29884288773689
1673612061.9314911,-8.394238,50.28899534359394
1673612061.932498,-8.434121,50.27915013078247
1673612061.933505,-8.484967,50.26930258663952
1673612061.9345121,-8.51045,50.23521284525513
1673612061.935519,-8.50771,50.2489847079857
1673612061.936526,-8.496194,50.182896439198856
1673612061.9375331,-8.479005,50.245943185979975
1673612061.93854,-8.423471,50.31878177759237
1673612061.939548,-8.386978,50.25367259513591
1673612061.940555,-8.391017,50.26772993133047
1673612061.941562,-8.396354,50.28594404911779
1673612061.942569,-8.404408,50.286522
1673612061.943576,-8.403806,50.286522
1673612061.944583,-8.398662,50.286522
1673612061.94559,-8.400224,50.286522
1673612061.946597,-8.407893,50.32264093943729
1673612061.947604,-8.397267,50.30479207556615
1673612061.948611,-8.381689,50.32239082308059
1673612061.949618,-8.387002,50.3037397606104
1673612061.950625,-8.414553,50.268993564958286
1673612061.951632,-8.464364,50.28583622246066
1673612061.95264,-8.506892,50.27259552312828
1673612061.9536471,-8.543482,50.35792454816405
1673612061.954654,-8.55805,50.340285997263166
1673612061.955661,-8.574615,50.33190499900764
1673612061.9566681,-8.577884,50.32352400075211
1673612061.957675,-8.562738,50.31514498663442
1673612061.958682,-8.505161,50.3067639883789
1673612061.9596891,-8.43715,50.298382990123365
1673612061.960696,-8.393589,50.290003976005686
1673612061.961703,-8.369549,50.28162297775015
1673612061.9627101,-8.350412,50.27324197949463
1673612061.963717,-8.349018,50.26486296537694
1673612061.964725,-8.355677,50.25647403057003
1673612061.965732,-8.351518,50.24809303231451
1673612061.966739,-8.347744,50.23971401819682
1673612061.967746,-8.34522,50.231333019941296
1673612061.968753,-8.358274,50.222952021685764
1673612061.96976,-8.364933,50.214573007568085
1673612061.970767,-8.360654,50.20619200931255
1673612061.971774,-8.370053,50.19781101105703
1673612061.972781,-8.383204,50.18943199693934
1673612061.973788,-8.391449,50.18105099868381
1673612061.974795,-8.400369,50.17267000042828
1673612061.975802,-8.42013,50.1642909863106
1673612061.976809,-8.448762,50.15590998805507
1673612061.977817,-8.450325,50.14752105324816
1673612061.9788241,-8.4315,50.13914005499264
1673612061.979831,-8.412004,50.13076104087495
1673612061.980838,-8.425587,50.122380042619426
1673612061.9818451,-8.474101,50.113999044363894
1673612061.982852,-8.515931,50.10562003024621
1673612061.983859,-8.538073,50.09723903199068
1673612061.9848661,-8.560454,50.08885803373515
1673612061.985873,-8.539443,50.08047901961747
1673612061.98688,-8.501122,50.07209802136194
1673612061.9878871,-8.467538,50.06371702310641
1673612061.988894,-8.432319,50.05533800898873
1673612061.989902,-8.390728,50.04694907418182
1673612061.990909,-8.392171,50.03856807592629
1673612061.991916,-8.407364,50.030189061808606
1673612061.992923,-8.36962,50.02180806355308
1673612061.99393,-8.337093,50.01342706529755
1673612061.994937,-8.353585,50.00504805117987
1673612061.995944,-8.392988,49.99666705292434
1673612061.996951,-8.419312,49.98828605466881
1673612061.997958,-8.430563,49.979907040551126
1673612061.998965,-8.460445,49.971526042295594
1673612061.999972,-8.454075,49.96314504404007
1673612062.000979,-8.454676,49.960899
1673612062.001986,-8.460902,49.93397730607866
1673612062.002994,-8.445613,49.938322427277065
1673612062.0040011,-8.407196,49.92907112350977
1673612062.005008,-8.397027,49.924713
1673612062.006015,-8.415009,49.910730039103484
1673612062.0070221,-8.431982,49.93485494706724
1673612062.008029,-8.419048,49.88585633738674
1673612062.009036,-8.409455,49.85608560095351
1673612062.0100431,-8.393637,49.84591077510743
1673612062.01105,-8.395993,49.837805097511804
1673612062.012057,-8.391521,49.829697500504004
1673612062.0130641,-8.390295,49.8215899034962
1673612062.014071,-8.395657,49.816181
1673612062.015079,-8.399431,49.80376821001192
1673612062.016086,-8.402147,49.779995
1673612062.017093,-8.451239,49.779995
1673612062.0181,-8.53062,49.777052365374466
1673612062.019107,-8.62772,49.768912425192255
1673612062.020114,-8.707799,49.760774412079215
1673612062.021121,-8.717487,49.752634471897004
1673612062.022128,-8.693038,49.74449453171479
1673612062.023135,-8.630605,49.73635651860175
1673612062.024142,-8.558219,49.728216578419534
1673612062.025149,-8.509897,49.72007663823732
1673612062.026156,-8.426813,49.71193862512428
1673612062.027163,-8.327621,49.70379868494207
1673612062.028171,-8.259202,49.69565103648317
1673612062.0291781,-8.216482,49.68751109630096
1673612062.030185,-8.222396,49.67937308318791
1673612062.031192,-8.23961,49.6712331430057
1673612062.0321991,-8.262568,49.66309320282349
1673612062.033206,-8.304038,49.65495518971045
1673612062.034213,-8.338969,49.64681524952824
1673612062.0352201,-8.361615,49.63867530934602
1673612062.036227,-8.382963,49.63053729623298
1673612062.037234,-8.394863,49.62239735605077
1673612062.0382411,-8.398541,49.61425741586856
1673612062.039248,-8.413423,49.60611940275552
1673612062.040256,-8.425202,49.597971754296616
1673612062.041263,-8.43292,49.589831814114405
1673612062.04227,-8.438881,49.581693801001364
1673612062.043277,-8.441141,49.573553860819146
1673612062.044284,-8.429193,49.565413920636935
1673612062.045291,-8.419649,49.557275907523895
1673612062.046298,-8.421813,49.549135967341684
1673612062.047305,-8.410008,49.540996027159466
1673612062.048312,-8.388853,49.532858014046425
1673612062.049319,-8.390368,49.524718073864214
1673612062.050326,-8.378588,49.516578133682
1673612062.051333,-8.379645,49.50844012056896
1673612062.05234,-8.373803,49.500300180386745
1673612062.053348,-8.3764,49.49215253192785
1673612062.0543551,-8.39782,49.48401259174563
1673612062.055362,-8.408951,49.47587457863259
1673612062.056369,-8.410562,49.46773463845038
1673612062.0573761,-8.420899,49.45959469826817
1673612062.058383,-8.436189,49.45145668515513
1673612062.05939,-8.446838,49.44331674497291
1673612062.0603971,-8.465302,49.4351768047907
1673612062.061404,-8.494487,49.42703879167766
1673612062.062411,-8.509176,49.41889885149545
1673612062.0634181,-8.516292,49.41075891131324
1673612062.064425,-8.51045,49.40262089820019
1673612062.065433,-8.495593,49.4127170965435
1673612062.06644,-8.448065,49.37998220886981
1673612062.067447,-8.411283,49.37678925178827
1673612062.068454,-8.396474,49.382019
1673612062.069461,-8.366062,49.36889716475918
1673612062.070468,-8.354427,49.37716896948021
1673612062.071475,-8.3626,49.368645769964246
1673612062.072482,-8.363659,49.363922
1673612062.073489,-8.373683,49.336680673342876
1673612062.074496,-8.416812,49.330495898615354
1673612062.075503,-8.443136,49.334142077960166
1673612062.07651,-8.477971,49.337787394099635
1673612062.077517,-8.490593,49.34143357344444
1673612062.078525,-8.514297,49.3450832056106
1673612062.0795321,-8.548795,49.34872938495541
1673612062.080539,-8.552377,49.35237470109488
1673612062.081546,-8.511508,49.35602088043969
1673612062.0825531,-8.466961,49.3596670597845
1673612062.08356,-8.426524,49.36331237592397
1673612062.084567,-8.394406,49.36695855526877
1673612062.0855742,-8.385271,49.370604734613586
1673612062.086581,-8.362432,49.374250050753055
1673612062.087588,-8.315145,49.37789623009786
1673612062.0885952,-8.286849,49.38154240944267
1673612062.089602,-8.325097,49.38518772558214
1673612062.09061,-8.350989,49.3888373577483
1673612062.091617,-8.347528,49.392483537093106
1673612062.092624,-8.392339,49.39612885323258
1673612062.093631,-8.465134,49.39977503257739
1673612062.094638,-8.51884,49.40342121192219
1673612062.095645,-8.533746,49.40706652806167
1673612062.096652,-8.523816,49.410712707406475
1673612062.097659,-8.520066,49.41435888675129
1673612062.098666,-8.48939,49.41800420289076
1673612062.099673,-8.464293,49.42165038223556
1673612062.10068,-8.435492,49.425296561580375
1673612062.101687,-8.393973,49.42894187771984
1673612062.102694,-8.369789,49.43258805706465
1673612062.103702,-8.366351,49.43623768923081
1673612062.1047091,-8.366207,49.43988386857562
1673612062.105716,-8.365005,49.44352918471509
1673612062.106723,-8.358802,49.447175364059895
1673612062.1077302,-8.351037,49.45082154340471
1673612062.108737,-8.354259,49.454466859544176
1673612062.109744,-8.371568,49.45811303888898
1673612062.1107512,-8.408638,49.461759218233794
1673612062.111758,-8.442151,49.46540453437326
1673612062.112765,-8.448354,49.46905071371807
1673612062.1137722,-8.450349,49.47269689306288
1673612062.114779,-8.441935,49.47634220920235
1673612062.115787,-8.456863,49.47999184136851
1673612062.116794,-8.497131,49.483638020713315
1673612062.117801,-8.523721,49.48728333685279
1673612062.118808,-8.510498,49.490929516197596
1673612062.119815,-8.464533,49.4945756955424
1673612062.120822,-8.424602,49.49822101168188
1673612062.121829,-8.41448,49.50186719102668
1673612062.122836,-8.412822,49.505513370371496
1673612062.123843,-8.398662,49.509158686510965
1673612062.12485,-8.374429,49.51280486585577
1673612062.125857,-8.354571,49.51645104520058
1673612062.126864,-8.354282,49.52009636134005
1673612062.127871,-8.364067,49.52374254068486
1673612062.128879,-8.360654,49.52346505550262
1673612062.1298862,-8.332502,49.51203048806683
1673612062.130893,-8.351326,49.52320735145446
1673612062.1319,-8.404239,49.50498339165674
1673612062.1329072,-8.437607,49.49811779113019
1673612062.133914,-8.444242,49.51110450357653
1673612062.134921,-8.448618,49.46244435852205
1673612062.1359282,-8.446911,49.486388891034814
1673612062.136935,-8.437727,49.47674918788746
1673612062.137942,-8.421717,49.490551
1673612062.138949,-8.392002,49.490551
1673612062.139956,-8.373899,49.490551
1673612062.140964,-8.388107,49.490551
1673612062.141971,-8.403638,49.490551
1673612062.142978,-8.398349,49.490551
1673612062.143985,-8.379766,49.490551
1673612062.144992,-8.377963,49.490551
1673612062.145999,-8.405441,49.490551
1673612062.147006,-8.387266,49.490551
1673612062.148013,-8.375078,49.490551
1673612062.14902,-8.381088,49.490551
1673612062.150027,-8.38003,49.490551
1673612062.151034,-8.379766,49.490551
1673612062.152041,-8.392026,49.490551
1673612062.153048,-8.392411,49.490551
1673612062.154056,-8.408614,49.490551
1673612062.1550632,-8.423351,49.490551
1673612062.15607,-8.45333,49.490551
1673612062.157077,-8.501723,49.490551
1673612062.1580842,-8.541511,49.490551
1673612062.159091,-8.57459,49.490551
1673612062.160098,-8.591827,49.490551
1673612062.161105,-8.575912,49.490551
1673612062.162112,-8.527711,49.490551
1673612062.163119,-8.477923,49.490551
1673612062.164126,-8.447704,49.490551
1673612062.165133,-8.4259,49.490551
1673612062.166141,-8.373996,49.490551
1673612062.167148,-8.31149,49.490551
1673612062.168155,-8.269059,49.490551
1673612062.169162,-8.245691,49.490551
1673612062.170169,-8.276343,49.490551
1673612062.171176,-8.328175,49.490551
1673612062.172183,-8.345027,49.490551
1673612062.17319,-8.352143,49.490551
1673612062.174197,-8.364572,49.490551
1673612062.175204,-8.384261,49.490551
1673612062.176211,-8.398829,49.490551
1673612062.177218,-8.413399,49.490551
1673612062.178225,-8.428039,49.490551
1673612062.179233,-8.447031,49.490551
1673612062.1802402,-8.496074,49.490551
1673612062.181247,-8.514032,49.490551
1673612062.182254,-8.500858,49.490551
1673612062.183261,-8.499656,49.490551
1673612062.184268,-8.48677,49.490551
1673612062.185275,-8.471793,49.490551
1673612062.186282,-8.453955,49.490551
1673612062.187289,-8.404287,49.490551
1673612062.188296,-8.390224,49.490551
1673612062.189303,-8.431092,49.490551
1673612062.19031,-8.45845,49.490551
1673612062.191318,-8.425443,49.490551
1673612062.192325,-8.380391,49.460078384615386
1673612062.193332,-8.371495,49.44656825775656
1673612062.194339,-8.384165,49.46479294420601
1673612062.195346,-8.37015,49.48300924529202
1673612062.196353,-8.391088,49.46922969318723
1673612062.19736,-8.419312,49.432788467780426
1673612062.1983671,-8.433737,49.440054203147355
1673612062.199374,-8.443449,49.47645506191951
1673612062.200381,-8.451286,49.51290168448687
1673612062.2013881,-8.449723,49.526737
1673612062.202395,-8.46636,49.526737
1673612062.203402,-8.47475,49.526737
1673612062.20441,-8.447632,49.526737
1673612062.205417,-8.426909,49.52912225751073
1673612062.206424,-8.376713,49.544827
1673612062.207431,-8.319689,49.53425256734207
1673612062.208438,-8.354403,49.48628675298045
1673612062.209445,-8.399431,49.5632854598188
1673612062.210452,-8.404311,49.56561123966175
1673612062.211459,-8.398373,49.56793646889394
1673612062.212466,-8.412581,49.57026224873689
1673612062.213473,-8.428184,49.57258802857984
1673612062.21448,-8.439747,49.57491325781203
1673612062.215487,-8.442295,49.57723903765498
1673612062.216495,-8.428905,49.57956701994095
1673612062.217502,-8.403542,49.5818927997839
1673612062.218509,-8.380511,49.58421802901609
1673612062.219516,-8.363153,49.58654380885904
1673612062.2205231,-8.387002,49.58886958870199
1673612062.22153,-8.430202,49.59119481793417
1673612062.222537,-8.471577,49.59352059777712
1673612062.2235441,-8.498911,49.59584637762007
1673612062.224551,-8.50218,49.59817160685226
1673612062.225558,-8.475904,49.60049738669521
1673612062.2265651,-8.449075,49.60282316653816
1673612062.227572,-8.425611,49.60514839577035
1673612062.228579,-8.38931,49.6074741756133
1673612062.229587,-8.337646,49.609802157899274
1673612062.230594,-8.299133,49.612127387131466
1673612062.231601,-8.283844,49.614453166974414
1673612062.232608,-8.299783,49.61677894681736
1673612062.233615,-8.321972,49.619104176049554
1673612062.234622,-8.331348,49.621429955892495
1673612062.237643,-8.399863,49.62840674481058
1673612062.23865,-8.420659,49.63073252465353
1673612062.239657,-8.415009,49.63305775388572
1673612062.240664,-8.415081,49.63538353372867
1673612062.241672,-8.412917,49.63771151601465
1673612062.2426791,-8.406235,49.640037295857596
1673612062.243686,-8.397892,49.64236252508979
1673612062.244693,-8.382963,49.644688304932735
1673612062.2457001,-8.369596,49.647014084775684
1673612062.246707,-8.370967,49.649339314007875
1673612062.247714,-8.369356,49.65166509385082
1673612062.2487211,-8.356735,49.653990873693765
1673612062.249728,-8.370462,49.656316102925956
1673612062.250735,-8.418903,49.658641882768904
1673612062.2517421,-8.466792,49.66096766261185
1673612062.252749,-8.495449,49.663292891844044
1673612062.253756,-8.486025,49.66561867168699
1673612062.254764,-8.450229,49.66794665397297
1673612062.255771,-8.427341,49.67027188320516
1673612062.256778,-8.430756,49.70712867246722
1673612062.257785,-8.442055,49.7347715
1673612062.258792,-8.444339,49.71655742107773
1673612062.259799,-8.418399,49.69833851502146
1673612062.260806,-8.424625,49.67069160047676
1673612062.261813,-8.504128,49.66291535193133
1673612062.26282,-8.559613,49.671459
1673612062.263827,-8.627215,49.69107069153755
1673612062.264834,-8.706549,49.707638
1673612062.265841,-8.703183,49.70117740288545
1673612062.266849,-8.652266,49.68946410760229
1673612062.2678561,-8.564493,49.67776189396084
1673612062.268863,-8.432727,49.66606245072981
1673612062.26987,-8.316563,49.65436023708836
1673612062.2708771,-8.215881,49.642658023446906
1673612062.271884,-8.170324,49.63095858021588
1673612062.272891,-8.225954,49.61925636657443
1673612062.2738981,-8.286633,49.60755415293298
1673612062.274905,-8.308581,49.59585470970195
1673612062.275912,-8.321635,49.5841524960605
1673612062.2769191,-8.337334,49.57245028241905
1673612062.277926,-8.351783,49.560750839188024
1673612062.278933,-8.353705,49.54904862554657
1673612062.279941,-8.342191,49.53733533026341
1673612062.280948,-8.364933,49.52563588703239
1673612062.281955,-8.372313,49.51393367339093
1673612062.282962,-8.362889,49.50223145974948
1673612062.283969,-8.368058,49.49053201651845
1673612062.284976,-8.377481,49.478829802877
1673612062.285983,-8.370414,49.467127589235545
1673612062.28699,-8.355485,49.45542814600452
1673612062.287997,-8.353634,49.44372593236307
1673612062.289004,-8.367216,49.43202371872162
1673612062.290011,-8.380752,49.42032427549059
1673612062.291018,-8.376616,49.40862206184914
1673612062.292026,-8.35772,49.39690876656598
1673612062.2930331,-8.357961,49.38520655292453
1673612062.29404,-8.371904,49.3735071096935
1673612062.295047,-8.402123,49.36180489605205
1673612062.2960541,-8.407052,49.3501026824106
1673612062.297061,-8.41359,49.33840323917957
1673612062.298068,-8.425275,49.32670102553812
1673612062.2990751,-8.420514,49.314998811896665
1673612062.300082,-8.408013,49.30329936866564
1673612062.301089,-8.417341,49.291597155024185
1673612062.3020961,-8.427077,49.279894941382736
1673612062.303103,-8.442102,49.26819549815171
1673612062.30411,-8.456142,49.256493284510256
1673612062.305118,-8.4472,49.2447799892271
1673612062.306125,-8.442704,49.233080545996074
1673612062.307132,-8.430058,49.22137833235462
1673612062.308139,-8.408206,49.20967611871317
1673612062.309146,-8.404431,49.19797667548214
1673612062.310153,-8.401042,49.18627446184069
1673612062.31116,-8.382362,49.156717840286056
1673612062.312167,-8.365798,49.17339496995708
1673612062.313174,-8.351542,49.16961624892704
1673612062.314181,-8.324496,49.19199509940405
1673612062.315188,-8.324063,49.173799909394376
1673612062.316195,-8.357432,49.164932
1673612062.317203,-8.417749,49.164932
1673612062.3182101,-8.480736,49.15087571697663
1673612062.319217,-8.513287,49.132661638054365
1673612062.320224,-8.531173,49.128754
1673612062.3212311,-8.526797,49.128754
1673612062.322238,-8.510234,49.128754
1673612062.323245,-8.494055,49.128754
1673612062.3242521,-8.451142,49.13807231442193
1673612062.325259,-8.404191,49.13875033559264
1673612062.326266,-8.396787,49.123134339952315
1673612062.3272731,-8.389166,49.107518344311984
1673612062.32828,-8.360413,49.09190604564033
1673612062.329287,-8.35772,49.07629005
1673612062.330295,-8.350316,49.06065926648501
1673612062.331302,-8.328752,49.04504696781335
1673612062.332309,-8.358778,49.09008977231504
1673612062.333316,-8.375534,49.09729770938542
1673612062.334323,-8.361375,49.0320837988081
1673612062.33533,-8.345123,49.002125
1673612062.336337,-8.376472,49.023835175250355
1673612062.337344,-8.428928,49.02732094398093
1673612062.338351,-8.443353,49.031316759656654
1673612062.339358,-8.442223,49.027063841201716
1673612062.340365,-8.433424,49.05428435327771
1673612062.341372,-8.45732,49.07616712249134
1673612062.34238,-8.501387,49.078848913664224
1673612062.3433871,-8.504656,49.08152816766476
1673612062.344394,-8.484101,49.0842067873722
1673612062.345401,-8.43566,49.08688604137273
1673612062.3464081,-8.408998,49.08956529537326
1673612062.347415,-8.440035,49.09224391508071
1673612062.348422,-8.420995,49.09492316908124
1673612062.3494291,-8.366904,49.097602423081774
1673612062.350436,-8.358009,49.10028104278922
1673612062.351443,-8.388637,49.10296029678975
1673612062.3524501,-8.3833,49.105639550790286
1673612062.353457,-8.360846,49.10831817049773
1673612062.354464,-8.35034,49.110997424498265
1673612062.355472,-8.344546,49.11367921567115
1673612062.356479,-8.361038,49.116357835378594
1673612062.357486,-8.372048,49.11903708937913
1673612062.358493,-8.381063,49.12171634337966
1673612062.3595,-8.392026,49.124394963087106
1673612062.360507,-8.398229,49.12707421708764
1673612062.361514,-8.405633,49.12975347108817
1673612062.362521,-8.410898,49.13243209079562
1673612062.363528,-8.397916,49.13511134479615
1673612062.364535,-8.377963,49.137790598796684
1673612062.365542,-8.363177,49.14046921850413
1673612062.366549,-8.366255,49.14314847250466
1673612062.367557,-8.380271,49.145830263677546
1673612062.3685641,-8.374909,49.14850951767808
1673612062.369571,-8.367096,49.151188137385525
1673612062.370578,-8.362336,49.15386739138606
1673612062.3715851,-8.345628,49.15654664538659
1673612062.372592,-8.34344,49.15922526509404
1673612062.373599,-8.352984,49.16190451909457
1673612062.3746061,-8.407533,49.1645837730951
1673612062.375613,-8.497108,49.101539293752985
1673612062.37662,-8.570984,49.15646210369488
1673612062.3776271,-8.599665,49.132730647114926
1673612062.378634,-8.576946,49.128754
1673612062.379641,-8.541919,49.177825302525015
1673612062.380649,-8.514777,49.183022
1673612062.381656,-8.477034,49.19964455746304
1673612062.382663,-8.406066,49.15085422556032
1673612062.38367,-8.326733,49.24811530083433
1673612062.384677,-8.292475,49.259148848910996
1673612062.385684,-8.268674,49.26318088183845
1673612062.386691,-8.242038,49.267212914765906
1673612062.387698,-8.259371,49.27124399314012
1673612062.388705,-8.289277,49.27527602606757
1673612062.389712,-8.3101680000000009,49.27930805899503
1673612062.390719,-8.333511,49.28333913736923
1673612062.391726,-8.364596,49.287371170296694
1673612062.392734,-8.411595,49.291407021437145
1673612062.3937411,-8.461552,49.29543905436461
1673612062.394748,-8.50444,49.29947013273881
1673612062.395755,-8.52622,49.303502165666266
1673612062.3967621,-8.548194,49.30753419859373
1673612062.397769,-8.564469,49.31156527696793
1673612062.398776,-8.540837,49.31559730989539
1673612062.3997831,-8.4835,49.31962934282284
1673612062.40079,-8.404119,49.323660421197054
1673612062.401797,-8.330555,49.32769245412451
1673612062.4028041,-8.273699,49.23783601668653
1673612062.403811,-8.282714,49.23733150548402
1673612062.404818,-8.309302,49.273476
1673612062.405826,-8.324063,49.27260892989986
1673612062.406833,-8.328775,49.22085642346209
1673612062.40784,-8.324569,49.289390944206005
1673612062.408847,-8.318534,49.220545653396904
1673612062.409854,-8.317452,49.256179648068674
1673612062.410861,-8.310698,49.27383494469979
1673612062.411868,-8.321948,49.280919909241426
1673612062.412875,-8.363442,49.28800319647139
1673612062.413882,-8.381713,49.29508816101302
1673612062.414889,-8.36474,49.30217312555466
1673612062.415896,-8.397027,49.30925641278461
1673612062.416903,-8.463547,49.31634137732625
1673612062.417911,-8.544179,49.32343305111462
1673612062.4189181,-8.598462,49.33051801565625
1673612062.419925,-8.604304,49.33760130288621
1673612062.420932,-8.577931,49.344686267427846
1673612062.4219391,-8.528985,49.35177123196949
1673612062.422946,-8.458306,49.35885451919944
1673612062.423953,-8.384189,49.36593948374108
1673612062.4249601,-8.319664,49.37302444828271
1673612062.425967,-8.282185,49.380107735512674
1673612062.426974,-8.293484,49.38719270005431
1673612062.4279811,-8.313703,49.39427766459595
1673612062.428988,-8.323342,49.40332927056019
1673612062.429996,-8.346108,49.418198
1673612062.431003,-8.371231,49.41470422317597
1673612062.43201,-8.382771,49.4073438
1673612062.433017,-8.408061,49.42505556843109
1673612062.434024,-8.428111,49.389765481163565
1673612062.435031,-8.449195,49.42619163480334
1673612062.436038,-8.461888,49.45024962041011
1673612062.437045,-8.476024,49.45329702813543
1673612062.438052,-8.475255,49.50635353237858
1673612062.439059,-8.479558,49.49683822278954
1673612062.440066,-8.46922,49.4873229132005
1673612062.441073,-8.430996,49.477809856288914
1673612062.44208,-8.345556,49.46448428843862
1673612062.443088,-8.313101,49.478736960419646
1673612062.4440951,-8.335098,49.50038910419647
1673612062.445102,-8.331973,49.4989269747258
1673612062.446109,-8.30774,49.50013666078665
1673612062.4471161,-8.288075,49.473289631616595
1673612062.448123,-8.2677600000000009,49.46062621151226
1673612062.44913,-8.286609,49.47363990088556
1673612062.4501371,-8.321203,49.486653590258854
1673612062.451144,-8.336757,49.49966419873978
1673612062.452151,-8.349426,49.512677888113075
1673612062.4531581,-8.358105,49.52569157748638
1673612062.454165,-8.372458,49.5387021859673
1673612062.455173,-8.39508,49.56414953695756
1673612062.45618,-8.411162,49.571216673420736
1673612062.457187,-8.459027,49.54309259942775
1673612062.458194,-8.560382,49.54681919170243
1673612062.459201,-8.635437,49.55274821406436
1673612062.460208,-8.677484,49.57569992846924
1673612062.461215,-8.669455,49.599094
1673612062.462222,-8.610819,49.630736318951136
1673612062.463229,-8.512542,49.64269147401049
1673612062.464236,-8.425876,49.637879889727465
1673612062.465243,-8.374068,49.64227745450734
1673612062.46625,-8.290167,49.646673978197065
1673612062.467257,-8.213333,49.651071542976936
1673612062.468265,-8.230618,49.6554732721174
1673612062.4692721,-8.258385,49.65987083689728
1673612062.470279,-8.258721,49.664267360587004
1673612062.471286,-8.254298,49.668664925366876
1673612062.4722931,-8.277858,49.67306249014675
1673612062.4733,-8.31,49.677459013836476
1673612062.474307,-8.328584,49.681856578616355
1673612062.4753141,-8.343369,49.686254143396226
1673612062.476321,-8.345196,49.690650667085954
1673612062.477328,-8.343032,49.695048231865826
1673612062.4783351,-8.350509,49.699445796645705
1673612062.479342,-8.374933,49.70384232033543
1673612062.48035,-8.401619,49.708244049475894
1673612062.481357,-8.412292,49.712641614255766
1673612062.482364,-8.458258,49.717038137945494
1673612062.483371,-8.540044,49.721435702725366
1673612062.484378,-8.573436,49.725833267505244
1673612062.485385,-8.56019,49.73022979119497
1673612062.486392,-8.537616,49.734627355974844
1673612062.487399,-8.492299,49.73902492075472
1673612062.488406,-8.415081,49.743421444444444
1673612062.489413,-8.33933,49.74781900922432
1673612062.49042,-8.300817,49.752216574004194
1673612062.491427,-8.266895,49.75661309769392
1673612062.492434,-8.246172,49.7610106624738
1673612062.493442,-8.246052,49.77643240724845
1673612062.4944491,-8.253818,49.794657280877445
1673612062.495456,-8.276944,49.73897522884386
1673612062.496463,-8.316395,49.81517015879828
1673612062.4974701,-8.36438,49.8192346509299
1673612062.498477,-8.379501,49.83133781406436
1673612062.499484,-8.398926,49.788406719122555
1673612062.5004911,-8.410802,49.84166226514068
1673612062.501498,-8.402797,49.867899977825466
1673612062.502505,-8.398108,49.88361193490097
1673612062.5035121,-8.394503,49.898916156486905
1673612062.504519,-8.392242,49.91421675491433
1673612062.505527,-8.354475,49.929535469134336
1673612062.506534,-8.350147,49.94483969072027
1673612062.507541,-8.375559,49.96014028914769
1673612062.508548,-8.41412,49.975444510733624
1673612062.509555,-8.454892,49.99074873231956
1673612062.510562,-8.45357,50.006049330746976
1673612062.511569,-8.412196,50.02135355233291
1673612062.512576,-8.384117,50.03665777391885
1673612062.513583,-8.389381,50.05195837234626
1673612062.51459,-8.386858,50.0672625939322
1673612062.515597,-8.382483,50.082566815518135
1673612062.516604,-8.364163,50.09786741394556
1673612062.517611,-8.353634,50.113171635531494
1673612062.518619,-8.36438,50.1284903497515
1673612062.5196261,-8.347528,50.14379457133744
1673612062.520633,-8.30726,50.15909516976485
1673612062.52164,-8.3025,50.17439939135079
1673612062.5226471,-8.328247,50.189703612936725
1673612062.523654,-8.338993,50.20500421136414
1673612062.524661,-8.335291,50.22030843295008
1673612062.5256681,-8.335195,50.23561265453601
1673612062.526675,-8.351037,50.250913252963436
1673612062.527682,-8.368178,50.26621747454937
1673612062.5286891,-8.39044,50.28152169613531
1673612062.529696,-8.40633,50.29682229456272
1673612062.530704,-8.423303,50.31214100878273
1673612062.531711,-8.418303,50.32744523036867
1673612062.532718,-8.4096,50.34274582879608
1673612062.533725,-8.398589,50.35805005038202
