measure_time,emg_ch_1,grip_force_inter
1673612371.51754,2.124461,0.285415
1673612371.5185468,2.122802,0.267326
1673612371.519554,2.124293,0.2670758421554602
1673612371.520562,2.125278,0.2488401979017644
1673612371.521569,2.126913,0.23062193134684147
1673612371.5225759,2.123187,0.2124120400572246
1673612371.523583,2.124557,0.19652270386266094
1673612371.52459,2.125807,0.23129544537162816
1673612371.5255969,2.128933,0.2342605015829891
1673612371.526604,2.129245,0.2372262599151673
1673612371.5276108,2.128933,0.24019131612652822
1673612371.5286179,2.130567,0.24315707445870643
1673612371.529625,2.127202,0.24612283279088465
1673612371.5306318,2.129077,0.24908788900224557
1673612371.5316389,2.130519,0.25205364733442376
1673612371.532647,2.131457,0.2550222141498711
1673612371.533654,2.130856,0.2579879724820493
1673612371.5346608,2.13213,0.2609530286934102
1673612371.535668,2.134173,0.2639187870255884
1673612371.536675,2.131721,0.2668845453577666
1673612371.5376818,2.129053,0.2698496015691276
1673612371.538689,2.124485,0.27281535990130573
1673612371.539696,2.116912,0.27578111823348395
1673612371.5407028,2.112128,0.2787461744448449
1673612371.54171,2.117441,0.2817119327770231
1673612371.542717,2.128139,0.28467769110920127
1673612371.5437238,2.129918,0.2876427473205622
1673612371.544731,2.130712,0.29060850565274043
1673612371.545739,2.13802,0.29357707246818776
1673612371.546746,2.136794,0.2965428308003659
1673612371.5477529,2.13225,0.29950788701172687
1673612371.54876,2.135303,0.3024736453439051
1673612371.5497668,2.13564,0.305438701555266
1673612371.5507739,2.142227,0.30840445988744425
1673612371.551781,2.144847,0.3113702182196224
1673612371.5527878,2.134895,0.31433527443098336
1673612371.5537949,2.127635,0.3173010327631616
1673612371.554802,2.126865,0.32026679109533973
1673612371.5558088,2.12511,0.3232318473067007
1673612371.5568159,2.126649,0.3261976056388789
1673612371.557824,2.126553,0.3291661724543262
1673612371.558831,2.124004,0.3321319307865044
1673612371.5598378,2.121648,0.33509698699786533
1673612371.560845,2.123187,0.33806274533004355
1673612371.561852,2.124317,0.34102850366222176
1673612371.5628588,2.124317,0.34399355987358265
1673612371.563866,2.125855,0.34695931820576087
1673612371.564873,2.130038,0.3499250765379391
1673612371.5658798,2.140712,0.35289013274930003
1673612371.566887,2.147107,0.3558558910814782
1673612371.567894,2.144824,0.3833925065554231
1673612371.5689008,2.135375,0.430135
1673612371.569908,2.125952,0.430135
1673612371.570916,2.128236,0.430135
1673612371.5719228,2.129774,0.4232125286123033
1673612371.5729299,2.126048,0.3908904098712447
1673612371.573937,2.121721,0.3793227660944206
1673612371.5749438,2.120543,0.42665881954707985
1673612371.5759509,2.1216,0.4556644132093467
1673612371.576958,2.125375,0.469259763502076
1673612371.5779648,2.125086,0.4763368743231066
1673612371.5789719,2.125591,0.4834156609932542
1673612371.579979,2.123764,0.4904944476634019
1673612371.5809858,2.12386,0.4975715584844325
1673612371.5819929,2.122995,0.5046503451545802
1673612371.583001,2.12398,0.5117358352211957
1673612371.584008,2.126889,0.5188146218913434
1673612371.5850148,2.127682,0.525891732712374
1673612371.586022,2.125086,0.5329705193825216
1673612371.587029,2.124269,0.5400493060526692
1673612371.5880358,2.131217,0.5471264168736999
1673612371.589043,2.136602,0.5542052035438475
1673612371.59005,2.139342,0.5612839902139952
1673612371.5910568,2.139462,0.5683611010350258
1673612371.592064,2.138453,0.5754398877051734
1673612371.593071,2.13064,0.5825186743753211
1673612371.5940778,2.122394,0.5895957851963517
1673612371.595085,2.121937,0.5966745718664994
1673612371.596093,2.119821,0.6037600619331149
1673612371.5970998,2.118716,0.6108371727541456
1673612371.5981069,2.116744,0.6179159594242932
1673612371.599114,2.113811,0.6249947460944408
1673612371.6001208,2.119076,0.6320718569154715
1673612371.6011279,2.1241,0.6391506435856191
1673612371.602135,2.12749,0.6462294302557667
1673612371.6031418,2.134342,0.6533065410767974
1673612371.6041489,2.138813,0.660385327746945
1673612371.605156,2.137587,0.6674641144170927
1673612371.6061628,2.135039,0.6745412252381233
1673612371.6071699,2.138092,0.6816200119082709
1673612371.608178,2.140592,0.6887055019748864
1673612371.609185,2.139222,0.6957842886450342
1673612371.6101918,2.139462,0.7028613994660649
1673612371.611199,2.140592,0.7099401861362125
1673612371.612206,2.133284,0.7170189728063601
1673612371.6132128,2.123644,0.7240960836273906
1673612371.61422,2.117057,0.7311748702975384
1673612371.615227,2.115206,0.738253656967686
1673612371.6162338,2.117898,0.7453307677887167
1673612371.617241,2.118716,0.7524095544588643
1673612371.6232839,2.131938,0.794885626177984
1673612371.624291,2.131337,0.8019644128481316
1673612371.6252978,2.1354,0.8090415236691624
1673612371.6263049,2.139847,0.81612031033931
1673612371.627312,2.143501,0.8231990970094576
1673612371.6283188,2.140592,0.8302762078304882
1673612371.6293259,2.143742,0.8373549945006359
1673612371.630333,2.150377,0.8444337811707835
1673612371.6313398,2.150641,0.8515108919918142
1673612371.6323469,2.148261,0.8585896786619618
1673612371.633355,2.143982,0.8783876703191996
1673612371.634362,2.13088,0.9221044563245824
1673612371.6353688,2.122682,0.8794189842632332
1673612371.636376,2.125687,0.9327552934445769
1673612371.637383,2.126553,0.9226057169766333
1673612371.6383898,2.121336,0.9241886123032904
1673612371.639397,2.120543,0.8781088340882003
1673612371.640404,2.11922,0.8731305336194564
1673612371.6414108,2.117658,0.9186333829279923
1673612371.642418,2.118403,0.974948542407937
1673612371.643425,2.118763,0.9831800425291257
1673612371.6444318,2.12023,0.9914095939050205
1673612371.645439,2.125543,0.999641094026209
1673612371.646447,2.126721,1.007880389128573
1673612371.6474538,2.125471,1.0161099405044678
1673612371.6484609,2.125327,1.0243414406256566
1673612371.649468,2.126769,1.0325729407468451
1673612371.6504748,2.127731,1.04080249212274
1673612371.6514819,2.125519,1.0490339922439285
1673612371.652489,2.12261,1.057265492365117
1673612371.6534958,2.121023,1.0654950437410118
1673612371.6545029,2.120927,1.0737265438622006
1673612371.65551,2.118355,1.0819580439833891
1673612371.6565168,2.116384,1.090187595359284
1673612371.6575239,2.126505,1.0984190954804725
1673612371.658532,2.127394,1.1066583905828364
1673612371.659539,2.118018,1.114889890704025
1673612371.6605458,2.116071,1.1231194420799198
1673612371.661553,2.111455,1.1313509422011085
1673612371.66256,2.110253,1.139582442322297
1673612371.6635668,2.116384,1.1478119936981919
1673612371.664574,2.12362,1.1560434938193804
1673612371.665581,2.126961,1.1642749939405692
1673612371.6665878,2.129534,1.172504545316464
1673612371.667595,2.126601,1.1807360454376525
1673612371.668602,2.126168,1.188967545558841
1673612371.6696088,2.125278,1.1971970969347359
1673612371.670616,2.120783,1.2054285970559246
1673612371.671624,2.116816,1.2136678921582884
1673612371.6726308,2.115254,1.2218974435341834
1673612371.6736379,2.115734,1.230128943655372
1673612371.674645,2.118716,1.2383604437765605
1673612371.6756518,2.121095,1.2465899951524553
1673612371.6766589,2.134919,1.254821495273644
1673612371.677666,2.1404,1.2630529953948324
1673612371.6786728,2.138429,1.2712825467707272
1673612371.6796799,2.130664,1.279514046891916
1673612371.680687,2.129005,1.2877455470131045
1673612371.6816938,2.132683,1.2959750983889993
1673612371.6827009,2.129462,1.3042065985101878
1673612371.683709,2.131192,1.3124458936125518
1673612371.684716,2.136818,1.3206773937337406
1673612371.6857228,2.146795,1.3289069451096354
1673612371.68673,2.158719,1.334646
1673612371.692772,2.127971,1.443926534334764
1673612371.693779,2.121144,1.4601568700834326
1673612371.6947858,2.121023,1.4642540157367667
1673612371.695793,2.120158,1.5427967545454877
1673612371.696801,2.110301,1.567903770889183
1673612371.6978078,2.103089,1.5929810958701258
1673612371.6988149,2.107921,1.618064359123619
1673612371.699822,2.117946,1.6431476223771122
1673612371.7008288,2.116191,1.6682249473580548
1673612371.7018359,2.108835,1.693308210611548
1673612371.702843,2.103594,1.7183914738650414
1673612371.7038498,2.101046,1.743468798845984
1673612371.7048569,2.097223,1.7685520620994772
1673612371.705864,2.097608,1.7936353253529704
1673612371.7068708,2.099916,1.818712650333913
1673612371.7078779,2.107248,1.8437959135874065
1673612371.708886,2.120831,1.8689029299311017
1673612371.709893,2.131433,1.893986193184595
1673612371.7108998,2.130664,1.9190635181655378
1673612371.711907,2.135231,1.944146781419031
1673612371.712914,2.143309,1.9692300446725242
1673612371.7139208,2.149992,1.9943073696534668
1673612371.714928,2.161027,2.01939063290696
1673612371.715935,2.171172,2.0444738961604534
1673612371.7169418,2.183505,2.069551221141396
1673612371.717949,2.197424,2.094634484394889
1673612371.718956,2.193554,2.1197177476483824
1673612371.7199628,2.187015,2.144795072629325
1673612371.72097,2.196727,2.169878335882818
1673612371.721978,2.203098,2.1949853522265137
1673612371.7229848,2.207016,2.2200626772074563
1673612371.7239919,2.203867,2.24514594046095
1673612371.724999,2.192568,2.270229203714443
1673612371.7260058,2.194419,2.2953065286953853
1673612371.7270129,2.189683,2.320389791948879
1673612371.72802,2.194996,2.345473055202372
1673612371.7290268,2.183481,2.3705503801833148
1673612371.7300339,2.1667,2.395633643436808
1673612371.731041,2.136385,2.420716906690301
1673612371.7320478,2.105998,2.445794231671244
1673612371.7330549,2.084794,2.470877494924737
1673612371.734063,2.072702,2.4959845112684325
1673612371.73507,2.07263,2.5210677745219257
1673612371.7360768,2.082703,2.5461450995028683
1673612371.737084,2.092343,2.5712283627563615
1673612371.738091,2.097824,2.596311626009855
1673612371.7390978,2.0909,2.6213889509907977
1673612371.740105,2.081957,2.646472214244291
1673612371.741112,2.075635,2.671555477497784
1673612371.7421188,2.073303,2.6966328024787267
1673612371.743126,2.066692,2.72171606573222
1673612371.744133,2.074,2.7467993289857136
1673612371.7451398,2.086862,2.7718766539666557
1673612371.746147,2.088232,2.796959917220149
1673612371.747155,2.084097,2.8220669335638444
1673612371.7481618,2.088448,2.8471442585447875
1673612371.7491689,2.104075,2.8722275217982807
1673612371.750176,2.09881,2.897310785051774
1673612371.7511828,2.091982,2.922388110032716
1673612371.7521899,2.094939,2.9474713732862097
1673612371.753197,2.100084,2.972554636539703
1673612371.7542038,2.105854,2.9976319615206455
1673612371.7552109,2.108811,3.0227152247741387
1673612371.756218,2.108089,3.047798488027632
1673612371.7572248,2.113018,3.072875813008575
1673612371.7582319,2.122201,3.097959076262068
1673612371.75924,2.123043,3.1230660926057636
1673612371.760247,2.113667,3.148149355859257
1673612371.7612538,2.102392,3.1367365286123032
1673612371.762261,2.099627,3.1328745926102504
1673612371.763268,2.107801,3.204710414878398
1673612371.7642748,2.117057,3.2434809561278017
1673612371.765282,2.115638,3.2694843611442193
1673612371.766289,2.115254,3.315440177873152
1673612371.7672958,2.1216,3.342750513590844
1673612371.768303,2.131241,3.3884104278903457
1673612371.76931,2.136674,3.443063183118741
1673612371.7703168,2.132923,3.489136750337842
1673612371.771324,2.117297,3.527317615803041
1673612371.772332,2.108546,3.5655346373908405
1673612371.7733388,2.111431,3.60370646382539
1673612371.7743459,2.117994,3.6418873292905896
1673612371.7773669,2.104724,3.7564208866555377
1673612371.778374,2.101911,3.7946017521207374
1673612371.7793808,2.094627,3.8327735785552868
1673612371.7803879,2.088833,3.8709544440204864
1673612371.781395,2.09155,3.909135309485686
1673612371.7824018,2.097872,3.9473071359202354
1673612371.7834089,2.104652,3.985488001385435
1673612371.784417,2.099074,4.023705022973234
1673612371.785424,2.092511,4.061885888438433
1673612371.7864308,2.108835,4.1000577148729835
1673612371.787438,2.118763,4.138238580338182
1673612371.788445,2.119268,4.176419445803382
1673612371.7894518,2.109965,4.214591272237932
1673612371.790459,2.100925,4.252772137703131
1673612371.791466,2.102849,4.265246
1673612371.7924728,2.103041,4.265246
1673612371.79348,2.107921,4.265246
1673612371.794487,2.104051,4.290538519790177
1673612371.7954938,2.099267,4.301425
1673612371.7965019,2.098642,4.3530839928469245
1673612371.797509,2.099483,4.373789
1673612371.7985158,2.105926,4.373789
1673612371.7995229,2.107248,4.426960481163567
1673612371.80053,2.104435,4.462922783486566
1673612371.8015368,2.102368,4.485690321938935
1673612371.8025439,2.107056,4.508463251709904
1673612371.803551,2.117946,4.531236181480874
1673612371.8045578,2.129726,4.554003719933243
1673612371.8055649,2.136866,4.576776649704212
1673612371.806572,2.138356,4.599549579475182
1673612371.8075788,2.14302,4.62231711792755
1673612371.808586,2.147853,4.64509004769852
1673612371.809594,2.151362,4.667884542743894
1673612371.810601,2.154103,4.6906574725148635
1673612371.8116078,2.16432,4.713425010967232
1673612371.812615,2.186462,4.736197940738202
1673612371.813622,2.207377,4.758970870509172
1673612371.8146288,2.195188,4.78173840896154
1673612371.815636,2.158022,4.80451133873251
1673612371.816643,2.138982,4.792484344301383
1673612371.8176498,2.126,4.789862
1673612371.818657,2.115278,4.837014137067937
1673612371.819664,2.111094,4.859975205531712
1673612371.8206708,2.083448,4.9195156711956525
1673612371.8216789,2.062965,4.94020932393888
1673612371.822686,2.07388,4.9508260076299475
1673612371.8236928,2.087054,4.9690400865522175
1673612371.8246999,2.090756,4.9872545458879625
1673612371.825707,2.092175,5.037017466694751
1673612371.8267138,2.105108,5.089796712115596
1673612371.8277209,2.126408,5.142588455581768
1673612371.828728,2.138429,5.19538019904794
1673612371.8297348,2.153166,5.248159444468785
1673612371.830742,2.163936,5.300951187934957
1673612371.831749,2.191582,5.353742931401129
1673612371.8327558,2.236466,5.406522176821973
1673612371.833763,2.271734,5.459313920288146
1673612371.834771,2.277383,5.512155655935631
1673612371.835778,2.275772,5.564947399401803
1673612371.8367848,2.277527,5.617726644822647
1673612371.837792,2.274811,5.670518388288819
1673612371.838799,2.266108,5.723310131754992
1673612371.8398058,2.249809,5.776089377175836
1673612371.840813,2.220239,5.828881120642008
1673612371.84182,2.171556,5.881672864108181
1673612371.8428268,2.126456,5.934452109529025
1673612371.843834,2.08477,5.9872438529951975
1673612371.844841,2.052964,6.04003559646137
1673612371.8458478,2.029285,6.092814841882214
1673612371.8468559,2.033684,6.145656577529699
1673612371.847863,2.051162,6.198448320995872
1673612371.8488698,2.068375,6.251227566416715
1673612371.8498769,2.074745,6.304019309882888
1673612371.850884,2.063134,6.356811053349061
1673612371.8518908,2.06436,6.4095902987699045
1673612371.852898,2.067124,6.462382042236077
1673612371.853905,2.062653,6.546320732474964
1673612371.8549118,2.062509,6.577625900119189
1673612371.855919,2.0646,6.595850203385789
1673612371.856926,2.066259,6.629264865045303
1673612371.8579328,2.075947,6.7116347973778305
1673612371.85894,2.084794,6.725498
1673612371.859948,2.103329,6.756689226752504
1673612371.860955,2.115758,6.8245695064377685
1673612371.8619618,2.125351,6.849883428128725
1673612371.862969,2.11934,6.892945892736039
1673612371.863976,2.091069,6.939504448209177
1673612371.8649828,2.055417,6.986051981297022
1673612371.86599,2.052796,7.03261053677016
1673612371.866997,2.06323,7.079169092243298
1673612371.8680038,2.063615,7.125716625331143
1673612371.869011,2.064816,7.172275180804281
1673612371.870018,2.074312,7.218833736277419
1673612371.8710248,2.085371,7.265381269365264
1673612371.8720329,2.0909,7.353847652205006
1673612371.87304,2.102392,7.358656
1673612371.8740468,2.110662,7.410801932284216
1673612371.875054,2.117706,7.465452367103695
1673612371.876061,2.113619,7.484835128040057
1673612371.8770678,2.099964,7.485288
1673612371.878075,2.099796,7.592614904410012
1673612371.879082,2.097415,7.611846677873151
1673612371.8800888,2.08679,7.648098
1673612371.881096,2.087054,7.648098
1673612371.882103,2.090179,7.648098
1673612371.8831098,2.089362,7.648098
1673612371.884117,2.094843,7.648098
1673612371.885125,2.097536,7.648098
1673612371.886132,2.093232,7.648098
1673612371.8871388,2.094747,7.648098
1673612371.888146,2.09768,7.648098
1673612371.889153,2.094026,7.648098
1673612371.8901598,2.092031,7.648098
1673612371.891167,2.096093,7.648098
1673612371.892174,2.096742,7.648098
1673612371.8931808,2.098642,7.648098
1673612371.894188,2.098449,7.648098
1673612371.895195,2.097968,7.648098
1673612371.8962018,2.10244,7.648098
1673612371.89721,2.102272,7.648098
1673612371.898217,2.104291,7.678894542755812
1673612371.8992238,2.104123,7.723448773676606
1673612371.900231,2.10131,7.768013554971759
1673612371.901238,2.103354,7.812578336266912
1673612371.9022448,2.097031,7.857132567187706
1673612371.903252,2.098762,7.901697348482858
1673612371.904259,2.107488,7.946262129778011
1673612371.9052658,2.111071,7.990816360698805
1673612371.906273,2.111648,8.035381141993957
1673612371.90728,2.127971,8.079945923289111
1673612371.9082868,2.13201,8.124500154209905
1673612371.909294,2.123067,8.169064935505057
1673612371.910302,2.121817,8.21367191829765
1673612371.911309,2.131,8.258236699592802
1673612371.9123158,2.148261,8.302790930513595
1673612371.913323,2.160137,8.34735571180875
1673612371.91433,2.15581,8.391920493103902
1673612371.9153368,2.153141,8.436474724024695
1673612371.916344,2.159272,8.481039505319847
1673612371.917351,2.161556,8.525604286615001
1673612371.9183578,2.159248,8.570158517535795
1673612371.919365,2.170234,8.614723298830947
1673612371.920372,2.177519,8.6592880801261
1673612371.9213789,2.169152,8.703842311046893
1673612371.922387,2.159007,8.748449293839485
1673612371.923394,2.155858,8.793014075134638
1673612371.9244008,2.133284,8.83756830605543
1673612371.925408,2.10607,8.882133087350585
1673612371.926415,2.08554,8.926697868645737
1673612371.9274218,2.070995,8.97125209956653
1673612371.928429,2.071019,9.015816880861683
1673612371.929436,2.076548,9.060381662156837
1673612371.9304428,2.079289,9.10493589307763
1673612371.93145,2.086573,9.149500674372783
1673612371.932457,2.097608,9.194065455667936
1673612371.9334638,2.106166,9.23861968658873
1673612371.934471,2.105685,9.283184467883883
1673612371.935479,2.10571,9.327791450676475
1673612371.936486,2.119821,9.372356231971628
1673612371.9374928,2.148357,9.416910462892421
1673612371.9385,2.161075,9.461475244187573
1673612371.939507,2.180163,9.506040025482728
1673612371.9405138,2.194443,9.5505942564035209
1673612371.941521,2.203771,9.595159037698673
1673612371.942528,2.208891,9.639723818993826
1673612371.9435349,2.218364,9.690664331902719
1673612371.944542,2.238437,9.745323420123986
1673612371.945549,2.247188,9.764642
1673612371.9465559,2.240072,9.812246262279448
1673612371.947564,2.216657,9.885191576537911
1673612371.948571,2.192784,9.372265628318583
1673612371.9495778,2.177374,9.40595370967742
1673612371.950585,2.154536,9.450383386464264
1673612371.951592,2.124004,9.531275219974717
1673612371.9525988,2.104075,9.472387880782069
1673612371.953606,2.115542,9.44209290319504
1673612371.954613,2.123836,9.481858615017877
1673612371.9556198,2.114725,9.54935060944206
1673612371.956627,2.085588,9.571399004291846
1673612371.957634,2.071332,9.628744338388737
1673612371.9586408,2.081092,9.707353954455485
1673612371.959648,2.095516,9.785982185160183
1673612371.960656,2.09744,9.864684874416684
1673612371.961663,2.12398,9.943313105121382
1673612371.9626698,2.150161,10.02192272118813
1673612371.963677,2.148526,10.100550951892826
1673612371.964684,2.152012,10.179179182597524
1673612371.9656909,2.162686,10.257788798664272
1673612371.966698,2.171605,10.33641702936897
1673612371.967705,2.172518,10.415045260073668
1673612371.9687119,2.162085,10.493654876140415
1673612371.969719,2.141842,10.572283106845113
1673612371.970726,2.129966,10.650911337549811
1673612371.9717329,2.115061,10.729520953616557
1673612371.972741,2.106334,10.80822364287306
1673612371.973748,2.103834,10.886851873577758
1673612371.9747548,2.099868,10.965461489644504
1673612371.975762,2.090612,11.044089720349202
1673612371.976769,2.076981,11.1227179510539
1673612371.9777758,2.062725,11.201327567120648
1673612371.978783,2.067221,11.279955797825346
1673612371.97979,2.076957,11.358584028530043
1673612371.9807968,2.075827,11.43719364459679
1673612371.981804,2.066812,11.515821875301489
1673612371.982811,2.050873,11.594450106006187
1673612371.9838178,2.036809,11.673059722072933
1673612371.984825,2.034886,11.751687952777631
1673612371.985833,2.028996,11.830390642034134
1673612371.98684,2.028179,11.909018872738832
1673612371.9878469,2.033131,11.987628488805578
1673612371.988854,2.040584,12.066256719510276
1673612371.989861,2.054046,12.144884950214974
1673612371.9908679,2.068807,12.223494566281722
1673612371.991875,2.088448,12.30212279698642
1673612371.992882,2.11422,12.380751027691117
1673612371.9938889,2.146434,12.459360643757865
1673612371.994896,2.161219,12.568377132777115
1673612371.995903,2.160882,12.623157723175964
1673612371.9969099,2.154824,12.678662308700835
1673612371.997918,2.147804,12.804499969003338
1673612371.998925,2.147804,12.8409367799237
1673612371.9999318,2.143886,12.878591092513114
1673612372.000939,2.133789,12.949246670560191
1673612372.001946,2.118956,12.969194826895565
1673612372.0029528,2.10119,13.020862
1673612372.00396,2.075298,13.020862
1673612372.004967,2.059576,13.020862
1673612372.0059738,2.04407,13.020862
1673612372.006981,2.033804,13.020862
1673612372.007988,2.051282,13.020862
1673612372.0089948,2.068928,13.020862
1673612372.010002,2.077967,13.052039859084406
1673612372.01101,2.081813,13.069381633412888
1673612372.012017,2.073111,13.119736268397237
1673612372.0130239,2.071764,13.24442853862661
1673612372.014031,2.077245,13.282451847494034
1673612372.015038,2.084722,13.300673674922601
1673612372.0160449,2.087655,13.332593469129327
1673612372.017052,2.086982,13.379961938984524
1673612372.018059,2.088376,13.42733040883972
1673612372.0190659,2.103618,13.474687664568531
1673612372.020073,2.123307,13.522056134423728
1673612372.0210798,2.145401,13.569413390152539
1673612372.0220869,2.145833,13.616781860007736
1673612372.023095,2.122995,13.664195186368477
1673612372.024102,2.104195,13.711563656223674
1673612372.0251088,2.10119,13.758920911952485
1673612372.026116,2.105661,13.806289381807682
1673612372.027123,2.11333,13.853657851662879
1673612372.0281298,2.109003,13.90101510739169
1673612372.029137,2.095372,13.948383577246886
1673612372.030144,2.094939,13.995752047102084
1673612372.0311508,2.085996,14.043109302830894
1673612372.032158,2.034285,14.090477772686091
1673612372.033165,2.004931,14.137846242541288
1673612372.0341718,2.002311,14.185203498270099
1673612372.035179,1.990772,14.232571968125296
1673612372.036187,1.977766,14.279985294486037
1673612372.037194,1.972333,14.327353764341234
1673612372.0382009,2.00635,14.374711020070045
1673612372.039208,2.078399,14.422079489925242
1673612372.040215,2.133765,14.469447959780439
1673612372.0412219,2.117297,14.51680521550925
1673612372.042229,2.087222,14.564173685364445
1673612372.0432358,2.096766,14.611530941093257
1673612372.0442429,2.116985,14.658899410948454
1673612372.04525,2.123716,14.70626788080365
1673612372.0462568,2.130688,14.753625136532461
1673612372.0472639,2.144871,14.800993606387657
1673612372.048272,2.163407,14.848406932748398
1673612372.049279,2.168479,14.895775402603595
1673612372.0502858,2.131481,14.943132658332406
1673612372.051293,2.085131,14.990501128187603
1673612372.0523,2.070538,15.0378695980428
1673612372.0533068,2.083712,15.08522685377161
1673612372.054314,2.104628,15.132595323626807
1673612372.055321,2.111215,15.179963793482004
1673612372.0563278,2.066163,15.227321049210815
1673612372.057335,2.028323,15.274689519066012
1673612372.058342,2.026833,15.322057988921209
1673612372.0593488,2.050825,15.36941524465002
1673612372.060356,2.069408,15.416783714505216
1673612372.061364,2.06912,15.441202825631253
1673612372.062371,2.093737,15.5462486
1673612372.0633779,2.108859,15.659231099284009
1673612372.064385,2.058686,15.724342516452074
1673612372.0653918,2.07275,15.793782745177424
1673612372.0663989,2.090852,15.836697555078684
1673612372.067406,2.092583,15.94876596515513
1673612372.0684128,2.100997,16.01524544439152
1673612372.0694199,2.101406,16.100605521697663
1673612372.070427,2.097512,16.17426462921061
1673612372.0714338,2.100709,16.24482711170543
1673612372.0724409,2.103474,16.31540630328917
1673612372.073449,2.086309,16.386052331228573
1673612372.074456,2.07977,16.45663152281231
1673612372.0754628,2.096791,16.52719400530713
1673612372.07647,2.099387,16.597773196890866
1673612372.077477,2.094218,16.668352388474606
1673612372.0784838,2.099146,16.738914870969424
1673612372.079491,2.098233,16.809494062553163
1673612372.080498,2.095637,16.8800732541369
1673612372.0815048,2.089674,16.95063573663172
1673612372.082512,2.087222,17.021214928215457
1673612372.083519,2.091093,17.091794119799196
1673612372.0845258,2.089362,17.162356602294015
1673612372.085533,2.089049,17.232935793877754
1673612372.086541,2.091574,17.303581821817158
1673612372.0875478,2.090011,17.374144304311976
1673612372.0885549,2.097271,17.444723495895715
1673612372.089562,2.100469,17.51530268747945
1673612372.0905688,2.095588,17.585865169974273
1673612372.0915759,2.08578,17.65644436155801
1673612372.092583,2.075178,17.72702355314175
1673612372.0935898,2.075443,17.797586035636566
1673612372.0945969,2.086405,17.868165227220306
1673612372.095604,2.102608,17.938744418804042
1673612372.0966108,2.131433,18.009306901298864
1673612372.0976179,2.156892,18.0798860928826
1673612372.098626,2.153574,18.150532120822003
1673612372.099633,2.141145,18.221111312405743
1673612372.1006398,2.137515,18.29167379490056
1673612372.101647,2.134222,18.3622529864843
1673612372.102654,2.117441,18.432832178068036
1673612372.1036608,2.092247,18.503394660562858
1673612372.104668,2.0861170000000002,18.573973852146594
1673612372.105675,2.090131,18.644553043730333
1673612372.1066818,2.0978,18.715115526225155
1673612372.107689,2.108258,18.78569471780889
1673612372.108696,2.121264,18.856273909392627
1673612372.1097028,2.10131,18.92683639188745
1673612372.11071,2.055417,18.997415583471184
1673612372.111718,2.05645,19.06806161141059
1673612372.1127248,2.082174,19.13862409390541
1673612372.1137319,2.109893,19.20920328548915
1673612372.114739,2.127346,19.279782477072885
1673612372.1157458,2.138333,19.32502568444868
1673612372.1167529,2.157613,19.334322
1673612372.11776,2.158334,19.397697944391407
1673612372.1187668,2.158046,19.479322282479142
1673612372.1197739,2.168912,19.515737589090044
1673612372.120781,2.185091,19.561608618138425
1673612372.1217878,2.202881,19.63541266475918
1673612372.1227949,2.213988,19.658661009287925
1673612372.123803,2.169874,19.671342225775657
1673612372.12481,2.120783,19.72192465550446
1673612372.1258168,2.102969,19.769080554766827
1673612372.126824,2.086044,19.816247620474677
1673612372.127831,2.068182,19.863414686182526
1673612372.1288378,2.067028,19.910570585444894
1673612372.129845,2.053878,19.95773765115274
1673612372.130852,2.027746,20.00490471686059
1673612372.1318588,2.002552,20.052060616122958
1673612372.132866,2.001782,20.099227681830808
1673612372.133873,2.028034,20.146394747538658
1673612372.1348798,2.068591,20.193550646801025
1673612372.135887,2.121793,20.24071771250887
1673612372.136895,2.163046,20.287929443998642
1673612372.1379018,2.199996,20.33508534326101
1673612372.1389089,2.2212,20.38225240896886
1673612372.139916,2.209348,20.429419474676706
1673612372.1409228,2.191198,20.476575373939077
1673612372.1419299,2.156098,20.523742439646924
1673612372.142937,2.112056,20.570909505354773
1673612372.1439438,2.078664,20.61806540461714
1673612372.1449509,2.062845,20.66523247032499
1673612372.145958,2.046978,20.712399536032837
1673612372.1469648,2.033299,20.75955543529521
1673612372.1479719,2.034237,20.806722501003055
1673612372.14898,2.033059,20.853934232492826
1673612372.149987,2.042507,20.901101298200672
1673612372.1509938,2.04181,20.948257197463043
1673612372.152001,2.019452,20.99542426317089
1673612372.153008,1.999354,21.04259132887874
1673612372.1540148,1.991613,21.089747228141107
1673612372.155022,1.979016,21.136914293848957
1673612372.156029,1.998513,21.222026894372913
1673612372.1570358,2.070803,21.265499352562575
1673612372.158043,2.128428,21.301943028373866
1673612372.15905,2.118812,21.402858809489747
1673612372.1600568,2.096382,21.463404304648392
1673612372.161064,2.086525,21.567169758226036
1673612372.162072,2.067629,21.610525461611825
1673612372.1630788,2.041425,21.73016186695279
1673612372.1640859,2.038324,21.723541795709178
1673612372.165093,2.038781,21.79092133575993
1673612372.1660998,2.039237,21.864991845566966
1673612372.1671069,2.047171,21.93907989515847
1673612372.168114,2.043973,22.013167944749977
1673612372.1691208,2.03229,22.087238454557017
1673612372.1701279,2.021592,22.161326504148523
1673612372.171135,2.033299,22.23541455374003
1673612372.1721418,2.070466,22.309485063547065
1673612372.1731489,2.100204,22.38357311313857
1673612372.174157,2.103738,22.457731321867946
1673612372.175164,2.097704,22.531819371459452
1673612372.1761708,2.080635,22.605889881266492
1673612372.177178,2.059263,22.679977930857998
1673612372.178185,2.0477,22.754065980449504
1673612372.1791918,2.070995,22.82809621215733
1673612372.180199,2.09566,22.903833654744876
1673612372.181206,2.105782,23.045342444921317
1673612372.1822128,2.116359,23.10194154922527
1673612372.18322,2.116263,23.19521230972818
1673612372.184227,2.094675,23.31537322389127
1673612372.1852338,2.087968,23.341713868383405
1673612372.186241,2.12136,23.466283279618594
1673612372.187249,2.168143,23.557448309728183
1673612372.1882558,2.188048,23.64806913135367
1673612372.1892629,2.195044,23.734464823072624
1673612372.19027,2.209084,23.820860514791576
1673612372.1912768,2.178552,23.907235752985027
1673612372.1922839,2.151867,23.993631444703983
1673612372.193291,2.164561,24.080027136422935
1673612372.1942978,2.16057,24.16640237461639
1673612372.1953049,2.1429,24.25279806633534
1673612372.196312,2.109844,24.339193758054297
1673612372.1973188,2.080876,24.425568996247748
1673612372.1983259,2.082727,24.511964687966703
1673612372.199334,2.060537,24.598442193787662
1673612372.200341,2.022866,24.684837885506617
1673612372.2013478,2.001902,24.77121312370007
1673612372.202355,2.00885,24.85760881541902
1673612372.203362,2.023996,24.944004507137976
1673612372.2043688,2.003513,25.030379745331427
1673612372.205376,1.999378,25.116775437050382
1673612372.206383,2.01813,25.203171128769334
1673612372.2073898,2.045223,25.292005710061993
1673612372.208397,2.029789,25.43511023509776
1673612372.209404,2.0212310000000002,25.533304351216024
1673612372.2104108,2.045825,25.743910456734206
1673612372.211418,2.010533,25.838782386266097
1673612372.212426,2.002744,25.980444643061517
1673612372.2134328,2.037675,26.079198534684146
1673612372.2144399,2.100685,26.256369448020983
1673612372.215447,2.092391,26.38211642560801
1673612372.2164538,2.037122,26.49305025245868
1673612372.2174609,2.025318,26.617974600173703
1673612372.218468,2.034453,26.742898947888726
1673612372.2194748,2.038973,26.867793720710825
1673612372.2204819,2.052964,26.992718068425848
1673612372.221489,2.063061,27.11764241614087
1673612372.2224958,2.062605,27.242537188962967
1673612372.2235029,2.067293,27.36746153667799
1673612372.224511,2.072389,27.492504183964712
1673612372.225518,2.063855,27.617428531679735
1673612372.2265248,2.056811,27.742323304501834
1673612372.227532,2.056835,27.867247652216857
1673612372.228539,2.063014,27.99217199993188
1673612372.2295458,2.072437,28.117066772753976
1673612372.230553,2.065273,28.241991120469
1673612372.23156,2.050056,28.366915468184022
1673612372.2325668,2.048589,28.49181024100612
1673612372.233574,2.06311,28.616734588721144
1673612372.234581,2.080852,28.741658936436167
1673612372.2355878,2.076933,28.866553709258266
1673612372.236595,2.072726,28.99147805697329
1673612372.237603,2.069072,29.11652070426001
1673612372.2386098,2.064744,29.241415477082107
1673612372.2396169,2.06585,29.36633982479713
1673612372.240624,2.066379,29.491264172512153
1673612372.2416308,2.06686,29.616158945334252
1673612372.2426379,2.081693,29.741083293049275
1673612372.243645,2.101863,29.8660076407643
1673612372.2446518,2.112248,29.9806988397711
1673612372.2456589,2.107416,30.0774186070577
1673612372.246666,2.096237,30.19248099213349
1673612372.2476728,2.090131,30.302342260371958
1673612372.2486799,2.08114,30.39923296137339
1673612372.249688,2.076765,30.50822133206198
1673612372.250695,2.06686,30.550934187410586
1673612372.2517018,2.068519,30.63118167095851
1673612372.252709,2.106455,30.739123229320622
1673612372.253716,2.122153,30.815971200954134
1673612372.2547228,2.099747,30.899722900001002
1673612372.25573,2.078808,30.983494431323276
1673612372.256737,2.061763,31.06726596264555
1673612372.2577438,2.05121,31.151017661692414
1673612372.258751,2.05246,31.234789193014688
1673612372.259758,2.052868,31.31856072433696
1673612372.2607648,2.020029,31.402312423383826
1673612372.261772,1.975145,31.4860839547061
1673612372.26278,1.943845,31.569934815130004
1673612372.2637868,1.94947,31.65368651417687
1673612372.2647939,2.001349,31.737458045499142
1673612372.265801,2.083328,31.821229576821416
1673612372.2668078,2.153334,31.904981275868284
1673612372.2678149,2.123067,31.988752807190558
1673612372.268822,2.057797,32.07252433851283
1673612372.2698288,2.05597,32.15627603755969
1673612372.2708359,2.082174,32.24004756888197
1673612372.271843,2.132346,32.32381910020424
1673612372.2728498,2.188457,32.40757079925111
1673612372.2738569,2.227018,32.49134233057338
1673612372.274865,2.238533,32.57519319099728
1673612372.275872,2.232547,32.65896472231956
1673612372.2768788,2.219349,32.742716421366424
1673612372.277886,2.208411,32.8264879526887
1673612372.278893,2.200598,32.91025948401097
1673612372.2798998,2.190236,32.994011183057836
1673612372.280907,2.202256,33.07778271438011
1673612372.281914,2.224446,33.16155424570238
1673612372.2829208,2.195092,33.24530594474925
1673612372.283928,2.143237,33.329077476071525
1673612372.284935,2.136457,33.412849007393795
1673612372.2859418,2.150425,33.49660070644066
1673612372.286949,2.150161,33.58037223776294
1673612372.287957,2.134919,33.66422309818684
1673612372.2889638,2.133933,33.74797479723371
1673612372.2899709,2.127755,33.83174632855598
1673612372.290978,2.123427,33.91551785987825
1673612372.2919848,2.122778,33.99926955892512
1673612372.2929919,2.129798,34.08304109024739
1673612372.293999,2.145208,34.16681262156967
1673612372.2950058,2.193818,34.25056432061653
1673612372.2960129,2.226441,34.3343358519388
1673612372.29702,2.216176,34.41810738326108
1673612372.2980268,2.186894,34.501859082307945
1673612372.2990339,2.144631,34.585630613630215
1673612372.300042,2.094579,34.66948147405412
1673612372.301049,2.037122,34.752453276108724
1673612372.3020558,2.002311,34.825311245350505
1673612372.303063,1.977429,34.90455666436233
1673612372.30407,1.92954,35.038261600381496
1673612372.3050768,1.908072,35.067526773247494
1673612372.306084,1.945287,35.191123337148305
1673612372.307091,1.986733,35.28432100762813
1673612372.3080978,2.021111,35.38247921149261
1673612372.309105,2.040704,35.407756094659035
1673612372.310112,2.047676,35.47859153446449
1673612372.3111188,2.041954,35.53649829801852
1673612372.3121269,2.029958,35.5944736227418
1673612372.313134,2.022361,35.65239409852968
1673612372.3141408,2.031256,35.710300862083706
1673612372.3151479,2.037218,35.76822133787159
1673612372.316155,2.075394,35.82614181365946
1673612372.3171618,2.115734,35.88404857721349
1673612372.3181689,2.125447,35.941969053001365
1673612372.319176,2.125134,35.99988952878925
1673612372.3201828,2.10143,36.057796292343276
1673612372.3211899,2.099651,36.11571676813115
1673612372.322197,2.11898,36.17363724391903
1673612372.3232038,2.121264,36.231544007473055
1673612372.324211,2.127827,36.289464483260936
1673612372.325219,2.124413,36.347439807984216
1673612372.326226,2.092776,36.4053602837721
1673612372.3272328,2.059504,36.46326704732612
1673612372.32824,2.043036,36.521187523114
1673612372.329247,2.026568,36.579107998901875
1673612372.3302538,2.026856,36.637014762455905
1673612372.331261,2.036785,36.69493523824379
1673612372.332268,2.043324,36.75285571403166
1673612372.3332748,2.027193,36.81076247758569
1673612372.334282,2.011495,36.868682953373565
1673612372.335289,2.025751,36.938179974970204
1673612372.3362958,2.034141,37.011035261802576
1673612372.3373039,2.033324,37.06960464854554
1673612372.338311,2.05371,37.138757587127536
1673612372.3393178,2.081693,37.22624545684311
1673612372.3403249,2.110061,37.31733938006676
1673612372.341332,2.141482,37.39353602860548
1673612372.3423388,2.161243,37.436372771101574
1673612372.3433459,2.151963,37.5333727081545
1673612372.344353,2.122874,37.629960384898126
1673612372.3453598,2.095036,37.72406574660004
1673612372.346367,2.059816,37.81819339230899
1673612372.347374,2.004162,37.912321038017936
1673612372.3483808,1.987815,38.00642639971986
1673612372.349388,2.001951,38.10055404542881
1673612372.350396,2.046762,38.19477082716589
1673612372.351403,2.118956,38.288898472874834
1673612372.3524098,2.214036,38.383003834576755
1673612372.353417,2.261661,38.477131480285706
1673612372.354424,2.260266,38.57125912599465
1673612372.3554308,2.208699,38.66536448769657
1673612372.356438,2.114292,38.759492133405516
1673612372.357445,2.062773,38.85361977911447
1673612372.3584518,2.052724,38.94772514081639
1673612372.359459,2.018851,39.04185278652533
1673612372.360466,2.002023,39.135980432234284
1673612372.3614728,2.017986,39.2300857939362
1673612372.3624809,2.050272,39.324302575673286
1673612372.363488,2.051859,39.41843022138223
1673612372.3644948,2.055561,39.51253558308415
1673612372.3655019,2.070899,39.6066632287931
1673612372.366509,2.069336,39.70079087450205
1673612372.3675158,2.092054,39.79500033611442
1673612372.368523,2.131842,39.90404081688126
1673612372.36953,2.163359,39.99589403767287
1673612372.3705368,2.1818939999999998,40.12239179332539
1673612372.371544,2.164224,40.321099506254605
1673612372.372551,2.155305,40.5130458013245
1673612372.3735578,2.17937,40.63175949300956
1673612372.374565,2.188649,40.8033432781457
1673612372.375573,2.206415,40.94898162472406
1673612372.37658,2.206487,41.073546419426044
1673612372.3775868,2.128885,41.98817694849785
1673612372.378594,2.054623,42.129453771394516
1673612372.381615,2.002407,42.47768486146162
1673612372.382622,2.02414,42.602023531831705
1673612372.3836288,2.048156,42.726332765963534
1673612372.384636,2.07251,42.85067143633362
1673612372.385643,2.073784,42.97501010670371
1673612372.3866498,2.057124,43.099319340835535
1673612372.3876579,2.038853,43.223775756158624
1673612372.388665,2.025582,43.3481144265287
1673612372.3896718,2.008682,43.47242366066054
1673612372.390679,1.996109,43.596762331030625
1673612372.391686,1.988464,43.721101001400704
1673612372.3926928,1.992671,43.84541023553254
1673612372.3937,2.0126,43.96974890590262
1673612372.394707,2.053157,44.094087576272706
1673612372.3957138,2.087126,44.218396810404535
1673612372.4027638,2.08376,45.08882637547162
1673612372.403771,2.069264,45.213165045841706
1673612372.404778,2.084097,45.33750371621179
1673612372.4057848,2.09566,45.46181295034362
1673612372.406792,2.085299,45.58615162071371
1673612372.407799,2.047171,45.71049029108379
1673612372.4088058,2.010244,45.83479952521562
1673612372.409813,2.007985,45.95913819558571
1673612372.41082,2.006999,46.08347686595579
1673612372.4118268,2.006374,46.207786100087624
1673612372.412835,2.030126,46.332242515410705
1673612372.413842,2.040175,46.45658118578079
1673612372.4148488,2.04306,46.58089041991262
1673612372.415856,2.079481,46.70522909028271
1673612372.416863,2.137972,46.82956776065279
1673612372.4178698,2.170907,46.95387699478462
1673612372.418877,2.155353,47.07821566515471
1673612372.419884,2.134246,47.20255433552479
1673612372.4208908,2.124245,47.32600314926085
1673612372.421898,2.13677,47.43649620791607
1673612372.422905,2.1418180000000002,47.562724924177395
1673612372.4239118,2.151963,47.672016181168054
1673612372.424919,2.151699,47.78441448927038
1673612372.425927,2.149007,47.92351223795899
1673612372.426934,2.146506,47.99822062193087
1673612372.4279408,2.109869,48.08927306866953
1673612372.428948,2.058878,48.18037052408202
1673612372.429955,2.039983,48.26313627628203
1673612372.4309618,2.04217,48.28546601795979
1673612372.431969,2.071259,48.307801047286546
1673612372.432976,2.094723,48.33013607661329
1673612372.4339828,2.096069,48.35246581829106
1673612372.43499,2.085684,48.374800847617806
1673612372.435997,2.097728,48.39713587694456
1673612372.4370039,2.10369,48.419465618622326
1673612372.438012,2.069817,48.499022412494035
1673612372.439019,2.020221,48.605405111587984
1673612372.4400258,1.970097,48.622227
1673612372.441033,1.979208,48.82420695994277
1673612372.44204,2.031376,48.93572914973772
1673612372.4430468,2.063855,48.99522726323319
1673612372.444054,2.066908,49.08359353426175
1673612372.445061,2.054046,49.17682655748626
1673612372.4460678,2.014091,49.270037508498824
1673612372.447075,1.972934,49.36327053172332
1673612372.448082,1.99356,49.45650355494783
1673612372.4490888,2.065225,49.549714505960395
1673612372.450096,2.159897,49.642947529184895
1673612372.451104,2.233533,49.73626884125715
1673612372.452111,2.26945,49.82950186448166
1673612372.4531178,2.252044,49.92271281549422
1673612372.454125,2.217065,50.01594583871872
1673612372.455132,2.221849,50.10917886194323
1673612372.4561388,2.21983,50.20238981295579
1673612372.457146,2.178528,50.29562283618029
1673612372.458153,2.13677,50.3888558594048
1673612372.4591599,2.099916,50.482066810417365
1673612372.460167,2.046546,50.57529983364187
1673612372.461174,1.993488,50.666416
1673612372.4621809,1.98529,50.775710280810486
1673612372.463189,2.024885,50.88456175870291
1673612372.464196,2.06674,50.95903063614687
1673612372.4652028,2.076524,51.10162179089175
1673612372.46621,2.077197,51.14001276877235
1673612372.467217,2.064432,51.233418244635196
1673612372.4682238,2.055513,51.372830430853604
1673612372.469231,2.01736,51.39468377232344
1673612372.470238,1.979905,51.47714495347086
1673612372.4712448,1.981276,51.55958661255835
1673612372.472252,1.994017,51.642047793705764
1673612372.473259,1.999546,51.72450897485319
1673612372.4742658,2.003008,51.80695063394067
1673612372.475273,1.99832,51.88941181508809
1673612372.476281,1.99082,51.97195108447523
1673612372.477288,2.009235,52.054412265622645
1673612372.4782948,2.034694,52.13685392471013
1673612372.479302,2.062028,52.219315105857554
1673612372.480309,2.069769,52.30177628700497
1673612372.4813159,2.066019,52.384217946092456
1673612372.482323,2.064456,52.46667912723988
1673612372.48333,2.064624,52.549140308387294
1673612372.4843369,2.079072,52.63158196747478
1673612372.485344,2.100685,52.714043148622196
1673612372.486351,2.118739,52.79650432976962
1673612372.4873579,2.148357,52.878945988857105
1673612372.488366,2.177639,52.942297981640444
1673612372.489373,2.184923,52.95288605721097
1673612372.4903798,2.171605,53.0580321762041
1673612372.491387,2.135977,53.09551053838817
1673612372.492394,2.11797,53.204823287246725
1673612372.4934008,2.118523,53.293581540057225
1673612372.494408,2.10946,53.332961240343344
1673612372.495415,2.110085,53.42482786912991
1673612372.4964218,2.097079,53.46125579947544
1673612372.497429,2.047988,53.50117114270483
1673612372.498436,2.01962,53.55134998160584
1673612372.4994428,2.018923,53.60151694104688
1673612372.50045,2.022697,53.65169577994789
1673612372.501458,2.027025,53.70192213668877
1673612372.502465,2.020342,53.75210097558978
1673612372.5034719,2.0051,53.80226793503083
1673612372.504479,1.988752,53.85244677393183
1673612372.505486,2.004739,53.90262561283284
1673612372.5064929,2.045223,53.952792572273886
1673612372.5075,2.063663,54.0029714111749
1673612372.508507,2.039622,54.05315025007591
1673612372.5095139,2.019933,54.10331720951695
1673612372.510521,2.023587,54.15349604841796
1673612372.511528,2.051113,54.203674887318975
1673612372.5125349,2.068687,54.25384184676002
1673612372.513543,2.079337,54.3040682035009
1673612372.51455,2.080755,54.3542470424019
1673612372.5155568,2.094362,54.40441400184295
1673612372.516564,2.095829,54.454592840743956
1673612372.517571,2.088424,54.50477167964497
1673612372.5185778,2.097343,54.55493863908601
1673612372.519585,2.069024,54.60511747798702
1673612372.520592,1.993969,54.655296316888034
1673612372.5215988,1.975746,54.70546327632908
1673612372.522606,2.013562,54.75564211523009
1673612372.523613,2.060537,54.8058209541311
1673612372.5246198,2.11547,54.85598791357214
1673612372.525627,2.190308,54.906166752473155
1673612372.526635,2.22822,54.956393109214034
1673612372.527642,2.244856,55.00657194811504
1673612372.5286489,2.255266,55.05673890755608
1673612372.529656,2.240553,55.10691774645709
1673612372.530663,2.23738,55.157096585358104
1673612372.5316699,2.212377,55.210512375298045
1673612372.532677,2.163695,55.25182478397711
1673612372.533684,2.098065,55.261307
1673612372.5346909,2.098666,55.27490716829559
1673612372.535698,2.136289,55.306853738912736
1673612372.5367048,2.072918,55.370995402479736
1673612372.5377119,2.013273,55.40191940047676
1673612372.53872,2.013346,55.44840565712923
1673612372.539727,2.010365,55.5173220405341
1673612372.5407338,1.989137,55.54344413922994
1673612372.541741,1.968342,55.55710580092979
1673612372.542748,1.963726,55.57076746262963
1673612372.5437548,1.96577,55.58442589003457
1673612372.544762,1.998344,55.63157917525036
1673612372.545769,2.022697,55.67122803743443
1673612372.5467758,2.050681,55.69251886266095
1673612372.547783,2.09441,55.771792918951135
1673612372.54879,2.133284,55.80130918454935
1673612372.5497968,2.136529,55.772967317119694
1673612372.550804,2.108522,55.83041008104887
1673612372.551812,2.088208,55.808603745350496
1673612372.552819,2.078255,55.85177062350978
1673612372.5538259,2.068639,55.86715594011739
1673612372.554833,2.032266,55.877234426960364
1673612372.55584,1.99945,55.887312913803335
1673612372.5568469,1.986084,55.899755445398185
1673612372.557854,1.972813,55.93427477088306
1673612372.5588608,1.989449,55.97378961609907
1673612372.5598679,2.022794,55.96576229947544
1673612372.560875,2.051666,56.02043382434368
1673612372.5618818,2.066403,56.06915273034778
1673612372.5628889,2.057436,56.09708792322772
1673612372.563897,2.038204,56.10802933490516
1673612372.564904,2.053518,56.11896039519974
1673612372.5659108,2.079121,56.12988886764862
1673612372.566918,2.084145,56.1408199279432
1673612372.567925,2.099507,56.15175098823779
1673612372.5689318,2.15593,56.16267946068666
1673612372.569939,2.154344,56.17361052098124
1673612372.570946,2.162517,56.18454158127583
1673612372.5719528,2.167229,56.1954700537247
1673612372.57296,2.147468,56.206401114019286
1673612372.573967,2.119966,56.21733217431387
1673612372.5749738,2.073279,56.22826064676274
1673612372.575981,2.020774,56.23919170705733
1673612372.576989,1.966972,56.250133118734766
1673612372.577996,1.919203,56.261064179029354
1673612372.5790029,1.948388,56.27199265147822
1673612372.58001,1.967621,56.28292371177281
1673612372.5810168,1.963317,56.29385218422168
1673612372.5820239,1.971563,56.304783244516265
1673612372.583031,2.006398,56.315714304810854
1673612372.5840378,2.040992,56.32664277725972
1673612372.5850449,2.052724,56.33757383755431
1673612372.586052,2.062004,56.34850489784889
1673612372.5870588,2.041161,56.359433370297765
1673612372.5880659,2.030102,56.370364430592346
1673612372.589074,2.059335,56.38130584226979
1673612372.590081,2.101815,56.39223690256438
1673612372.5910878,2.119581,56.403165375013245
1673612372.592095,2.093256,56.41409643530783
1673612372.593102,2.070226,56.425027495602414
1673612372.5941088,2.075394,56.43595596805129
1673612372.595116,2.091117,56.44688702834587
1673612372.596123,2.130014,56.45781808864046
1673612372.5971298,2.164585,56.46874656108933
1673612372.598137,2.193481,56.479677621383914
1673612372.599144,2.183649,56.4906086816785
1673612372.6001508,2.153286,56.50153715412737
1673612372.601158,2.137683,56.51246821442196
1673612372.602166,2.117345,56.523409626099394
1673612372.6031728,2.101983,56.53433809854827
1673612372.6041799,2.078544,56.54526915884285
1673612372.605187,2.050224,56.55620021913744
1673612372.6061938,2.000147,56.56712869158631
1673612372.6072009,1.976347,56.57805975188089
1673612372.608208,1.986516,56.546371888280134
1673612372.6092148,2.008177,56.56347390917759
1673612372.6102219,2.016976,56.54563930400572
1673612372.611229,1.993608,56.50316502458234
1673612372.6122358,1.991421,56.44207839485592
1673612372.6132429,2.009211,56.4439938304721
1673612372.614251,2.024837,56.442632964677806
1673612372.615258,2.069312,56.42442544963087
1673612372.6162648,2.14367,56.406217749403915
1673612372.617272,2.173143,56.38421043583037
1673612372.618279,2.153045,56.3606767317279
1673612372.6192858,2.137732,56.337148599051595
1673612372.620293,2.155257,56.313614894949126
1673612372.6213,2.170835,56.29008119084666
1673612372.6223068,2.16509,56.266553058170345
1673612372.623314,2.13903,56.243019354067876
1673612372.624321,2.080876,56.21948564996541
1673612372.6253278,2.006927,56.1959575172891
1673612372.626335,2.009788,56.17242381318663
1673612372.627343,2.051426,56.14886782337952
1673612372.6283498,2.068351,56.12533969070321
1673612372.6293569,2.050825,56.101805986600745
1673612372.630364,2.017889,56.078272282498276
1673612372.6313708,2.013418,56.054744149821964
1673612372.6323779,2.043348,56.031210445719495
1673612372.633385,2.063446,56.007676741617026
1673612372.6343918,2.034117,55.98414860894072
1673612372.6353989,2.01926,55.96061490483825
1673612372.636406,2.045031,55.93708120073578
1673612372.6374128,2.095083,55.91355306805947
1673612372.6384199,2.139054,55.890019363957
1673612372.639428,2.157012,55.866463374149895
1673612372.640435,2.160281,55.842929670047425
1673612372.6414418,2.141554,55.819401537371114
1673612372.642449,2.110638,55.795867833268645
1673612372.643456,2.073351,55.772334129166175
1673612372.6444628,2.043661,55.748805996489864
1673612372.64547,2.016832,55.7252722923874
1673612372.646477,1.991902,55.70173858828493
1673612372.6474838,1.998705,55.67821045560862
1673612372.648491,2.02414,55.65467675150615
1673612372.649498,2.062677,55.63114304740368
1673612372.6505048,2.114869,55.60761491472738
1673612372.651512,2.151843,55.58408121062491
1673612372.65252,2.202809,55.560525220817794
1673612372.6535268,2.273416,55.53699708814148
1673612372.6545339,2.316665,55.513463384039014
1673612372.655541,2.274186,55.48992967993655
1673612372.6565478,2.233509,55.46640154726024
1673612372.6575549,2.181413,55.44286784315777
1673612372.658562,2.132587,55.4193341390553
1673612372.6595688,2.094867,55.39580600637899
1673612372.6605759,2.009812,55.37227230227653
1673612372.661583,1.947571,55.34873859817406
1673612372.6625898,1.947691,55.32521046549775
1673612372.6635969,1.981276,55.30167676139528
1673612372.664605,2.012288,55.27812077158816
1673612372.665612,2.017841,55.2545870674857
1673612372.6666188,2.021664,55.23105893480939
1673612372.667626,2.032674,55.20752523070692
1673612372.668633,2.030559,55.18399152660445
1673612372.6696398,2.00748,55.16046339392814
1673612372.670647,2.012312,55.13692968982568
1673612372.671654,2.055032,55.11339598572321
1673612372.6726608,2.069408,55.0898678530469
1673612372.673668,2.07537,55.080402
1673612372.674675,2.115614,55.06938642870768
1673612372.6756818,2.120134,55.062313
1673612372.676689,2.077342,55.062313
1673612372.677697,2.045584,55.09655579828326
1673612372.6787038,2.038853,55.093508355031
1673612372.6797109,2.0145,55.068737936829564
1673612372.680718,1.996493,55.09769463662375
1673612372.6817248,1.997575,55.116589
1673612372.6827319,1.968342,55.12200858408454
1673612372.683739,1.948172,55.130204904590485
1673612372.6847458,1.966082,55.13839928467964
1673612372.6857529,2.01385,55.14659560518559
1673612372.68676,2.019741,55.154791925691534
1673612372.6877668,2.032722,55.16298630578069
1673612372.6887739,2.059311,55.17118262628664
1673612372.689782,2.058157,55.179386708459724
1673612372.690789,2.076885,55.18758302896567
1673612372.6917958,2.073832,55.19577740905483
1673612372.692803,2.06121,55.20397372956077
1673612372.69381,2.050945,55.21217005006672
1673612372.6948168,2.04169,55.220364430155875
1673612372.695824,2.024837,55.22856075066182
1673612372.696831,1.997792,55.236757071167766
1673612372.6978378,1.962404,55.244951451256924
1673612372.698845,1.951033,55.25314777176287
1673612372.699852,1.958605,55.261344092268814
1673612372.7008588,1.993128,55.26953847235797
1673612372.701866,2.060489,55.27773479286392
1673612372.702874,2.11434,55.285938875037004
1673612372.7038808,2.15129,55.29413325512616
1673612372.7048879,2.183889,55.30232957563211
1673612372.705895,2.166676,55.31052589613805
1673612372.7069018,2.113619,55.31872027622721
1673612372.7079089,2.073038,55.326916596733156
1673612372.708916,2.072317,55.3351129172391
1673612372.7099228,2.068903,55.34330729732826
1673612372.7109299,2.045776,55.351503617834204
1673612372.711937,2.06073,55.35969993834015
1673612372.7129438,2.082847,55.36789431842931
1673612372.7139509,2.114725,55.37609063893525
1673612372.714959,2.154367,55.38429472110834
1673612372.715966,2.191005,55.392491041614285
1673612372.7169728,2.232067,55.40068542170344
1673612372.71798,2.246779,55.40888174220939
1673612372.718987,2.214637,55.41707806271533
1673612372.7199938,2.185668,55.42527244280449
1673612372.721001,2.168023,55.43346876331044
1673612372.722008,2.152709,55.44166508381638
1673612372.7230148,2.108931,55.44985946390554
1673612372.724022,2.070899,55.458055784411485
1673612372.725029,2.067293,55.46625210491743
1673612372.7260358,2.065177,55.47444648500659
1673612372.727043,2.041762,55.48264280551253
1673612372.728051,2.05609,55.49084688768562
1673612372.7290578,2.089386,55.49904126777478
1673612372.7300649,2.128236,55.507237588280724
1673612372.731072,2.148117,55.51543390878667
1673612372.7320788,2.157012,55.52362828887583
1673612372.7330859,2.159777,55.53182460938177
1673612372.734093,2.15557,55.54002092988772
1673612372.7350998,2.142636,55.548215309976875
1673612372.7361069,2.123788,55.55641163048282
1673612372.737114,2.09768,55.564607950988766
1673612372.7381208,2.043468,55.59525408533969
1673612372.7391279,2.016687,55.614171639723416
1673612372.740136,2.020197,55.623173009060565
1673612372.741143,1.99332,55.62277620696233
1673612372.7421498,2.000917,55.63300926746127
1673612372.743157,2.043733,55.69712140057225
1673612372.744164,2.070995,55.731647
1673612372.7451708,2.0834,55.731647
1673612372.746178,2.071115,55.780842959704344
1673612372.747185,2.084626,55.8243631399272
1673612372.7481918,2.06311,55.828495028249385
1673612372.749199,1.994378,55.832627894996456
1673612372.750206,1.955961,55.836760761743534
1673612372.7512128,1.961466,55.84089265006572
1673612372.75222,1.966202,55.84502551681279
1673612372.753228,1.969255,55.84916229725944
1673612372.7542348,1.973366,55.85329418558162
1673612372.7552419,1.99207,55.857427052328696
1673612372.756249,1.98731,55.86155991907577
1673612372.7572558,1.97053,55.86569180739795
1673612372.7582629,1.96827,55.86982467414503
1673612372.75927,1.954302,55.87395754089211
1673612372.7602768,1.974809,55.878089429214285
1673612372.7612839,2.027241,55.88222229596136
1673612372.762291,2.044286,55.88635516270844
1673612372.7632978,2.034213,55.89048705103062
1673612372.7643049,2.019981,55.894619917777696
1673612372.765313,2.023875,55.89875669822434
1673612372.76632,2.03027,55.90288956497142
1673612372.7673268,2.043949,55.9070214532936
1673612372.768334,2.058326,55.91115432004067
1673612372.769341,2.070562,55.91528718678775
1673612372.7703478,2.077486,55.919419075109936
1673612372.771355,2.065562,55.923551941857006
1673612372.772362,2.069601,55.927684808604084
1673612372.7733688,2.073856,55.93181669692627
1673612372.774376,2.07638,55.93594956367334
1673612372.775383,2.076644,55.94008243042042
1673612372.7763898,2.068543,55.944214318742596
1673612372.777397,2.059215,55.94834718548967
1673612372.778405,2.05883,55.952483965936324
1673612372.7794118,2.071428,55.9566158542585
1673612372.7804189,2.114148,55.96074872100558
1673612372.781426,2.157661,55.96488158775265
1673612372.7824328,2.178721,55.969013476074835
1673612372.7834399,2.174057,55.97314634282191
1673612372.784447,2.157397,55.977279209568984
1673612372.7854538,2.159296,55.98141109789117
1673612372.7864609,2.182928,55.985543964638246
1673612372.787468,2.185332,55.98967683138532
1673612372.7884748,2.132611,55.9938087197075
1673612372.7894819,2.050753,55.99794158645458
1673612372.79049,1.974112,56.00207836690122
1673612372.791497,1.946393,55.96056064568431
1673612372.7925038,2.000147,55.90592208700834
1673612372.793511,2.077919,55.95205422412971
1673612372.794518,2.127154,55.93776395803528
1673612372.7955248,2.158767,55.915989006436234
1673612372.796532,2.169489,55.89777143490701
1673612372.797539,2.150617,55.90936495708154
1673612372.7985458,2.134414,55.912548
1673612372.799553,2.120735,55.88223493228421
1673612372.80056,2.111431,55.86108349308536
1673612372.8015668,2.140087,55.855278174812945
1673612372.802574,2.200405,55.851729417580884
1673612372.803582,2.242019,55.84817729978327
1673612372.8045888,2.256107,55.84462938269261
1673612372.8055959,2.221729,55.84108062546055
1673612372.806603,2.135592,55.837531868228496
1673612372.8076098,2.050633,55.83398395113783
1673612372.8086169,1.976395,55.83043519390578
1673612372.809624,1.8961,55.82688643667372
1673612372.8106308,1.851505,55.823338519583054
1673612372.8116379,1.887926,55.819789762351
1673612372.812645,1.92954,55.81624100511895
1673612372.8136518,1.93507,55.81269308802828
1673612372.8146589,1.947114,55.80914433079622
1673612372.815667,1.960889,55.80559221299861
1673612372.816674,1.97089,55.80204345576655
1673612372.8176808,1.979785,55.79849553867589
1673612372.818688,2.000364,55.794946781443834
1673612372.819695,2.026063,55.79139802421178
1673612372.8207018,2.041113,55.78785010712111
1673612372.821709,2.042002,55.784301349889056
1673612372.822716,2.016062,55.780752592657
1673612372.8237228,2.000436,55.77720467556634
1673612372.82473,2.010172,55.77365591833428
1673612372.825737,2.03753,55.770107161102224
1673612372.8267438,2.066547,55.76655924401156
1673612372.8277519,2.079962,55.76300712621394
1673612372.828759,2.065297,55.75945836898189
1673612372.8297658,2.035078,55.755910451891225
1673612372.8307729,2.016303,55.75236169465917
1673612372.83178,2.014404,55.74881293742711
1673612372.8327868,2.019885,55.74526502033645
1673612372.8337939,2.018418,55.741716263104394
1673612372.834801,2.005629,55.73816750587234
1673612372.8358078,2.005508,55.734619588781676
1673612372.8368149,2.004667,55.731070831549616
1673612372.837822,2.012913,55.72752207431756
1673612372.8388288,2.036016,55.7239741572269
1673612372.839836,2.070875,55.720425399994845
1673612372.840844,2.111816,55.71687328219723
1673612372.841851,2.125759,55.713324524965174
1673612372.8428578,2.102512,55.7097766078745
1673612372.843865,2.079289,55.70622785064245
1673612372.844872,2.069552,55.702679093410396
1673612372.8458788,2.084289,55.69913117631973
1673612372.846886,2.065129,55.69558241908768
1673612372.847893,2.042771,55.67783287195994
1673612372.8488998,2.047892,55.69514120696233
1673612372.849907,2.064215,55.58811650500715
1673612372.850914,2.062292,55.60494169535161
1673612372.8519208,2.0621,55.56873648354793
1673612372.8529289,2.092367,55.532462569487485
1673612372.853936,2.098521,55.514565
1673612372.8549428,2.085972,55.513667857415356
1673612372.8559499,2.096718,55.478009009080544
1673612372.856957,2.096646,55.46612535502238
1673612372.8579638,2.09054,55.45424451432928
1673612372.8589709,2.092295,55.44236086027112
1673612372.859978,2.121552,55.430477206212956
1673612372.8609848,2.209901,55.41859636551986
1673612372.861992,2.276518,55.4067127114617
1673612372.862999,2.270291,55.394829057403534
1673612372.8640058,2.233196,55.382948216710446
1673612372.865013,2.273801,55.37106456265228
1673612372.872063,1.906269,55.28787335751499
1673612372.87307,1.833979,55.27598970345683
1673612372.8740768,1.858597,55.264108862763734
1673612372.875084,1.916679,55.25222520870557
1673612372.876091,1.930117,55.24034155464741
1673612372.8770978,1.946729,55.22846071395431
1673612372.8781059,1.981684,55.21656580643587
1673612372.879113,2.007913,55.2046821523777
1673612372.8801198,2.006422,55.19280131168461
1673612372.8811269,2.024597,55.180917657626445
1673612372.882134,2.059864,55.169034003568285
1673612372.8831408,2.073159,55.15715316287519
1673612372.884148,2.088184,55.14526950881702
1673612372.885155,2.10131,55.13338585475886
1673612372.8861618,2.084409,55.12150501406577
1673612372.887169,2.056811,55.1096213600076
1673612372.888176,2.034958,55.09773770594944
1673612372.8891828,2.057893,55.085856865256346
1673612372.89019,2.085732,55.07397321119818
1673612372.891198,2.086381,55.06207830367973
1673612372.892205,2.072726,55.050194649621574
1673612372.8932118,2.049382,55.03831380892848
1673612372.894219,2.017793,55.02643015487032
1673612372.895226,2.005725,55.01454650081215
1673612372.8962328,1.990892,55.00266566011906
1673612372.89724,1.969424,54.9907820060609
1673612372.898247,1.938508,54.97889835200273
1673612372.8992538,1.88331,54.967017511309635
1673612372.900261,1.872661,54.955133857251475
1673612372.901268,1.913746,54.94325020319331
1673612372.9022748,2.00659,54.93136936250021
1673612372.9032829,2.062533,54.91947445498177
1673612372.90429,2.077678,54.90759080092361
1673612372.9052968,2.077558,54.89570996023051
1673612372.906304,2.102128,54.88382630617235
1673612372.907311,2.077798,54.871942652114186
1673612372.9083178,2.050464,54.86006181142109
1673612372.909325,2.059744,54.84817815736293
1673612372.910332,2.08804,54.836294503304764
1673612372.9113388,2.114268,54.83131389461135
1673612372.912346,2.130519,54.85384106603099
1673612372.913353,2.142299,54.863692719837864
1673612372.9143598,2.141314,54.809048
1673612372.915367,2.128356,54.79499577110157
1673612372.916375,2.092103,54.759609482717515
1673612372.917382,2.049791,54.772869
1673612372.9183888,2.066764,54.77794979208393
1673612372.919396,2.087895,54.796167230035756
1673612372.920403,2.079,54.81681256639241
1673612372.9214098,2.07614,54.843320055377966
1673612372.922417,2.087727,54.869833821296744
1673612372.923424,2.08477,54.89634758721553
1673612372.9244308,2.099146,54.92285507620109
1673612372.925438,2.103762,54.94936884211987
1673612372.926445,2.115542,54.97588260803865
1673612372.9274518,2.124846,55.00239009702421
1673612372.92846,2.129245,55.02892897067587
1673612372.929467,2.161412,55.05544273659465
1673612372.9304738,2.19978,55.081950225580215
1673612372.931481,2.227763,55.108463991498994
1673612372.932488,2.218652,55.13497775741777
1673612372.9334948,2.207521,55.16148524640334
1673612372.934502,2.202377,55.187999012322116
1673612372.935509,2.156219,55.214512778240895
1673612372.9365158,2.109292,55.24102026722646
1673612372.937523,2.062605,55.26753403314524
1673612372.93853,2.041497,55.29404779906402
1673612372.9395368,2.053662,55.32055528804958
1673612372.940544,2.099002,55.34706905396836
1673612372.941552,2.170451,55.37360792762002
1673612372.942559,2.117225,55.4001216935388
1673612372.9435658,1.965721,55.426629182524366
1673612372.944573,1.915789,55.453142948443144
1673612372.94558,1.955192,55.47965671436192
1673612372.9465868,1.975722,55.50616420334749
1673612372.947594,2.008321,55.53267796926627
1673612372.948601,1.997142,55.559191735185046
1673612372.9496078,1.949614,55.58569922417061
1673612372.950615,1.977429,55.61221299008939
1673612372.951622,2.032193,55.63872675600817
1673612372.9526289,2.109195,55.665234244993734
1673612372.953637,2.2093,55.69177311864539
1673612372.954644,2.224253,55.71828688456417
1673612372.9556508,2.144415,55.74479437354973
1673612372.956658,2.064889,55.771308139468516
1673612372.957665,2.044382,55.797821905387295
1673612372.9586718,2.031328,55.82432939437285
1673612372.959679,2.01575,55.85084316029164
1673612372.960686,2.004595,55.87735692621042
1673612372.9616928,1.979641,55.903864415195976
1673612372.9627,1.941296,55.93037818111476
1673612372.963707,1.921174,55.95689194703354
1673612372.9647138,1.956995,55.9833994360191
1673612372.965721,1.988969,56.009913201937884
1673612372.966729,1.994378,56.036452075589544
1673612372.967736,2.002576,56.06296584150832
1673612372.9687428,2.00046,56.08947333049388
1673612372.96975,1.98154,56.11598709641267
1673612372.970757,1.997455,56.142500862331445
1673612372.9717638,2.026448,56.169008351317004
1673612372.972771,2.036641,56.19552211723579
1673612372.973778,2.021111,56.22203588315457
1673612372.9747849,2.021063,56.248543372140126
1673612372.975792,2.033756,56.28206603239638
1673612372.976799,2.017144,56.34459430071599
1673612372.9778059,1.981636,56.37797261492609
1673612372.978814,1.963077,56.49167180210734
1673612372.979821,1.981564,56.47283082927992
1673612372.9808278,2.016783,56.50499859251311
1673612372.981835,2.068855,56.52321647794994
1673612372.982842,2.117153,56.499969995708156
1673612372.9838488,2.152685,56.533267367668095
1673612372.984856,2.177134,56.59503611248291
1673612372.985863,2.180259,56.65889723510865
1673612372.990898,2.049984,56.96336375226514
1673612372.991906,2.027698,56.989850748450166
1673612372.992913,1.997719,57.018179017878424
1673612372.9939198,2.000917,57.06483928469242
1673612372.994927,2.008922,57.09876629828326
1673612372.995934,2.019909,57.12748265721096
1673612372.9969409,2.038204,57.13207127798952
1673612372.997948,2.075659,57.18901110668258
1673612372.998955,2.127274,57.233131
1673612372.9999619,2.162613,57.26135955876977
1673612373.000969,2.184298,57.308119336120164
1673612373.001976,2.176341,57.35487911347055
1673612373.0029829,2.138381,57.401627820797906
1673612373.003991,2.108162,57.448431878240484
1673612373.004998,2.084362,57.49519165559088
1673612373.0060048,2.128764,57.541940362918226
1673612373.007012,2.203723,57.588700140268614
1673612373.008019,2.1984340000000002,57.63545991761901
1673612373.0090258,2.156844,57.682208624946355
1673612373.010033,2.175163,57.72896840229675
1673612373.01104,2.206944,57.775728179647146
1673612373.0120468,2.18401,57.82247688697449
1673612373.013054,2.142756,57.86923666432488
1673612373.014061,2.12047,57.915996441675276
1673612373.0150678,2.07162,57.96274514900262
1673612373.016075,1.993007,58.00950492635302
1673612373.017083,1.952066,58.056308983795596
1673612373.01809,1.928651,58.10306876114599
1673612373.0190969,1.867011,58.14981746847334
1673612373.020104,1.8170790000000001,58.19657724582373
1673612373.021111,1.832994,58.24333702317412
1673612373.0221179,1.907351,58.290085730501474
1673612373.023125,1.998465,58.33684550785186
1673612373.024132,2.072942,58.38360528520226
1673612373.0251389,2.078039,58.430353992529604
1673612373.026146,2.038708,58.47711376988
1673612373.027153,2.029621,58.523873547230394
1673612373.0281599,2.023635,58.57062225455774
1673612373.029168,2.019933,58.61742631200032
1673612373.030175,2.00897,58.64092188721983
1673612373.0311818,2.00998,58.644161
1673612373.032189,2.017817,58.70456236066746
1673612373.033196,2.002071,58.716515
1673612373.0342028,1.988344,58.74722403195041
1673612373.03521,1.987141,58.814643183595614
1673612373.036217,2.001301,58.856285156138256
1673612373.0372238,2.026592,58.8455099341917
1673612373.038231,2.059383,58.938337500715306
1673612373.039238,2.06573,58.96609173467567
1673612373.0402448,2.043685,58.98249257138964
1673612373.041252,2.052964,58.99889729179689
1673612373.04226,2.054503,59.01531754697724
1673612373.043267,2.051522,59.03172226738449
1673612373.0442739,2.067148,59.04812310409846
1673612373.045281,2.082534,59.0645278245057
1673612373.046288,2.090684,59.08093254491295
1673612373.0472949,2.083448,59.09733338162691
1673612373.048302,2.108402,59.113738102034155
1673612373.049309,2.137563,59.1301428224414
1673612373.0503159,2.168744,59.14654365915537
1673612373.051323,2.175523,59.162948379562614
1673612373.0523298,2.131793,59.179349216276584
1673612373.0533369,2.090949,59.19575393668383
1673612373.054345,2.051378,59.212174191864186
1673612373.055352,2.029068,59.22857891227143
1673612373.0563588,1.992575,59.244979748985394
1673612373.057366,1.917953,59.26138446939264
1673612373.058373,1.883431,59.27778918979988
1673612373.0593798,1.90824,59.29419002651385
1673612373.060387,1.954591,59.3105947469211
1673612373.061394,1.993608,59.32699946732834
1673612373.0624008,2.032819,59.34340030404231
1673612373.063408,2.022673,59.35980502444956
1673612373.064415,2.036232,59.3762097448568
1673612373.0654218,2.088857,59.392610581570764
1673612373.066429,2.160931,59.40901530197801
1673612373.067437,2.232475,59.425435557158366
1673612373.068444,2.272335,59.44184027756561
1673612373.0694509,2.313348,59.45824111427958
1673612373.070458,2.315487,59.474645834686825
1673612373.071465,2.295173,59.49105055509407
1673612373.0724719,2.255795,59.50745139180804
1673612373.073479,2.208915,59.523856112215284
1673612373.0744858,2.035319,59.54025694892925
1673612373.0754929,1.956754,59.55666166933649
1673612373.0765,1.916534,59.57306638974374
1673612373.0775068,1.862467,59.58946722645771
1673612373.0785139,1.889297,59.60587194686495
1673612373.079522,1.970818,59.62229220204531
1673612373.080529,2.013562,59.63869692245255
1673612373.0815358,2.006927,59.655097759166516
1673612373.082543,1.997046,59.67150247957377
1673612373.08355,1.986613,59.68790719998101
1673612373.0845568,1.953076,59.704308036694975
1673612373.085564,1.937137,59.72071275710222
1673612373.086571,1.988512,59.737117477509464
1673612373.0875778,2.057172,59.753518314223435
1673612373.088585,2.11321,59.76992303463068
1673612373.089592,2.160546,59.786327755037924
1673612373.0905988,2.159969,59.80272859175189
1673612373.091606,2.145881,59.81913331215913
1673612373.092614,2.162301,59.83555356733949
1673612373.093621,2.137371,59.85195828774674
1673612373.0946279,2.107392,59.8683591244607
1673612373.095635,2.106599,59.88476384486795
1673612373.0966418,2.082174,59.90212353703263
1673612373.0976489,2.025246,59.95982977610873
1673612373.098656,1.948653,60.000919
1673612373.0996628,1.891292,60.0313525565093
1673612373.1006699,1.888912,60.08597203834246
1673612373.101677,1.920958,60.14060022556032
1673612373.1026838,1.986613,60.142689099284006
1673612373.1036909,2.045151,60.15946635294118
1673612373.104699,2.065177,60.23571389270386
1673612373.105706,2.08001,60.281779030802
1673612373.1067128,2.085828,60.297650816123
1673612373.10772,2.090949,60.31352635985872
1673612373.108727,2.103305,60.32940190359443
1673612373.1097338,2.09792,60.344631
1673612373.110741,2.078351,60.34549792632332
1673612373.111748,2.067894,60.36670421311085
1673612373.1127548,2.056667,60.43842531425847
1673612373.113762,2.027289,60.49183605484025
1673612373.114769,2.007167,60.525536
1673612373.1157758,1.998873,60.52852926800191
1673612373.116783,2.016303,60.56496614186934
1673612373.117791,2.019813,60.60143749535161
1673612373.1187978,2.029164,60.63975141297091
1673612373.1198049,2.027433,60.69036193991416
1673612373.120812,2.008538,60.7085812200763
1673612373.1218188,2.027193,60.72492677086161
1673612373.1228259,2.100324,60.72819693775447
1673612373.123833,2.180932,60.73146710464733
1673612373.1248398,2.189443,60.73473649735295
1673612373.1258469,2.178096,60.73800666424581
1673612373.126854,2.169585,60.74127683113866
1673612373.1278608,2.150954,60.74454622384428
1673612373.1288679,2.107753,60.74781639073714
1673612373.129876,2.070153,60.75108965437895
1673612373.130883,2.041954,60.75435982127181
1673612373.1318898,2.01385,60.75762921397743
1673612373.132897,1.982983,60.76089938087029
1673612373.133904,1.93733,60.764169547763146
1673612373.1349108,1.903096,60.76743894046877
1673612373.135918,1.905548,60.770709107361625
1673612373.136925,1.947475,60.773979274254486
1673612373.1379318,1.988921,60.777248666960105
1673612373.138939,1.997815,60.780518833852966
1673612373.139946,1.944974,60.78378900074582
1673612373.1409528,1.921511,60.787058393451446
1673612373.14196,1.94572,60.7903285603443
1673612373.142968,1.975987,60.79360182398611
1673612373.1439748,2.015894,60.796871216691734
1673612373.1449819,2.088376,60.80014138358459
1673612373.145989,2.165138,60.80341155047745
1673612373.1469958,2.17271,60.80668094318307
1673612373.1480029,2.144463,60.80995111007593
1673612373.14901,2.111335,60.81322127696878
1673612373.1500168,2.080467,60.81649066967441
1673612373.1510239,2.064264,60.81976083656726
1673612373.152031,2.068855,60.82303100346012
1673612373.1530378,2.102873,60.82630039616574
1673612373.1540449,2.081068,60.8295705630586
1673612373.155053,2.03705,60.83284382670041
1673612373.15606,2.060297,60.83611399359327
1673612373.1570668,2.123355,60.83938338629889
1673612373.158074,2.159176,60.842653553191745
1673612373.159081,2.13665,60.845923720084606
1673612373.1600878,2.086573,60.849193112790225
1673612373.161095,2.048613,60.84388790369488
1673612373.162102,2.068687,60.84786159060563
1673612373.1631088,2.065321,60.74556419387028
1673612373.164116,2.021447,60.7727992041399
1673612373.165123,2.005196,60.72701586469118
1673612373.1661298,1.992767,60.68580465716322
1673612373.167137,1.968919,60.67654947251963
1673612373.168145,1.986757,60.65053282869379
1673612373.1691518,2.057003,60.59014388382039
1673612373.1701589,2.07251,60.611147003563794
1673612373.171166,2.046618,60.45979751312649
1673612373.1943288,2.033131,59.37219251659228
1673612373.1953359,2.033371,59.3255878766322
1673612373.196343,2.0264,59.27898323667212
1673612373.1973498,2.018346,59.23238963000748
1673612373.1983569,2.029309,59.1857849900474
1673612373.199364,2.032049,59.13918035008733
1673612373.2003708,2.026736,59.09258674342269
1673612373.2013779,2.032602,59.04598210346261
1673612373.202385,2.046137,58.99937746350253
1673612373.2033918,2.066956,58.952783856837904
1673612373.2043989,2.100541,58.906179216877824
1673612373.205407,2.129846,58.85953044373596
1673612373.206414,2.157709,58.81292580377588
1673612373.2074208,2.214829,58.766332197111254
1673612373.208428,2.267959,58.719727557151174
1673612373.209435,2.237548,58.673122917191094
1673612373.2104418,2.194443,58.62652931052646
1673612373.211449,2.183168,58.579924670566385
1673612373.212456,2.16307,58.533320030606305
1673612373.2134628,2.134414,58.48672642394167
1673612373.21447,2.084578,58.435320161228866
1673612373.215477,2.039454,58.34224165855985
1673612373.2164838,2.001662,58.246166
1673612373.217491,1.974232,58.23206253314259
1673612373.218499,1.94096,58.14761089116456
1673612373.2195058,1.909923,58.19697197875895
1673612373.2205129,1.928699,58.100312733667145
1673612373.22152,1.984088,57.99004661038342
1673612373.2225268,2.016086,57.968862013365154
1673612373.2235339,2.022457,57.93552521264744
1673612373.224541,2.029285,57.91739529571338
1673612373.2255478,2.045945,57.899269670899805
1673612373.2265549,2.045728,57.88113975396574
1673612373.227562,2.046858,57.86300983703168
1673612373.2285688,2.077125,57.844884212218105
1673612373.2295759,2.108258,57.82675429528404
1673612373.230584,2.112393,57.808607209868036
1673612373.231591,2.111503,57.79047729293397
1673612373.2325978,2.103089,57.7723516681204
1673612373.233605,2.106647,57.754221751186336
1673612373.234612,2.131721,57.73609183425227
1673612373.2356188,2.132827,57.7179662094387
1673612373.236626,2.069504,57.699836292504635
1673612373.237633,1.992286,57.68170637557057
1673612373.2386398,1.970145,57.663580750757
1673612373.239647,1.970818,57.645450833822935
1673612373.240654,1.982958,57.62732091688887
1673612373.2416608,2.002119,57.6091952920753
1673612373.242668,2.001566,57.591065375141234
1673612373.243676,1.914251,57.57291828972522
1673612373.2446828,1.854726,57.56272664711493
1673612373.2456899,1.878382,57.5604185318236
1673612373.246697,1.956754,57.4960197639485
1673612373.2477038,2.033924,57.463947562231766
1673612373.2487109,2.1072,57.418818147794994
1673612373.249718,2.204516,57.3189643516929
1673612373.2507248,2.226898,57.31022369957082
1673612373.2517319,2.211632,57.289526684624555
1673612373.252739,2.191005,57.196953
1673612373.2537458,2.12939,57.19213001196859
1673612373.2547529,2.063038,57.17495269203207
1673612373.255761,2.039045,57.157759105694105
1673612373.256768,2.033948,57.14058178575759
1673612373.2577748,2.002888,57.12340853242144
1673612373.258782,1.953629,57.10623121248493
1673612373.259789,1.968005,57.089053892548414
1673612373.2607958,2.00159,57.07188063921227
1673612373.261803,2.027626,57.05470331927575
1673612373.26281,2.015966,57.037525999339245
1673612373.2638168,1.9838,57.02035274600309
1673612373.264824,1.979881,57.00317542606658
1673612373.265831,1.988247,56.98599810613007
1673612373.2668378,2.001566,56.96882485279392
1673612373.267845,2.003273,56.95164753285741
1673612373.268853,2.003129,56.93445394651944
1673612373.2698598,2.009523,56.91728069318329
1673612373.2708669,2.016207,56.90010337324678
1673612373.271874,2.022794,56.882926053310264
1673612373.2728808,2.012312,56.86575279997412
1673612373.2738879,2.010509,56.8485754800376
1673612373.274895,2.039406,56.83139816010109
1673612373.2759018,2.086333,56.81422490676494
1673612373.2769089,2.106599,56.79704758682843
1673612373.277916,2.119052,56.77987026689192
1673612373.2789228,2.118716,56.762697013555766
1673612373.2799299,2.128139,56.74551969361925
1673612373.280938,2.133524,56.72832610728128
1673612373.281945,2.12047,56.711148787344776
1673612373.2829518,2.082294,56.69397553400862
1673612373.283959,2.040992,56.676798214072114
1673612373.284966,2.014019,56.6596208941356
1673612373.2859728,2.011495,56.64244764079945
1673612373.28698,2.030415,56.62527032086294
1673612373.287987,2.072389,56.608093000926424
1673612373.2889938,2.131818,56.638380319027185
1673612373.290001,2.167133,56.70152783261803
1673612373.291008,2.163094,56.697024991416306
1673612373.2920148,2.174129,56.672337
1673612373.293022,2.175595,56.69255665474487
1673612373.29403,2.14742,56.657227538865044
1673612373.2950368,2.098521,56.638823741835516
1673612373.2960439,2.085323,56.654247
1673612373.297051,2.108907,56.63297025321888
1673612373.2980578,2.054239,56.628225480878605
1673612373.2990649,2.011254,56.64543380441818
1673612373.300072,2.003393,56.66264212795777
1673612373.3010788,1.992863,56.67984637755711
1673612373.3020859,1.981131,56.69705470109669
1673612373.303093,1.981083,56.71426302463627
1673612373.3040998,1.999114,56.73146727423561
1673612373.3051069,2.049959,56.74867559777519
1673612373.306115,2.103786,56.765900217075696
1673612373.307122,2.120278,56.783108540615274
1673612373.3081288,2.092511,56.80031279021462
1673612373.309136,2.021351,56.817521113754204
1673612373.310143,1.966106,56.83472943729378
1673612373.3111498,1.990387,56.851933686893126
1673612373.312157,1.99356,56.869142010432704
1673612373.313164,1.974015,56.88635033397228
1673612373.3141708,2.019909,56.903554583571626
1673612373.315178,2.055032,56.920762907111204
1673612373.316185,2.056234,56.93797123065078
1673612373.3171918,2.055441,56.955175480250134
1673612373.318199,2.025895,56.97238380378971
1673612373.319207,1.988079,56.98960842309022
1673612373.3202138,1.991853,57.00681267268956
1673612373.3212209,1.990411,57.02402099622914
1673612373.322228,1.991373,57.04122931976872
1673612373.3232348,2.049166,57.05843356936806
1673612373.3242419,2.124509,57.07564189290764
1673612373.325249,2.189948,57.09285021644722
1673612373.3262558,2.23411,57.11005446604657
1673612373.3272629,2.226393,57.12726278958615
1673612373.32827,2.185981,57.144471113125725
1673612373.3292768,2.152565,57.16167536272507
1673612373.3302839,2.116071,57.17888368626465
1673612373.331292,2.055272,57.196108305565154
1673612373.332299,1.979521,57.21331662910473
1673612373.3333058,1.934108,57.23052087870408
1673612373.334313,1.928266,57.247729202243654
1673612373.33532,1.925886,57.26493752578324
1673612373.3363268,1.919684,57.282141775382584
1673612373.337334,1.917785,57.29935009892216
1673612373.338341,1.946369,57.31655842246174
1673612373.3393478,1.973631,57.333762672061084
1673612373.340355,1.974905,57.35097099560066
1673612373.341362,1.975915,57.36817931914024
1673612373.3423688,1.975458,57.38538356873959
1673612373.3433769,1.981396,57.40300050643776
1673612373.344384,1.990555,57.414021
1673612373.3453908,2.031665,57.55258560441426
1673612373.3463979,2.032867,57.54036245597865
1673612373.347405,2.023274,57.57192974945428
1673612373.3484118,2.048565,57.59956616977929
1673612373.3494189,2.085419,57.64711697817123
1673612373.350426,2.135808,57.67990842541838
1673612373.3514328,2.177254,57.593004819265616
1673612373.3524399,2.148117,57.61432404080792
1673612373.353447,2.048349,57.617221475877606
1673612373.3544538,1.938243,57.620118225001484
1673612373.355461,1.882084,57.62301566007117
1673612373.356469,1.886123,57.625915838924065
1673612373.357476,1.91841,57.62881327399375
1673612373.3584828,1.971948,57.63171002311763
1673612373.35949,2.008273,57.63460745818731
1673612373.360497,2.009139,57.637504893256995
1673612373.3615038,2.014163,57.64040164238087
1673612373.362511,2.03753,57.64329907745056
1673612373.363518,2.057292,57.64619651252024
1673612373.3645248,2.05032,57.649093261644126
1673612373.365532,2.028804,57.6519906967138
1673612373.366539,2.023827,57.65488813178349
1673612373.3675458,2.058614,57.65778488090737
1673612373.3685539,2.099387,57.66068505976026
1673612373.369561,2.130087,57.663582494829946
1673612373.3705678,2.174706,57.66647924395383
1673612373.3715749,2.165498,57.66937667902351
1673612373.372582,2.120951,57.67227411409319
1673612373.3735888,2.0715,57.675170863217076
1673612373.3745959,2.037795,57.67806829828676
1673612373.375603,2.010124,57.680965733356445
1673612373.3766098,1.97779,57.68386248248032
1673612373.377617,1.947955,57.686759917550006
1673612373.378624,1.974713,57.68965735261969
1673612373.3796308,2.027265,57.69255410174357
1673612373.380638,2.071644,57.69545153681325
1673612373.381646,2.148045,57.69835171566615
1673612373.382653,2.266949,57.701249150735826
1673612373.3836598,2.352269,57.70414589985971
1673612373.384667,2.374435,57.707043334929395
1673612373.385674,2.312747,57.70994076999908
1673612373.3866808,2.223965,57.71283751912296
1673612373.387688,2.147035,57.71573495419264
1673612373.388695,2.063182,57.718632389262325
1673612373.3897018,2.011471,57.7215291383862
1673612373.390709,1.969688,57.72442657345589
1673612373.391716,1.94959,57.72732400852557
1673612373.3927228,1.960288,57.730220757649455
1673612373.3937309,1.938604,57.733120936502345
1673612373.394738,1.917448,57.73601837157203
1673612373.3957448,1.89045,57.738915120695914
1673612373.3967519,1.865448,57.75320609012876
1673612373.397759,1.886508,57.78509192228844
1673612373.3987658,1.946297,57.793922
1673612373.399773,1.979713,57.77999818860277
1673612373.40078,1.985699,57.71961109084406
1673612373.4017868,1.988295,57.70348
1673612373.402794,1.996541,57.68916090486409
1673612373.403801,2.005388,57.685375
1673612373.4048078,2.024693,57.6999453170441
1673612373.405815,2.045512,57.69059706363387
1673612373.406823,2.027025,57.67460027803738
1673612373.40783,2.01438,57.65861862658054
1673612373.4088368,2.053974,57.6426407586586
1673612373.409844,2.096742,57.62665910720176
1673612373.410851,2.093906,57.61067745574491
1673612373.4118578,2.030198,57.59469958782298
1673612373.412865,2.001205,57.57871793636613
1673612373.413872,1.988127,57.56273628490929
1673612373.4148788,1.964688,57.54675841698735
1673612373.415886,1.960913,57.53077676553051
1673612373.416893,1.99445,57.514795114073664
1673612373.4178998,2.025799,57.49881724615173
1673612373.4189079,2.026953,57.482820460555246
1673612373.419915,2.051907,57.466838809098405
1673612373.4209218,2.072341,57.45086094117647
1673612373.421929,2.087847,57.434879289719625
1673612373.422936,2.093858,57.41889763826278
1673612373.4239428,2.081453,57.402919770340844
1673612373.42495,2.060393,57.386938118884004
1673612373.425957,2.055561,57.370956467427156
1673612373.4269638,2.052484,57.35497859950522
1673612373.427971,2.010798,57.338996948048376
1673612373.428978,1.9818770000000001,57.323015296591535
1673612373.4299848,1.993873,57.307037428669595
1673612373.430992,2.024092,57.291055777212755
1673612373.432,2.045704,57.27505899161627
1673612373.433007,2.069312,57.25907734015943
1673612373.4340138,2.08614,57.24309947223749
1673612373.435021,2.089434,57.22711782078065
1673612373.436028,2.110734,57.2111361693238
1673612373.4370348,2.135977,57.19515830140187
1673612373.438042,2.130736,57.17917664994502
1673612373.439049,2.095709,57.16319499848818
1673612373.4400558,2.067148,57.14721713056625
1673612373.441063,2.034477,57.1312354791094
1673612373.44207,2.032939,57.11525382765255
1673612373.4430768,2.034285,57.09927595973062
1673612373.444085,2.023683,57.08327917413414
1673612373.445092,2.021592,57.06687611561382
1673612373.4460988,2.038949,57.06289803576538
1673612373.447106,2.062292,57.08805243776824
1673612373.448113,2.059167,57.02367912732475
1673612373.4491198,2.024765,57.04828179713945
1673612373.450127,2.021784,57.025999332141154
1673612373.451134,2.013322,56.98956177300906
1673612373.4521408,1.997864,56.97041832443385
1673612373.453148,1.9777420000000001,56.9846144401526
1673612373.454155,1.986396,56.93976422714577
1673612373.4551618,2.054816,56.92415077779291
1673612373.456169,2.116744,56.90853363119891
1673612373.457177,2.122826,56.892901695640326
1673612373.458184,2.103161,56.87728454904632
1673612373.4591908,2.120518,56.86167109969346
1673612373.460198,2.139342,56.84605395309946
1673612373.461205,2.123307,56.835136
1673612373.4622118,2.086645,56.84635349702026
1673612373.463219,2.06222,56.85413273462088
1673612373.464226,2.042267,56.811189542918456
1673612373.4652328,2.029717,56.798962
1673612373.46624,2.019741,56.798962
1673612373.467247,2.01849,56.78647964115403
1673612373.4682539,1.9907,56.762783
1673612373.469262,2.010557,56.74976580615164
1673612373.470269,2.045199,56.72532285607424
1673612373.4712758,2.019837,56.721807410461196
1673612373.472283,1.990603,56.718291132395954
1673612373.47329,1.990435,56.71477485433071
1673612373.4742968,1.98017,56.71125940871766
1673612373.475304,1.972453,56.70774313065242
1673612373.476311,1.977021,56.704226852587176
1673612373.4773178,1.975266,56.70071140697413
1673612373.478325,1.979881,56.69719512890889
1673612373.479332,2.007239,56.693678850843646
1673612373.4803388,2.028179,56.6901634052306
1673612373.481346,2.026664,56.68664712716536
1673612373.482354,2.025702,56.68312751929134
1673612373.483361,2.021904,56.6796112412261
1673612373.4843678,2.014307,56.67609579561305
1673612373.485375,2.013827,56.67257951754781
1673612373.486382,2.03366,56.66906323948256
1673612373.4873888,2.069552,56.665547793869514
1673612373.488396,2.110325,56.66203151580427
1673612373.489403,2.152685,56.65851523773903
1673612373.4904099,2.156411,56.654999792125984
1673612373.491417,2.132659,56.65148351406074
1673612373.492424,2.13213,56.6479672359955
1673612373.4934309,2.128404,56.644451790382455
1673612373.494439,2.106046,56.640932182508436
1673612373.495446,2.074433,56.637415904443195
1673612373.4964528,2.057003,56.63390045883015
1673612373.49746,2.058999,56.630384180764906
1673612373.498467,2.051835,56.62686790269966
1673612373.4994738,2.01724,56.62335245708661
1673612373.500481,1.989137,56.61983617902137
1673612373.501488,1.977069,56.61631990095613
1673612373.5024948,1.986565,56.61280445534308
1673612373.503502,2.031929,56.60928817727784
1673612373.504509,2.045296,56.6057718992126
1673612373.5055158,2.036569,56.60225645359955
1673612373.506523,2.009379,56.5987401755343
1673612373.507531,1.989738,56.59522056766029
1673612373.508538,2.005965,56.59170428959505
1673612373.5095448,2.021399,56.588188843982
1673612373.510552,2.017986,56.584672565916755
1673612373.511559,2.025438,56.58115628785151
1673612373.5125659,2.041089,56.577640842238466
1673612373.513573,2.069937,56.574124564173225
1673612373.51458,2.107416,56.57060828610798
1673612373.5155869,2.151146,56.56709284049494
1673612373.516594,2.157445,56.56155287616099
1673612373.517601,2.147324,56.53130267167382
1673612373.5186079,2.161772,56.580526404295945
1673612373.519616,2.173167,56.56531119933238
1673612373.520623,2.168912,56.5917566863539
1673612373.5216298,2.141434,56.68341402147971
1673612373.522637,2.10482,56.61995874916547
1673612373.523644,2.038925,56.63210054536795
1673612373.5246508,1.966082,56.602104688782816
1673612373.525658,1.953869,56.61748628275061
1673612373.526665,1.957115,56.612888544755556
1673612373.5276718,1.96815,56.608291895240136
1673612373.528679,1.995964,56.60369415724508
1673612373.529686,2.00659,56.599096419250024
1673612373.5306928,2.004186,56.594499769734604
1673612373.5317,1.989089,56.58990203173955
1673612373.532708,1.990075,56.58529993982594
1673612373.533715,1.985338,56.580702201830874
1673612373.5347219,1.977021,56.57610555231546
1673612373.535729,1.984329,56.5715078143204
1673612373.536736,1.966491,56.56691007632534
1673612373.5377429,1.9412,56.56231342680992
1673612373.53875,1.9318,56.557715688814866
1673612373.539757,1.955673,56.55311795081981
1673612373.5407639,1.995724,56.54852130130439
1673612373.541771,2.031448,56.543923563309335
1673612373.542778,2.070706,56.53932582531428
1673612373.5437849,2.122105,56.53472917579886
1673612373.544793,2.136409,56.53012708388525
1673612373.5458,2.129918,56.525529345890185
1673612373.5468068,2.099555,56.52093269637477
1673612373.547814,2.07888,56.51633495837971
1673612373.548821,2.09042,56.51173722038465
1673612373.5498278,2.091069,56.50714057086923
1673612373.550835,2.090997,56.50254283287418
1673612373.551842,2.112609,56.49794509487912
1673612373.5528488,2.098425,56.4933484453637
1673612373.553856,2.05871,56.488750707368645
1673612373.554863,2.046281,56.48415296937359
1673612373.5558698,2.009716,56.47955631985817
1673612373.556877,1.988896,56.47495858186311
1673612373.557885,1.993176,56.470356489949495
1673612373.558892,1.964015,56.46575875195444
1673612373.5598989,1.946104,56.46116210243902
1673612373.560906,1.936753,56.45656436444396
1673612373.561913,1.93144,56.45196662644891
1673612373.5629199,1.946441,56.44736997693349
1673612373.563927,1.965529,56.44277223893843
1673612373.564934,1.994738,56.438174500943376
1673612373.5659409,2.033997,56.433577851427955
1673612373.566948,2.072558,56.4289801134329
1673612373.5679548,2.103522,56.42438346391748
1673612373.5689619,2.130375,56.419785725922424
1673612373.56997,2.142948,56.415183634008805
1673612373.570977,2.156988,56.41058589601375
1673612373.5719838,2.156555,56.40598924649833
1673612373.572991,2.167782,56.401391508503274
1673612373.573998,2.187015,56.39679377050822
1673612373.5750048,2.214493,56.3921971209928
1673612373.576012,2.258343,56.38759938299774
1673612373.577019,2.25577,56.383001645002686
1673612373.5780258,2.209372,56.378404995487266
1673612373.579033,2.193001,56.37380725749221
1673612373.58004,2.103786,56.36920951949715
1673612373.5810468,2.02176,56.367749504291844
1673612373.582054,2.027361,56.434563173104436
1673612373.583062,2.021904,56.381882222884386
1673612373.584069,1.994209,56.36707686552217
1673612373.5850759,1.953244,56.39719418597998
1673612373.586083,1.928627,56.3508890579261
1673612373.58709,1.894297,56.400986
1673612373.5880969,1.844966,56.40755884048641
1673612373.589104,1.843403,56.46979479856973
1673612373.5901108,1.861025,56.43674205315765
1673612373.5911179,1.911943,56.432682136387484
1673612373.592125,1.973318,56.428622219617324
1673612373.5931318,1.996397,56.424563264001705
1673612373.5941389,1.986396,56.42050334723154
1673612373.595147,1.925213,56.41643958584323
1673612373.596154,1.890859,56.41237966907306
1673612373.5971608,1.90098,56.40832071345744
1673612373.598168,1.93156,56.40426079668728
1673612373.599175,1.978343,56.400200879917115
1673612373.6001818,2.016182,56.396141924301496
1673612373.601189,2.017625,56.392082007531336
1673612373.602196,2.015125,56.38802209076117
1673612373.6032028,2.03027,56.38396313514555
1673612373.60421,2.053638,56.37990321837539
1673612373.605217,2.058254,56.37584330160522
1673612373.6062238,2.065225,56.3717843459896
1673612373.607231,2.062244,56.36772442921944
1673612373.608239,2.025919,56.36366066783113
1673612373.609246,1.997215,56.35960075106097
1673612373.6102529,1.996061,56.35554179544534
1673612373.61126,2.017529,56.35148187867518
1673612373.6122668,2.025702,56.347422923059554
1673612373.6132739,2.010172,56.343363006289394
1673612373.614281,2.01962,56.339303089519234
1673612373.6152878,2.006686,56.33524413390361
1673612373.6162949,2.009908,56.33118421713345
1673612373.617302,2.036857,56.32712430036329
1673612373.6183088,2.054672,56.32306534474766
1673612373.6193159,2.091982,56.3190054279775
1673612373.620324,2.105589,56.314941666589185
1673612373.621331,2.07501,56.310881749819025
1673612373.6223378,2.024044,56.3068227942034
1673612373.623345,1.991373,56.30276287743324
1673612373.624352,2.011735,56.29870296066308
1673612373.6253588,2.051402,56.29464400504745
1673612373.626366,2.099555,56.32579108941345
1673612373.627373,2.137155,56.37326929351455
1673612373.6283798,2.130976,56.357123461263406
1673612373.629387,2.125278,56.36349216475918
1673612373.630394,2.126673,56.38328940081068
1673612373.6314008,2.114052,56.33789188200238
1673612373.632408,2.082078,56.310532
1673612373.633416,2.045392,56.310532
1673612373.6344228,2.018226,56.30116573539929
1673612373.6354299,1.991517,56.288644628233556
1673612373.636437,1.940719,56.28135698700618
1673612373.6374438,1.895932,56.27407107107265
1673612373.6384509,1.907712,56.26678342984527
1673612373.639458,1.948076,56.25949578861789
1673612373.6404648,1.9888,56.25220987268436
1673612373.6414719,2.013418,56.244922231456975
1673612373.642479,2.037266,56.2376345902296
1673612373.6434858,2.086645,56.23034867429607
1673612373.6444929,2.139943,56.22306103306869
1673612373.645501,2.174946,56.241639472103
1673612373.646508,2.208603,56.256264
1673612373.6475148,2.231369,56.22316793134684
1673612373.648522,2.24375,56.168513675727226
1673612373.649529,2.226778,56.20416208822127
1673612373.6505358,2.172037,56.21534420600858
1673612373.651543,2.141073,56.24814979737783
1673612373.65255,2.107176,56.23934730734383
1673612373.6535568,2.071356,56.243667061516454
1673612373.654564,2.034453,56.247015093128645
1673612373.655571,1.968486,56.23288072893739
1673612373.6565778,1.881243,56.21874971094978
1673612373.657585,1.827344,56.20461534675853
1673612373.658593,1.857515,56.1904675977527
1673612373.6595998,1.889321,56.20339459847401
1673612373.6606069,1.896941,56.220078
1673612373.661614,1.926031,56.21007544635193
1673612373.6626208,1.958437,56.21211563948498
1673612373.6636279,1.963966,56.209823406436236
1673612373.664635,1.969808,56.23313781688126
1673612373.6656418,1.987093,56.182711785407726
1673612373.6666489,2.000316,56.12673028649147
1673612373.667656,1.992286,56.12176166773232
1673612373.6686628,1.983079,56.11679422525603
1673612373.6696699,1.98291,56.111825606496886
1673612373.670678,1.991613,56.10685228260634
1673612373.671685,2.003441,56.1018836638472
1673612373.6726918,2.021183,56.096916221370904
1673612373.673699,2.049935,56.09194760261176
1673612373.674706,2.068326,56.08697898385262
1673612373.6757128,2.063182,56.082011541376325
1673612373.67672,2.075683,56.07704292261718
1673612373.677727,2.081933,56.07207430385804
1673612373.6787338,2.090276,56.067106861381745
1673612373.679741,2.094194,56.062138242622595
1673612373.680748,2.128067,56.05716962386345
1673612373.6817548,2.154896,56.05220218138716
1673612373.682762,2.144992,56.047233562628016
1673612373.68377,2.117754,56.04226023873747
1673612373.6847768,2.103474,56.03729279626118
1673612373.6857839,2.058638,56.03232417750203
1673612373.686791,2.00861,56.02735555874289
1673612373.6877978,1.995724,56.0223881162666
1673612373.6888049,1.994161,56.017419497507454
1673612373.689812,1.989498,56.01245087874831
1673612373.6908188,1.96339,56.00748343627202
1673612373.6918259,1.952667,56.00251481751287
1673612373.692833,1.96488,55.997546198753724
1673612373.6938398,2.005364,55.99257875627743
1673612373.6948469,2.039334,55.98761013751829
1673612373.695855,2.066451,55.98263681362774
1673612373.696862,2.079169,55.9776681948686
1673612373.6978688,2.092752,55.972700752392306
1673612373.698876,2.109604,55.96773213363316
1673612373.699883,2.102007,55.96276351487402
1673612373.7008898,2.098858,55.95779607239773
1673612373.701897,2.103955,55.952827453638584
1673612373.702904,2.134895,55.94785883487944
1673612373.7039108,2.129149,55.94289139240314
1673612373.704918,2.097728,55.937922773644
1673612373.705925,2.027746,55.932954154884854
1673612373.7069318,1.964832,55.92798671240856
1673612373.707939,1.949759,55.92301809364942
1673612373.708947,1.985074,55.91804476975887
1673612373.7099538,1.971539,55.91307732728258
1673612373.7109609,1.961947,55.99394365951359
1673612373.711968,2.011254,55.953780380543634
1673612373.7129748,2.039814,55.998319040286056
1673612373.7139819,2.076572,55.986344938006674
1673612373.714989,2.146554,55.984913
1673612373.7159958,2.179105,56.08636268271752
1673612373.7170029,2.109989,56.07640879542203
1673612373.71801,2.023755,56.10969559942775
1673612373.7190168,1.950287,56.07695218741058
1673612373.7200239,1.930358,56.09488418572486
1673612373.721032,1.920862,56.115326168702005
1673612373.722039,1.914275,56.13574881205477
1673612373.7230458,1.960841,56.15616662050143
1673612373.724053,1.991733,56.1765892638542
1673612373.72506,1.987118,56.19701190720696
1673612373.7260668,1.98517,56.21742971565362
1673612373.727074,1.978703,56.23785235900638
1673612373.728081,1.996181,56.25827500235914
1673612373.7290878,2.0314,56.27869281080581
1673612373.730095,2.055008,56.29911545415857
1673612373.731102,2.073231,56.319538097511334
1673612373.7321088,2.087294,56.339955905958
1673612373.733116,2.083448,56.36037854931076
1673612373.734124,2.077678,56.380820532287906
1673612373.7351308,2.046618,56.40123834073457
1673612373.7361379,2.000724,56.42166098408733
1673612373.737145,1.975097,56.4420836274401
1673612373.7381518,1.976564,56.46250143588676
1673612373.7391589,1.985988,56.482924079239524
1673612373.740166,1.989522,56.50334672259228
1673612373.7411728,2.007071,56.52376453103895
1673612373.7421799,2.06549,56.54418717439171
1673612373.743187,2.095877,56.56460981774447
1673612373.7441938,2.0834,56.585027626191135
1673612373.7452009,2.056474,56.605450269543894
1673612373.746209,2.023996,56.62589225252105
1673612373.747216,2.008634,56.64631489587381
1673612373.7482228,2.009235,56.666732704320474
1673612373.74923,1.964039,56.68715534767323
1673612373.750237,1.968582,56.70757799102599
1673612373.7512438,2.032506,56.72799579947266
1673612373.752251,2.14177,56.748418442825425
1673612373.753258,2.218315,56.768841086178185
1673612373.7542648,2.25315,56.78925889462485
1673612373.755272,2.251083,56.80968153797761
1673612373.756279,2.256107,56.83010418133037
1673612373.7572858,2.237235,56.850521989777036
1673612373.758293,2.180163,56.870944633129795
1673612373.759301,2.109652,56.89138661610695
1673612373.7603078,2.026256,56.91180442455361
1673612373.7613149,1.967981,56.932227067906375
1673612373.762322,1.931199,56.952649711259134
1673612373.7633288,1.910236,56.9730675197058
1673612373.7643359,1.922545,56.99349016305856
1673612373.765343,1.943748,57.01391280641132
1673612373.7663498,1.930021,57.03235701669051
1673612373.7673569,1.935935,57.050575408679066
1673612373.768364,1.96149,57.06879076638856
1673612373.7693708,1.956826,57.03692894420601
1673612373.7703779,1.931368,57.067776846924176
1673612373.771386,1.941729,57.08728060276586
1673612373.772393,2.002119,57.07130908081049
1673612373.7733998,2.041425,57.10474852122079
1673612373.774407,2.031809,57.106491
1673612373.775414,2.026712,57.1194814514636
1673612373.7764208,2.04092,57.1330201179322
1673612373.777428,2.053902,57.1465619903365
1673612373.778435,2.082486,57.160103862740804
1673612373.7794418,2.079962,57.1736425292094
1673612373.780449,2.03479,57.187184401613706
1673612373.781456,1.986516,57.20072627401801
1673612373.7824628,1.96738,57.214264940486615
1673612373.78347,1.940359,57.22780681289092
1673612373.784478,1.923386,57.24136150903803
1673612373.7854848,1.926439,57.25490017550663
1673612373.7864919,1.959327,57.26844204791093
1673612373.787499,1.977573,57.281983920315234
1673612373.7885058,2.001061,57.29552258678384
1673612373.7895129,2.037699,57.30906445918814
1673612373.79052,2.088472,57.322606331592446
1673612373.7915268,2.163575,57.336144998061044
1673612373.7925339,2.186606,57.34968687046535
1673612373.793541,2.195092,57.36322874286965
1673612373.7945478,2.200646,57.37676740933826
1673612373.7955549,2.182134,57.39030928174256
1673612373.796563,2.119461,57.40386397788967
1673612373.79757,2.021255,57.417405850293974
1673612373.7985768,1.969568,57.43094451676257
1673612373.799584,1.981708,57.444486389166876
1673612373.800591,1.958798,57.45802826157118
1673612373.8015978,1.934925,57.47156692803978
1673612373.802605,1.958317,57.48510880044408
1673612373.803612,1.96875,57.498650672848385
1673612373.8046188,1.966443,57.51218933931699
1673612373.805626,1.968246,57.52573121172129
1673612373.806633,1.948893,57.5392730841256
1673612373.8076398,1.927425,57.552811750594195
1673612373.808647,1.920694,57.5663536229985
1673612373.809655,1.91002,57.57990831914561
1673612373.8106618,1.908529,57.593446985614214
1673612373.8116689,1.924828,57.60698885801852
1673612373.812676,1.941056,57.62053073042282
1673612373.8136828,1.958774,57.63406939689142
1673612373.8146899,1.981829,57.64761126929572
1673612373.815697,2.014981,57.66115314170003
1673612373.8167038,2.045007,57.67469180816863
1673612373.8177109,2.080803,57.688233680572935
1673612373.818718,2.131769,57.70177555297724
1673612373.8197248,2.154536,57.71531421944584
1673612373.8207319,2.170234,57.721569
1673612373.82174,2.185789,57.7414614115403
1673612373.822747,2.166749,57.777896417739626
1673612373.8237538,2.134774,57.82452376919409
1673612373.824761,2.123187,57.83786266865316
1673612373.825768,2.101382,57.830101
1673612373.8267748,2.01962,57.84068095159752
1673612373.827782,1.937546,57.858897382598336
1673612373.828789,1.915453,57.87711442250835
1673612373.8297958,1.963558,57.88555094985152
1673612373.830803,2.005677,57.8875157496047
1673612373.83181,2.04895,57.88948054935788
1673612373.8328168,2.090732,57.8914448839596
1673612373.833824,2.06109,57.893409683712775
1673612373.834832,1.990243,57.895376344071785
1673612373.8358388,1.946705,57.89734067867351
1673612373.8368459,1.934036,57.89930547842668
1673612373.837853,1.912255,57.901270278179865
1673612373.8388598,1.917015,57.90323461278158
1673612373.8398669,1.928819,57.90519941253476
1673612373.840874,1.93192,57.90716421228794
1673612373.8418808,1.953821,57.90912854688966
1673612373.8428879,1.977814,57.91109334664284
1673612373.843895,1.981612,57.91305814639602
1673612373.8449018,1.971251,57.91502248099774
1673612373.8459089,1.970001,57.91698728075092
1673612373.846917,1.983055,57.918953941109926
1673612373.847924,2.001277,57.9209187408631
1673612373.8489308,2.005484,57.922883075464824
1673612373.849938,2.013298,57.924847875218006
1673612373.850945,2.036016,57.92681267497118
1673612373.8519518,2.048036,57.928777009572904
1673612373.852959,2.048589,57.93074180932608
1673612373.853966,2.046666,57.93270660907926
1673612373.8549728,2.043204,57.934670943680985
1673612373.85598,2.022457,57.93663574343416
1673612373.856987,1.99243,57.93860054318734
1673612373.860009,1.970097,57.94449633790124
1673612373.8610158,2.007384,57.946460672502965
1673612373.8620229,2.046474,57.94842547225615
1673612373.86303,2.055152,57.95039027200932
1673612373.8640368,2.062292,57.952354606611046
1673612373.8650439,2.070106,57.95431940636422
1673612373.866051,2.075082,57.9562842061174
1673612373.8670578,2.062725,57.958248540719126
1673612373.8680649,2.068134,57.9602133404723
1673612373.869072,2.12273,57.96217814022548
1673612373.8700788,2.160907,57.9641424748272
1673612373.871086,2.166147,57.96610727458038
1673612373.872094,2.141698,57.96807393493938
1673612373.873101,2.107969,57.970038734692565
1673612373.8741078,2.106214,57.97200306929429
1673612373.875115,2.113499,57.97396786904746
1673612373.876122,2.105974,57.975932668800645
1673612373.8771288,2.092704,57.97789700340236
1673612373.878136,2.038805,57.97986180315554
1673612373.879143,1.946369,57.98182660290872
1673612373.8801498,1.883407,57.98379093751044
1673612373.881157,1.870208,57.985755737263624
1673612373.882164,1.880257,57.9877205370168
1673612373.8831708,1.873213,57.98968487161852
1673612373.8841789,1.885065,57.991651531977524
1673612373.885186,1.940479,58.012290337625174
1673612373.8861928,1.979304,58.02744241869337
1673612373.8871999,2.033973,58.02366480939377
1673612373.888207,2.087847,57.974831
1673612373.8892138,2.17723,57.974831
1673612373.8902209,2.319574,57.974831
1673612373.891228,2.40612,57.97638010325048
1673612373.8922348,2.439801,57.99419442981977
1673612373.893242,2.394821,58.03971954994041
1673612373.894249,2.30539,58.01369626858154
1673612373.8952558,2.214108,57.97675945155703
1673612373.896263,2.062533,57.93981388795023
1673612373.897271,1.920717,57.902833338014254
1673612373.898278,1.823137,57.86588777440745
1673612373.8992848,1.7276,57.828950957382936
1673612373.900292,1.702886,57.79200539377614
1673612373.901299,1.735894,57.75505983016934
1673612373.9023058,1.818762,57.718123013144826
1673612373.903313,1.884272,57.68117744953802
1673612373.90432,1.897302,57.64423188593122
1673612373.9053268,1.911077,57.60729506890671
1673612373.906334,1.937185,57.5703495052999
1673612373.907341,1.94685,57.5334039416931
1673612373.9083478,1.94358,57.49646712466859
1673612373.9093559,1.946729,57.459486574732615
1673612373.910363,1.944734,57.422541011125816
1673612373.9113698,1.935719,57.385604194101305
1673612373.9123769,1.940936,57.3486586304945
1673612373.913384,1.959519,57.3117130668877
1673612373.9143908,1.969015,57.27477624986319
1673612373.915398,1.976588,57.23783068625639
1673612373.916405,1.992767,57.20088512264958
1673612373.9174118,1.995387,57.16394830562507
1673612373.918419,2.002792,57.12700274201827
1673612373.919426,1.990459,57.09005717841146
1673612373.9204328,1.980795,57.05312036138696
1673612373.92144,1.977044,57.01617479778015
1673612373.922448,1.989858,56.97919424784418
1673612373.923455,2.005508,56.94224868423738
1673612373.9244618,2.012721,56.905311867212866
1673612373.925469,2.033011,56.86836630360606
1673612373.926476,2.061259,56.83142073999926
1673612373.9274828,2.057484,56.79448392297475
1673612373.92849,2.039742,56.75753835936795
1673612373.929497,2.065514,56.72059279576114
1673612373.9305038,2.096814,56.68365597873663
1673612373.931511,2.087655,56.64671041512983
1673612373.932518,2.067509,56.609764851523025
1673612373.9335248,2.054167,56.572828034498514
1673612373.9345329,2.04306,56.53584748456254
1673612373.9395678,1.926896,56.398557609442065
1673612373.940575,1.928314,56.35360773676681
1673612373.941582,1.93745,56.251191073915116
1673612373.9425888,1.937834,56.25421566865316
1673612373.943596,1.953052,56.24009342060086
1673612373.944603,1.983559,56.205568636623745
1673612373.9456098,1.999522,56.10346473706794
1673612373.946617,2.015702,56.07689636051502
1673612373.947625,2.019332,56.02526743824511
1673612373.948632,2.02539,56.021771320960994
1673612373.9496388,1.997623,56.02251104524151
1673612373.950646,1.946032,56.02325094468761
1673612373.951653,1.952571,56.023990844133706
1673612373.9526598,1.978054,56.02473056841422
1673612373.953667,1.980362,56.02547046786032
1673612373.954674,1.967885,56.026210367306426
1673612373.9556808,1.979208,56.02695009158694
1673612373.956688,2.005028,56.02768999103304
1673612373.957695,2.007768,56.02842989047914
1673612373.9587018,1.999763,56.02916961475965
1673612373.95971,2.001638,56.02991021486811
1673612373.960717,2.07275,56.03065011431421
1673612373.9617238,2.163743,56.03138983859473
1673612373.962731,2.22673,56.03212973804083
1673612373.963738,2.288346,56.032869637486925
1673612373.9647448,2.354842,56.03360936176744
1673612373.965752,2.388234,56.03434926121354
1673612373.966759,2.388931,56.035089160659645
1673612373.9677658,2.3296230000000002,56.03582888494016
1673612373.968773,2.216272,56.03656878438626
1673612373.96978,2.096983,56.03730868383236
1673612373.9707868,1.985074,56.03804840811287
1673612373.971794,1.881363,56.038788307558974
1673612373.972802,1.815444,56.00452689821216
1673612373.973809,1.833138,55.878914476394854
1673612373.9748158,1.900139,55.8215798676681
1673612373.975823,1.915164,55.876369499999996
1673612373.97683,1.901173,55.87611508271752
1673612373.9778368,1.901533,55.83039191583214
1673612373.978844,1.938459,55.785156379351456
1673612373.979851,1.975482,55.70096256853397
1673612373.9808578,2.000628,55.67989464401526
1673612373.981865,2.061739,55.69395080066762
1673612373.982872,2.127803,55.65751381144219
1673612373.9838789,2.0909,55.62108548497854
1673612373.984887,2.025775,55.59481459823557
1673612373.985894,2.014019,55.586926
1673612373.9869008,2.007913,55.58725148862303
1673612373.987908,1.992142,55.58781891080366
1673612373.988915,2.012697,55.5883863329843
1673612373.9899218,1.988728,55.58895362083203
1673612373.990929,1.926223,55.58952104301267
1673612373.991936,1.880378,55.590088465193304
1673612373.9929428,1.874247,55.590655753041034
1673612373.99395,1.887782,55.59122317522167
1673612373.994957,1.90574,55.59179059740231
1673612373.9959638,1.922016,55.59235788525004
1673612373.996971,1.927978,55.592925307430676
1673612373.997979,1.926631,55.59349326694292
1673612373.9999928,1.905187,55.59462797697129
1673612374.001,1.931199,55.595195399151926
1673612374.002007,1.95536,55.59576282133256
1673612374.0030138,1.98731,55.59633010918029
1673612374.004021,2.030439,55.59689753136093
1673612374.005028,2.04104,55.59746495354157
1673612374.0060349,2.052917,55.5980322413893
1673612374.007042,2.05871,55.598599663569935
1673612374.008049,2.046065,55.599167085750565
1673612374.0090559,2.016182,55.5997343735983
1673612374.010064,1.974737,55.60030233311055
1673612374.011071,1.961755,55.600869755291185
1673612374.0120778,1.956177,55.601437043138915
1673612374.013085,1.952379,55.60200446531955
1673612374.014092,1.95786,55.60257188750019
1673612374.0150988,1.97303,55.60313917534792
1673612374.016106,1.98243,55.60370659752856
1673612374.017113,1.969496,55.60427401970919
1673612374.0181198,1.971876,55.604841307556924
1673612374.019127,1.991325,55.605015
1673612374.020134,2.038348,55.605015
1673612374.0211408,2.099844,55.592122005959475
1673612374.022148,2.138933,55.573907012398664
1673612374.023156,2.121168,55.48056568486947
1673612374.024163,2.084337,55.56691684496537
1673612374.0251698,2.093954,55.520104201716734
1673612374.026177,2.123163,55.514565
1673612374.027184,2.136529,55.54572085264664
1673612374.0281909,2.115638,55.550751
1673612374.029198,2.081308,55.550751
1673612374.030205,2.027794,55.58265641845493
1673612374.0312119,1.959928,55.55477044444444
1673612374.032219,1.953509,55.550751
1673612374.033226,1.980194,55.57611187028867
1673612374.0342329,2.007408,55.60438508972613
1673612374.035241,2.043613,55.63269178444116
1673612374.036248,2.092896,55.66097169893412
1673612374.0372548,2.154704,55.68924491837158
1673612374.038262,2.24827,55.71752483286454
1673612374.039269,2.328806,55.74580474735751
1673612374.0402758,2.370372,55.77407796679497
1673612374.041283,2.386695,55.80235788128793
1673612374.04229,2.39987,55.8306377957809
1673612374.0432968,2.371406,55.85891101521836
1673612374.044304,2.258896,55.88719092971132
1673612374.045311,2.076837,55.91547084420429
1673612374.0463178,1.913313,55.94374406364175
1673612374.047325,1.843764,55.972023978134715
1673612374.048333,1.805107,56.00033067284974
1673612374.04934,1.771738,56.035994221030045
1673612374.0503469,1.728537,56.02255444253696
1673612374.051354,1.740558,55.98759486531585
1673612374.052361,1.798111,56.06929627587029
1673612374.0533679,1.830013,56.09236468669528
1673612374.054375,1.841071,56.110580362336115
1673612374.055382,1.851481,56.163312688602765
1673612374.0563889,1.869727,56.20057331425846
1673612374.057396,1.891244,56.272040908917496
1673612374.058403,1.893936,56.29199260800286
1673612374.0594099,1.908793,56.31020582673051
1673612374.060418,1.93781,56.32844060977112
1673612374.061425,1.932329,56.34665814136136
1673612374.0624318,1.920141,56.364871360089005
1673612374.063439,1.939277,56.38308889167925
1673612374.064446,1.978174,56.40130642326949
1673612374.0654528,1.998705,56.41951964199714
1673612374.06646,2.014981,56.43773717358738
1673612374.067467,2.014067,56.45595470517762
1673612374.0684738,1.964543,56.47416792390527
1673612374.069481,1.916318,56.4923859241774
1673612374.070488,1.901726,56.5116983272944
1673612374.0714948,1.9124,56.54811931711969
1673612374.072502,1.947066,56.58455617501192
1673612374.07351,1.973871,56.62102833825983
1673612374.074517,1.993007,56.64941996733428
1673612374.0755239,2.011543,56.60517432474964
1673612374.076531,2.004282,56.65238337568534
1673612374.077538,1.978607,56.640127636385316
1673612374.0785449,1.954567,56.67282932017885
1673612374.079552,1.918025,56.67707332106754
1673612374.080559,1.883479,56.68131732195623
1673612374.0815659,1.909418,56.685560318109864
1673612374.082573,1.988464,56.689804318998554
1673612374.0835798,2.069985,56.69404731515219
1673612374.0845869,2.117537,56.69829131604088
1673612374.085595,2.148285,56.70253933586981
1673612374.086602,2.165402,56.7067833367585
1673612374.0876088,2.190476,56.71102633291213
1673612374.088616,2.205838,56.715270333800824
1673612374.089623,2.180932,56.719514334689514
1673612374.0906298,2.104483,56.72375733084314
1673612374.091637,1.995748,56.72800133173184
1673612374.092644,1.896821,56.73224533262053
1673612374.0936508,1.858308,56.73648832877416
1673612374.094658,1.854678,56.740732329662855
1673612374.095665,1.897134,56.744976330551545
1673612374.0966718,1.956153,56.74921932670517
1673612374.097679,1.983968,56.75346332759387
1673612374.098687,2.002792,56.75771134742279
1673612374.099694,1.995748,56.76195534831149
1673612374.1007009,1.986396,56.76619834446512
1673612374.101708,2.007504,56.77044234535381
1673612374.102715,2.05984,56.774686346242504
1673612374.1037219,2.101599,56.77892934239613
1673612374.104729,2.134053,56.78317334328482
1673612374.1057358,2.16045,56.78741633943846
1673612374.1067429,2.14903,56.79166034032715
1673612374.10775,2.131914,56.79590434121584
1673612374.1087568,2.152132,56.800147337369474
1673612374.1097639,2.149463,56.804391338258164
1673612374.110772,2.1141,56.80863935808709
1673612374.111779,2.029958,56.81288335897578
1673612374.1127858,1.949734,56.81866831823599
1673612374.113793,1.876531,56.90661585741535
1673612374.1148,1.828859,56.871334
1673612374.1158068,1.833234,56.870630231759655
1673612374.116814,1.836191,56.85405909749702
1673612374.117821,1.845831,56.872291500715306
1673612374.1188278,1.872997,56.888340420362425
1673612374.119835,1.905187,56.87012104457688
1673612374.120842,1.921198,56.857238629947545
1673612374.1218488,1.94144,56.907513
1673612374.122856,1.980194,56.907513
1673612374.123864,2.019548,56.907513
1673612374.124871,2.054383,56.907513
1673612374.1258779,2.078928,56.907513
1673612374.126885,2.107488,56.907513
1673612374.1278918,2.136217,56.907513
1673612374.1288989,2.129245,56.907513
1673612374.129906,2.110085,56.907513
1673612374.1309128,2.125687,56.907513
1673612374.1319199,2.108306,56.907513
1673612374.132927,2.034237,56.907513
1673612374.1339338,1.966731,56.907513
1673612374.1349409,1.909346,56.907513
1673612374.135949,1.853981,56.904239982121574
1673612374.136956,1.83946,56.892821884120174
1673612374.1379628,1.86439,56.90046525488793
1673612374.13897,1.877541,56.871334
1673612374.139977,1.864006,56.85998568271752
1673612374.1409838,1.860808,56.82485700262279
1673612374.141991,1.883743,56.84919306008584
1673612374.142998,1.911462,56.8309758033373
1673612374.1440048,1.956033,56.821332927753936
1673612374.145012,2.008778,56.83344467996559
1673612374.146019,2.019188,56.82646116498481
1673612374.1470258,2.024477,56.819479303298294
1673612374.148033,2.069216,56.81249578831752
1673612374.149041,2.116744,56.805505660159675
1673612374.1500478,2.15367,56.798523798473155
1673612374.1510549,2.169681,56.79154028349238
1673612374.152062,2.149728,56.7845567685116
1673612374.1530688,2.10458,56.77757490682508
1673612374.1540759,2.043036,56.770591391844306
1673612374.155083,2.008249,56.763607876863524
1673612374.1560898,2.007047,56.75662601517701
1673612374.1570969,2.044695,56.74964250019623
1673612374.158104,2.079169,56.74265898521545
1673612374.1591108,2.063807,56.73567712352894
1673612374.1601179,2.015269,56.728693608548156
1673612374.161126,1.94685,56.72170348039031
1673612374.162133,1.89146,56.71471996540953
1673612374.1631398,1.862203,56.70773810372302
1673612374.164147,1.84886,56.700754588742235
1673612374.165154,1.882541,56.693771073761454
1673612374.1661608,1.927136,56.68678921207494
1673612374.167168,1.938724,56.67980569709416
1673612374.168175,1.928074,56.67282218211338
1673612374.1691818,1.932185,56.66584032042687
1673612374.170189,1.951177,56.658856805446085
1673612374.171196,1.979208,56.65187329046531
1673612374.1722028,2.015485,56.64489142877879
1673612374.17321,2.035415,56.63790791379802
1673612374.174218,2.030006,56.63091778564017
1673612374.1752248,2.020269,56.62393592395365
1673612374.1762319,1.982358,56.61695240897288
1673612374.177239,1.957139,56.6099688939921
1673612374.1782458,1.945407,56.60298703230558
1673612374.1792529,1.971635,56.5960035173248
1673612374.18026,2.035319,56.58902000234402
1673612374.1812668,2.096814,56.58203814065751
1673612374.1822739,2.105445,56.57505462567673
1673612374.183281,2.071283,56.568071110695946
1673612374.1842878,2.032362,56.561089249009434
1673612374.1852949,1.985915,56.55410573402865
1673612374.186303,1.937642,56.54711560587081
1673612374.18731,1.895018,56.540132090890026
1673612374.1883168,1.863934,56.533150229203514
1673612374.189324,1.876339,56.527615
1673612374.190331,1.91716,56.527615
1673612374.1913378,1.956153,56.535678511323
1673612374.192345,1.987695,56.58042441344778
1673612374.193352,2.014764,56.62757562422508
1673612374.1943588,2.062292,56.599972
1673612374.195366,2.090155,56.599972
1673612374.196373,2.07775,56.599972
1673612374.1973798,2.078183,56.599972
1673612374.198387,2.096838,56.60348306996936
1673612374.199395,2.079842,56.61650482771535
1673612374.2004018,2.09179,56.629511186031664
1673612374.2014089,2.128332,56.64252062423391
1673612374.202416,2.135784,56.655530062436156
1673612374.2034228,2.110614,56.66853642075247
1673612374.2044299,2.079289,56.672337
1673612374.205437,2.039862,56.62024110011919
1673612374.2064438,1.997046,56.65256344492131
1673612374.2074509,1.973991,56.65906064806867
1673612374.2094648,1.944542,56.7534924029566
1673612374.2104719,1.958125,56.72625057367668
1673612374.21148,1.937137,56.708515
1673612374.212487,1.892494,56.708515
1673612374.2134938,1.895162,56.722566969957086
1673612374.214501,1.899129,56.769148869814025
1673612374.215508,1.901341,56.709334496305125
1673612374.2165148,1.917256,56.71928903958035
1673612374.217522,1.971804,56.7411657167382
1673612374.218529,2.023419,56.76097228335589
1673612374.2195358,2.069384,56.781155251826796
1673612374.220543,2.120374,56.80134299959405
1673612374.22155,2.161892,56.8215307473613
1673612374.2225568,2.167061,56.841713715832206
1673612374.223564,2.130063,56.86190146359946
1673612374.224572,2.090372,56.8821083285521
1673612374.2255788,2.039165,56.902291297023005
1673612374.2265859,2.009331,56.92247904479026
1673612374.227593,2.0126,56.94266679255751
1673612374.2285998,1.983031,56.962849761028416
1673612374.2296069,1.918674,56.98303750879567
1673612374.230614,1.857467,57.00322525656293
1673612374.2316208,1.825661,57.02340822503383
1673612374.2326279,1.844317,57.043595972801086
1673612374.233635,1.871963,57.06378372056834
1673612374.2346418,1.880906,57.083966689039244
1673612374.2356489,1.881219,57.104154436806496
1673612374.236657,1.914275,57.12436130175914
1673612374.237664,1.973102,57.14454904952639
1673612374.2386708,2.036617,57.164732017997295
1673612374.239678,2.080731,57.18491976576455
1673612374.240685,2.114629,57.2051075135318
1673612374.2416918,2.128788,57.225290482002706
1673612374.242699,2.147708,57.24547822976996
1673612374.243706,2.176316,57.26566597753721
1673612374.2447128,2.191991,57.285848946008116
1673612374.24572,2.165859,57.306036693775376
1673612374.246727,2.141073,57.32622444154263
1673612374.2477338,2.099074,57.34640741001353
1673612374.248741,2.071019,57.366595157780786
1673612374.249749,2.064985,57.38680202273343
