measure_time,emg_ch_1,grip_force_inter
1673609862.141888,16.182362,0.050249
1673609862.142895,16.185173,0.10464107892226991
1673609862.1439018,16.185223,0.122605
1673609862.144909,16.186279,0.122605
1673609862.145916,16.185511,0.122605
1673609862.1469228,16.1908,0.122605
1673609862.14793,16.191954,0.122605
1673609862.148938,16.190222,0.122605
1673609862.149945,16.194237,0.122605
1673609862.1509519,16.200174,0.122605
1673609862.151959,16.202049,0.122605
1673609862.152966,16.200127,0.122605
1673609862.1539729,16.197025,0.122605
1673609862.15498,16.190319,0.122605
1673609862.155987,16.19104,0.122605
1673609862.1569939,16.184189,0.122605
1673609862.158001,16.167864,0.122605
1673609862.159008,16.168034,0.122605
1673609862.1600149,16.173491,0.122605
1673609862.161023,16.174307,0.122605
1673609862.16203,16.178682,0.122605
1673609862.1630368,16.178322,0.122605
1673609862.164044,16.17909,0.122605
1673609862.165051,16.180029,0.122605
1673609862.1660578,16.185511,0.122605
1673609862.167065,16.189596,0.122605
1673609862.168072,16.186905,0.122605
1673609862.1690788,16.185125,0.122605
1673609862.170086,16.184572,0.122605
1673609862.171093,16.182312,0.122605
1673609862.1720998,16.1845,0.122605
1673609862.173107,16.181496,0.122605
1673609862.174115,16.179981,0.122605
1673609862.175122,16.17897,0.122605
1673609862.1761289,16.177528,0.122605
1673609862.177136,16.176832,0.122605
1673609862.178143,16.182264,0.122605
1673609862.1791499,16.182985,0.122605
1673609862.180157,16.17902,0.122605
1673609862.181164,16.176422,0.122605
1673609862.1821709,16.185293,0.122605
1673609862.183178,16.188875,0.122605
1673609862.184185,16.189428,0.122605
1673609862.1851919,16.189428,0.122605
1673609862.1862,16.188034,0.122605
1673609862.187207,16.188034,0.122605
1673609862.1882138,16.190414,0.122605
1673609862.189221,16.189093,0.122605
1673609862.190228,16.189909,0.122605
1673609862.1912348,16.193851,0.122605
1673609862.192242,16.189045,0.10980381926561755
1673609862.193249,16.185343,0.07989701764425369
1673609862.1942558,16.17902,0.07499147485101311
1673609862.195263,16.178009,0.086427
1673609862.19627,16.178129,0.086427
1673609862.1972768,16.181398,0.07939238888888889
1673609862.198284,16.177408,0.06117570464839094
1673609862.199292,16.173441,0.050249
1673609862.200299,16.177288,0.06512045255126371
1673609862.2013059,16.177816,0.08769805718952611
1673609862.202313,16.176687,0.09076077571123649
1673609862.20332,16.175438,0.09382349423294686
1673609862.2043269,16.178226,0.096885487679249635
1673609862.205334,16.184958,0.09994820620096001
1673609862.206341,16.177095,0.10301092472267039
1673609862.2073479,16.176254,0.10607291816897316
1673609862.208355,16.188875,0.10913563669068353
1673609862.2093618,16.198132,0.1121976301369863
1673609862.2103689,16.19277,0.11526034865869668
1673609862.211377,16.186905,0.11832596748203747
1673609862.212384,16.188082,0.12138868600374783
1673609862.2133908,16.183538,0.12445067945005062
1673609862.214398,16.199501,0.12751339797176098
1673609862.215405,16.205776,0.13057611649347137
1673609862.2164118,16.19063,0.13363810993977412
1673609862.217419,16.187819,0.1367008284614845
1673609862.218426,16.190462,0.13976354698319488
1673609862.2194328,16.189718,0.14282554042949766
1673609862.22044,16.188467,0.14588825895120802
1673609862.221447,16.184597,0.1489509774729184
1673609862.2224538,16.187651,0.15201297091922117
1673609862.223461,16.187746,0.15507568944093156
1673609862.224469,16.187481,0.15814130826427233
1673609862.225476,16.187338,0.173187262932062
1673609862.2264829,16.18438,0.16235148330948976
1673609862.22749,16.186159,0.158783
1673609862.228497,16.189886,0.17357041511683358
1673609862.2295039,16.188948,0.19178322765196662
1673609862.230511,16.18075,0.1348383774439676
1673609862.2315178,16.183971,0.15291722985216977
1673609862.2325249,16.195246,0.097655547318236
1673609862.233532,16.196978,0.13265875751072964
1673609862.2345388,16.186424,0.1368103153126304
1673609862.2355459,16.184597,0.13225598879418252
1673609862.236554,16.193371,0.12769734946653158
1673609862.237561,16.193611,0.12314302294808369
1673609862.2385678,16.190319,0.122605
1673609862.239575,16.1889,0.13879239117997616
1673609862.240582,16.187531,0.15701032975679544
1673609862.2415888,16.195271,0.158783
1673609862.242596,16.203709,0.22505864481525625
1673609862.243603,16.204309,0.18105943824511206
1673609862.2446098,16.193924,0.17688
1673609862.245617,16.188107,0.17688
1673609862.246624,16.195246,0.15979701883643302
1673609862.2476308,16.180437,0.18133506609208236
1673609862.248638,16.167576,0.2052217078104765
1673609862.249646,16.167721,0.22913096945474032
1673609862.2566948,16.175173,0.24102639809070606
1673609862.2577019,16.181591,0.24474433033120702
1673609862.258709,16.184477,0.248462262571708
1673609862.2597158,16.185583,0.25217931461991716
1673609862.2607229,16.187193,0.25589724686041815
1673609862.261731,16.187674,0.2596186998700863
1673609862.262738,16.192482,0.2633366321105872
1673609862.2637448,16.194405,0.26705368415879643
1673609862.264752,16.195078,0.27077161639929737
1673609862.265759,16.198059,0.27448954863979835
1673609862.2667658,16.198397,0.27820660068800757
1673609862.267773,16.186857,0.2819245329285085
1673609862.26878,16.181231,0.2856424651690095
1673609862.2697868,16.178442,0.2893595172172187
1673609862.270794,16.170965,0.29307744945771963
1673609862.271801,16.168634,0.2967953816982206
1673609862.2728078,16.171783,0.30051243374642983
1673609862.273815,16.172216,0.30423036598693076
1673609862.274823,16.171133,0.3079518189965989
1673609862.2758298,16.171711,0.31166887104480806
1673609862.2768369,16.173683,0.31538680328530905
1673609862.277844,16.165268,0.31910473552581003
1673609862.2788508,16.171133,0.3228217875740192
1673609862.2798579,16.176542,0.3265397198145202
1673609862.280865,16.177866,0.33025765205502117
1673609862.2818718,16.186207,0.3339747041032303
1673609862.2828789,16.179884,0.3376926363437313
1673609862.283886,16.181591,0.34141056858423224
1673609862.2848928,16.179523,0.34512762063244146
1673609862.2858999,16.169764,0.34884555287294244
1673609862.286908,16.186472,0.3525670058826106
1673609862.287915,16.201258,0.3562849381231115
1673609862.2889218,16.18854,0.36000199017132073
1673609862.289929,16.189886,0.3637199224118217
1673609862.290936,16.198973,0.36743785465232265
1673609862.2919428,16.193491,0.37115490670053186
1673609862.29295,16.180487,0.3748728389410328
1673609862.293957,16.182482,0.3785907711815338
1673609862.2949638,16.187914,0.382307823229743
1673609862.295971,16.186953,0.3860257554702439
1673609862.296978,16.177433,0.3897436877107449
1673609862.2979848,16.178009,0.3934607397589541
1673609862.298992,16.180342,0.39717867199945506
1673609862.3,16.180294,0.4009001250091232
1673609862.3010068,16.184525,0.40461717705733236
1673609862.3020139,16.18527,0.40833510929783334
1673609862.303021,16.180414,0.4121150262279447
1673609862.3040278,16.177746,0.4477541702432046
1673609862.3050349,16.177505,0.393957
1673609862.306042,16.18087,0.393957
1673609862.3070488,16.181519,0.393957
1673609862.313092,16.186184,0.4682263866542972
1673609862.3140988,16.185991,0.4530380261745411
1673609862.315106,16.186039,0.43784606911404145
1673609862.316113,16.187193,0.4480818192656176
1673609862.3171198,16.184837,0.47541825679542205
1673609862.318127,16.188179,0.4869734765556703
1673609862.319134,16.188564,0.4920337388142732
1673609862.3201408,16.181831,0.4970928030941217
1673609862.321148,16.195126,0.5021530653527245
1673609862.322155,16.200968,0.5072133276113274
1673609862.3453178,16.177,0.6489500163099432
1673609862.346325,16.17522,0.6514341540287185
1673609862.347332,16.180317,0.6539182917474939
1673609862.3483388,16.186184,0.6564018413654836
1673609862.349346,16.179573,0.658885979084259
1673609862.350354,16.17313,0.6613724692061772
1673609862.3513608,16.181038,0.6638560188241669
1673609862.3523679,16.183418,0.6663401565429423
1673609862.353375,16.183876,0.6688242942617177
1673609862.3543818,16.188755,0.6713078438797074
1673609862.3553889,16.187361,0.6737919815984829
1673609862.356396,16.178659,0.6762761193172582
1673609862.3574028,16.181376,0.678759668935248
1673609862.35841,16.194502,0.6812438066540233
1673609862.359417,16.19491,0.6837279443727987
1673609862.3604238,16.198492,0.6862114939907884
1673609862.361431,16.197891,0.6886956317095638
1673609862.362439,16.186905,0.691182121831482
1673609862.363446,16.178179,0.6936662595502574
1673609862.3644528,16.170605,0.6961498091682471
1673609862.36546,16.165533,0.6986339468870225
1673609862.366467,16.170076,0.7011180846057978
1673609862.3674738,16.177696,0.701488
1673609862.368481,16.173658,0.670234347556615
1673609862.369488,16.170965,0.6495543688602766
1673609862.3704948,16.172577,0.69486313018598
1673609862.371502,16.171495,0.6694754288438617
1673609862.372509,16.164066,0.6814451809728183
1673609862.3735158,16.157791,0.7321869709108251
1673609862.374523,16.169739,0.6885095184743742
1673609862.375531,16.178562,0.7495342436814496
1673609862.3765378,16.177576,0.7392016058882093
1673609862.3775449,16.175821,0.7210878490968567
1673609862.378552,16.177408,0.7029740923055041
1673609862.3795588,16.176134,0.6848646238088465
1673609862.380566,16.176374,0.666750867017494
1673609862.381573,16.17861,0.7156176051502146
1673609862.3825798,16.187458,0.7364747232419547
1673609862.383587,16.191641,0.7036277539341917
1673609862.384594,16.1889,0.7186367515498331
1673609862.3856008,16.18491,0.7713937759237187
1673609862.386608,16.179548,0.7768778658947434
1673609862.387616,16.179716,0.780049249385813
1673609862.5024228,16.167721,1.5843543603580685
1673609862.50343,16.169596,1.5819245848345602
1673609862.504437,16.16861,1.5794948093110521
1673609862.5054438,16.163033,1.5770656090184918
1673609862.506451,16.159426,1.5746358334949835
1673609862.507458,16.161566,1.5722060579714754
1673609862.5084648,16.168009,1.5701434028605483
1673609862.509472,16.172096,1.5888061177873152
1673609862.510479,16.158585,1.621196989985694
1673609862.5114858,16.148897,1.5364457597139451
1673609862.512493,16.154402,1.6065089585049612
1673609862.513501,16.159931,1.6177606905829596
1673609862.514508,16.16111,1.6290017776921049
1673609862.5155149,16.166109,1.6402402035590367
1673609862.516522,16.182842,1.6514812906681817
1673609862.517529,16.18914,1.6627223777773268
1673609862.5185359,16.172577,1.6739608036442588
1673609862.519543,16.157045,1.6852018907534039
1673609862.52055,16.163874,1.696442977862549
1673609862.5215569,16.165796,1.7076814037294807
1673609862.522564,16.159763,1.718922490838626
1673609862.523571,16.156662,1.730163577947771
1673609862.5245779,16.158176,1.741402003814703
1673609862.525586,16.159666,1.7526537358927015
1673609862.526593,16.163874,1.7638948230018465
1673609862.5275998,16.175606,1.7751332488687783
1673609862.528607,16.170462,1.7863743359779234
1673609862.529614,16.16094,1.7976154230870687
1673609862.5306208,16.15493,1.8088538489540005
1673609862.531628,16.148344,1.8200949360631455
1673609862.532635,16.15284,1.8313360231722906
1673609862.5336418,16.156301,1.8425744490392224
1673609862.534649,16.147766,1.8538155361483677
1673609862.535656,16.129761,1.8650566232575128
1673609862.5366628,16.130337,1.8762950491244446
1673609862.53767,16.138031,1.8875361362335896
1673609862.538678,16.146011,1.8987878683115882
1673609862.539685,16.1507,1.9100289554207333
1673609862.5406919,16.162575,1.921267381287665
1673609862.541699,16.180462,1.9325084683968101
1673609862.542706,16.191616,1.9437495555059554
1673609862.5437129,16.178009,1.9549879813728872
1673609862.54472,16.165726,1.9662290684820323
1673609862.545727,16.164715,1.9774701555911776
1673609862.5467339,16.161661,1.9887085814581094
1673609862.547741,16.16688,1.9999496685672544
1673609862.548748,16.169067,2.0111907556763997
1673609862.5497549,16.164667,2.0224291815433313
1673609862.550763,16.160557,2.03368091362133
1673609862.55177,16.156301,2.044922000730475
1673609862.5527768,16.157286,2.056160426597407
1673609862.553784,16.157864,2.0674015137065522
1673609862.554791,16.161661,2.078642600815697
1673609862.5557978,16.170389,2.0898810266826287
1673609862.556805,16.168201,2.101122113791774
1673609862.557812,16.164354,2.1123632009009192
1673609862.5588188,16.149881,2.123601626767851
1673609862.559826,16.147165,2.137467462327134
1673609862.560833,16.138702,2.148703
1673609862.5618398,16.13892,2.1629154777115613
1673609862.562847,16.140915,2.1993470243204576
1673609862.563855,16.140482,2.221059
1673609862.564862,16.13488,2.236073516805721
1673609862.5658689,16.141373,2.2648706103958034
1673609862.566876,16.148487,2.275335
1673609862.567883,16.145651,2.267444358283671
1673609862.5688899,16.139496,2.2669936538617925
1673609862.569897,16.143848,2.2891864949561445
1673609862.570904,16.172409,2.3113793360504964
1673609862.5719109,16.177168000000002,2.3335669231578473
1673609862.572918,16.163177,2.3557597642521992
1673609862.573925,16.16671,2.377952605346551
1673609862.5749319,16.167721,2.4001401924539016
1673609862.57594,16.170677,2.42235404949626
1673609862.576947,16.176062,2.444546890590612
1673609862.5779538,16.168442,2.4667344776979623
1673609862.578961,16.159378,2.4889273187923147
1673609862.579968,16.158176,2.5111201598866666
1673609862.5809748,16.160099,2.533307746994017
1673609862.581982,16.162384,2.555500588088369
1673609862.582989,16.159378,2.5776934291827214
1673609862.5839958,16.154858,2.599881016290072
1673609862.585003,16.14505,2.622073857384424
1673609862.58601,16.144304,2.6442666984787757
1673609862.5870168,16.153896,2.666454285586126
1673609862.588024,16.160219,2.688647126680478
1673609862.589032,16.159716,2.7108609837228363
1673609862.590039,16.160917,2.7330538248171887
1673609862.5910459,16.177265,2.755241411924539
1673609862.592053,16.184404,2.777434253018891
1673609862.59306,16.176495,2.799627094113243
1673609862.5940669,16.162024,2.8218146812205935
1673609862.595074,16.153463,2.844007522314946
1673609862.596081,16.144184,2.866200363409298
1673609862.5970879,16.135025,2.8883879505166483
1673609862.598095,16.142021,2.9105807916110003
1673609862.599102,16.164452,2.9327736327053526
1673609862.6001089,16.177433,2.954961219812703
1673609862.601117,16.173851,2.977175076855061
1673609862.602124,16.169764,2.999367917949413
1673609862.6031308,16.16272,3.0215555050567637
1673609862.604138,16.152935,3.0437483461511157
1673609862.605145,16.155243,3.0659411872454676
1673609862.6061518,16.154737,3.1265641909415973
1673609862.607159,16.154066,3.143659
1673609862.608166,16.16123,3.157732535288507
1673609862.6091728,16.16647,3.1901384591179975
1673609862.639386,16.162815,3.7283630120595492
1673609862.640393,16.159283,3.7465813321504813
1673609862.6413999,16.163778,3.764795339192149
1673609862.642407,16.164066,3.783013659283081
1673609862.643414,16.158056,3.8012319793740126
1673609862.6444209,16.154016,3.8194459864156802
1673609862.645428,16.158056,3.8376643065066123
1673609862.646435,16.160364,3.855882626597544
1673609862.6474419,16.158392,3.874096633639212
1673609862.648449,16.162071,3.8923149537301436
1673609862.649456,16.159018,3.910533273821075
1673609862.6504629,16.156254,3.9287472808627433
1673609862.651471,16.159065,3.9469828531507307
1673609862.6595268,16.167913,4.092716474730393
1673609862.660534,16.174404,4.110934794821325
1673609862.661541,16.184259,4.129153114912256
1673609862.6625478,16.174307,4.147367121953924
1673609862.663555,16.153536,4.165585442044856
1673609862.664563,16.145699,4.183821014332844
1673609862.66557,16.16111,4.202039334423776
1673609862.6665769,16.160604,4.220253341465443
1673609862.667584,16.142309,4.238471661556376
1673609862.668591,16.138559,4.256689981647307
1673609862.6695979,16.151325,4.274903988688974
1673609862.670605,16.162119,4.2735607654203385
1673609862.680676,16.169909,4.439058122688003
1673609862.6816828,16.167143,4.434628955470516
1673609862.68269,16.169619,4.430198739432945
1673609862.683697,16.161854,4.484501465665236
1673609862.6847038,16.154737,4.527069395709177
1673609862.685711,16.148607,4.528166955412494
1673609862.686718,16.151012,4.546385347401049
1673609862.6877248,16.154858,4.584415190941597
1673609862.688732,16.153753,4.62902780828038
1673609862.68974,16.147093,4.665498729384569
1673609862.690747,16.140242,4.7019351463060675
1673609862.6917539,16.145796,4.7383629371818925
1673609862.6977959,16.156685,4.956964186619536
1673609862.698803,16.15885,4.993400603541033
1673609862.69981,16.14945,5.029837020462532
1673609862.7008169,16.146492,5.066264811338357
1673609862.701825,16.151686,5.102735732442546
1673609862.702832,16.15522,5.139172149364044
1673609862.7038388,16.166134,5.17559994023987
1673609862.704846,16.173201,5.2120363571613675
1673609862.705853,16.165916,5.248472774082866
1673609862.7068598,16.153248,5.284900564958691
1673609862.707867,16.149858,5.321336981880189
1673609862.708874,16.147118,5.357773398801688
1673609862.7098808,16.142406,5.394201189677513
1673609862.710888,16.145411,5.430637606599011
1673609862.711895,16.155676,5.467074023520508
1673609862.7129018,16.1607,5.503501814396334
1673609862.713909,16.161854,5.539938231317833
1673609862.714917,16.161037,5.576409152422022
1673609862.715924,16.154955,5.612845569343519
1673609862.7199519,16.171133,5.758573984938167
1673609862.720959,16.169596,5.795010401859664
1673609862.721966,16.1607,5.8314468187811626
1673609862.7229729,16.12923,5.867874609656988
1673609862.72398,16.110023,5.904311026578486
1673609862.7249868,16.111177,5.940738817454312
1673609862.7259939,16.101175,5.977175234375809
1673609862.727002,16.0893,6.013646155479998
1673609862.728009,16.09483,6.050082572401497
1673609862.7290158,16.109831,6.086510363277322
1673609862.730023,16.107185,6.12294678019882
1673609862.73103,16.113773,6.159383197120318
1673609862.7320368,16.13916,6.195810987996143
1673609862.733044,16.151999,6.232247404917642
1673609862.734051,16.167721,6.26868382183914
1673609862.7350578,16.184429,6.352917261325703
1673609862.736065,16.22883,6.363701
1673609862.737072,16.237799,6.3798922508345255
1673609862.7380788,16.1964,6.414414880572109
1673609862.739086,16.179668,6.4508508173581305
1673609862.740094,16.169571,6.503917494992847
1673609862.741101,16.176567,6.541848843623361
1673609862.7421079,16.187458,6.5446
1673609862.743115,16.186014,6.578535205531711
1673609862.744122,16.182817,6.590496407263529
1673609862.7451289,16.177816,6.600849796232722
1673609862.746136,16.167841,6.611205636868732
1673609862.7471428,16.168322,6.621559025837926
1673609862.7481499,16.171158,6.631914866473936
1673609862.749157,16.170052,6.635053
1673609862.7501638,16.159451,6.660698492131616
1673609862.7511709,16.147406,6.697129101072705
1673609862.752179,16.146564,6.7466989227467815
1673609862.753186,16.145603,6.774908861230329
1673609862.7541928,16.142647,6.793119758045292
1673609862.7552,16.136106,6.820918395749777
1673609862.756207,16.154787,6.852091888594544
1673609862.7572138,16.179333,6.883258001351044
1673609862.758221,16.163826,6.914431494195812
1673609862.759228,16.168657,6.945604987040579
1673609862.7602348,16.17498,6.976771099797079
1673609862.761242,16.164619,7.007944592641847
1673609862.762249,16.159113,7.039118085486614
1673609862.7632558,16.154427,7.070284198243114
1673609862.764263,16.15659,7.101457691087882
1673609862.765271,16.164234,7.132660704285723
1673609862.766278,16.164715,7.16383419713049
1673609862.7672849,16.157215,7.19500030988699
1673609862.768292,16.152767,7.226173802731758
1673609862.7692988,16.157383,7.257339915488257
1673609862.7703059,16.156061,7.288513408333025
1673609862.771313,16.150339,7.319686901177793
1673609862.7723198,16.161661,7.350853013934292
1673609862.7733269,16.186567,7.38202650677906
1673609862.774334,16.20479,7.413199999623828
1673609862.7753408,16.199286,7.444366112380328
1673609862.7763479,16.176302,7.475539605225095
1673609862.777356,16.158249,7.506742618422935
1673609862.778363,16.152382,7.5379161112677036
1673609862.7793698,16.161831,7.569082224024203
1673609862.780377,16.170702,7.60025571686897
1673609862.781384,16.158752,7.631429209713739
1673609862.7823908,16.163418,7.662595322470238
1673609862.783398,16.151974,7.693768815315005
1673609862.784405,16.130962,7.724942308159774
1673609862.7854118,16.132933,7.756108420916273
1673609862.786419,16.156494,7.787281913761041
1673609862.787426,16.1651,7.818455406605809
1673609862.7884328,16.152863,7.849621519362308
1673609862.78944,16.150532,7.880795012207075
1673609862.790448,16.151638,7.911998025404916
1673609862.7914548,16.150795,7.943164138161416
1673609862.7924619,16.143175,7.9743376310061835
1673609862.793469,16.131731,8.005511123850951
1673609862.7944758,16.132021,8.036677236607451
1673609862.7954829,16.13315,8.06785072945222
1673609862.79649,16.129496,8.099024222296986
1673609862.7974968,16.125193,8.130190335053486
1673609862.7985039,16.119736,8.161363827898255
1673609862.799511,16.119711,8.197896750893921
1673609862.8005178,16.131659,8.317434
1673609862.8015249,16.136707,8.318697798283262
1673609862.802533,16.156397,8.36773598016336
1673609862.80354,16.176495,8.419850083625048
1673609862.8045468,16.177265,8.46390122209257
1673609862.805554,16.159113,8.479105655775962
1673609862.806561,16.13327,8.524062831648523
1673609862.8075678,16.124567,8.476436577491654
1673609862.808575,16.136587,8.598106493107457
1673609862.809582,16.149881,8.676368001826939
1673609862.8105888,16.152863,8.754610982727122
1673609862.811596,16.165749,8.832872491446603
1673609862.812603,16.168898,8.911134000166085
1673609862.8136098,16.161781,8.989376981066268
1673609862.814617,16.155268,9.06763848978575
1673609862.815625,16.14267,9.145974109782427
1673609862.8166318,16.150051,9.224217090682611
1673609862.8176389,16.159836,9.27877396137339
1673609862.818646,16.166327,9.28384612732475
1673609862.8196528,16.164547,9.31853180639008
1673609862.8206599,16.152815,9.359274790703218
1673609862.821667,16.143871,9.41000008059132
1673609862.8226738,16.130577,9.493819507153075
1673609862.8236809,16.109373,9.562730653158523
1673609862.824688,16.112427,9.594955972341442
1673609862.8256948,16.131468,9.647192846685742
1673609862.8267019,16.139568,9.715973257252578
1673609862.82771,16.145025,9.78240208149624
1673609862.828717,16.143007,9.848768059170137
1673609862.8297238,16.139545,9.915118325201592
1673609862.830731,16.145435,9.981484302875486
1673609862.831738,16.171566,10.047850280549383
1673609862.8327448,16.187626,10.114200546580836
1673609862.833752,16.191568,10.180566524254733
1673609862.834759,16.1889,10.246932501928628
1673609862.8357658,16.183418,10.313282767960082
1673609862.836773,16.176111,10.379648745633977
1673609862.83778,16.166639,10.446014723307874
1673609862.8387868,16.163754,10.512364989339329
1673609862.839794,16.162815,10.578730967013223
1673609862.840802,16.154642,10.645159791256887
1673609862.8418088,16.131996,10.71151005728834
1673609862.8428159,16.122667,10.777876034962237
1673609862.843823,16.117981,10.844242012636132
1673609862.8448298,16.114782,10.910592278667586
1673609862.8458369,16.139088,10.976958256341483
1673609862.846844,16.210705,11.043324234015378
1673609862.8478508,16.23489,11.109674500046832
1673609862.8488579,16.218325,11.176040477720727
1673609862.849865,16.211306,11.242406455394624
1673609862.8508718,16.204527,11.308756721426079
1673609862.851879,16.181208,11.375122699099974
1673609862.852887,16.150242,11.441551523343637
1673609862.853894,16.158512,11.507917501017532
1673609862.8549008,16.163393,11.519387
1673609862.855908,16.132189,11.564971797567953
1673609862.856915,16.115047,11.650264980214542
1673609862.8579218,16.109974,11.756786226752503
1673609862.858929,16.151421,11.788224621363854
1673609862.859936,16.199741,11.86924052228844
1673609862.8609428,16.200079,11.94449055937053
1673609862.86195,16.176687,11.953549
1673609862.862957,16.155268,12.033947840047677
1673609862.8639638,16.152334,12.043995
1673609862.864971,16.158176,12.043995
1673609862.865979,16.154089,12.043995
1673609862.8669858,16.148367,12.043995
1673609862.8679929,16.137669,12.110947349546972
1673609862.869,16.126707,12.197691169766333
1673609862.8700068,16.113653,12.259130589511322
1673609862.8710139,16.10531,12.313059982163256
1673609862.872021,16.119423,12.366576060166098
1673609862.8730278,16.16082,12.420079468642896
1673609862.874035,16.210344,12.473595546645738
1673609862.875042,16.219408,12.52711162464858
1673609862.8760488,16.189646,12.580615033125378
1673609862.877056,16.155771,12.63413111112822
1673609862.878064,16.16707,12.68769786723523
1673609862.879071,16.199286,12.741213945238071
1673609862.8800778,16.218567,12.79471735371487
1673609862.881085,16.205584,12.848233431717711
1673609862.882092,16.192675,12.901749509720553
1673609862.8830988,16.204334,12.95525291819735
1673609862.884106,16.267849,13.008768996200192
1673609862.885113,16.309439,13.062285074203034
1673609862.8861198,16.281672,13.115788482679832
1673609862.887127,16.220442,13.169304560682674
1673609862.888134,16.139135,13.222820638685516
1673609862.8891408,16.110767,13.276324047162314
1673609862.890148,16.128414,13.329840125165155
1673609862.891156,16.123798,13.383406881272165
1673609862.8921628,16.118004,13.436910289748964
1673609862.8931699,16.12714,13.490426367751805
1673609862.894177,16.136106,13.543942445754647
1673609862.8951838,16.145075,13.597445854231445
1673609862.896191,16.148127,13.650961932234287
1673609862.897198,16.143631,13.704478010237128
1673609862.8982048,16.13529,13.757981418713927
1673609862.899212,16.132189,13.811497496716768
1673609862.900219,16.133583,13.865013574719608
1673609862.9012258,16.136395,13.918516983196408
1673609862.902233,16.143801,13.972033061199248
1673609862.903241,16.1513,14.02559981730626
1673609862.904248,16.146852,14.079115895309101
1673609862.9052548,16.131804,14.1326193037859
1673609862.906262,16.118437,14.186135381788741
1673609862.907269,16.118534,14.239651459791581
1673609862.9082758,16.120432,14.293154868268381
1673609862.909283,16.123894,14.346670946271221
1673609862.91029,16.133318,14.400187024274063
1673609862.9112968,16.137573,14.453690432750863
1673609862.912304,16.150459,14.507206510753702
1673609862.913311,16.170317,14.560722588756544
1673609862.9143178,16.180197,14.614225997233344
1673609862.915325,16.172577,14.667742075236184
1673609862.916333,16.168129,14.721308831343194
1673609862.9173398,16.168802,14.774812239819994
1673609862.918347,16.166349,14.828328317822836
1673609862.919354,16.153416,14.865266220314734
1673609862.9203608,16.140627,14.90168704386174
1673609862.921368,16.140722,15.00345898905908
1673609862.922375,16.150845,15.012364361050327
1673609862.9233818,16.16897,15.031650712195123
1673609862.924389,16.172287,15.10837478902439
1673609862.925396,16.177095,15.22090135897436
1673609862.9264028,16.200294,15.192122356097562
1673609862.92741,16.217844,15.254486943902439
1673609862.935467,16.205751,16.129201439626197
1673609862.9364738,16.191954,16.174959627173447
1673609862.937481,16.195005,16.220728650190157
1673609862.938488,16.192915,16.26649767320687
1673609862.9394948,16.173754,16.31225586075412
1673609862.940502,16.16118,16.358024883770835
1673609862.94151,16.145145,16.403837248665404
1673609862.9425168,16.132622,16.44959543621265
1673609862.943524,16.146732,16.495364459229364
1673609862.944531,16.156902,16.541133482246078
1673609862.950573,16.140627,16.815725949407426
1673609862.9515798,16.139977,16.861484136954676
1673609862.952587,16.128414,16.90725315997139
1673609862.953595,16.1231,16.95306552486596
1673609862.954602,16.135386,16.998834547882673
1673609862.9556088,16.183226,17.04459273542992
1673609862.956616,16.201618,17.090361758446633
1673609862.957623,16.168705,17.136130781463347
1673609862.9586298,16.149281,17.181888969010597
1673609862.959637,16.149401,17.227657992027307
1673609862.960644,16.167023,17.27342701504402
1673609862.9616508,16.166975,17.31918520259127
1673609862.962658,16.157623,17.364954225607985
1673609862.963665,16.13916,17.410723248624695
1673609862.9646719,16.120049,17.456481436171945
1673609862.965679,16.12738,17.50225045918866
1673609862.966687,16.14291,17.548062824083228
1673609862.9676938,16.155436,17.593821011630478
1673609862.968701,16.163754,17.63959003464719
1673609862.969708,16.164282,17.685359057663902
1673609862.9707148,16.157166,17.731117245211152
1673609862.971722,16.172287,17.776886268227866
1673609862.972729,16.206234,17.848346934969033
1673609862.9737358,16.224407,17.89755838045292
1673609862.974743,16.182577,17.894604948210024
1673609862.97575,16.145555,17.897832595851217
1673609862.9767568,16.132885,17.92687729959514
1673609862.977764,16.130625,17.974260110157367
1673609862.978772,16.136539,18.04012152386635
1673609862.979779,16.137478,18.090492159799954
1673609862.9807858,16.150915,18.126903607057702
1673609862.981793,16.182817,18.137470275303887
1673609862.9828,16.18438,18.132872373269947
1673609863.019055,16.150002,19.302824464277712
1673609863.020062,16.099806,19.336710505505092
1673609863.0210688,16.101536,19.37058852446892
1673609863.022076,16.133463,19.404474565696304
1673609863.023083,16.142189,19.438360606923684
1673609863.0240898,16.149208,19.472238625887513
1673609863.025097,16.175558,19.506124667114896
1673609863.026104,16.192362,19.540010708342276
1673609863.0271108,16.19878,19.573888727306105
1673609863.028118,16.204695,19.60777476853349
1673609863.029126,16.202579,19.64169289881506
1673609863.030133,16.18664,19.67557894004244
1673609863.0311399,16.171856,19.70945695900627
1673609863.032147,16.170773,19.74334300023365
1673609863.033154,16.175653,19.77722904146103
1673609863.0341609,16.168154,19.811107060424863
1673609863.035168,16.169403,19.844993101652243
1673609863.036175,16.181761,19.879018161620976
1673609863.0371819,16.221739,19.91432108416786
1673609863.038189,16.213158,19.948530021303576
1673609863.039196,16.197674,19.983571346690336
1673609863.0402029,16.220322,20.05899553411108
1673609863.041211,16.300713,19.9987079527897
1673609863.042218,16.320642,20.121417746781116
1673609863.0432248,16.286961,20.049323379022645
1673609863.04826,16.190269,20.20485501056809
1673609863.0492668,16.1607,20.22876739072215
1673609863.050274,16.122667,20.2526854332916
1673609863.051281,16.130674,20.276603475861045
1673609863.0522878,16.163008,20.30051585601511
1673609863.053295,16.171206,20.324433898584555
1673609863.054303,16.176062,20.348374590815524
1673609863.05531,16.18474,20.372292633384973
1673609863.0563169,16.18462,20.396205013539035
1673609863.057324,16.175365,20.420123056108483
1673609863.058331,16.170845,20.44404109867793
1673609863.0593379,16.167744,20.467953478831994
1673609863.060345,16.172119,20.49187152140144
1673609863.061352,16.186232,20.515789563970884
1673609863.0623589,16.193804,20.53970194412495
1673609863.063366,16.184357,20.563619986694395
1673609863.064373,16.175365,20.58753802926384
1673609863.0653799,16.167648,20.611450409417905
1673609863.066388,16.171686,20.635391101648874
1673609863.067395,16.166903,20.659309144218323
1673609863.0684018,16.164715,20.683221524372385
1673609863.069409,16.159643,20.707139566941834
1673609863.070416,16.146156,20.73105760951128
1673609863.0714228,16.146852,20.754969989665344
1673609863.07243,16.167841,20.77888803223479
1673609863.073437,16.189934,20.802806074804234
1673609863.0744438,16.201569,20.8267184549583
1673609863.075451,16.20859,20.850636497527745
1673609863.076458,16.201258,20.874554540097193
1673609863.0774648,16.190847,20.898466920251256
1673609863.078472,16.215368,20.9223849628207
1673609863.07948,16.223423,20.946325655051673
1673609863.080487,16.200224,20.970243697621118
1673609863.4611628,16.262728,35.42211899523128
1673609863.46217,16.274292,35.434532
1673609863.463177,16.315113,35.422395031473535
1673609863.4641838,16.393557,35.416443
1673609863.465191,16.389399,35.428831485578065
1673609863.466198,16.348097,35.44704644253696
1673609863.4672048,16.301819,35.490543490701
1673609863.468212,16.205368,35.48134940429082
1673609863.46922,16.113628,35.470707
1673609863.470227,16.107403,35.478287743902435
1673609863.4712338,16.095526,35.48887421265244
1673609863.472241,16.098507,35.4994631882622
1673609863.475262,16.184572,35.54973973987613
1673609863.476269,16.165821,35.51914943647199
1673609863.4772758,16.179501,35.51878406723891
1673609863.478283,16.189068,35.543072
1673609863.47929,16.182505,35.541692581896214
1673609863.4802969,16.175125,35.53764443550823
1673609863.481304,16.167793,35.533595330525316
1673609863.482312,16.165941,35.52954239116268
1673609863.4833188,16.155148,35.5254942447747
1673609863.484326,16.117428,35.52144513979179
1673609863.485333,16.080141,35.51739603480887
1673609863.4863398,16.067904,35.51334788842089
1673609863.487347,16.089108,35.50929878343797
1673609863.488354,16.102089,35.492160784692416
1673609863.4893608,16.123821,35.478192698212155
1673609863.490368,16.214142,35.458347014544586
1673609863.491375,16.330547,35.416443
1673609863.4923818,16.424786,35.40857784243146
1673609863.493389,16.414858,35.38236579995231
1673609863.494397,16.371199,35.35402047422434
1673609863.495404,16.354612,35.29440884730824
1673609863.4964108,16.299992,35.25232116352801
1673609863.497418,16.223158,35.25563093942391
1673609863.498425,16.162792,35.22121857695636
1673609863.4994318,16.12536,35.18681436135493
1673609863.500439,16.10531,35.15240199888738
1673609863.501446,16.117788,35.11798963641983
1673609863.5024529,16.148176,35.083585420818395
1673609863.50346,16.18063,35.049173058350846
1673609863.504467,16.200895,35.0147606958833
1673609863.5054739,16.193684,34.98035648028186
1673609863.506481,16.199766,34.945944117814314
1673609863.507489,16.188515,34.911499167882305
1673609863.5084958,16.177746,34.87709495228087
1673609863.509503,16.215153,34.84268258981332
1673609863.51051,16.224094,34.80827022734578
1673609863.5115168,16.207483,34.77386601174434
1673609863.512524,16.195126,34.7394536492768
1673609863.513531,16.159956,34.70504128680925
1673609863.53468,16.169668,33.74485174053733
1673609863.535687,16.16046,33.67752853856012
1673609863.5366938,16.193035,33.61022127484095
1673609863.537701,16.222725,33.54289807286375
1673609863.538708,16.23703,33.47557487088654
1673609863.5397148,16.261646,33.408267607167375
1673609863.540722,16.286072,33.34094440519017
1673609863.541729,16.228783,33.27362120321296
1673609863.5427358,16.134472,33.206313939493796
1673609863.543743,16.091728,33.13899073751659
1673609863.544751,16.16498,33.07160378250721
1673609863.545758,16.222219,33.00428058053
1673609863.5467649,16.199213,32.936973316810835
1673609863.553814,16.157623,32.46883763361144
1673609863.554821,16.163801,32.49991751573677
1673609863.5558279,16.179741,32.396179604196476
1673609863.556836,16.203108,32.4106550829559
1673609863.557843,16.200705,32.35708028636147
1673609863.5588498,16.189934,32.3194602546495
1673609863.559857,16.178202,32.26743751632896
1673609863.560864,16.17135,32.24488777229375
1673609863.605175,16.172264,31.27378780792861
1673609863.6061819,16.170845,31.254970488694024
1673609863.60719,16.176447,31.236130889896053
1673609863.608197,16.185823,31.21730911474879
1673609863.6092038,16.177505,31.198491795514204
1673609863.610211,16.152094,31.17967002036694
1673609863.611218,16.144402,31.16084824521968
1673609863.6122248,16.142189,31.142030925985093
1673609863.613232,16.153296,31.12320915083783
1673609863.614239,16.15332,31.104387375690568
1673609863.6152458,16.159956,31.085570056455982
1673609863.616253,16.168369,31.06674828130872
1673609863.61726,16.177626,31.047926506161456
1673609863.6182668,16.198227,31.02910918692687
1673609863.619274,16.221138,31.010287411779608
1673609863.620282,16.230129,30.99144781298164
1673609863.621289,16.218084,30.972626037834377
1673609863.6222959,16.22258,30.95380871859979
1673609863.623303,16.218687,30.93498694345253
1673609863.62431,16.232462,30.916165168305266
1673609863.6253169,16.256044,30.89734784907068
1673609863.626324,16.22121,30.878526073923418
1673609863.627331,16.153248,30.859704298776155
1673609863.6283379,16.140627,30.84088697954157
1673609863.629345,16.171806,30.822065204394306
1673609863.630352,16.1632,30.803243429247043
1673609863.6313589,16.148705,30.784426110012458
1673609863.632367,16.136948,30.765586511214487
1673609863.633374,16.160147,30.746764736067224
1673609863.7814138,16.239769,29.157257
1673609863.7824209,16.263401000000002,29.15040353767287
1673609863.783429,16.286745,29.140013711359806
1673609863.784436,16.312204,29.142214749427474
1673609863.7854428,16.286793,29.144415266416054
1673609863.78645,16.22299,29.146616304483718
1673609863.787457,16.19455,29.148817342551386
1673609863.7884638,16.195246,29.151017859539962
1673609863.789471,16.207458,29.15321889760763
1673609863.790478,16.194645,29.155419935675294
1673609863.7914848,16.187841,29.157620452663874
1673609863.792492,16.189934,29.15982149073154
1673609863.793499,16.178539,29.162022528799206
1673609863.7945058,16.169283,29.164223045787786
1673609863.795513,16.162695,29.16642408385545
1673609863.7985349,16.194935,29.173028761295715
1673609863.799542,16.304728,29.17522979936338
1673609863.8005488,16.348745,29.22710184167859
1673609863.8015559,16.363722,29.160086332379592
1673609863.802563,16.400167,29.10471610824988
1673609863.8035698,16.384998,29.138253645768774
1673609863.8045769,16.321459,29.139168
1673609863.805584,16.240322,29.139168
1673609863.8065908,16.140602,29.139168
1673609863.8075979,16.032612,29.13911624034335
1673609863.808606,16.049007,29.1210419222333
1673609863.809613,16.108099,29.117729042091117
1673609863.8106198,16.07889,29.114416946248213
1673609863.811627,16.073338,29.11110406610603
1673609863.812634,16.116322,29.107791185963848
1673609863.8297539,16.146925,29.16297434851966
1673609863.830761,16.223085,29.167942478564306
1673609863.8317678,16.293356,29.172909432441806
1673609863.8327749,16.2791,29.177877562486454
1673609863.833783,16.282249,29.182850397199704
1673609863.83479,16.29867,29.187818527244353
1673609863.8357968,16.286167,29.192785481121852
1673609863.836804,16.280302,29.1977536111665
1673609863.837811,16.250299,29.20272174121115
1673609863.8388178,16.196497,29.207688695088645
1673609863.8509028,16.166086,29.26031166974801
1673609863.8519099,16.159859,29.257917198365323
1673609863.852917,16.147045,29.255522726982637
1673609863.8539238,16.191328,29.25312882247291
1673609863.8549309,16.210705,29.250734351090223
1673609863.855938,16.183586,29.248339879707533
1673609863.8569448,16.164209,29.24594597519781
1673609863.8579519,16.175268,29.24355150381512
1673609863.85896,16.214167,29.241154764940593
1673609863.859967,16.212387,29.238760293557906
1673609863.8609738,16.131804,29.23636638904818
1673609863.861981,16.074852,29.233971917665492
1673609863.862988,16.104013,29.231577446282806
1673609863.8639948,16.161831,29.22918354177308
1673609863.865002,16.194454,29.226789070390392
1673609863.866009,16.20467,29.224394599007706
1673609863.8670158,16.252993,29.22200069449798
1673609863.868023,16.284389,29.219606223115292
1673609863.86903,16.350117,29.217211751732602
1673609863.8700368,16.381344,29.214817847222875
1673609863.871044,16.365767,29.21242337584019
1673609863.872052,16.324057,29.21002663696566
1673609863.8730588,16.250805,29.207632732455934
1673609863.8740659,16.223398,29.205238261073248
1673609863.875073,16.154737,29.20284378969056
1673609863.8760798,16.091993,29.200449885180834
1673609863.8770869,16.064827,29.198055413798148
1673609863.878094,16.08882,29.19566094241546
1673609863.8791008,16.095045,29.193267037905734
1673609863.8801079,16.100552,29.190872566523048
1673609863.881115,16.125288,29.188478095140358
1673609863.8821218,16.1745,29.18608419063063
1673609863.883129,16.201859,29.183689719247944
1673609863.884137,16.198612,29.181292980373417
1673609863.885144,16.209503,29.17889850899073
1673609863.8861508,16.205873,29.176504604481003
1673609863.908306,16.171085,29.117113171024847
1673609863.909314,16.197771,29.116323306401235
1673609863.910321,16.214046,29.115534189047843
1673609863.9113278,16.187433,29.114745258512006
1673609863.912335,16.171879,29.113956141158614
1673609863.913342,16.16873,29.11316702380522
1673609863.9143488,16.144882,29.112378093269385
1673609863.915356,16.111706,29.111588975915993
1673609863.916363,16.09269,29.1107998585626
1673609863.9173698,16.08918,29.110010928026764
1673609863.918377,16.113293,29.109221810673372
1673609863.919384,16.163874,29.10843269331998
1673609863.9203908,16.175749,29.107643762784143
1673609863.921398,16.219528,29.10685464543075
1673609863.922406,16.280638,29.106064780807138
1673609863.9234128,16.279123,29.1052758502713
1673609863.9244199,16.256142,29.10448673291791
1673609863.925427,16.237967,29.103697615564517
1673609863.9264338,16.211906,29.10290868502868
1673609863.927441,16.194838,29.102119567675288
1673609863.928448,16.220032,29.101330450321896
1673609863.9294548,16.192507,29.10054151978606
1673609863.930462,16.177816,29.099752402432667
1673609863.931469,16.178057,29.098963285079275
1673609863.9324758,16.179956,29.09817435454344
1673609864.1812248,16.201353,32.388929035872906
1673609864.182232,16.188347,32.42518764149869
1673609864.183239,16.17873,32.46144624712447
1673609864.1842458,16.183178,32.497696268800055
1673609864.185253,16.25066,32.53395487442584
1673609864.186261,16.274364,32.570247815852404
1673609864.187268,16.254002,32.60650642147819
1673609864.1882749,16.268858,32.64275644315378
1673609864.189282,16.282202,32.67290802575107
1673609864.190289,16.235924,32.69112557568534
1673609864.1912959,16.177193,32.71575752360515
1673609864.192303,16.142309,32.7587470658083
1673609864.19331,16.152407,32.793373
1673609864.1943169,16.199165,32.806966657606104
1673609864.195324,16.183586,32.843401568907964
1673609864.196331,16.129856,32.879841863614686
1673609864.1973379,16.138847,32.90909254350417
1673609864.198346,16.203541,32.927325586552215
1673609864.199353,16.194117,32.95299736909871
1673609864.2003598,16.16498,32.997002103694875
1673609864.201367,16.133295,33.02083845684311
1673609864.202374,16.081175000000002,33.059943857420926
1673609864.2033808,16.093941,33.093176460228655
1673609864.204388,16.132982,33.08979616030163
1673609864.205395,16.140314,33.036757532188844
1673609864.2064018,16.133005,33.03829738197425
1673609864.207409,16.125601,33.03559247179223
1673609864.208416,16.14267,33.05075728119129
1673609864.2094228,16.145555,33.06591850043661
1673609864.21043,16.129375,33.08108330983568
1673609864.211438,16.137381,33.0962624798497
1673609864.212445,16.174379,33.111427289248766
1673609864.2134519,16.223061,33.12658850849409
1673609864.214459,16.231596,33.14175331789315
1673609864.215466,16.224527,33.156918127292215
1673609864.2164729,16.208902,33.17207934653754
1673609864.21748,16.191954,33.1872441559366
1673609864.218487,16.164667,33.20240896533566
1673609864.2194939,16.12137,33.217570184580985
1673609864.220501,16.070717,33.232734993980046
1673609864.221508,16.070379,33.247899803379106
1673609864.2225149,16.113245,33.263061022624434
1673609864.223523,16.150579,33.27824019263846
1673609864.22453,16.146252,33.29340500203752
1673609864.2255368,16.138535,33.2790592832618
1673609864.226544,16.14678,33.30589703505007
1673609864.227551,16.175558,33.35741958879618
1673609864.2285578,16.188564,33.36145739508822
1673609864.229565,16.179813,33.40879442012398
1673609864.230572,16.178322,33.46672211847437
1673609864.2315788,16.18498,33.49197215474487
1673609864.232586,16.175053,33.476276906533144
1673609864.233593,16.153824,33.51986469749702
1673609864.2345998,16.151949,33.56835774773814
1673609864.235607,16.166782,33.59232961427263
1673609864.236615,16.180702,33.6163241814383
1673609864.237622,16.209984,33.6402960479728
1673609864.2386289,16.218998,33.66426223934948
1673609864.239636,16.215296,33.68823410588398
1673609864.240643,16.233423,33.71220597241847
1673609864.2416499,16.252222,33.73617216379516
1673609864.242657,16.223974,33.76014403032965
1673609864.243664,16.238255,33.78411589686414
1673609864.2446709,16.23501,33.80808208824083
1673609864.245678,16.247005,33.83205395477532
1673609864.246685,16.294054,33.85602582130981
1673609864.2476919,16.291409,33.8799920126865
1673609864.2487,16.235514,33.90398657985218
1673609864.249707,16.236307,33.92795844638667
1673609864.2507138,16.290159,33.951924637763355
1673609864.251721,16.277754,33.97589650429785
1673609864.252728,16.25631,33.99986837083234
1673609864.2537348,16.213205,33.99140993396901
1673609864.254742,16.144257,34.01557283118741
1673609864.255749,16.061871,34.08052231235098
1673609864.2567558,15.993594,34.081482870083434
1673609864.257763,16.016384,34.048760316165954
1673609864.25877,16.080814,34.085495510729615
1673609864.2597768,16.106489,34.09586
1673609864.260784,16.10519,34.08097402145411
1673609864.261792,16.122404,34.09280186695279
1673609864.262799,16.114519,34.09795887988246
1673609864.2638059,16.161421,34.100480521345794
1673609864.264813,16.213373,34.10300275993001
1673609864.26582,16.238352,34.10552499851421
1673609864.2668269,16.252728,34.10804663997755
1673609864.267834,16.22085,34.11056887856176
1673609864.268841,16.196016,34.11309111714597
1673609864.2698479,16.181519,34.08985420958512
1673609864.270855,16.139256,34.102113748510135
1673609864.2718618,16.140747,34.10165116714354
1673609864.2728689,16.147333,34.13314332737244
1673609864.273877,16.156637,34.112420667461265
1673609864.274884,16.191881,34.08316163090129
1673609864.2758908,16.189428,34.10341336552217
1673609864.276898,16.225731,34.139851691299164
1673609864.277905,16.306698,34.150135
1673609864.2789118,16.306314,34.14070487639148
1673609864.279919,16.245251,34.12769186034366
1673609864.280926,16.176832,34.114678844295845
1673609864.2819328,16.152046,34.10166890898099
1673609864.28294,16.139666,34.08865589293317
1673609864.283947,16.129496,34.07564287688535
1673609864.2849538,16.089565,34.06263294157049
1673609864.285961,16.058649,34.04961992552268
1673609864.286969,16.105095,34.03659458654299
1673609864.287976,16.141804,34.023581570495175
1673609864.2889829,16.123701,34.01057163518032
1673609864.28999,16.128942,33.9975586191325
1673609864.290997,16.154186,33.984545603084676
1673609864.2920039,16.17277,33.97153566776982
1673609864.293011,16.162504,33.95852265172201
1673609864.2940178,16.140049,33.94551271640715
1673609864.2950249,16.119062,33.93249970035933
1673609864.296032,16.114159,33.91948668431151
1673609864.2970388,16.14118,33.90647674899665
1673609864.2980459,16.158417,33.89346373294884
1673609864.299054,16.173899,33.88043839396915
1673609864.300061,16.175341,33.867425377921336
1673609864.3010678,16.213589,33.85441544260648
1673609864.302075,16.241283,33.84140242655866
1673609864.303082,16.230755,33.82838941051084
1673609864.3040888,16.199671,33.81537947519598
1673609864.305096,16.128775,33.80236645914817
1673609864.306103,16.145195,33.789353443100346
1673609864.3071098,16.208565,33.77634350778549
1673609864.308117,16.290855,33.76333049173767
1673609864.309124,16.327734,33.750317475689855
1673609864.3101308,16.331676,33.737307540375
1673609864.311138,16.293837,33.72429452432718
1673609864.312146,16.234505,33.7112691853475
1673609864.313153,16.191183,33.698256169299675
1673609864.3141599,16.144402,33.68524623398482
1673609864.315167,16.086679,33.672233217937
1673609864.3161738,16.072617,33.65922328262215
1673609864.3171809,16.093075,33.64621026657433
1673609864.318188,16.106417,33.63319725052651
1673609864.3191948,16.094685,33.62018731521165
1673609864.3202019,16.077232,33.6063558683834
1673609864.321209,16.0536,33.553154
1673609864.3222158,16.120192,33.55254169058403
1673609864.3232229,16.278522,33.53358989055794
1673609864.324231,16.391659,33.49623341535527
1673609864.325238,16.364853,33.44360398116356
1673609864.3262448,16.268763,33.42765988152563
1673609864.327252,16.210752,33.44082625584168
1673609864.328259,16.233519,33.390343
1673609864.3292658,16.274988,33.388196223694266
1673609864.330273,16.148176,33.36243490802539
1673609864.33128,16.074011,33.33667359235652
1673609864.3322868,16.155195,33.31091837548397
1673609864.333294,16.173563,33.285157059815106
1673609864.334301,16.125048,33.25939574414623
1673609864.3353078,16.088892,33.233640527273685
1673609864.336315,16.10305,33.20787921160481
1673609864.337323,16.119638,33.18209350075065
1673609864.3383298,16.087425,33.15633828387811
1673609864.3393369,16.058744,33.13057696820923
1673609864.340344,16.087137,33.10481565254037
1673609864.3413508,16.135986,33.07906043566782
1673609864.3423579,16.179211,33.05329911999895
1673609864.343365,16.210993,33.02753780433007
1673609864.3443718,16.238134,33.00178258745753
1673609864.3453789,16.234625,32.97602127178866
1673609864.346386,16.293381,32.95025995611979
1673609864.3473928,16.319128,32.92450473924724
1673609864.3483999,16.255156,32.89874342357837
1673609864.349408,16.215656,32.87295771272421
1673609864.350415,16.221546,32.847196397055335
1673609864.3514218,16.186472,32.82144118018279
1673609864.352429,16.13065,32.79567986451392
1673609864.353436,16.132885,32.76991854884505
1673609864.3544428,16.149618,32.7441633319725
1673609864.35545,16.145002,32.71840201630363
1673609864.356457,16.142527,32.69264070063476
1673609864.3574638,16.150314,32.666885483762215
1673609864.358471,16.157671,32.64112416809334
1673609864.359478,16.157455,32.615362852424475
1673609864.3604848,16.160099,32.58960763555193
1673609864.361492,16.166542,32.563846319883055
1673609864.3625,16.162264,32.53806060902889
1673609864.3635068,16.153343,32.51230539215634
1673609864.3645139,16.154137,32.486544076487476
1673609864.365521,16.16308,32.4607827608186
1673609864.3665278,16.165628,32.435027543946056
1673609864.3675349,16.164715,32.40926622827718
1673609864.368542,16.167648,32.383504912608316
1673609864.3695488,16.165436,32.35774969573577
1673609864.3705559,16.165581,32.331988380066896
1673609864.371563,16.166639,32.30622706439803
1673609864.3725698,16.17296,32.280471847525476
1673609864.3735769,16.174044,32.25471053185661
1673609864.374585,16.164907,32.22999447329518
1673609864.375592,16.156061,32.214489
1673609864.3765988,16.146397,32.21165100238436
1673609864.377606,16.140339,32.19343200572109
1673609864.378613,16.125648,32.175210360515024
1673609864.3796198,16.116587,32.144125084883164
1673609864.380627,16.149761,32.069767
1673609864.381634,16.210705,32.08018324701955
1673609864.3826408,16.267897,32.10964641201717
1673609864.383648,16.30831,32.05342288065201
1673609864.384655,16.294102,32.061953408284026
1673609864.3856618,16.247704,32.070481916378256
1673609864.386669,16.216282,32.079012444010274
1673609864.387677,16.161831,32.08755104979346
1673609864.3886838,16.137501,32.087856
1673609864.3896909,16.13928,32.06131915520324
1673609864.390698,16.12351,32.03399306246275
1673609864.3917048,16.123077,32.006673438967695
1673609864.3927119,16.130842,31.9793473462272
1673609864.393719,16.172167,31.96133382665713
1673609864.3947258,16.24929,31.979082149940403
1673609864.3957329,16.212675,31.959793883881737
1673609864.39674,16.17325,31.888373596566524
1673609864.3977468,16.212099,31.87322054231228
1673609864.398754,16.260469,31.940185495708153
1673609864.399762,16.3048,31.870771
1673609864.400769,16.241646,31.870771
1673609864.4017758,16.089588,31.870309392112894
1673609864.402783,16.106825,31.862923665919197
1673609864.40379,16.176975,31.855537939725497
1673609864.4047968,16.137358,31.848153962046524
1673609864.405804,16.157864,31.840768235852828
1673609864.406811,16.241236,31.833382509659128
1673609864.4078178,16.257248,31.825998531980154
1673609864.408825,16.237438,31.818612805786458
1673609864.409832,16.272633,31.811227079592758
1673609864.4108388,16.306002,31.803843101913785
1673609864.411846,16.242558,31.796457375720085
1673609864.412854,16.167,31.78906465546749
1673609864.4138608,16.161518,31.78168067778852
1673609864.4148679,16.165846,31.774294951594822
1673609864.415875,16.138702,31.766909225401122
1673609864.4168818,16.144352,31.75952524772215
1673609864.4178889,16.162384,31.75213952152845
1673609864.418896,16.16534,31.744753795334752
1673609864.4199028,16.167,31.73736981765578
1673609864.42091,16.16921,31.72998409146208
1673609864.421917,16.169596,31.722598365268382
1673609864.4229238,16.168322,31.71521438758941
1673609864.423931,16.168009,31.70782866139571
1673609864.424939,16.170773,31.700435941143116
1673609864.425946,16.173201,31.69305021494942
1673609864.4269528,16.173658,31.685666237270443
1673609864.42796,16.174164,31.678280511076746
1673609864.428967,16.169884,31.670894784883046
1673609864.4299738,16.169619,31.663510807204073
1673609864.430981,16.173441,31.656125081010376
1673609864.431988,16.170292,31.648739354816676
1673609864.4329948,16.16736,31.641355377137703
1673609864.434002,16.173731,31.633969650944007
1673609864.435009,16.167841,31.626583924750307
1673609864.4360158,16.158224,31.619199947071333
1673609864.437023,16.151373,31.611814220877633
1673609864.438031,16.155869,31.60442150062504
1673609864.4390378,16.183418,31.605293396280402
1673609864.4400449,16.200174,31.611504211731045
1673609864.441052,16.189909,31.583754050548112
1673609864.4420588,16.178539,31.54350701766139
1673609864.443066,16.173611,31.589482717417784
1673609864.444073,16.186447,31.612444954707986
1673609864.4450798,16.183706,31.615703211731045
1673609864.446087,16.169235,31.59485640200286
1673609864.447094,16.159594,31.603723821173105
1673609864.4481008,16.148607,31.577256960262783
1673609864.449108,16.141756,31.566679981866965
1673609864.450116,16.132332,31.55609298739312
1673609864.451123,16.125481,31.545516008997303
1673609864.4521298,16.111706,31.534941534620994
1673609864.453137,16.10084,31.524364556225176
1673609864.454144,16.147406,31.51378757782936
1673609864.4551508,16.179548,31.50321310345305
1673609864.456158,16.179621,31.49263612505723
1673609864.457165,16.217964,31.482059146661413
1673609864.4581718,16.25489,31.4714846722851
1673609864.459179,16.307348,31.460907693889283
1673609864.460186,16.370045,31.450330715493465
1673609864.4611928,16.3743,31.439756241117156
1673609864.4622,16.343649,31.429179262721338
1673609864.463208,16.287682,31.418592268247494
1673609864.4642148,16.260204,31.40801779387118
1673609864.465222,16.169308,31.397440815475367
1673609864.466229,16.081944,31.38686383707955
1673609864.4833488,16.181904,31.207060212389663
1673609864.484356,16.169018,31.196483233993845
1673609864.485363,16.167913,31.185906255598027
1673609864.4863698,16.161758,31.175331781221715
1673609864.487377,16.157816,31.164754802825897
1673609864.488385,16.19693,31.154167808352053
1673609864.4893918,16.229553,31.143593333975744
1673609864.51054,16.269461,31.027525201438955
1673609864.5115469,16.265013,31.0182331320713
1673609864.512554,16.29302,31.0089388623557
1673609864.513562,16.285158,30.999635791248323
1673609864.5145688,16.208662,30.990343721880667
1673609864.515576,16.055138,30.981049452165067
1673609864.516583,15.969867,30.971755182449467
1673609864.5175898,16.018572,30.96246311308181
1673609864.518597,16.051846,30.95316884336621
1673609864.519604,16.081511,30.94387457365061
1673609864.5206108,16.08507,30.934582504282954
1673609864.521618,16.137213,30.925288234567354
1673609864.522625,16.192289,30.915993964851754
1673609864.5236318,16.204477,30.906701895484098
1673609864.524639,16.203974,30.897407625768498
1673609864.525647,16.202723,30.888104554661123
1673609864.526654,16.17498,30.878810284945523
1673609864.5276608,16.140049,30.869518215577866
1673609864.528668,16.126732,30.860223945862266
1673609864.529675,16.128222,30.850929676146666
1673609864.5306818,16.133486,30.84163760677901
1673609864.531689,16.141468,30.83234333706341
1673609864.532696,16.167913,30.82304906734781
1673609864.537731,16.222845,30.7765821194657
1673609864.538739,16.199886,30.767279048358322
1673609864.5397458,16.195295,30.75798697899067
1673609864.540753,16.207268,30.74869270927507
1673609864.54176,16.180582,30.73939843955947
1673609864.5427668,16.171085,30.730106370191812
1673609864.543774,16.189886,30.720812100476213
1673609864.544781,16.195246,30.711517830760613
1673609864.5457878,16.174957,30.702225761392956
1673609864.546795,16.173491,30.692931491677356
1673609864.547802,16.205416,30.683637221961757
1673609864.5488088,16.222412,30.6743451525941
1673609864.549816,16.196209,30.6650508828785
1673609864.550824,16.148607,30.655747811771125
1673609864.551831,16.122812,30.646453542055525
1673609864.5528378,16.099325,30.63716147268787
1673609864.553845,16.08305,30.62786720297227
1673609864.554852,16.08531,30.61857293325667
1673609864.5558589,16.089468,30.609280863889012
1673609864.556866,16.074755,30.599986594173412
1673609864.557873,16.103701,30.590692324457812
1673609864.5588799,16.187553,30.581400255090156
1673609864.559887,16.276312,30.572105985374556
1673609864.560894,16.380383,30.562811715658956
1673609864.5619009,16.436543,30.5535196462913
1673609864.562909,16.428032,30.544216575183924
1673609864.563916,16.438946,30.534922305468324
1673609864.5649228,16.459621,30.525630236100668
1673609864.56593,16.404327,30.516335966385068
1673609864.566937,16.266935,30.48666600691299
1673609864.5679438,16.164907,30.464034738197423
1673609864.568951,16.120239,30.431889217930376
1673609864.569958,16.09317,30.423565
1673609864.5709648,16.088291,30.409387018593563
1673609864.571972,16.100046,30.391168768240345
1673609864.572979,16.127476,30.41625846375775
1673609864.5739858,16.155796,30.423565
1673609864.574993,16.162479,30.408879009299
1673609864.576001,16.137308,30.39802639699803
1673609864.577008,16.115313,30.388876317591137
1673609864.5780149,16.102787,30.37972840439622
1673609864.579022,16.096319,30.370578324989328
1673609864.580029,16.109423,30.36142824558243
1673609864.5810359,16.134329,30.35228033238752
1673609864.582043,16.135626,30.34313025298062
1673609864.58305,16.17337,30.333980173573728
1673609864.5840569,16.207869,30.324832260378813
1673609864.6313899,16.210825,29.891357653163414
1673609864.632397,16.171926,29.885953903746874
1673609864.633404,16.140963,29.880550154330333
1673609864.6344109,16.122019,29.87514768421053
1673609864.635418,16.126202,29.869743934793988
1673609864.636425,16.124086,29.864340185377447
1673609864.6374319,16.166061,29.858937715257643
1673609864.63844,16.222485,29.853528848654154
1673609864.639447,16.235346,29.848125099237613
1673609864.6404538,16.248665,29.84272262911781
1673609864.641461,16.258522,29.837318879701268
1673609864.642468,16.279797,29.831915130284727
1673609864.6434748,16.309078,29.826512660164923
1673609864.644482,16.29641,29.821108910748382
1673609864.645489,16.210512,29.81570516133184
1673609864.6464958,16.143728,29.81030269121204
1673609864.647503,16.137068,29.820658220791607
1673609864.64851,16.108604,29.826593
1673609864.6495168,16.051966,29.814187266269368
1673609864.650524,16.028934,29.795964686218404
1673609864.651532,16.080261,29.777726585121602
1673609864.652539,16.155821,29.78512475327771
1673609864.6535459,16.180462,29.790407
1673609864.654553,16.136757,29.790407
1673609864.65556,16.1175,29.803599044338497
1673609864.6565669,16.139761,29.803351647646952
1673609864.657574,16.168009,29.79629930275413
1673609864.658581,16.119976,29.7892469578613
1673609864.6595879,16.112715,29.7821962825577
1673609864.660595,16.1551,29.775143937664875
1673609864.661602,16.157984,29.76809159277205
1673609864.6626089,16.164139,29.761040917468446
1673609864.663617,16.200079,29.753981894218715
1673609864.664624,16.18075,29.746929549325888
1673609864.6656308,16.165268,29.73987887402229
1673609864.666638,16.195005,29.73282652912946
1673609864.667645,16.211281,29.725774184236634
1673609864.6686518,16.236668,29.718723508933035
1673609864.669659,16.269508,29.711671164040208
1673609864.670666,16.267849,29.70461881914738
1673609864.6716728,16.236547,29.69756814384378
1673609864.67268,16.211498,29.690515798950955
1673609864.673687,16.175966,29.683463454058128
1673609864.6746938,16.153008,29.67641277875453
1673609864.675701,16.168081,29.6693604338617
1673609864.676709,16.178347,29.662301410611967
1673609864.677716,16.149378,29.65524906571914
1673609864.6787229,16.163754,29.64819839041554
1673609864.67973,16.200415,29.641146045522714
1673609864.680737,16.210752,29.634093700629887
1673609864.6817439,16.199213,29.627043025326287
1673609864.682751,16.193661,29.61999068043346
1673609864.683758,16.218134,29.612938335540633
1673609864.6847649,16.220249,29.605887660237034
1673609864.685772,16.186472,29.598835315344207
1673609864.686779,16.132357,29.59178297045138
1673609864.6877859,16.133656,29.608693785407723
1673609864.688794,16.169331,29.55725907103695
1673609864.689801,16.192074,29.53769447639485
1673609864.6908078,16.167168,29.590163874582736
1673609864.691815,16.166157,29.556504775342464
1673609864.692822,16.183804,29.609744459403906
1673609864.6938288,16.177721,29.60900701027749
1673609864.694836,16.158585,29.59201438949843
1673609864.695843,16.158224,29.627596
1673609864.6968498,16.163225,29.640526572722937
1673609864.697857,16.163874,29.644814416309924
1673609864.698864,16.176422,29.64359996931293
1673609864.6998708,16.190992,29.64238580982707
1673609864.700878,16.199141,29.641171362830075
1673609864.701886,16.201906,29.63995576578858
1673609864.702893,16.204695,29.638741318791592
1673609864.7038999,16.18676,29.637527159305726
1673609864.704907,16.143801,29.636312712308737
1673609864.705914,16.137381,29.635098265311743
1673609864.7069209,16.190559,29.63388410582588
1673609864.707928,16.273018,29.63266965882889
1673609864.708935,16.264074,29.6314552118319
1673609864.7099419,16.225466,29.630241052346033
1673609864.710949,16.236837,29.629026605349043
1673609864.711956,16.278692,29.627812158352054
1673609864.7129629,16.274988,29.62659799886619
1673609864.713971,16.234385,29.625382401824695
1673609864.714978,16.172287,29.6241679548277
1673609864.7159848,16.0912,29.62295379534184
1673609864.716992,16.095791,29.621739348344846
1673609864.717999,16.154282,29.620524901347856
1673609864.7190058,16.173321,29.61931074186199
1673609864.720013,16.183178,29.618096294865
1673609864.72102,16.203468,29.61688184786801
1673609864.7220268,16.205175,29.615667688382146
1673609864.723034,16.197531,29.614453241385156
1673609864.724041,16.199406,29.613238794388167
1673609864.7250478,16.18479,29.6120246349023
1673609864.726055,16.141829,29.61081018790531
1673609864.727063,16.076559,29.609594590863814
1673609864.72807,16.076727,29.608380143866825
1673609864.7290769,16.104902,29.60716598438096
1673609864.730084,16.098026,29.60595153738397
1673609864.731091,16.114349,29.60473709038698
1673609864.7320979,16.18676,29.603522930901114
1673609864.733105,16.247005,29.602308483904125
1673609864.734112,16.26066,29.60109403690713
1673609864.7351189,16.254074,29.599879877421266
1673609864.736126,16.190342,29.598665430424276
1673609864.737133,16.128775,29.597450983427287
1673609864.7381399,16.131516,29.59623682394142
1673609864.739148,16.125,29.595021226899927
1673609864.740155,16.118076,29.593806779902934
1673609864.7411618,16.140722,29.592592620417072
1673609864.742169,16.188154,29.589581599904623
1673609864.743176,16.230034,29.53863473581307
1673609864.7441828,16.249025,29.57506348724672
1673609864.74519,16.243015,29.60851693991416
1673609864.746197,16.242655,29.591419
1673609864.7472038,16.242149,29.591419
1673609864.748211,16.212147,29.587304258941344
1673609864.749218,16.157215,29.544655735336196
1673609864.7502248,16.112547,29.622719174731824
1673609864.751232,16.121731,29.57302451628468
1673609864.75224,16.109686,29.569843272076866
1673609864.753247,16.122236,29.56666503756083
1673609864.7542539,16.190029,29.56348755546774
1673609864.755261,16.228302,29.560309320951706
1673609864.756268,16.226187,29.55713108643567
1673609864.7572749,16.22073,29.555241
1673609864.758282,16.193516,29.555241
1673609864.759289,16.155628,29.562875127324748
1673609864.7602959,16.123053,29.576401275546747
1673609864.761303,16.094324,29.58361254175545
1673609864.76231,16.067951,29.590823807964156
1673609864.7633169,16.116201,29.598033366960216
1673609864.764325,16.201809,29.6052514620195
1673609864.765332,16.229649,29.612462728228206
1673609864.7663388,16.243135,29.619672287224265
1673609864.767346,16.239361,29.62688355343297
1673609864.768353,16.25078,29.63409481964168
1673609864.7693598,16.287611,29.641304378637738
1673609864.770367,16.319824,29.648515644846444
1673609864.771374,16.308069,29.655726911055147
1673609864.7723808,16.258305,29.66293647005121
1673609864.773388,16.217773,29.670147736259914
1673609864.774395,16.188635,29.67735900246862
1673609864.7754018,16.146036,29.68456856146468
1673609864.776409,16.094925,29.691779827673386
1673609864.777417,16.076366,29.69899792273267
1673609864.778424,16.100574,29.706209188941372
1673609864.7794309,16.116154,29.713418747937435
1673609864.780438,16.126562,29.720630014146142
1673609864.781445,16.146732,29.727841280354845
1673609864.7824519,16.15284,29.735050839350908
1673609864.783459,16.149088,29.74226210555961
1673609864.784466,16.139545,29.749473371768318
1673609864.7854729,16.143415,29.756682930764377
1673609864.78648,16.148247,29.763894196973084
1673609864.7874868,16.163994,29.771103755969143
1673609864.79353,16.168104,29.81437647485931
1673609864.7945368,16.170221,29.82158603385537
1673609864.795544,16.127043,29.828797300064075
1673609864.796551,16.087786,29.83600856627278
1673609864.7975578,16.104254,29.84321812526884
1673609864.798565,16.170076,29.850429391477547
1673609864.799572,16.231956,29.857640657686254
1673609864.8005788,16.249218,29.864850216682314
1673609864.801586,16.239386,29.87206148289102
1673609864.802594,16.241163,29.8792795779503
1673609864.803601,16.191233,29.886490844159006
1673609864.8046079,16.187433,29.893700403155066
1673609864.805615,16.169043,29.900911669363772
1673609864.806622,16.130745,29.90812293557248
1673609864.8076289,16.13678,29.91533249456854
1673609864.808636,16.140074,29.944863429184547
1673609864.8096428,16.143656,29.925148357653793
1673609864.8106499,16.212124,29.939020165721907
1673609864.811657,16.267584,29.8680853201067
1673609864.8126638,16.265326,29.922176988996334
1673609864.8136709,16.257103,29.893984655218407
1673609864.814679,16.319344,29.902761283094367
1673609864.815686,16.332975,29.902222617310446
1673609864.8166928,16.313646,29.943766306317045
1673609864.8177,16.243736,29.95186314341782
1673609864.818707,16.169836,29.95021749262964
1673609864.8197138,16.14082,29.948572231436817
1673609864.820721,16.133463,29.946926580648633
1673609864.821728,16.09757,29.945280929860452
1673609864.8227348,16.053913,29.94363566866763
1673609864.823742,16.112547,29.941990017879448
1673609864.824749,16.193491,29.940344367091264
1673609864.8257558,16.24929,29.93869910589844
1673609864.826763,16.213108,29.93705345511026
1673609864.827771,16.155821,29.935406245940648
1673609864.828778,16.131491,29.933760595152467
1673609864.8297849,16.12911,29.932115333959644
1673609864.830792,16.118629,29.930469683171463
1673609864.8317988,16.127092,29.928824421978636
1673609864.8328059,16.156662,29.927178771190455
1673609864.833813,16.16111,29.925533120402275
1673609864.842877,16.09894,29.910721873713282
1673609864.843884,16.065115,29.9090762229251
1673609864.8448908,16.038574,29.907430961732278
1673609864.845898,16.013308,29.905785310944097
1673609864.846905,16.034872,29.904139660155913
1673609864.8479118,16.080935,29.90249439896309
1673609864.848919,16.158537,29.90084874817491
1673609864.849926,16.200752,29.899203097386724
1673609864.8509328,16.179573,29.8975578361939
1673609864.85194,16.17837,29.89591218540572
1673609864.852948,16.168705,29.894264976236112
1673609864.8539548,16.151878,29.892619715043285
1673609864.8549619,16.170893,29.890974064255104
1673609864.855969,16.188948,29.889328413466924
1673609864.8569758,16.184116,29.8876831522741
1673609864.8579829,16.16647,29.886037501485916
1673609864.85899,16.165916,29.884391850697735
1673609864.8599968,16.157984,29.88274658950491
1673609864.8610039,16.1607,29.88110093871673
1673609864.862011,16.165606,29.89639613230036
1673609864.8630178,16.144184,29.883287390557943
1673609864.8640249,16.145123,29.912440144253697
1673609864.865033,16.16712,29.917038
1673609864.86604,16.152166,29.884912427890345
1673609864.8670468,16.169979,29.929420708154506
1673609864.868054,16.239914,29.886177108726752
1673609864.869061,16.365429,29.930185313230037
1673609864.8700678,16.453033,29.935127
1673609864.871075,16.397259,29.930988553250593
1673609864.872082,16.347664,29.9264727177896
1673609864.8730888,16.305016,29.92195795141844
1673609864.874096,16.26095,29.91744211595745
1673609864.875103,16.201834,29.917038
1673609864.8761098,16.135145,29.917038
1673609864.877117,16.070765,29.92047534090434
1673609864.878125,16.077856,29.924196999635075
1673609864.8791318,16.1394,29.92791425716107
1673609864.8801389,16.15517,29.931632394928013
1673609864.881146,16.128822,29.935350532694958
1673609864.8821528,16.146132,29.939067790220953
1673609864.8831599,16.210632,29.942785927987895
1673609864.884167,16.233135,29.94650406575484
1673609864.8851738,16.218014,29.950221323280832
1673609864.8861809,16.197218,29.953939461047778
1673609864.887188,16.177626,29.95765759881472
1673609864.8881948,16.13291,29.961374856340715
1673609864.8892019,16.104734,29.96509299410766
1673609864.89021,16.070309,29.968814652838397
1673609864.891217,16.077761,29.972532790605342
1673609864.8922238,16.120745,29.976250048131337
1673609864.893231,16.135578,29.97996818589828
1673609864.894238,16.134377,29.98368632366522
1673609864.8952448,16.143488,29.987403581191217
1673609864.896252,16.13916,29.991121718958162
1673609864.897259,16.116587,29.994839856725104
1673609864.8982658,16.101969,29.9985571142511
1673609864.899273,16.124495,30.002275252018045
1673609864.90028,16.138823,30.005993389784987
1673609864.9012868,16.165628,30.009710647310982
1673609864.902294,16.199574,30.013428785077924
1673609864.903302,16.212364,30.017150443808664
1673609864.9043088,16.233879,30.02086770133466
1673609864.9053159,16.275591,30.0245858391016
1673609864.906323,16.306122,30.028303976868546
1673609864.9073298,16.267536,30.032021234394538
1673609864.9083369,16.178995,30.035739372161483
1673609864.909344,16.106464,30.039457509928425
1673609864.9103508,16.077713,30.04317476745442
1673609864.9113579,16.091753,30.046892905221366
1673609864.912365,16.073553,30.050611042988308
1673609864.9133718,16.027803,30.054328300514303
1673609864.914379,16.047783,30.058046438281245
1673609864.915387,16.103941,30.061768097011985
1673609864.916394,16.15243,30.065486234778927
1673609864.9174008,16.190872,30.069203492304922
1673609864.918408,16.207388,30.072921630071868
1673609864.919415,16.205391,30.07663976783881
1673609864.9204218,16.256454,30.080357025364805
1673609864.921429,16.268667,30.08407516313175
1673609864.922436,16.251188,30.087793300898692
1673609864.9234428,16.290422,30.091510558424687
1673609864.92445,16.319897,30.09522869619163
1673609864.925457,16.35865,30.0930405022646
1673609864.9264638,16.344467,30.079847
1673609864.927471,16.246933,30.090157792799236
1673609864.928479,16.144569,30.12133349487485
1673609864.9294858,16.11536,30.117855729613733
1673609864.9304929,16.118414,30.08540098497854
1673609864.9315,16.078817,30.097946
1673609864.9325068,16.069708,30.109553685816447
1673609864.9335139,16.098387,30.116328650929898
1673609864.934521,16.123774,30.081906420414082
1673609864.9355278,16.156204,30.08809640789356
1673609864.936535,16.154066,30.09428786115269
1673609864.937542,16.17111,30.10047931441182
1673609864.9385488,16.208805,30.106669301891298
1673609864.939556,16.211571,30.11286075515043
1673609864.940564,16.213085,30.11905807152818
1673609864.941571,16.181784,30.12524952478731
1673609864.9425778,16.146492,30.131439512266788
1673609864.943585,16.116898,30.13763096552592
1673609864.944592,16.104181,30.14382241878505
1673609864.9455988,16.098387,30.150012406264526
1673609864.946606,16.123678,30.156203859523657
1673609864.947613,16.169451,30.162395312782788
1673609864.9486198,16.196377,30.168585300262265
1673609864.949627,16.195776,30.174776753521396
1673609864.950634,16.196159,30.18096820678053
1673609864.9516408,16.215321,30.187158194260007
1673609864.952648,16.207338,30.19334964751914
1673609864.953656,16.193203,30.199546963896886
1673609865.217511,16.155483,31.56974038133158
1673609865.218518,16.131298,31.57905809293917
1673609865.2195249,16.164955,31.588373598649124
1673609865.220532,16.216715,31.59769131025671
1673609865.221539,16.250107,31.6070090218643
1673609865.2225459,16.25655,31.616324527574253
1673609865.223553,16.240082,31.62564223918184
1673609865.22456,16.205343,31.634959950789426
1673609865.2255669,16.190607,31.644275456499383
1673609865.226574,16.204527,31.65359316810697
1673609865.227581,16.193972,31.662910879714556
1673609865.2285879,16.185558,31.67004965649583
1673609865.229596,16.199766,31.6386347167382
1673609865.230603,16.212845,31.688734287553647
1673609865.2316098,16.283524,31.669255682880305
1673609865.232617,16.306868,31.64117807628129
1673609865.233624,16.25893,31.701889286599904
1673609865.2346308,16.203035,31.643823300429183
1673609865.235638,16.158489,31.726050999999998
1673609865.236645,16.140146,31.71845989842632
1673609865.2376518,16.141588,31.653803618630054
1673609865.238659,16.117764,31.654790887485788
1673609865.239666,16.088026,31.655778156341523
1673609865.2406728,16.10923,31.656765191468835
1673609865.24168,16.123413,31.65775246032457
1673609865.242688,16.145025,31.658740664093997
1673609865.243695,16.162695,31.659727932949732
1673609865.2447019,16.163538,31.660714968077045
1673609865.245709,16.157984,31.66170223693278
1673609865.246716,16.152262,31.662689505788514
1673609865.2477229,16.155268,31.663676540915827
1673609865.24873,16.167407999999998,31.66466380977156
1673609865.249737,16.172409,31.665651078627295
1673609865.2507439,16.162672,31.66663811375461
1673609865.251751,16.149185,31.667625382610343
1673609865.252758,16.15243,31.66861265146608
1673609865.2537649,16.156132,31.669599686593394
1673609865.254773,16.139786,31.670587890362818
1673609865.25578,16.114399,31.671575159218552
1673609865.2567868,16.142309,31.672562194345865
1673609865.257794,16.197531,31.6735494632016
1673609865.258801,16.227533,31.674536732057334
1673609865.2598078,16.251093,31.675523767184647
1673609865.260815,16.247536,31.67651103604038
1673609865.261822,16.208109,31.677498304896115
1673609865.2628288,16.207027,31.67848534002343
1673609865.263836,16.204502,31.679472608879166
1673609865.264843,16.134016,31.6804598777349
1673609865.2658498,16.084276,31.681446912862214
1673609865.266857,16.123293,31.682434181717948
1673609865.267865,16.179884,31.683422385487372
1673609865.268872,16.211161,31.684409654343106
1673609865.2698789,16.273907,31.68539668947042
1673609865.270886,16.319777,31.686383958326154
1673609865.271893,16.301146,31.687371227181888
1673609865.2728999,16.267776,31.6883582623092
1673609865.273907,16.224625,31.68934553116494
1673609865.274914,16.189548,31.690332800020673
1673609865.2759209,16.175461,31.691319835147986
1673609865.276928,16.126659,31.69230710400372
1673609865.277935,16.14933,31.693294372859455
1673609865.2789419,16.223999,31.694281407986768
1673609865.27995,16.253088,31.695269611756192
1673609865.280957,16.268955,31.696256880611926
1673609865.2819638,16.256647,31.69724391573924
1673609865.282971,16.198252,31.698231184594974
1673609865.283978,16.129328,31.69921845345071
1673609865.2849848,16.165749,31.700205488578025
1673609865.285992,16.146132,31.70119275743376
1673609865.286999,16.072111,31.702180026289493
1673609865.2880058,16.030689,31.703167061416806
1673609865.289013,16.044872,31.70415433027254
1673609865.29002,16.043936,31.705141599128275
1673609865.2910268,16.088747,31.706128634255588
1673609865.292034,16.143343,31.707115903111323
1673609865.293042,16.137621,31.700094822126847
1673609865.294049,16.159571,31.653694
1673609865.2950559,16.20306,31.65943916309013
1673609865.296063,16.220778,31.689873
1673609865.29707,16.193541,31.683611747556615
1673609865.2980769,16.184429,31.653694
1673609865.299084,16.173201,31.650312929899858
1673609865.300091,16.161854,31.628583387219837
1673609865.3010979,16.141396,31.599419
1673609865.302105,16.128149,31.598106676838686
1673609865.3031118,16.137886,31.591751240244378
1673609865.3041189,16.180174,31.585394298692318
1673609865.305127,16.188274,31.579031337309242
1673609865.306134,16.144569,31.572674395757183
1673609865.3071408,16.108652,31.566318959162878
1673609865.308148,16.085646,31.559962017610815
1673609865.309155,16.067423,31.553605076058755
1673609865.3101618,16.105431,31.54724963946445
1673609865.311169,16.197411,31.54089269791239
1673609865.312176,16.254074,31.534535756360327
1673609865.3131828,16.323263,31.528180319766022
1673609865.31419,16.352182,31.521823378213963
1673609865.315197,16.337158,31.515466436661903
1673609865.3162038,16.303188,31.509111000067595
1673609865.317211,16.291649,31.502754058515535
1673609865.318219,16.236164,31.49639109713246
1673609865.319226,16.185463,31.4900341555804
1673609865.3202329,16.138823,31.48367871898609
1673609865.32124,16.088867,31.47732177743403
1673609865.322247,16.117811,31.470964835881972
1673609865.3232539,16.154209,31.464609399287664
1673609865.324261,16.160387,31.458252457735604
1673609865.3252678,16.161398,31.4518970211413
1673609865.3262749,16.167288,31.44554007958924
1673609865.327282,16.168249,31.439183138037176
1673609865.3282888,16.167023,31.43282770144287
1673609865.3292959,16.161518,31.42647075989081
1673609865.330304,16.15897,31.420107798507736
1673609865.331311,16.164042,31.413750856955676
1673609865.3323178,16.165556,31.407395420361368
1673609865.333325,16.162264,31.40103847880931
1673609865.334332,16.158777,31.39468153725725
1673609865.3353388,16.164042,31.38832610066294
1673609865.336346,16.162767,31.38196915911088
1673609865.337353,16.150892,31.37561221755882
1673609865.3383598,16.153008,31.369256780964513
1673609865.339367,16.155508,31.362899839412453
1673609865.340374,16.142597,31.356542897860393
1673609865.3413808,16.131636,31.35018746126609
1673609865.342388,16.132717,31.343830519714025
1673609865.343396,16.147623,31.33746755833095
1673609865.344403,16.171831,31.33111061677889
1673609865.3454099,16.211954,31.324755180184585
1673609865.346417,16.250467,31.318398238632525
1673609865.3474238,16.299271,31.312042802038217
1673609865.3484309,16.305113,31.309978
1673609865.349438,16.300304,31.29755205603243
1673609865.3504448,16.288933,31.27933797711016
1673609865.3514519,16.271143,31.2738
1673609865.352459,16.255949,31.260994506199335
1673609865.3534658,16.198492,31.255711
1673609865.3544729,16.127645,31.255711
1673609865.355481,16.122789,31.29531788769671
1673609865.356488,16.128174,31.269982936337627
1673609865.3574948,16.104687,31.24959047323675
1673609865.361523,16.281672,31.216447428472282
1673609865.36253,16.293884,31.208161176854343
1673609865.3635368,16.224024,31.1998768869437
1673609865.364544,16.153416,31.19159063532576
1673609865.365551,16.144377,31.183304383707817
1673609865.3665578,16.201113,31.175020093797173
1673609865.367565,16.205391,31.166733842179234
1673609865.368573,16.174091,31.15843974373211
1673609865.3695798,16.149546,31.150155453821466
1673609865.3705869,16.153008,31.141869202203523
1673609865.371594,16.131227,31.133582950585584
1673609865.3726008,16.056292,31.12529866067494
1673609865.3736079,16.03694,31.117012409056997
1673609865.374615,16.120024,31.108726157439058
1673609865.3756218,16.12315,31.100441867528414
1673609865.3766289,16.14118,31.09215561591047
1673609865.377636,16.184525,31.083869364292532
1673609865.3786428,16.21073,31.075585074381888
1673609865.4924428,16.209936,30.362830992867142
1673609865.49345,16.146397,30.367925642023863
1673609865.494458,16.074371,30.30256976085919
1673609865.4954648,16.019918,30.251896216976633
1673609865.496472,15.979002,30.21548556561086
1673609865.497479,16.066246,30.20648
1673609865.4984858,16.187168,30.201661384030103
1673609865.499493,16.212387,30.1953245739875
1673609865.5005,16.178562,30.188987763944894
1673609865.5015068,16.188442,30.18265245409406
1673609865.502514,16.193756,30.176315644051456
1673609865.503521,16.214239,30.16997883400885
1673609865.5045278,16.252199,30.16364352415802
1673609865.505535,16.232582,30.157306714115414
1673609865.506543,16.186785,30.150963903305726
1673609865.50755,16.154282,30.14462709326312
1673609865.5085568,16.160557,30.13829178341229
1673609865.509564,16.264772,30.131954973369684
1673609865.510571,16.334322,30.12561816332708
1673609865.5115778,16.290232,30.119282853476246
1673609865.512585,16.212917,30.11294604343364
1673609865.513592,16.176422,30.106609233391037
1673609865.5145988,16.165508,30.100273923540204
1673609865.515606,16.144257,30.0939371134976
1673609865.516613,16.081055,30.087600303454998
1673609865.5176198,16.033936,30.081264993604165
1673609865.518627,16.038742,30.07492818356156
1673609865.519635,16.06485,30.06858537275187
1673609865.5206418,16.078337,30.062250062901036
1673609865.521649,16.095455,30.07856170624702
1673609865.522656,16.123726,30.096769284829723
1673609865.5236628,16.156542,30.046828629947544
1673609865.52467,16.209431,30.043671
1673609865.525677,16.240467,30.043671
1673609865.5266838,16.257559,30.061086037151703
1673609865.527691,16.238352,30.02663436372315
1673609865.528698,16.222219,30.06096441773963
1673609865.5297048,16.217268,30.026166862348177
1673609865.530712,16.204622,30.02319098620251
1673609865.53172,16.187674,30.020759566968685
1673609865.532727,16.182625,30.018330448036878
1673609865.5337338,16.170124,30.015901904180573
1673609865.534741,16.131443,30.013472785248766
1673609865.535748,16.163441,30.01104366631696
1673609865.5367548,16.256695,30.008615122460657
1673609865.537762,16.292419,30.00618600352885
1673609865.547833,16.167168,30.035493200286123
1673609865.5488398,16.199286,29.97348000881162
1673609865.549847,16.220922,29.989403
1673609865.550854,16.204117,29.996674963757748
1673609865.5518608,16.176495,30.038578885448917
1673609865.552868,16.128895,30.014019723491504
1673609865.553875,16.10887,29.987584344827585
1673609865.5548818,16.08692,30.030035581644814
1673609865.555889,16.07091,29.99805501096805
1673609865.556897,16.103003,30.01722227753934
1673609865.557904,16.114374,30.011545315852203
1673609865.5589108,16.11911,30.035812376013354
1673609865.559918,16.165628,30.043671
1673609865.560925,16.275351,30.014833041726273
1673609865.5619318,16.332951,30.02203219261025
1673609865.562939,16.324152,29.99624352312828
1673609865.563946,16.271671,30.004201130424416
1673609865.5649529,16.182217,30.022411651966625
1673609865.56596,16.117643,29.980435303290413
1673609865.566967,16.094229,30.001669199570813
1673609865.5679739,16.128702,30.007492
1673609865.568981,16.16736,30.00613079054177
1673609865.569989,16.17308,30.004521846289776
1673609865.5709958,16.172457,30.00291480476277
1673609865.572003,16.15659,30.00130738269077
1673609865.57301,16.149858,29.999699960618766
1673609865.5740168,16.150724,29.99809291909176
1673609865.575024,16.16712,29.99648549701976
1673609865.576031,16.197025,29.994878074947756
1673609865.5770378,16.221043,29.993271033420754
1673609865.578045,16.229193,29.99166361134875
1673609865.579052,16.203661,29.990056189276746
1673609865.5800588,16.167528,29.988449147749744
1673609865.581066,16.134279,29.986841725677742
1673609865.582074,16.125048,29.985232781425747
1673609865.583081,16.164162,29.98362535935374
1673609865.5840878,16.202147,29.98201831782674
1673609865.585095,16.20919,29.980410895754737
1673609865.586102,16.217075,29.978803473682735
1673609865.5871089,16.267681,29.97719643215573
1673609865.588116,16.290255,29.975589010083727
1673609865.589123,16.257921,29.973981588011725
1673609865.5931509,16.073338,29.96755266081371
1673609865.594159,16.09882,29.965943716561714
1673609865.595166,16.16308,29.964336294489712
1673609865.5961728,16.237919,29.962729252962706
1673609865.59718,16.264507,29.961121830890704
1673609865.598187,16.291168,29.959514408818702
1673609865.5991938,16.311964,29.957907367291696
1673609865.600201,16.252752,29.956299945219694
1673609865.601208,16.186832,29.954692523147692
1673609865.6022148,16.123173,29.95165334954697
1673609865.603222,16.078867,29.938526447782547
1673609865.604229,16.077568,29.97862641883194
1673609865.6052358,16.086126,30.041178109756096
1673609865.606243,16.113653,30.041012652439026
1673609865.607251,16.12714,30.05220938414634
1673609865.608258,16.144592,30.013503449695122
1673609865.6092649,16.161951,30.020154124999998
1673609865.610272,16.168465,30.069854114634147
1673609865.611279,16.159546,30.036053676219513
1673609865.6122859,16.145555,30.079847
1673609865.613293,16.141708,30.078236164769482
1673609865.6143,16.154089,30.073999447450863
1673609865.6153069,16.188948,30.06976373314297
1673609865.616314,16.174284,30.065527015824348
1673609865.617321,16.130362,30.061290298505725
1673609865.6183279,16.114061,30.057054584197832
1673609865.619336,16.167601,30.052813854836295
1673609865.620343,16.199501,30.048577137517675
1673609865.6213498,16.209791,30.044341423209783
1673609865.622357,16.227989,30.04010470589116
1673609865.623364,16.200054,30.035867988572537
1673609865.6243708,16.171278,30.031632274264645
1673609865.625378,16.179308,30.027395556946026
1673609865.626385,16.173273,30.023158839627403
1673609865.6273918,16.13702,30.01892312531951
1673609865.628399,16.123486,30.014686408000887
1673609865.629406,16.126467,30.010449690682268
1673609865.6304128,16.144522,30.006213976374372
1673609865.63142,16.183178,30.001977259055753
1673609865.632428,16.21068,29.997736529694215
1673609865.633435,16.255613,29.993499812375592
1673609865.6344419,16.253063,29.9892640980677
1673609865.635449,16.221476,29.98502738074908
1673609865.636456,16.175508,29.980790663430458
1673609865.6374629,16.126394,29.976554949122566
1673609865.63847,16.139906,29.972318231803943
1673609865.658612,16.324825,29.904340332856464
1673609865.6596189,16.282034,29.898949000000002
1673609865.660626,16.253401,29.885996145922746
1673609865.661633,16.210199,29.907016546364723
1673609865.6626399,16.171518,29.9038357041011
1673609865.663647,16.130938,29.87228636123033
1673609865.664654,16.077183,29.88968699809297
1673609865.6656609,16.080214,29.926112691464
1673609865.666668,16.103508,29.9299542977422
1673609865.667675,16.105671,29.9230812262301
1673609865.6686819,16.116034,29.916209781865614
1673609865.66969,16.176662,29.909330201763066
1673609865.670697,16.205511,29.90245713025097
1673609865.6717038,16.218084,29.890033399141632
1673609865.672711,16.241596,29.935118062693682
1673609865.673718,16.232101,29.988841542351107
1673609865.6747248,16.186857,29.987726285694823
1673609865.675732,16.168514,29.98661076494745
1673609865.676739,16.149426,29.985495244200077
1673609865.6777458,16.120192,29.98437998754379
1673609865.678753,16.105936,29.983264466796417
1673609865.67976,16.129375,29.982148946049048
1673609865.6807668,16.163033,29.98103368939276
1673609865.681774,16.185631,29.979918168645387
1673609865.682782,16.224768,29.97880159153367
1673609865.683789,16.26696,29.977686070786298
1673609865.6878169,16.202169,29.97322451597898
1673609865.688824,16.157263,29.972108995231608
1673609865.689831,16.116898,29.970993474484235
1673609865.6908379,16.077929,29.969878217827947
1673609865.691845,16.062181,29.968762697080574
1673609865.692852,16.090982,29.967647176333205
1673609865.6938589,16.091993,29.966531919676918
1673609865.7250788,16.201281,29.910441323394497
1673609865.726086,16.16873,29.938799340206184
1673609865.727093,16.158152,29.898949000000002
1673609865.7280998,16.145603,29.850712555555557
1673609865.729107,16.166229,29.89329602216925
1673609865.730114,16.15481,29.88261451502146
1673609865.7311208,16.167671,29.86440215879828
1673609865.732128,16.19717,29.86351259722895
1673609865.733136,16.210512,29.86432675351704
1673609865.734143,16.200174,29.865140139553205
1673609865.7351499,16.171255,29.865953333026386
1673609865.736157,16.1532,29.866766719062547
1673609865.737164,16.172457,29.86758010509871
1673609865.7381709,16.201136,29.868393298571892
1673609865.739178,16.200344,29.869206684608056
1673609865.740185,16.202147,29.87002007064422
1673609865.7411919,16.208397,29.8708332641174
1673609865.742199,16.197073,29.87164665015356
1673609865.743206,16.184837,29.872460036189725
1673609865.7442129,16.172817,29.873273229662907
1673609865.745221,16.247726,29.874087385951
1673609865.746228,16.29903,29.87490077198716
1673609865.7472348,16.300425,29.875713965460342
1673609865.748242,16.30254,29.876527351496506
1673609865.749249,16.290302,29.87734073753267
1673609865.7502558,16.243689,29.87815393100585
1673609865.751263,16.162985,29.878967317042015
1673609865.75227,16.112307,29.879780703078175
1673609865.7532768,16.060499,29.880593896551357
1673609865.754284,16.065067,29.88140728258752
1673609865.755291,16.106297,29.882220668623685
1673609865.7562978,16.102882,29.883033862096866
1673609865.757305,16.0912,29.88384724813303
1673609865.758313,16.109062,29.88466140442112
1673609865.75932,16.12738,29.885474790457284
1673609865.7603269,16.149426,29.886287983930465
1673609865.761334,16.141516,29.887101369966626
1673609865.762341,16.106945,29.88791475600279
1673609865.7633479,16.125866,29.88872794947597
1673609865.764355,16.168081,29.889541335512135
1673609865.765362,16.210152,29.8903547215483
1673609865.7663689,16.235996,29.89116791502148
1673609865.767376,16.246862,29.89198130105764
1673609865.768383,16.225586,29.892794687093804
1673609865.7693899,16.242294,29.893607880566986
1673609865.770398,16.238279,29.894422036855076
1673609865.771405,16.210056,29.89523542289124
1673609865.7724118,16.185318,29.89604861636442
1673609865.773419,16.147333,29.896862002400585
1673609865.774426,16.145771,29.89767538843675
1673609865.7754328,16.11935,29.89848858190993
1673609865.77644,16.150122,29.89104459713945
1673609865.777447,16.192938,29.88889037339056
1673609865.7784538,16.157839,29.91526101669051
1673609865.779461,16.122692,29.91027626626937
1673609865.780468,16.121058,29.931326525035765
1673609865.7814748,16.138487,29.946720962327134
1673609865.782482,16.138823,29.92494148510131
1673609865.78349,16.172144,29.92679826084883
1673609865.784497,16.195488,29.88107614735336
1673609865.7855039,16.167191,29.863368568030896
1673609865.786511,16.156109,29.86456795087835
1673609865.787518,16.156637,29.865767333725803
1673609865.7885249,16.155964,29.866966432628455
1673609865.789532,16.170101,29.86816581547591
1673609865.790539,16.183371,29.869365198323365
1673609865.7915459,16.158777,29.870564297226018
1673609865.792553,16.138968,29.87176368007347
1673609865.79356,16.138222,29.872963062920924
1673609865.7945669,16.152647,29.874162161823577
1673609865.795575,16.161373,29.875362680450245
1673609865.796582,16.171999,29.876562063297698
1673609865.7975888,16.180389,29.87776116220035
1673609865.798596,16.191303,29.878960545047804
1673609865.799603,16.198277,29.880159927895257
1673609865.8006098,16.192074,29.880859
1673609865.801617,16.175701,29.880859
1673609865.802624,16.164955,29.865179855369927
1673609865.8036308,16.166109,29.828732840009536
1673609865.804638,16.175365,29.83278825148845
1673609865.805645,16.175558,29.838111791885442
1673609865.8066518,16.176472,29.850276046971864
1673609865.807659,16.183683,29.88200207001667
1673609865.808667,16.21508,29.862772
1673609865.809674,16.221306,29.86305383774679
1673609865.8106809,16.215248,29.86364130112522
1673609865.811688,16.209984,29.864228903614087
1673609865.812695,16.225441,29.864816506102954
1673609865.8137019,16.245924,29.865403969481385
1673609865.814709,16.242077,29.865991571970252
1673609865.815716,16.199261,29.86657917445912
1673609865.842907,16.15534,29.82387777470167
1673609865.8439138,16.135986,29.83469366237482
1673609865.8449209,16.116154,29.893835010635158
1673609865.845929,16.110792,29.91550784501627
1673609865.846936,16.143055,29.840372992846923
1673609865.8479428,16.181183,29.826593
1673609865.84895,16.22097,29.84033535560859
1673609865.849957,16.265999,29.847647241917656
1673609865.8509638,16.254169,29.85153844291805
1673609865.851971,16.210993,29.85543056534894
1673609865.852978,16.177986,29.859322687779834
1673609865.8539848,16.210705,29.863213888780223
1673609865.854992,16.246284,29.867106011211117
1673609865.855999,16.243856,29.870998133642008
1673609865.8570058,16.257078,29.8748893346424
1673609865.858013,16.241934,29.87878145707329
1673609865.859021,16.190054,29.88267726522618
1673609865.860028,16.187578,29.886569387657076
1673609865.8610349,16.128654,29.89046058865747
1673609865.862042,16.050331,29.89435271108836
1673609865.8630488,16.055067,29.898243912088752
1673609865.8640559,16.139425,29.902136034519643
1673609865.865063,16.183659,29.906028156950534
1673609865.8660698,16.181183,29.909919357950926
1673609865.8670769,16.188948,29.91381148038182
1673609865.868084,16.216114,29.91770360281271
1673609865.8690908,16.242823,29.921594803813104
1673609865.8700979,16.207869,29.925486926243995
1673609865.871106,16.143511,29.929382734396885
1673609865.872113,16.090406,29.93327485682778
1673609865.8731198,16.112715,29.937166057828172
1673609865.874127,16.148727,29.941058180259063
1673609865.875134,16.143969,29.944950302689954
1673609865.8761408,16.130049,29.948841503690346
1673609865.877148,16.142982,29.952733626121237
1673609865.878155,16.165461,29.95662574855213
1673609865.8791618,16.169956,29.960516949552524
1673609865.880169,16.162144,29.964409071983415
1673609865.881176,16.159138,29.968301194414305
1673609865.8821828,16.16046,29.972192395414698
1673609865.88319,16.172096,29.97608451784559
1673609865.884198,16.177914,29.979980325998483
1673609865.8852048,16.182457,29.983871526998872
1673609865.8862119,16.181376,29.987763649429766
1673609865.887219,16.17885,29.991655771860657
1673609865.8882258,16.172672,29.99554697286105
1673609865.8892329,16.19241,29.99943909529194
1673609865.89024,16.245323,30.003331217722835
1673609865.8912468,16.245516,30.007222418723227
1673609865.8922539,16.217676,30.011114541154118
1673609865.893261,16.208902,30.01500666358501
1673609865.8942678,16.247726,30.0188978645854
1673609865.8952749,16.245564,30.022789987016292
1673609865.896283,16.204454,30.025581
1673609865.89729,16.141108,30.030882051502147
1673609865.8982968,16.093002,30.04909494421931
1673609865.899304,16.114687,30.045105557939916
1673609865.900311,16.131178,30.024532610872676
1673609865.9013178,16.113533,30.055954638379024
1673609865.902325,16.128006,30.043671
1673609865.903332,16.183035,30.03155094873629
1673609865.9043388,16.201185,30.019859267222884
1673609865.905346,16.183971,30.043671
1673609865.906353,16.155941,30.043671
1673609865.9073598,16.146732,30.043671
1673609865.908367,16.124184,30.043671
1673609865.909375,16.112234,30.043671
1673609865.9103818,16.105816,30.043671
1673609865.9113889,16.151709,30.043671
1673609865.912396,16.19289,30.043671
1673609865.9134028,16.209671,30.043671
1673609865.9144099,16.254194,30.043671
1673609865.915417,16.273451,30.043671
1673609865.9164238,16.272177,30.043671
1673609865.9174309,16.276648,30.043671
1673609865.918438,16.258905,30.043671
1673609865.9194448,16.232317,30.043671
1673609865.9204519,16.21073,30.043671
1673609865.92146,16.229456,30.043671
1673609865.922467,16.23715,30.043671
1673609865.9234738,16.157022,30.043671
1673609865.924481,16.070862,30.043671
1673609865.925488,16.03968,30.043671
1673609865.9264948,16.050714,30.043671
1673609865.927502,16.082905,30.043671
1673609865.928509,16.101416,30.043671
1673609865.9295158,16.097353,30.043671
1673609865.930523,16.105816,30.043671
1673609865.93153,16.124567,30.043671
1673609865.9325368,16.135626,30.043671
1673609865.933544,16.14065,30.043671
1673609865.934552,16.154329,30.043671
1673609865.9355588,16.181856,30.043671
1673609865.9365659,16.241814,30.043671
1673609865.937573,16.265589,30.043671
1673609865.9385798,16.269218,30.043671
1673609865.9395869,16.250204,30.043671
1673609865.940594,16.226114,30.043671
1673609865.9416008,16.201761,30.043671
1673609865.9426079,16.176662,30.043671
1673609865.943615,16.137308,30.043671
1673609865.9446218,16.096872,30.043671
1673609865.945629,16.107908,30.043671
1673609865.946637,16.110312,30.043671
1673609865.947644,16.123558,30.043671
1673609865.9486508,16.1394,30.043671
1673609865.949658,16.142717,30.043671
1673609865.950665,16.129015,30.043671
1673609865.9516718,16.094612,30.043671
1673609865.952679,16.09882,30.043671
1673609865.953686,16.098772,30.043671
1673609865.9546928,16.107546,30.043671
1673609865.9557,16.130362,30.043671
1673609865.956707,16.174091,30.043671
1673609865.9577138,16.2346,30.043671
1673609865.958721,16.257223,30.043671
1673609865.959729,16.236187,30.043671
1673609865.9607358,16.205969,30.043671
1673609865.9617429,16.193323,30.043671
1673609865.96275,16.175678,30.043671
1673609865.9637568,16.172672,30.043671
1673609865.9647639,16.154137,30.043671
1673609865.965771,16.136612,30.043671
1673609865.9667778,16.131323,30.043671
1673609865.967785,16.13868,30.043671
1673609865.968792,16.142284,30.043671
1673609865.9697988,16.145458,30.043671
1673609865.970806,16.150459,30.043671
1673609865.971814,16.172529,30.043671
1673609865.972821,16.232582,30.043671
1673609865.9738278,16.275782,30.048984110157367
1673609865.974835,16.261406,30.045413443436754
1673609865.975842,16.238184,30.007492
1673609865.9768488,16.197651,30.02461570802572
1673609865.977856,16.166086,30.050113042918454
1673609865.978863,16.162239,30.025581
1673609865.9798698,16.151638,30.013406788521074
1673609865.9869199,16.17296,29.99362941061178
1673609865.987927,16.132164,29.99441968765579
1673609865.9889338,16.080742,29.995209777607695
1673609865.989941,16.036411,29.996000054651702
1673609865.990948,16.042349,29.996790331695713
1673609865.9919548,16.069923,29.99758042164762
1673609865.992962,16.082857,29.998370698691627
1673609865.993969,16.1413,29.999160975735634
1673609865.9949758,16.230442,29.99995106568754
1673609865.995983,16.297491,30.00074134273155
1673609865.996991,16.354612,30.001532368143973
1673609865.997998,16.370262,30.00232264518798
1673609865.9990048,16.324417,30.003112735139887
1673609866.000012,16.24465,30.003903012183894
1673609866.001019,16.181376,30.004693289227905
1673609866.0020258,16.138462,30.00548337917981
1673609866.003033,16.074514,30.00627365622382
1673609866.00404,16.047951,30.007063933267826
1673609866.0050468,16.091343,30.007854023219732
1673609866.006054,16.124495,30.008644300263743
1673609866.007061,16.135073,30.00943457730775
1673609866.0080678,16.139496,30.010224667259656
1673609866.009075,16.140482,30.011014944303664
1673609866.010083,16.143631,30.011805969716086
1673609866.0110898,16.147959,30.01259605966799
1673609866.012097,16.14327,30.013386336712003
1673609866.013104,16.132549,30.01417661375601
1673609866.0141108,16.155483,30.014966703707916
1673609866.015118,16.198324,30.015756980751924
1673609866.016125,16.211113,30.016547257795935
1673609866.0171318,16.204983,30.01733734774784
1673609866.018139,16.177048,30.01812762479185
1673609866.019146,16.13726,30.01891790183586
1673609866.0201528,16.113245,30.019707991787765
1673609866.02116,16.123558,30.020498268831773
1673609866.022168,16.125818,30.021289294244195
1673609866.023175,16.111441,30.022079571288202
1673609866.0241818,16.131298,30.022869661240108
1673609866.025189,16.16897,30.02365993828412
1673609866.026196,16.186352,30.024450215328127
1673609866.0272028,16.169571,30.025240305280033
1673609866.02821,16.147333,30.01521670171674
1673609866.029217,16.108051,29.986509042431464
1673609866.0302238,16.106056,29.971313
1673609866.031231,16.108509,30.00357590883055
1673609866.032238,16.145506,30.00382076893759
1673609866.0332448,16.183683,30.00039869725864
1673609866.034252,16.225706,30.007492
1673609866.03526,16.239265,29.97366175797999
1673609866.0362668,16.240683,29.96461640476758
1673609866.037274,16.225971,29.97405976766528
1673609866.038281,16.210032000000002,29.978403588937525
1673609866.0392878,16.239962,29.982746381842986
1673609866.040295,16.328432,29.98709020311523
1673609866.041302,16.358915,29.980884223175966
1673609866.0423088,16.319656,29.98861675083532
1673609866.043316,16.277802,29.98993239009288
1673609866.044323,16.233446,29.989109203385787
1673609866.0453298,16.184116,29.98039685536993
1673609866.046337,16.094973,29.96238484182944
1673609866.047345,16.056004,29.98990702240763
1673609866.048352,16.099974,30.007492
1673609866.0493588,16.137405,29.988374981861575
1673609866.050366,16.13089,29.990681990712073
1673609866.051373,16.129568,30.00701378465591
1673609866.0523798,16.148417,30.00612530977774
1673609866.053387,16.159906,30.005236624510065
1673609866.054394,16.161566,30.00434793924239
1673609866.0554008,16.156422,30.00345946436422
1673609866.056408,16.157143,30.002570779096544
1673609866.057415,16.152166,30.00168209382887
1673609866.0584219,16.154306,30.0007936189507
1673609866.059429,16.164162,29.999904933683023
1673609866.060437,16.17248,29.99901540685733
1673609866.0614438,16.165148,29.998126931979158
1673609866.062451,16.157816,29.997238246711483
1673609866.063458,16.147959,29.996349561443807
1673609866.0644648,16.133726,29.995461086565637
1673609866.065472,16.172649,29.99457240129796
1673609866.066479,16.264795,29.993683716030283
1673609866.0674858,16.28237,29.992795241152113
1673609866.068493,16.262993,29.991906555884437
1673609866.0695,16.255997,29.991017870616762
1673609866.0705068,16.217363,29.99012939573859
1673609866.071514,16.154016,29.989240710470916
1673609866.072522,16.113245,29.98835118364522
1673609866.073529,16.056822,29.987462498377546
1673609866.0745358,15.962847,29.986574023499376
1673609866.075543,16.005903,29.9856853382317
1673609866.07655,16.146685,29.984796652964025
1673609866.0775568,16.203588,29.983908178085855
1673609866.078564,16.204477,29.98301949281818
1673609866.079571,16.250252,29.982130807550504
1673609866.0805779,16.301073,29.981242332672334
1673609866.081585,16.317108,29.98035364740466
1673609866.082592,16.351078,29.979464962136984
1673609866.0835989,16.327566,29.978576487258813
1673609866.084606,16.228903,29.977687801991138
1673609866.085614,16.131058,29.976798275165443
1673609866.0866208,16.090382,29.975909800287273
1673609866.087628,16.07127,29.975021115019597
1673609866.088635,16.093603,29.974132429751922
1673609866.0896418,16.10471,29.973243954873748
1673609866.090649,16.068432,29.972355269606073
1673609866.091656,16.037012,29.971466584338398
1673609866.0926628,16.019943,29.956261814435443
1673609866.09367,16.0655,29.953224
1673609866.094677,16.19313,29.976250240394087
1673609866.0956838,16.224337,29.913277626600987
1673609866.096691,16.183226,29.912142905882355
1673609866.097699,16.16748,29.98118675369458
1673609866.098706,16.165966,29.917483541871924
1673609866.0997128,16.209478,29.96202021960784
1673609866.10072,16.244482,29.921058666666667
1673609866.101727,16.236044,29.914865284886325
1673609866.1027339,16.242847,29.912423726630585
1673609866.103741,16.347303,29.909981590217555
1673609866.104748,16.409592,29.907539453804524
1673609866.1057549,16.381224,29.905097895548785
1673609866.106762,16.358555,29.902655759135754
1673609866.107769,16.357281,29.90021362272272
1673609866.1087759,16.300304,29.897772064466984
1673609866.109784,16.222437,29.895327615424772
1673609866.110791,16.129568,29.892885479011742
1673609866.1117978,16.038286,29.890443920756006
1673609866.112805,16.070236,29.888001784342972
1673609866.113812,16.104469,29.88555964792994
1673609866.1148188,16.053288,29.883118089674202
1673609866.115826,16.025208,29.88067595326117
1673609866.116833,16.071005,29.87823381684814
1673609866.1178398,16.096249,29.8757922585924
1673609866.118847,16.095743,29.87335012217937
1673609866.119854,16.114952,29.870907985766337
1673609866.1208608,16.146229,29.8684664275106
1673609866.121868,16.155531,29.86602429109757
1673609866.122876,16.152502,29.86357984205536
1673609866.123883,16.1632,29.861137705642328
1673609866.1248899,16.185678,29.85869614738659
1673609866.125897,16.202002,29.856254010973558
1673609866.126904,16.189333,29.853811874560524
1673609866.1279109,16.163153,29.851370316304788
1673609866.128918,16.135818,29.848928179891757
1673609866.129925,16.119879,29.846486043478723
1673609866.1309319,16.128174,29.844044485222987
1673609866.131939,16.155748,29.841602348809953
1673609866.132946,16.170197,29.839160212396923
1673609866.1339529,16.158897,29.836718654141187
1673609866.134961,16.149426,29.834274205098975
1673609866.135968,16.185343,29.831832068685944
1673609866.1369748,16.229023,29.829390510430205
1673609866.137982,16.231621,29.826948374017174
1673609866.138989,16.199791,29.82450623760414
1673609866.1399958,16.175173,29.822064679348404
1673609866.141003,16.180895,29.819622542935374
1673609866.14201,16.171951,29.81718040652234
1673609866.1430168,16.129833,29.814738848266604
1673609866.144024,16.107666,29.812296711853573
1673609866.145031,16.120649,29.80985457544054
1673609866.1460378,16.123077,29.8410198097166
1673609866.147045,16.116154,29.86435100190931
1673609866.148053,16.130384,29.844683
1673609866.14906,16.145386,29.83614469249106
1673609866.1500669,16.180294,29.80928440352549
1673609866.151074,16.222099,29.781625848210023
1673609866.152081,16.241404,29.79016078683834
1673609866.1530879,16.253473,29.81753773017385
1673609866.154095,16.286337,29.80826682052506
1673609866.155102,16.300785,29.79260452925936
1673609866.1561089,16.28071,29.7969088734441
1673609866.157116,16.237991,29.801214236891017
1673609866.158123,16.17938,29.80551960033793
1673609866.1591299,16.095984,29.7917452672866
1673609866.160138,16.040234,29.759961065092988
1673609866.161145,16.010254,29.778179457081542
1673609866.1621518,16.04158,29.80836530464839
1673609866.163159,16.117811,29.8385710472103
1673609866.164166,16.218998,29.83283435193133
1673609866.1651728,16.281864,29.84388726642825
1673609866.16618,16.280062,29.841610045149753
1673609866.167187,16.230394,29.839332823871256
1673609866.1681938,16.158031,29.837056141707645
1673609866.169201,16.139353,29.834778920429144
1673609866.170208,16.179523,29.832501699150647
1673609866.1712148,16.242487,29.830225016987036
1673609866.172222,16.213253,29.82794779570854
1673609866.17323,16.219841,29.811795911301857
1673609866.174237,16.212532,29.790407
1673609866.1752439,16.149113,29.79805993873659
1673609866.176251,16.122332,29.792947643776824
1673609866.177258,16.17301,29.772318
1673609866.1782649,16.188875,29.796408595947554
1673609866.179272,16.116875,29.834749459227467
1673609866.180279,16.107666,29.85296840033381
1673609866.1812859,16.11274,29.845954586412397
1673609866.182293,16.135458,29.826288179402248
1673609866.1833,16.168682,29.82563756686819
1673609866.1843069,16.211786,29.824987108361714
1673609866.185315,16.255877,29.824335879717303
1673609866.186322,16.269701,29.82368526718324
1673609866.1873288,16.287178,29.82303480867677
1673609866.188336,16.276625,29.82238419614271
1673609866.189343,16.240803,29.82173358360865
1673609866.1903498,16.19919,29.821083125102177
1673609866.191357,16.143198,29.820432512568118
1673609866.192364,16.070597,29.81978190003406
1673609866.1933708,16.074347,29.81913144152759
1673609866.194378,16.135145,29.81848082899353
1673609866.195385,16.16111,29.817830216459466
1673609866.1963918,16.170172,29.817179757952996
1673609866.197399,16.169739,29.816529145418937
1673609866.198407,16.160196,29.81587791677452
1673609866.199414,16.16123,29.815227304240462
1673609866.2004209,16.162865,29.814576845733992
1673609866.201428,16.125481,29.813926233199933
1673609866.202435,16.106224,29.81327562066587
1673609866.2034419,16.162912,29.8126251621594
1673609866.204449,16.239721,29.81197454962534
1673609866.205456,16.257679,29.81132393709128
1673609866.2064629,16.226067,29.810673478584807
1673609866.20747,16.21073,29.810022866050748
1673609866.208477,16.212315,29.80937225351669
1673609866.2094839,16.188875,29.808721795010218
1673609866.210492,16.146132,29.78422469527897
1673609866.211499,16.116682,29.796850296543504
1673609866.2125058,16.140459,29.84566606390081
1673609866.213513,16.14106,29.825221752980447
1673609866.229626,15.931066,29.801681943066093
1673609866.230633,15.994076,29.80104608683606
1673609866.2316399,16.070429,29.800410381140175
1673609866.232647,16.091753,29.79977452491014
1673609866.233654,16.125288,29.79913866868011
1673609866.2346609,16.174091,29.798502962984223
1673609866.235669,16.217653,29.797866504617613
1673609866.236676,16.234985000000002,29.79723064838758
1673609866.2376828,16.227726,29.79659494269169
1673609866.23869,16.214407,29.79595908646166
1673609866.239697,16.206594,29.795323230231627
1673609866.2407038,16.196257,29.794687524535743
1673609866.241711,16.163055,29.79405166830571
1673609866.242718,16.126539,29.79341581207568
1673609866.2437248,16.099133,29.79278010637979
1673609866.244732,16.076294,29.79214425014976
1673609866.245739,16.079803,29.791508393919727
1673609866.2467458,16.088554,29.79087268822384
1673609866.247753,16.10281,29.79023683199381
1673609866.248761,16.119808,29.789600373627195
1673609866.249768,16.135553,29.788964517397165
1673609866.2507749,16.236525,29.788328811701277
1673609866.251782,16.368387,29.787692955471243
1673609866.252789,16.354996,29.787057099241213
1673609866.2537959,16.312637,29.786421393545325
1673609866.254803,16.292395,29.785785537315295
1673609866.25581,16.250828,29.78514968108526
1673609866.299115,16.286577,29.787429055446204
1673609866.300122,16.328793,29.785734232679992
1673609866.3011289,16.315498,29.784039811150233
1673609866.302136,16.245852,29.782344988384022
1673609866.303143,16.16135,29.78065016561781
1673609866.3041499,16.110888,29.778955744088048
1673609866.305157,16.222099,29.777260921321837
1673609866.306164,16.316099,29.775566098555625
1673609866.3071709,16.259506,29.773871677025866
1673609866.308178,16.188587,29.772176854259655
1673609866.309185,16.148993,29.770482031493444
1673609866.3101919,16.108629,29.768787609963685
1673609866.3112,16.111994,29.767091182251672
1673609866.312207,16.132332,29.76539635948546
1673609866.3132138,16.125648,29.763701937955698
1673609866.314221,16.099398,29.762007115189487
1673609866.315228,16.131035,29.760312292423276
1673609866.3162348,16.18486,29.758617870893517
1673609866.317242,16.172312,29.756923048127305
1673609866.318249,16.146805,29.755228225361094
1673609866.3192558,16.137165,29.753533803831335
1673609866.320263,16.16272,29.751838981065124
1673609866.32127,16.186304,29.750144158298912
1673609866.3222768,16.199501,29.74844973676915
1673609866.323284,16.207268,29.74675491400294
1673609866.324292,16.263161,29.745058486290926
1673609866.325299,16.301386,29.743363663524715
1673609866.3263059,16.29903,29.741669241994956
1673609866.327313,16.254988,29.739974419228744
1673609866.32832,16.170317,29.738279596462533
1673609866.3293269,16.098459,29.736585174932774
1673609866.3353689,16.205343,29.726124283261804
1673609866.336377,16.230587,29.760646627563183
1673609866.337384,16.238712,29.78664600619933
1673609866.3383908,16.198685,29.790407
1673609866.339398,16.170485,29.780699360942048
1673609866.340405,16.14957,29.768567684202168
1673609866.3414118,16.096632,29.756438879544852
1673609866.342419,16.078987,29.744307202804976
1673609866.343426,16.087257,29.748043391988556
1673609866.3444328,16.118725,29.754090678903456
1673609866.34544,16.126347,29.736656910824987
1673609866.346447,16.124687,29.772449898115998
1673609866.3474538,16.169138,29.772829329821633
1673609866.348461,16.179596,29.77320885137612
1673609866.349469,16.192097,29.773588732326015
1673609866.350476,16.198132,29.7739682538805
1673609866.3514829,16.179813,29.774347685586136
1673609866.35249,16.155268,29.77472720714062
1673609866.353497,16.134544000000002,29.775106728695107
1673609866.3545039,16.125097,29.77548616040074
1673609866.355511,16.143848,29.775865681955224
1673609866.3565178,16.164667,29.77624511366086
1673609866.3575249,16.206017,29.776624635215345
1673609866.358532,16.224937,29.77700415676983
1673609866.3696098,16.205584,29.781178893869175
1673609866.370617,16.243208,29.781558415423664
1673609866.371624,16.231501,29.78193793697815
1673609866.3726308,16.216354,29.78231736868378
1673609866.373638,16.26631,29.782696890238267
1673609866.374646,16.305904,29.783076771188163
1673609866.375653,16.317108,29.783456292742652
1673609866.3766599,16.277296,29.783835724448284
1673609866.377667,16.19628,29.78421524600277
1673609866.3786738,16.161301,29.7845946777084
1673609866.3796809,16.167383,29.78497419926289
1673609866.380688,16.158297,29.785353720817376
1673609866.3816948,16.124014,29.785733152523008
1673609866.3827019,16.075645,29.786112674077494
1673609866.383709,16.056725,29.78649219563198
1673609866.3847158,16.112835,29.786871627337614
1673609866.3857229,16.170918,29.7872511488921
1673609866.386731,16.189476,29.787631029841997
1673609866.387738,16.19277,29.788010551396482
1673609866.3887448,16.1889,29.788389983102117
1673609866.389752,16.178202,29.788769504656603
1673609866.390759,16.158152,29.78914902621109
1673609866.3917658,16.155436,29.78952845791672
1673609866.392773,16.145676,29.789907979471206
1673609866.39378,16.126995,29.79028750102569
1673609866.4008298,16.145988,29.772318
1673609866.4018369,16.132862,29.75893455531712
1673609866.402844,16.116322,29.727202579637577
1673609866.4038508,16.10305,29.719707559857422
1673609866.4048579,16.111105,29.721921833367144
1673609866.405865,16.110985,29.724136106876866
1673609866.4068718,16.154427,29.72634985617411
1673609866.4078789,16.203901,29.728564129683832
1673609866.408886,16.191113,29.730778403193558
1673609866.4098928,16.205368,29.7329921524908
1673609866.4108999,16.227894,29.735206426000524
1673609866.411908,16.240082,29.736139
1673609866.412915,16.238255,29.757518676042906
1673609866.4139218,16.2127,29.79394849642346
1673609866.414929,16.162479,29.78661466237482
1673609866.415936,16.154066,29.772318
1673609866.4169428,16.129303,29.772318
1673609866.41795,16.087666,29.76099620100143
1673609866.418957,16.161493,29.742777175965667
1673609866.4199638,16.226332,29.75928666054827
1673609866.420971,16.235563,29.773549789118036
1673609866.421978,16.241068,29.77546762075629
1673609866.4229848,16.235033,29.777384998362432
1673609866.423992,16.118269,29.779302830000688
1673609866.425,16.036098,29.78122247776739
1673609866.4260068,16.083963,29.783139855373534
1673609866.4270139,16.103628,29.785057687011786
1673609866.428021,16.117908,29.786975518650042
1673609866.4290278,16.175438,29.788892896256186
1673609866.4300349,16.27886,29.790810727894442
1673609866.431042,16.30867,29.792728559532698
1673609866.4320488,16.342543,29.794645937138842
1673609866.4330559,16.348745,29.796563768777094
1673609866.434063,16.316603,29.79848160041535
1673609866.4350698,16.25477,29.800398978021494
1673609866.4360769,16.211401,29.80231680965975
1673609866.437085,16.128895,29.804236457426448
1673609866.438092,16.066847,29.806154289064704
1673609866.4390988,16.050835,29.80807166667085
1673609866.440106,16.064274,29.809989498309104
1673609866.441113,16.116346,29.81190732994736
1673609866.4421198,16.160027,29.813824707553504
1673609866.443127,16.167601,29.815742539191756
1673609866.444134,16.188995,29.817660370830012
1673609866.4451408,16.235443,29.819577748436156
1673609866.446148,16.242317,29.821495580074412
1673609866.447155,16.229504,29.823413411712668
1673609866.4481618,16.211451,29.82533078931881
1673609866.449169,16.19051,29.827248620957064
1673609866.450177,16.168755,29.829168268723766
1673609866.4511838,16.142044,29.83108564632991
1673609866.4521909,16.098171,29.833003477968166
1673609866.453198,16.073097,29.83492130960642
1673609866.4542048,16.120817,29.836838687212563
1673609866.4552119,16.156494,29.83875651885082
1673609866.456219,16.146469,29.840674350489074
1673609866.4572258,16.12476,29.84259172809522
1673609866.4582329,16.12904,29.84450955973347
1673609866.45924,16.147478,29.844683
1673609866.4602468,16.156878,29.86137489964243
1673609866.461254,16.166927,29.778658838340483
1673609866.462262,16.17075,29.80626070958512
1673609866.463269,16.168898,29.84269078331347
1673609866.4642758,16.16522,29.827464287553646
1673609866.465283,16.164595,29.809245847401048
1673609866.46629,16.18075,29.756079137067935
1673609866.4672968,16.191833,29.77182631044349
1673609866.468304,16.195175,29.768953418382583
1673609866.469311,16.179813,29.76549551260352
1673609866.4703178,16.176903,29.76203842545745
1673609866.471325,16.15481,29.758580519678386
1673609866.472332,16.123606,29.75512261389932
1673609866.4733388,16.128101,29.751665526753253
1673609866.474346,16.143608,29.74820762097419
1673609866.475354,16.141083,29.744746440663135
1673609866.4763608,16.148632,29.741289353517068
1673609866.4773679,16.170412,29.737831447738003
1673609866.478375,16.190102,29.734373541958938
1673609866.4793818,16.197651,29.73091645481287
1673609866.4803889,16.186905,29.727458549033805
1673609866.481396,16.171783,29.72400064325474
1673609866.4824028,16.188154,29.720543556108673
1673609866.48341,16.202892,29.702807904625658
1673609866.484417,16.187601,29.68461948033373
1673609866.4854238,16.155748,29.70948159799714
1673609866.506573,16.275951,29.715951004726907
1673609866.5075798,16.28701,29.71832662553774
1673609866.508587,16.288139,29.72070280889198
1673609866.509594,16.254217,29.723078992246215
1673609866.5106008,16.221451,29.725454613057046
1673609866.511608,16.212868,29.727830796411283
1673609866.512616,16.141468,29.730209229939152
1673609866.513623,16.122572,29.732585413293393
1673609866.5146298,16.112234,29.73496103410422
1673609866.515637,16.056822,29.717765337625178
1673609866.516644,16.056196,29.709277223175967
1673609866.5176508,16.105961,29.669189116286244
1673609866.518658,16.142164,29.62093534916718
1673609866.519665,16.145603,29.681871
1673609866.5206718,16.142164,29.62566426681061
1673609866.521679,16.171326,29.653339359851987
1673609866.522686,16.205296,29.57546112029611
1673609866.5236928,16.190607,29.61440175107958
1673609866.5247,16.135073,29.672408857539317
1673609866.525708,16.12339,29.681871
1673609866.5267148,16.129713,29.65245801144492
1673609866.527722,16.136997,29.60118791511683
1673609866.528729,16.157335,29.591783920071872
1673609866.5297358,16.162695,29.59222815687312
1673609866.530743,16.160124,29.592672498868968
1673609866.53175,16.18527,29.593116840864816
1673609866.5327568,16.221403,29.593561077666063
1673609866.533764,16.232534,29.59400541966191
1673609866.534771,16.227629,29.59444976165776
1673609866.5357778,16.209671,29.594893998459007
1673609866.536785,16.195799,29.595338340454852
1673609866.537793,16.191641,29.595783103229106
1673609866.5388,16.214792,29.596227445224955
1673609866.5398068,16.230347,29.5966716820262
1673609866.540814,16.170029,29.59711602402205
1673609866.541821,16.134232,29.5975603660179
1673609866.5428278,16.117308,29.598004602819145
1673609866.543835,16.116226,29.598448944814994
1673609866.544842,16.11488,29.598893286810842
1673609866.5458488,16.093891,29.599337523612085
1673609866.546856,16.045956,29.599781865607934
1673609866.547863,16.075333,29.600226207603782
1673609866.5488698,16.204527,29.60067044440503
1673609866.549877,16.254194,29.601114786400878
1673609866.550885,16.235586,29.601559549175132
1673609866.5518918,16.206497,29.60200378597638
1673609866.552899,16.18854,29.602448127972227
1673609866.553906,16.197699,29.602892469968076
1673609866.5549128,16.208397,29.60333670676932
1673609866.55592,16.177889,29.603781048765168
1673609866.556927,16.115143,29.604225390761016
1673609866.5579338,16.127283,29.604669627562263
1673609866.558941,16.177385,29.60511396955811
1673609866.559948,16.193611,29.60555831155396
1673609866.5609548,16.182264,29.606002548355207
1673609866.561962,16.20472,29.606446890351055
1673609866.56297,16.237751,29.60689165312531
1673609866.566998,16.134832,29.608668915914098
1673609866.5680048,16.136154,29.609113152715345
1673609866.569012,16.175894,29.613485427277062
1673609866.570019,16.201521,29.637216274135877
1673609866.5710258,16.186304,29.577807086552216
1673609866.572033,16.215994,29.604773122317596
1673609866.57304,16.22299,29.57582726537911
1673609866.5740469,16.245852,29.588797280810486
1673609866.575054,16.257608,29.578824998330948
1673609866.576062,16.206665,29.61529681497377
1673609866.5770688,16.145531,29.633611460071513
1673609866.578076,16.140026,29.57333
1673609866.579083,16.126755,29.57333
1673609866.5800898,16.083385,29.57333
1673609866.581097,16.086319,29.57333
1673609866.582104,16.129784,29.57333
1673609866.5831108,16.166157,29.557017532427277
1673609866.584118,16.177336,29.553718308462454
1673609866.585125,16.180895,29.55650857653791
1673609866.5861318,16.176182,29.54568703004292
1673609866.587139,16.177313,29.555241
1673609866.588147,16.177673,29.554858007256215
1673609866.589154,16.1726,29.55406576369611
1673609866.5901608,16.159666,29.553273707693663
1673609866.591168,16.123631,29.552481464133553
1673609866.592175,16.128222,29.551689220573447
