measure_time,emg_ch_1,grip_force_inter
1673609786.001667,16.94935,0.538678
1673609786.002675,16.955288,0.5564737814064362
1673609786.003682,16.951345,0.521123820219361
1673609786.004689,16.946154,0.5555765937052933
1673609786.005696,16.940744,0.5040785822603719
1673609786.006703,16.929998,0.5580695594755661
1673609786.00771,16.920935,0.5890718540772532
1673609786.008717,16.917953,0.5025
1673609786.009724,16.921007,0.5035305771156138
1673609786.010731,16.925165,0.5205326184827233
1673609786.011738,16.92721,0.5196439784492283
1673609786.012745,16.921343,0.5187555487945291
1673609786.013752,16.919708,0.5178669087610341
1673609786.01476,16.928532,0.516977427212356
1673609786.015767,16.930742,0.5160887871788609
1673609786.016774,16.93144,0.5152003575241617
1673609786.017781,16.927954,0.5143117174906667
1673609786.018788,16.930862,0.5134230774571718
1673609786.019795,16.936056,0.5125346478024726
1673609786.020802,16.935696,0.5116460077689775
1673609786.021809,16.930719,0.5107573677354825
1673609786.022816,16.925262,0.5098689380807834
1673609786.023823,16.925959,0.5089802980472884
1673609786.02483,16.92668,0.5080916580137934
1673609786.025837,16.918314,0.5072032283590943
1673609786.026844,16.912617,0.5063145883255992
1673609786.027852,16.908289,0.505425106776921
1673609786.028859,16.914492,0.5045366771222218
1673609786.029866,16.912497,0.5036480370887269
1673609786.030873,16.922424,0.5027593970552319
1673609786.03188,16.938629,0.5018709674005326
1673609786.032887,16.939301,0.5009823273670376
1673609786.033894,16.939013,0.5000936873335426
1673609786.034901,16.928699,0.4992052576788435
1673609786.035908,16.920141,0.49831661764534846
1673609786.036915,16.919443,0.4974279776118535
1673609786.037922,16.920309,0.49653954795715427
1673609786.038929,16.920549,0.4956509079236593
1673609786.039937,16.925838,0.4947614263749811
1673609786.043965,16.93721,0.4912070766197969
1673609786.044972,16.943556,0.49031864696509775
1673609786.045979,16.93911,0.4894300069316027
1673609786.046986,16.935743,0.48854136689810773
1673609786.047993,16.930479,0.4876529372434086
1673609786.049,16.931152,0.48676429720991354
1673609786.050007,16.929998,0.48587565717641856
1673609786.051014,16.929493,0.4849872275217194
1673609786.052022,16.932714,0.4972553113972341
1673609786.053029,16.92918,0.5140390140643623
1673609786.054036,16.914707,0.5158446270863137
1673609786.055043,16.917833,0.552281411063424
1673609786.05605,16.928484,0.5540676641239571
1673609786.057057,16.928627,0.5346927267525036
1673609786.058064,16.927113,0.5424044892703863
1673609786.059071,16.924444,0.5278979046483909
1673609786.060078,16.926176,0.538678
1673609786.061085,16.928171,0.5372024978363036
1673609786.062092,16.92942,0.5336471520636545
1673609786.063099,16.928194,0.5300926479921828
1673609786.064106,16.936825,0.5265373022195338
1673609786.065114,16.944759,0.5229785896421758
1673609786.066121,16.937571,0.5146168271752085
1673609786.067128,16.93745,0.5025
1673609786.068135,16.942259,0.4962762453505007
1673609786.069142,16.935047,0.5098175287246722
1673609786.070149,16.932066,0.5373452625178827
1673609786.071156,16.925526,0.4958966955174058
1673609786.072163,16.915693,0.4978731830750894
1673609786.07317,16.91728,0.5068820753457319
1673609786.074177,16.924109,0.5053595629470672
1673609786.075184,16.927185,0.5385086732988573
1673609786.076191,16.928772,0.5380750367561492
1673609786.077199,16.931681,0.5376408867910605
1673609786.078206,16.93298,0.5372071475638762
1673609786.079213,16.930574,0.5367735110211681
1673609786.08022,16.928339,0.536339771793984
1673609786.081227,16.9293,0.5359060325667997
1673609786.082234,16.930815,0.5354723960240916
1673609786.083241,16.926079,0.5350386567969073
1673609786.084248,16.923723,0.5346049175697232
1673609786.085255,16.924973,0.534171281027015
1673609786.086262,16.926031,0.5337375417998308
1673609786.087269,16.929253,0.5333038025726466
1673609786.088276,16.926872,0.5328701660299385
1673609786.089283,16.921824,0.5324364268027543
1673609786.090291,16.921007,0.5320022768376655
1673609786.091298,16.922882,0.5315685376104813
1673609786.092305,16.921968,0.5311349010677732
1673609786.093312,16.919636,0.530701161840589
1673609786.094319,16.922544,0.5302674226134048
1673609786.095326,16.923122,0.5298337860706966
1673609786.096333,16.920237,0.5294000468435125
1673609786.09734,16.926151,0.5289663076163282
1673609786.098347,16.940407,0.5285326710736201
1673609786.099354,16.938892,0.5280989318464359
1673609786.100361,16.92906,0.5276651926192517
1673609786.101368,16.927401,0.5272315560765436
1673609786.102376,16.929445,0.5267974061114549
1673609786.103383,16.9293,0.5263636668842706
1673609786.10439,16.925816,0.5259300303415625
1673609786.105397,16.925718,0.5254962911143783
1673609786.106404,16.920982,0.5250625518871941
1673609786.107411,16.913025,0.524628915344486
1673609786.108418,16.918915,0.5241951761173017
1673609786.109425,16.924397,0.5237614368901176
1673609786.110432,16.929686,0.5233278003474094
1673609786.111439,16.928892,0.5228940611202252
1673609786.112446,16.921703,0.522460321893041
1673609786.113453,16.923363,0.5220266853503329
1673609786.11446,16.92668,0.5215929461231487
1673609786.115468,16.929686,0.5211587961580599
1673609786.116475,16.938484,0.5207250569308757
1673609786.117482,16.941874,0.5580867982832618
1673609786.118489,16.939518,0.6001135771156139
1673609786.119496,16.937906,0.5982892629947544
1673609786.120503,16.932257,0.592954
1673609786.12151,16.920189,0.5409146962327134
1673609786.122517,16.922882,0.5337234681764005
1673609786.123524,16.93144,0.5254196342393895
1673609786.124531,16.92728,0.5339767577491654
1673609786.125538,16.922449,0.538678
1673609786.126545,16.925816,0.5384335791241475
1673609786.127553,16.928915,0.538106757029554
1673609786.12856,16.940575,0.5377802441327795
1673609786.129567,16.93531,0.5374538085354597
1673609786.130574,16.928194,0.5371272956386852
1673609786.131581,16.934855,0.5368007827419107
1673609786.132588,16.93346,0.5364743471445909
1673609786.133595,16.927473,0.5361478342478163
1673609786.134602,16.921391,0.5358213213510418
1673609786.135609,16.917185,0.5354948857537221
1673609786.136616,16.923435,0.5351683728569475
1673609786.137623,16.925478,0.534841859960173
1673609786.13863,16.930239,0.5345154243628532
1673609786.139637,16.934204,0.5341889114660786
1673609786.140645,16.93882,0.5338620893714852
1673609786.141652,16.934061,0.5335355764747107
1673609786.142659,16.924229,0.5332091408773909
1673609786.143666,16.924156,0.5328826279806164
1673609786.144673,16.925936,0.5325561150838418
1673609786.14568,16.924564,0.532229679486522
1673609786.146687,16.925117,0.5319031665897476
1673609786.147694,16.929565,0.531576653692973
1673609786.148701,16.928988,0.5312502180956532
1673609786.149708,16.928747,0.5309237051988787
1673609786.150715,16.926584,0.5305971923021041
1673609786.151722,16.922544,0.5302707567047843
1673609786.15273,16.925646,0.529943934610191
1673609786.153737,16.931007,0.5296174217134164
1673609786.154744,16.927258,0.5292909861160966
1673609786.155751,16.927065,0.528964473219322
1673609786.156758,16.927305,0.5286379603225475
1673609786.157765,16.925671,0.5283115247252277
1673609786.158772,16.927979,0.5279850118284533
1673609786.159779,16.92692,0.5276584989316787
1673609786.160786,16.92692,0.5273320633343589
1673609786.161793,16.924084,0.5270055504375843
1673609786.1628,16.925503,0.5266790375408098
1673609786.163807,16.929012,0.5263526019434901
1673609786.164814,16.93329,0.5260260890467156
1673609786.165822,16.933821,0.5256992669521221
1673609786.166829,16.929518,0.5253727540553476
1673609786.167836,16.923748,0.5250463184580277
1673609786.168843,16.925671,0.5247198055612532
1673609786.16985,16.923603,0.5243932926644788
1673609786.170857,16.916655,0.5240668570671589
1673609786.171864,16.917305,0.5237403441703844
1673609786.172871,16.926199,0.5234138312736099
1673609786.173878,16.928772,0.52308739567629
1673609786.174885,16.928364,0.5227608827795156
1673609786.175892,16.928291,0.5224343698827411
1673609786.176899,16.925358,0.5221079342854212
1673609786.177907,16.923916,0.5217811121908278
1673609786.178914,16.924732,0.5214545992940532
1673609786.179921,16.928194,0.5211281636967334
1673609786.180928,16.924782,0.520801650799959
1673609786.181935,16.92519,0.520589
1673609786.182942,16.92709,0.5399774723150358
1673609786.183949,16.922184,0.5616493910348117
1673609786.184956,16.917496,0.5656057151370679
1673609786.185963,16.920477,0.5973326654744874
1673609786.18697,16.923916,0.5678731456843109
1673609786.187977,16.922329,0.5638775508939213
1673609786.188984,16.917786,0.5676229878397712
1673609786.189991,16.919395,0.549404595851216
1673609786.190999,16.919853,0.538678
1673609786.192006,16.920116,0.538678
1673609786.193013,16.919228,0.538678
1673609786.19402,16.910572,0.538678
1673609786.195027,16.917088,0.538678
1673609786.196034,16.919804,0.5002485793991416
1673609786.206105,16.932642,0.5206002794996882
1673609786.207112,16.934324,0.5177976555771558
1673609786.208119,16.929758,0.5149956951546052
1673609786.209126,16.932739,0.5121930712320728
1673609786.210133,16.924925000000002,0.5093904473095404
1673609786.21114,16.925478,0.5065884868869897
1673609786.212147,16.92495,0.5037858629644574
1673609786.213154,16.911222,0.500983239041925
1673609786.214161,16.90704,0.4981812786193742
1673609786.215168,16.916655,0.4953786546968419
1673609786.216176,16.921463,0.49257337677438284
1673609786.217183,16.92757,0.4897707528518505
1673609786.21819,16.929588,0.4869687924292998
1673609786.219197,16.93709,0.4841661685067674
1673609786.220204,16.940094,0.481363544584235
1673609786.221211,16.942354,0.4785615841616844
1673609786.222218,16.941273,0.475758960239152
1673609786.223225,16.924372,0.4729563363166196
1673609786.224232,16.922304,0.4701543758940689
1673609786.225239,16.922785,0.46735175197153656
1673609786.230275,16.92091,0.41813042989985694
1673609786.231282,16.924397,0.4183027673420739
1673609786.232289,16.926296,0.46704371530758226
1673609786.233296,16.923916,0.45955911206485456
1673609786.234303,16.921991,0.48589900786838336
1673609786.23531,16.911919,0.5067279066200429
1673609786.236317,16.903673,0.5127987837558611
1673609786.237324,16.911102,0.5188710984661845
1673609786.238331,16.918289,0.524943413176508
1673609786.239338,16.922401,0.5310142903123262
1673609786.240345,16.930359,0.5370866050226496
1673609786.241353,16.955769,0.5431646700309942
1673609786.24236,16.945913,0.5492369847413177
1673609786.243367,16.940311,0.5553078618771359
1673609786.244374,16.937258,0.5613801765874593
1673609786.245381,16.92721,0.5674524912977827
1673609786.246388,16.913578,0.573523368433601
1673609786.247395,16.899683,0.5606358204577969
1673609786.248402,16.900404,0.5137285473182359
1673609786.249409,16.902519,0.5169703373867429
1673609786.250416,16.904106,0.535188729375298
1673609786.2514231,16.910645,0.509226779499404
1673609786.25243,16.917376,0.5767568245112065
1673609786.253438,16.922401,0.5479569442060086
1673609786.254445,16.92156,0.538678
1673609786.255452,16.919468,0.5234313106819265
1673609786.256459,16.918819,0.5255816191164326
1673609786.257466,16.918459,0.5314971375309661
1673609786.258473,16.916342,0.5374112554913294
1673609786.25948,16.904179,0.5433267739058629
1673609786.260487,16.904755,0.5492422923203963
1673609786.261494,16.919949,0.5551564102807597
1673609786.262501,16.918579,0.5610719286952931
1673609786.263508,16.923698,0.5669874471098265
1673609786.264515,16.931705,0.5729015650701899
1673609786.265522,16.926031,0.5788170834847234
1673609786.26653,16.929638,0.5847382037159372
1673609786.267537,16.935888,0.5906537221304706
1673609786.268544,16.93108,0.596567840090834
1673609786.269551,16.92495,0.6024833585053675
1673609786.2705581,16.92507,0.6083988769199009
1673609786.271565,16.932522,0.6143129948802643
1673609786.272572,16.930647,0.6202285132947977
1673609786.2735791,16.934469,0.6261440317093311
1673609786.274586,16.944036,0.6320581496696944
1673609786.275593,16.942715,0.6379736680842278
1673609786.2766,16.934109,0.6438877860445913
1673609786.277607,16.929806,0.6498033044591247
1673609786.278615,16.928867,0.6557244246903385
1673609786.279622,16.92728,0.6616399431048721
1673609786.280629,16.928074,0.6675540610652353
1673609786.281636,16.923508000000002,0.6734695794797687
1673609786.282643,16.917473,0.6793850978943022
1673609786.28365,16.919563,0.6852992158546656
1673609786.284657,16.921007,0.691214734269199
1673609786.285664,16.920309,0.6971302526837324
1673609786.286671,16.917233,0.7030443706440958
1673609786.287678,16.915068,0.7089598890586293
1673609786.288685,16.913458,0.7148754074731627
1673609786.289692,16.909178,0.720789525433526
1673609786.290699,16.907568,0.7267050438480595
1673609786.291707,16.926079,0.7326261640792733
1673609786.2927141,16.936417,0.7385416824938068
1673609786.293721,16.928988,0.7444558004541701
1673609786.294728,16.922474,0.7503713188687036
1673609786.2957351,16.931273,0.756286837283237
1673609786.296742,16.927738,0.7622009552436003
1673609786.297749,16.92942,0.7681164736581337
1673609786.298756,16.935696,0.7740305916184971
1673609786.299763,16.921871,0.7799461100330305
1673609786.30077,16.920597,0.785861628447564
1673609786.301777,16.925598,0.7917757464079274
1673609786.302784,16.914852,0.8273599003338102
1673609786.303792,16.900885,0.828119
1673609786.304799,16.895523,0.8101378266571293
1673609786.305806,16.900597,0.7919237477348593
1673609786.306813,16.900524,0.7742918278903457
1673609786.30782,16.904612,0.8283907381974249
1673609786.308827,16.908649,0.846209
1673609786.309834,16.910572,0.8441046963051252
1673609786.310841,16.921127,0.773940190591502
1673609786.311848,16.914539,0.7764066069352964
1673609786.312855,16.914179,0.7788736073227431
1673609786.313862,16.916367,0.7813406077101899
1673609786.314869,16.918482,0.7838070240539843
1673609786.315876,16.913866,0.786274024441431
1673609786.316884,16.912159,0.7887433610034871
1673609786.3178911,16.915333,0.7912103613909337
1673609786.318898,16.915838,0.7936767777347281
1673609786.319905,16.907495,0.79614377812217485
1673609786.320912,16.888912,0.7986101944659693
1673609786.321919,16.902184,0.801077194853416
1673609786.322926,16.933941,0.8035441952408627
1673609786.323933,16.936201,0.8060106115846571
1673609786.32494,16.932137,0.8084776119721039
1673609786.325947,16.930359,0.8109446123595506
1673609786.326954,16.926247,0.813411028703345
1673609786.327961,16.921511,0.8158780290907918
1673609786.328969,16.919781,0.8183473656528477
1673609786.329976,16.916271,0.8208143660402945
1673609786.330983,16.91317,0.8232807823840889
1673609786.33199,16.913986,0.8257477827715356
1673609786.332997,16.921007,0.8274116571292323
1673609786.334004,16.924299,0.8150237542312276
1673609786.335011,16.918482,0.9157004978540773
1673609786.336018,16.918049,0.864306
1673609786.337025,16.92543,0.8679892805429864
1673609786.338032,16.932449,0.915898898903195
1673609786.339039,16.931946,0.8853306849642005
1673609786.340046,16.920837,0.918573
1673609786.341053,16.913939,0.9151397992370052
1673609786.342061,16.915478,0.8830161016600603
1673609786.343068,16.91531,0.8890876579342135
1673609786.344075,16.907976,0.8951606519436911
1673609786.345082,16.89925,0.9012336459531687
1673609786.346089,16.896822,0.9073052022273219
1673609786.347096,16.902184,0.9133781962367995
1673609786.348103,16.915525,0.9194511902462771
1673609786.34911,16.922304,0.9255227465204303
1673609786.350117,16.937138,0.9315957405299079
1673609786.351124,16.940912,0.9376687345393855
1673609786.352131,16.928555,0.9437402908135387
1673609786.353138,16.930454,0.9498132848230163
1673609786.354146,16.953028,0.9558920297737907
1673609786.355153,16.959135,0.9619650237832682
1673609786.35616,16.936584,0.9680365800574215
1673609786.357167,16.92144,0.9741095740668991
1673609786.358174,16.922304,0.9801825680763766
1673609786.359181,16.923603,0.98625412435053
1673609786.360188,16.919588,0.9923271183600075
1673609786.361195,16.921631,0.998400112369485
1673609786.362202,16.92144,1.0044716686436383
1673609786.363209,16.923819,1.0105446626531158
1673609786.364216,16.927713,1.0166176566625935
1673609786.365223,16.922955,1.0226892129367466
1673609786.36623,16.916464,1.0221822446403048
1673609786.367238,16.910261,1.029293579261025
1673609786.368245,16.902639,1.0710057625178826
1673609786.369252,16.902687,1.0292330887828163
1673609786.370259,16.898937,1.0073061593236485
1673609786.371266,16.899803,1.0396368314258464
1673609786.372273,16.904634,1.0214130002386634
1673609786.37328,16.906006,1.032375983091212
1673609786.374287,16.90288,1.093278436814497
1673609786.375294,16.908577,1.130919176624738
1673609786.376301,16.90663,1.13565
1673609786.377308,16.914059,1.13565
1673609786.378315,16.924757,1.0867060875894987
1673609786.379323,16.940311,1.097845974010491
1673609786.38033,16.945023,1.116060410727056
1673609786.381337,16.939278,1.1844209189318073
1673609786.382344,16.930719,1.1393899797329519
1673609786.383351,16.922064,1.1695932443384982
1673609786.384358,16.917858,1.171836
1673609786.385365,16.916342,1.1799936611203132
1673609786.386372,16.911245,1.1886232530492398
1673609786.387379,16.906366,1.1972508019876527
1673609786.388386,16.909418,1.205880393916579
1673609786.389393,16.91894,1.2145099858455053
1673609786.3904,16.922544,1.2231375347839182
1673609786.391407,16.921368,1.2317671267128445
1673609786.392415,16.912569,1.2404048906038248
1673609786.393422,16.898457,1.2490324395422376
1673609786.394429,16.897543,1.257662031471164
1673609786.395436,16.912088,1.2662916234000905
1673609786.396443,16.919012,1.2749191723385032
1673609786.39745,16.90764,1.2835487642674297
1673609786.398457,16.895981,1.292178356196356
1673609786.399464,16.873768,1.300805905134769
1673609786.400471,16.882517,1.3094354970636952
1673609786.401478,16.903553,1.3180650889926215
1673609786.402485,16.918915,1.3266926379310344
1673609786.403492,16.925503,1.335322229859961
1673609786.4045,16.910404,1.343959993750941
1673609786.405507,16.913651,1.3525895856798675
1673609786.406514,16.924997,1.3612171346182804
1673609786.407521,16.923531,1.3698467265472067
1673609786.408528,16.927113,1.378476318476133
1673609786.409535,16.931608,1.387103867414546
1673609786.410542,16.93269,1.3957334593434723
1673609786.411549,16.923723,1.4043630512723988
1673609786.412556,16.916367,1.4129906002108115
1673609786.413563,16.922665,1.421620192139738
1673609786.41457,16.95673,1.4302497840686643
1673609786.415577,16.962982,1.4388773330070772
1673609786.416584,16.936729,1.4475069249360035
1673609786.417592,16.928772,1.4561446888269838
1673609786.418599,16.915068,1.4647722377653967
1673609786.419606,16.910309,1.473401829694323
1673609786.420613,16.904226,1.4820314216232493
1673609786.42162,16.900692,1.4906589705616624
1673609786.422627,16.904875,1.5167833799428299
1673609786.423634,16.917353,1.583924239379475
1673609786.424641,16.923363,1.5821898741058655
1673609786.425648,16.929205,1.6028267716328963
1673609786.426655,16.927305,1.5511469852169766
1673609786.427662,16.919155,1.6105008412017168
1673609786.428669,16.902952,1.6194558710369489
1673609786.429677,16.884081,1.6155473927038626
1673609786.430684,16.867661,1.6323688161659513
1673609786.431691,16.876146,1.6101051481730095
1673609786.432698,16.890787,1.6249838736299493
1673609786.433705,16.888407,1.6398625990868891
1673609786.434712,16.888889,1.6547378021182946
1673609786.435719,16.902639,1.6696165275752344
1673609786.436726,16.915621,1.6844952530321742
1673609786.437733,16.931465,1.6993704560635796
1673609786.43874,16.943653,1.7142491815205194
1673609786.439747,16.948582,1.7291279069774592
1673609786.440754,16.952236,1.7440031100088647
1673609786.441761,16.94512,1.7588818354658045
1673609786.442769,16.936392,1.7737746506248815
1673609786.443776,16.924252,1.788649853656287
1673609786.444783,16.922834,1.8035285791132267
1673609786.44579,16.914804,1.8184073045701665
1673609786.446797,16.910549,1.833282507601572
1673609786.447804,16.902327,1.8481612330585118
1673609786.448811,16.895475,1.8630399585154516
1673609786.449818,16.913818,1.877915161546857
1673609786.450825,16.939445,1.8927938870037968
1673609786.451832,16.948702,1.9076726124607366
1673609786.452839,16.958221,1.9225478154921423
1673609786.453846,16.953606,1.937426540949082
1673609786.454854,16.936489,1.952319356108159
1673609786.455861,16.933531,1.967198081565099
1673609786.456868,16.924131,1.9820732845965043
1673609786.457875,16.912689,1.9969520100534441
1673609786.458882,16.913794,2.011830735510384
1673609786.459889,16.908627,2.0267059385417894
1673609786.460896,16.89723,2.041584663998729
1673609786.461903,16.909683,2.056463389455669
1673609786.46291,16.920887,2.0713385924870744
1673609786.463917,16.91906,2.086217317944014
1673609786.464924,16.915791,2.101096043400954
1673609786.465931,16.920069,2.1159712464323595
1673609786.466938,16.917065,2.1308499718892993
1673609786.467946,16.91353,2.145742787048376
1673609786.468953,16.902687,2.160617990079782
1673609786.46996,16.898169,2.1754967155367217
1673609786.470967,16.905308,2.1903754409936615
1673609786.471974,16.916391,2.205250644025067
1673609786.472981,16.911463,2.220129369482007
1673609786.473988,16.892061000000002,2.2350080949389466
1673609786.474995,16.886892,2.249883297970352
1673609786.476002,16.878166,2.264762023427292
1673609786.477009,16.873262,2.2796407488842316
1673609786.478016,16.85153,2.300109252742012
1673609786.479023,16.844269,2.388267927294398
1673609786.480031,16.867155,2.433316967334287
1673609786.481038,16.891005,2.3873461001430614
1673609786.482045,16.911245,2.425643504410012
1673609786.483052,16.922737,2.4643803929422985
1673609786.484059,16.919853,2.385987652122079
1673609786.485066,16.918386,2.401966
1673609786.486073,16.916294,2.404337620977354
1673609786.48708,16.904394,2.4214211753626214
1673609786.488087,16.906221,2.4313855252008767
1673609786.489094,16.913866,2.4413522345820726
1673609786.490101,16.93257,2.4513189439632685
1673609786.491108,16.949158,2.4612832938015234
1673609786.492115,16.943893,2.4712500031827194
1673609786.493123,16.922424,2.4812261507356776
1673609786.49413,16.9193,2.491190500573933
1673609786.495137,16.916512,2.501157209955129
1673609786.496144,16.910669,2.5093634354454504
1673609786.497151,16.915981,2.492412
1673609786.498158,16.918915,2.49101887958989
1673609786.499165,16.913097,2.4804122710369487
1673609786.500172,16.907135,2.5516168347639483
1673609786.501179,16.905092,2.600954
1673609786.502186,16.902784,2.5990523911799763
1673609786.503193,16.91305,2.5808421719122556
1673609786.5042,16.929325,2.564776
1673609786.505208,16.925959,2.56639138256331
1673609786.506215,16.91526,2.5791932136091247
1673609786.507222,16.910742,2.5919920139184227
1673609786.508229,16.914371,2.6047938449642376
1673609786.509236,16.922256,2.6175956760100525
1673609786.510243,16.912016,2.6303944763193505
1673609786.51125,16.89538,2.6431963073651654
1673609786.512257,16.888096,2.6559981384109803
1673609786.513264,16.896317,2.6687969387202783
1673609786.514271,16.905333,2.6815987697660932
1673609786.515278,16.903,2.694400600811908
1673609786.516285,16.901197,2.707199401121206
1673609786.517292,16.897591,2.720001232167021
1673609786.5183,16.897591,2.732815186158902
1673609786.519307,16.910044,2.7456139864682005
1673609786.520314,16.911703,2.758415817514015
1673609786.521321,16.902279,2.77121764855983
1673609786.522328,16.900019,2.7840164488691284
1673609786.523335,16.906414,2.796818279914943
1673609786.524342,16.910044,2.8096201109607577
1673609786.525349,16.900284,2.822418911270056
1673609786.526356,16.887878,2.835220742315871
1673609786.527363,16.878792,2.8480225733616855
1673609786.52837,16.880547,2.860821373670984
1673609786.529377,16.887806,2.873623204716799
1673609786.530385,16.883215,2.88643715870868
1673609786.531392,16.881315,2.8992389897544943
1673609786.532399,16.870667,2.912037790063793
1673609786.533406,16.859776,2.9248396211096077
1673609786.534413,16.869295,2.9376414521554226
1673609786.53542,16.880714,2.9504402524647206
1673609786.536427,16.873936,2.9632420835105355
1673609786.537434,16.866531,2.9760439145563504
1673609786.538441,16.873455,2.9888427148656485
1673609786.539448,16.887493,3.0016445459114633
1673609786.540455,16.893528,3.0144463769572782
1673609786.541462,16.908627,3.0272451772665763
1673609786.542469,16.923868,3.0421266724630778
1673609786.543477,16.911896,3.0603589689737474
1673609786.544484,16.904491,3.078584082021936
1673609786.545491,16.904612,3.089384
1673609786.546498,16.911558,3.089384
1673609786.547505,16.908937,3.1353991826418692
1673609786.548512,16.897758,3.1901298350417164
1673609786.549519,16.881773,3.1877601027658558
1673609786.550526,16.883551,3.197926
1673609786.551533,16.884897,3.2081198174037087
1673609786.55254,16.878071,3.2308300941512123
1673609786.553547,16.868982,3.253534994412744
1673609786.554554,16.865665,3.2762452711602474
1673609786.555562,16.866554,3.279878946351931
1673609786.556569,16.868599,3.270291
1673609786.557576,16.864223,3.2790444374255063
1673609786.558583,16.867661,3.306141206962327
1673609786.55959,16.884369,3.3303090128036037
1673609786.560597,16.911175,3.341934923320415
1673609786.561604,16.9212,3.353563586835217
1673609786.562611,16.914251,3.3651922503500193
1673609786.563618,16.920021,3.3768181608668306
1673609786.564625,16.916967,3.388446824381633
1673609786.565632,16.906942,3.400075487896435
1673609786.566639,16.891726,3.4117013984132463
1673609786.567647,16.869993,3.423341073920013
1673609786.568654,16.86141,3.4349697374348156
1673609786.569661,16.85939,3.4465956479516264
1673609786.570668,16.856554,3.4582243114664286
1673609786.571675,16.877565,3.469852974981231
1673609786.572682,16.89098,3.481478885498042
1673609786.573689,16.888792,3.4931075490128443
1673609786.574696,16.891027,3.5047362125276464
1673609786.575703,16.896389,3.5163621230444577
1673609786.57671,16.894995,3.52799078655926
1673609786.577717,16.875811,3.539619450074062
1673609786.578724,16.861122,3.5512453605908734
1673609786.579731,16.861385,3.5628740241056756
1673609786.580739,16.858309,3.5745136996124427
1673609786.581746,16.842226,3.586142363127245
1673609786.582753,16.8391,3.597768273644056
1673609786.58376,16.862877,3.6093969371588583
1673609786.584767,16.871628,3.6210256006736605
1673609786.585774,16.879368,3.6326515111904714
1673609786.586781,16.88485,3.644280174705274
1673609786.587788,16.882589,3.655908838220076
1673609786.588795,16.877037,3.667534748736887
1673609786.589802,16.890379,3.679163412251689
1673609786.590809,16.919661,3.690792075766492
1673609786.591816,16.923145,3.7024179862833027
1673609786.592824,16.908482,3.71405766179007
1673609786.593831,16.90098,3.725686325304872
1673609786.594838,16.88961,3.7373122358216833
1673609786.595845,16.891581,3.7489408993364854
1673609786.596852,16.90502,3.7605695628512876
1673609786.597859,16.89324,3.772195473368099
1673609786.598866,16.881435,3.783824136882901
1673609786.599873,16.871723,3.7954528003977033
1673609786.60088,16.850689,3.807078710914514
1673609786.601887,16.852131,3.8187073744293167
1673609786.602894,16.871796,3.830336037944119
1673609786.603901,16.87509,3.8419619484609298
1673609786.604908,16.870546,3.853590611975732
1673609786.605916,16.877253,3.865230287482499
1673609786.606923,16.891798,3.942446226037196
1673609786.60793,16.889898,3.9425591859356377
1673609786.608937,16.886532,3.97019801382928
1673609786.609944,16.876364,3.9295534859322845
1673609786.610951,16.875978,3.9992182381406436
1673609786.611958,16.882326,4.058978170243205
1673609786.612965,16.87896,4.113641204577968
1673609786.613972,16.886412,4.088694534445769
1673609786.614979,16.907543,4.084348
1673609786.615986,16.918554,4.088472133633268
1673609786.616993,16.912352,4.093116457988813
1673609786.618001,16.887445,4.097766281189203
1673609786.619008,16.874151,4.102411705313716
1673609786.620015,16.885571,4.107056029669261
1673609786.621022,16.889658,4.111701453793774
1673609786.622029,16.874512,4.1163468779182875
1673609786.623036,16.860809,4.120526
1673609786.624043,16.86105,4.12639305274463
1673609786.62505,16.869944,4.178988924267683
1673609786.626057,16.874777,4.210971
1673609786.627064,16.87319,4.220314547732697
1673609786.628071,16.862804,4.288290120028578
1673609786.629078,16.856699,4.3226142778069185
1673609786.630085,16.827417,4.34447667088943
1673609786.631093,16.812824,4.366359766995692
1673609786.6321,16.80566,4.388222160078203
1673609786.633107,16.777077,4.4100793774047755
1673609786.634114,16.797535,4.4319417704872865
1673609786.635121,16.833042,4.453804163569798
1673609786.636128,16.83761,4.47566138089637
1673609786.637135,16.840591,4.497523773978881
1673609786.638142,16.891413,4.519386167061391
1673609786.639149,16.940792,4.541243384387965
1673609786.640156,16.965961,4.563105777470475
1673609786.641163,16.969088,4.584968170552986
1673609786.64217,16.96726,4.606825387879558
1673609786.643178,16.945528,4.628708483985822
1673609786.644185,16.889706,4.650570877068333
1673609786.645192,16.871315,4.672428094394905
1673609786.646199,16.852394,4.694290487477416
1673609786.647206,16.846985,4.716152880559926
1673609786.648213,16.856073,4.738010097886499
1673609786.64922,16.862299,4.75987249096901
1673609786.650227,16.871988,4.781734884051521
1673609786.651234,16.862732,4.803592101378094
1673609786.652241,16.853886,4.825454494460605
1673609786.653248,16.858356,4.847316887543115
1673609786.654255,16.869295,4.869174104869688
1673609786.655262,16.868429,4.891036497952198
1673609786.65627,16.859488,4.912919594058462
1673609786.657277,16.858356,4.934781987140973
1673609786.658284,16.883287,4.956639204467545
1673609786.659291,16.908722,4.978501597550056
1673609786.660298,16.914467,5.000363990632567
1673609786.661305,16.918314,5.02222120795914
1673609786.662312,16.916054,5.044083601041651
1673609786.663319,16.905836,5.065945994124161
1673609786.664326,16.884802,5.0878032114507334
1673609786.665333,16.875257,5.1096656045332445
1673609786.66634,16.875858,5.1315279976157555
1673609786.667347,16.877661,5.153385214942328
1673609786.668355,16.880594,5.175268311048591
1673609786.669362,16.879345,5.1971307041311015
1673609786.670369,16.878191,5.218987921457675
1673609786.671376,16.884609,5.240850314540185
1673609786.672383,16.902159,5.262712707622696
1673609786.67339,16.908674,5.284569924949269
1673609786.674397,16.901678,5.313113001905216
1673609786.675404,16.906654,5.341046553409632
1673609786.676411,16.909901,5.350656
1673609786.677418,16.893192,5.385678098235575
1673609786.678425,16.890547,5.423012
1673609786.679432,16.884729,5.423012
1673609786.680439,16.879513,5.468648668735083
1673609786.681447,16.878119,5.532006845201239
1673609786.682454,16.867228,5.530864390319504
1673609786.683461,16.861242,5.531564334085253
1673609786.684468,16.847178,5.566220538607515
1673609786.685475,16.848621,5.600876743129778
1673609786.686482,16.872877,5.635524743058166
1673609786.687489,16.895235,5.670180947580429
1673609786.688496,16.914371,5.704837152102691
1673609786.689503,16.910116,5.7394851520310795
1673609786.69051,16.874369,5.774141356553342
1673609786.691517,16.857683,5.808797561075604
1673609786.692524,16.860161,5.843445561003993
1673609786.693532,16.864464,5.878134583901749
1673609786.694539,16.841433,5.912790788424012
1673609786.695546,16.847347,5.9474387883524
1673609786.696553,16.897207,5.9820949928746625
1673609786.69756,16.967934,6.016751197396924
1673609786.698567,17.020006,6.0513991973253125
1673609786.699574,16.99118,6.086055401847575
1673609786.700581,16.940672,6.120711606369837
1673609786.701588,16.935238,6.155359606298226
1673609786.702595,16.975843,6.190015810820488
1673609786.703602,17.00308,6.22467201534275
1673609786.704609,16.979448,6.259320015271139
1673609786.705616,16.939734,6.293976219793401
1673609786.706624,16.901678,6.328665242691158
1673609786.707631,16.932186,6.36332144721342
1673609786.708638,16.990387,6.397969447141809
1673609786.709645,16.98945,6.432625651664071
1673609786.710652,16.956827,6.467281856186333
1673609786.711659,16.928965,6.501929856114721
1673609786.712666,16.891077,6.536586060636983
1673609786.713673,16.880835,6.5712422651592455
1673609786.71468,16.843067,6.605890265087634
1673609786.715687,16.83321,6.640546469609896
1673609786.716694,16.820374,6.675202674132159
1673609786.717701,16.803905,6.709850674060547
1673609786.718709,16.830687,6.744539696958304
1673609786.719716,16.877012,6.779195901480566
1673609786.720723,16.905405,6.813843901408955
1673609786.72173,16.919323,6.848500105931217
1673609786.722737,16.899803,6.883156310453479
1673609786.723744,16.884129,6.84176140477327
1673609786.724751,16.887856,6.880992198855508
1673609786.725758,16.902544,6.904074538461539
1673609786.726765,16.905405,6.938167298044826
1673609786.727772,16.89509,6.942584
1673609786.728779,16.881123,6.990995630388188
1673609786.729786,16.87706,6.980590639008106
1673609786.730793,16.8792,6.995166391408115
1673609786.731801,16.884441,6.99685
1673609786.732808,16.883936,7.046842414878398
1673609786.733815,16.893625,7.101533437708831
1673609786.735829,16.907135,7.1213883457966185
1673609786.736836,16.906269,7.123482
1673609786.737843,16.887663,7.175426334128878
1673609786.73885,16.869127,7.160336729221243
1673609786.739857,16.859367,7.159669
1673609786.740864,16.845182,7.186040763751677
1673609786.741871,16.83357,7.213223372362483
1673609786.742878,16.836864,7.24039954569663
1673609786.743886,16.862492,7.267607895414075
1673609786.744893,16.884296,7.294790504024881
1673609786.7459,16.892351,7.321966677359027
1673609786.746907,16.896702,7.349149285969833
1673609786.747914,16.91317,7.37633189458064
1673609786.748921,16.917641,7.403508067914786
1673609786.749928,16.910837,7.430690676525592
1673609786.750935,16.911655,7.457873285136399
1673609786.751942,16.924036,7.485049458470545
1673609786.752949,16.910862,7.512232067081351
1673609786.753956,16.885498,7.539414675692157
1673609786.754963,16.865568,7.566590849026304
1673609786.75597,16.877565,7.59377345763711
1673609786.756978,16.889225,7.620981807354555
1673609786.757985,16.895861,7.648164415965361
1673609786.758992,16.900356,7.675340589299508
1673609786.759999,16.918146,7.702523197910314
1673609786.761006,16.93685,7.72970580652112
1673609786.762013,16.934998,7.756881979855267
1673609786.76302,16.936512,7.784064588466073
1673609786.764027,16.919588,7.811247197076879
1673609786.765034,16.904634,7.838423370411025
1673609786.766041,16.895788,7.865605979021832
1673609786.7670481,16.894106,7.892788587632638
1673609786.768055,16.882446,7.919964760966784
1673609786.769063,16.884081,7.947173110684229
1673609786.77007,16.892735,7.974355719295036
1673609786.771077,16.88759,8.001531892629183
1673609786.772084,16.883503,8.028714501239989
1673609786.773091,16.893072,8.055897109850795
1673609786.774098,16.914083,8.083073283184941
1673609786.775105,16.922377,8.110255891795747
1673609786.776112,16.908747,8.137438500406553
1673609786.777119,16.902231,8.164614673740699
1673609786.778126,16.909708,8.191797282351505
1673609786.779133,16.924541,8.218979890962313
1673609786.78014,16.927761,8.246156064296459
1673609786.781147,16.924252,8.273338672907265
1673609786.782155,16.909298,8.30054702262471
1673609786.783162,16.895741,8.327729631235517
1673609786.784169,16.891125,8.354905804569663
1673609786.785176,16.894321,8.382088413180469
1673609786.7861831,16.898937,8.409271021791275
1673609786.78719,16.899105,8.44001171769194
1673609786.788197,16.891701,8.462155
1673609786.7892041,16.886076,8.491253035518474
1673609786.790211,16.879658,8.541911771101573
1673609786.791218,16.874632,8.567661017405817
1673609786.792225,16.875643,8.62703477830751
1673609786.793232,16.876003,8.65590262446352
1673609786.79424,16.876171,8.680430223414401
1673609786.795247,16.878119,8.775747725625745
1673609786.796254,16.871147,8.810562670139484
1673609786.797261,16.876917,8.821038346482059
1673609786.798268,16.936993,8.831514022824635
1673609786.799275,16.993416,8.841987219130196
1673609786.800282,17.013105,8.852462895472772
1673609786.801289,17.040104,8.862938571815347
1673609786.802296,17.061308,8.873411768120908
1673609786.803303,17.078377,8.88806807103695
1673609786.80431,17.056282,8.91874376938666
1673609786.805317,17.02265,8.959725269654884
1673609786.806324,16.957212,9.000716474280265
1673609786.807332,16.898264,9.041746496334268
1673609786.8083391,16.883768,9.122093782546495
1673609786.809346,16.840181,9.167669
1673609786.810353,16.827538,9.242893539690108
1673609786.8113601,16.838644,9.294301
1673609786.812367,16.842489,9.31629824606581
1673609786.813374,16.865185,9.319354326579262
1673609786.814381,16.893793,9.35738452932761
1673609786.815388,16.923988,9.396129271816882
1673609786.816395,16.943821,9.437357189272944
1673609786.817402,16.953053,9.47282433916708
1673609786.818409,16.956947,9.497443458099479
1673609786.819417,16.945768,9.522085890591471
1673609786.820424,16.924637,9.54670500952387
1673609786.821431,16.920958,9.57131830006637
1673609786.822438,16.897398,9.59593741899877
1673609786.823445,16.853428,9.620556537931167
1673609786.824452,16.836744,9.645169828473668
1673609786.825459,16.862972,9.669788947406065
1673609786.826466,16.872276,9.694408066338465
1673609786.827473,16.86903,9.719021356880964
1673609786.82848,16.884081,9.743640475813363
1673609786.829487,16.923388,9.76825959474576
1673609786.830494,16.931656,9.792872885288261
1673609786.831501,16.912617,9.817492004220659
1673609786.832509,16.901583,9.842134436712653
1673609786.8335161,16.899683,9.866753555645053
1673609786.834523,16.906534,9.891366846187552
1673609786.83553,16.906054,9.915985965119951
1673609786.836537,16.90336,9.94059925566245
1673609786.837544,16.905596,9.96521837459485
1673609786.838551,16.910524,9.989837493527247
1673609786.839558,16.90764,10.014450784069748
1673609786.840565,16.906895,10.039069903002146
1673609786.841572,16.905525,10.063689021934545
1673609786.842579,16.903505,10.088302312477044
1673609786.843586,16.902039,10.112921431409443
1673609786.844594,16.899635,10.137563863901436
1673609786.845601,16.900211,10.162182982833835
1673609786.846608,16.897303,10.186796273376334
1673609786.847615,16.889585,10.211415392308734
1673609786.848622,16.888384,10.236034511241131
1673609786.849629,16.892494,10.260647801783632
1673609786.850636,16.892086,10.28526692071603
1673609786.851643,16.8936,10.309886039648429
1673609786.85265,16.905333,10.334499330190928
1673609786.853657,16.901798,10.359118449123327
1673609786.854664,16.90151,10.361613
1673609786.855671,16.901125,10.411113643776824
1673609786.856678,16.907713,10.44913389511323
1673609786.857686,16.916126,10.468836128755365
1673609786.858693,16.91317,10.520846313543156
1673609786.8597,16.910212,10.456344073897498
1673609786.860707,16.910477,10.486364451120648
1673609786.861714,16.903891,10.522800300429184
1673609786.862721,16.89723,10.454826047675805
1673609786.863728,16.895187,10.456702314949705
1673609786.864735,16.876532,10.461520021158515
1673609786.865742,16.858334,10.466338868192855
1673609786.866749,16.854198,10.471157715227193
1673609786.867756,16.836143,10.475975421436004
1673609786.868763,16.806982,10.480794268470342
1673609786.869771,16.780779,10.485617678806797
1673609786.870778,16.775537,10.521390723652837
1673609786.871785,16.811405,10.60266611587983
1673609786.872792,16.948677,10.633983553039332
1673609786.873799,16.967213,10.606211570815452
1673609786.874806,16.962069,10.596787
1673609786.875813,16.972694,10.58786757892227
1673609786.87682,16.979088,10.578698
1673609786.877827,16.946081,10.60620673676681
1673609786.878834,16.922329,10.58647065951359
1673609786.879841,16.92882,10.580225461501788
1673609786.880848,16.928484,10.614877
1673609786.881855,16.929974,10.624554985693848
1673609786.882863,16.923555,10.647819148362819
1673609786.88387,16.90966,10.675356052900213
1673609786.884877,16.903072,10.702899478134867
1673609786.885884,16.924156,10.730442903369523
1673609786.886891,16.944349,10.757979807906917
1673609786.887898,16.947716,10.785523233141573
1673609786.888905,16.994354,10.813066658376227
1673609786.889912,17.026833,10.840603562913621
1673609786.890919,17.039165,10.868146988148277
1673609786.891926,17.008537,10.895690413382932
1673609786.892933,16.962572,10.923227317920325
1673609786.89394,16.918266,10.950770743154981
1673609786.894948,16.869583,10.978340251178684
1673609786.895955,16.830639,11.00588367641334
1673609786.896962,16.833836,11.033420580950734
1673609786.897969,16.844389,11.060964006185388
1673609786.898976,16.869896,11.088507431420044
1673609786.899983,16.886509,11.116044335957438
1673609786.90099,16.890524,11.143587761192094
1673609786.901997,16.908577,11.171131186426749
1673609786.903004,16.914299,11.198668090964143
1673609786.904011,16.89538,11.226211516198799
1673609786.905018,16.885523,11.253754941433455
1673609786.906025,16.878431,11.281291845970847
1673609786.907032,16.874104,11.308835271205503
1673609786.90804,16.879801,11.336404779229206
1673609786.909047,16.900429,11.3639416837666
1673609786.910054,16.917953,11.391485109001255
1673609786.911061,16.924324,11.419028534235911
1673609786.912068,16.923145,11.446565438773304
1673609786.913075,16.907784,11.47410886400796
1673609786.914082,16.915333,11.501652289242616
1673609786.915089,16.941729,11.52918919378001
1673609786.916096,16.94483,11.562943193325387
1673609786.917103,16.921488,11.573654
1673609786.91811,16.931128,11.612613927753934
1673609786.919117,16.972574,11.64104043218117
1673609786.920125,16.985388,11.672535731521222
1673609786.921132,16.993465,11.364791466598149
1673609786.922139,16.986925,11.369332113823226
1673609786.923146,16.940023,11.399540477780633
1673609786.924153,16.88896,11.35355651835956
1673609786.92516,16.865858,11.38696770505484
1673609786.926167,16.832466,11.438717167580453
1673609786.927174,16.771763,11.447022
1673609786.928181,16.734764,11.462597343347639
1673609786.929188,16.752987,11.527920334922527
1673609786.930195,16.775585,11.52164717167382
1673609786.931202,16.816311,11.537925529703559
1673609786.932209,16.895716,11.559095237588886
1673609786.933217,16.946898,11.580284992546076
1673609786.934224,16.95673,11.60144968866344
1673609786.935231,16.960264,11.622619396548767
1673609786.936238,16.993393,11.643789104434095
1673609786.937245,17.014307,11.664953800551459
1673609786.938252,16.993706,11.686123508436786
1673609786.939259,16.9669,11.707293216322116
1673609786.940266,16.947596,11.728457912439477
1673609786.941273,16.950697,11.749627620324807
1673609786.94228,16.963511,11.770797328210135
1673609786.943287,16.968655,11.791962024327498
1673609786.944294,16.959496,11.813131732212826
1673609786.945302,16.94524,11.834321487170016
1673609786.946309,16.928795,11.855491195055343
1673609786.947316,16.918795,11.876655891172707
1673609786.948323,16.911703,11.897825599058034
1673609786.94933,16.905115,11.933217244338499
1673609786.950337,16.904394,11.90126707725322
1673609786.951344,16.893335,11.916503690271815
1673609786.952351,16.888744,11.8653203806913
1673609786.953358,16.899899,11.898040428946114
1673609786.954365,16.890667,11.916883407963757
1673609786.955372,16.88533,11.935102015498332
1673609786.956379,16.893625,11.953311837902266
1673609786.957386,16.899731,11.917586653314258
1673609786.958394,16.904179,11.905285746642294
1673609786.959401,16.904682,11.89314298553604
1673609786.960408,16.895428,11.880997349042358
1673609786.961415,16.891893,11.868851712548677
1673609786.962422,16.894176,11.856708951442423
1673609786.963429,16.893528,11.84456331494874
1673609786.964436,16.893913,11.832417678455059
1673609786.965443,16.906607,11.820274917348804
1673609786.96645,16.915766,11.811972225321888
1673609786.967457,16.912689,11.863095
1673609786.968464,16.91091,11.857886057926102
1673609786.969471,16.904634,11.790739
1673609786.970479,16.904852,11.787589765379114
1673609786.971486,16.910862,11.757960263408819
1673609786.972493,16.903818,11.794387954935623
1673609786.9735,16.90127,11.821056542918454
1673609786.974507,16.902952,11.774733599284863
1673609786.975514,16.910236,11.79034443863453
1673609786.976521,16.908867,11.787082937249513
1673609786.977528,16.906366,11.783821435864494
1673609786.978535,16.909468,11.780560706615221
1673609786.979542,16.90925,11.777299205230204
1673609786.980549,16.906126,11.774037703845186
1673609786.981556,16.90687,11.770776974595913
1673609786.982563,16.908529,11.767515473210894
1673609786.983571,16.90127,11.764250883282898
1673609786.984578,16.885788,11.760990154033625
1673609786.985585,16.865425,11.757728652648607
1673609786.986592,16.862179,11.754467151263588
1673609786.987599,16.859055,11.751206422014315
1673609786.988606,16.850664,11.747944920629298
1673609786.989613,16.840086,11.74468341924428
1673609786.99062,16.848742,11.741422689995007
1673609786.991627,16.858068,11.738161188609988
1673609786.992634,16.871147,11.73489968722497
1673609786.993641,16.906174,11.731638957975697
1673609786.994648,16.94346,11.72837745659068
1673609786.995656,16.972549,11.725112866662684
1673609786.996663,16.993753,11.721851365277665
1673609786.99767,16.981733,11.718590636028392
1673609786.998677,16.959761,11.715329134643374
1673609786.999684,16.94512,11.712067633258355
1673609787.000691,16.948845,11.708806904009084
1673609787.001698,16.92894,11.705545402624065
1673609787.002705,16.897831,11.702283901239047
1673609787.003712,16.91728,11.699023171989774
1673609787.004719,16.927185,11.695761670604755
1673609787.005726,16.932497,11.692500169219738
1673609787.006733,16.923676,11.689239439970464
1673609787.00774,16.913866,11.685977938585447
1673609787.008748,16.907761,11.682713348657451
1673609787.009755,16.904154,11.679452619408178
1673609787.010762,16.902086,11.676191118023159
1673609787.011769,16.904827,11.672929616638141
1673609787.012776,16.909227,11.669668887388868
1673609787.013783,16.905668,11.66640738600385
1673609787.01479,16.908482,11.663145884618832
1673609787.015797,16.921921,11.659885155369558
1673609787.016804,16.927401,11.656623653984541
1673609787.017811,16.94519,11.653362152599524
1673609787.018818,16.960024,11.65010142335025
1673609787.019825,16.962622,11.646839921965231
1673609787.020833,16.948004,11.643575332037235
1673609787.02184,16.931728,11.640313830652218
1673609787.022847,16.92692,11.637053101402945
1673609787.023854,16.924732,11.633791600017926
1673609787.024861,16.911848,11.630530098632908
1673609787.025868,16.880402,11.627269369383635
1673609787.026875,16.855448,11.624007867998618
1673609787.027882,16.863525,11.620746366613599
1673609787.028889,16.876364,11.617485637364325
1673609787.029896,16.889658,11.614224135979308
1673609787.030903,16.935335,11.61096263459429
1673609787.03191,16.951033,11.574128666269369
1673609787.032917,16.955818,11.567594141869337
1673609787.033925,16.956682,11.610181358369099
1673609787.034932,16.960096,11.578729268891538
1673609787.035939,16.96541,11.567990943967573
1673609787.036946,16.929132,11.611320007868384
1673609787.037953,16.881195,11.627921
1673609787.03896,16.858597,11.589504518597996
1673609787.039967,16.873743,11.534849342632333
1673609787.040974,16.898842,11.515564996921212
1673609787.041981,16.906389,11.510233378359521
1673609787.042988,16.905308,11.504901759797828
1673609787.043995,16.900499,11.499571403456441
1673609787.045002,16.881796,11.49423978489475
1673609787.04601,16.875834,11.488903117451844
1673609787.047017,16.884321,11.483571498890154
1673609787.048024,16.88937,11.478241142548766
1673609787.049031,16.900404,11.472909523987074
1673609787.050038,16.89747,11.467577905425383
1673609787.051045,16.895403,11.462247549083996
1673609787.052052,16.908649,11.456915930522303
1673609787.053059,16.908747,11.451584311960612
1673609787.054066,16.895235,11.446253955619225
1673609787.055073,16.897615,11.440922337057533
1673609787.05608,16.907856,11.435590718495842
1673609787.057087,16.892422,11.430260362154455
1673609787.058094,16.883575,11.424928743592762
1673609787.059102,16.903673,11.419592076149858
1673609787.060109,16.904924,11.41426171980847
1673609787.061116,16.891508,11.408930101246778
1673609787.062123,16.899395,11.403598482685087
1673609787.06313,16.916101,11.3982681263437
1673609787.064137,16.916031,11.392936507782007
1673609787.065144,16.921776,11.387604889220317
1673609787.066151,16.917135,11.38227453287893
1673609787.067158,16.905212,11.376942914317237
1673609787.068165,16.899563,11.371611295755546
1673609787.069172,16.892591,11.366280939414159
1673609787.070179,16.880209,11.360949320852466
1673609787.071187,16.888817,11.355612653409562
1673609787.072194,16.912737,11.350281034847871
1673609787.073201,16.92721,11.344950678506482
1673609787.074208,16.936369,11.339619059944791
1673609787.075215,16.92668,11.3342874413831
1673609787.076222,16.922449,11.328957085041711
1673609787.077229,16.922737,11.32362546648002
1673609787.078236,16.922905,11.31829384791833
1673609787.079243,16.914227,11.31296349157694
1673609787.08025,16.895981,11.30763187301525
1673609787.081257,16.904467,11.30230025445356
1673609787.082264,16.915911,11.29696989811217
1673609787.083272,16.905285,11.291633230669266
1673609787.084279,16.904755,11.286301612107575
1673609787.085286,16.907881,11.280971255766186
1673609787.086293,16.90134,11.275639637204495
1673609787.0873,16.91894,11.270308018642805
1673609787.088307,16.960192,11.264977662301416
1673609787.089314,16.967237,11.259646043739725
1673609787.090321,16.956659,11.254314425178034
1673609787.091328,16.926126,11.248984068836645
1673609787.092335,16.893263,11.243652450274954
1673609787.093342,16.883841,11.238320831713263
1673609787.094349,16.885017,11.232990475371874
1673609787.095356,16.871363,11.198718236246725
1673609787.096364,16.862299,11.173461710061993
1673609787.097371,16.862036,11.193759
1673609787.098378,16.88699,11.210187242250834
1673609787.099385,16.877493,11.188284167182664
1673609787.100392,16.830181,11.12257727398568
1673609787.101399,16.823137,11.111905628040057
1673609787.102406,16.838186,11.103981729221243
1673609787.103413,16.847515,11.111711540057225
1673609787.10442,16.861675,11.13236172835443
1673609787.105427,16.895981,11.117853892405064
1673609787.106434,16.949663,11.103346056455695
1673609787.107441,16.974089,11.088841655126581
1673609787.108449,16.967358,11.112639116945108
1673609787.109456,16.9625,11.121403
1673609787.110463,16.954039,11.113707619751754
1673609787.11147,16.934156,11.103668927296969
1673609787.112477,16.920189,11.093630234842182
1673609787.113484,16.915693,11.083593918971784
1673609787.114491,16.916271,11.073555226517
1673609787.115498,16.923145,11.063516534062213
1673609787.116505,16.919901,11.053480218191815
1673609787.117512,16.91514,11.04344152573703
1673609787.118519,16.907688,11.033402833282244
1673609787.119526,16.909203,11.023366517411846
1673609787.120533,16.912111,11.013327824957061
1673609787.121541,16.91466,11.003279626164723
1673609787.122548,16.914467,10.993240933709938
1673609787.123555,16.905405,10.98320461783954
1673609787.124562,16.906221,10.973165925384755
1673609787.125569,16.912519,10.963127232929969
1673609787.126576,16.91305,10.953090917059571
1673609787.127583,16.904081,10.943052224604786
1673609787.12859,16.887566,10.93301353215
1673609787.129597,16.883648,10.922977216279602
1673609787.130604,16.881676,10.912938523824817
1673609787.131611,16.874392,10.90289983137003
1673609787.132618,16.883961,10.892863515499632
1673609787.133626,16.886845,10.882815316707296
1673609787.134633,16.884417,10.87277662425251
1673609787.13564,16.901606,10.862740308382113
1673609787.136647,16.909082,10.852701615927327
1673609787.137654,16.912689,10.842662923472542
1673609787.138661,16.935623,10.832626607602144
1673609787.143696,16.917255,10.782435521912603
1673609787.144703,16.915213,10.772399206042206
1673609787.14571,16.912664,10.76236051358742
1673609787.146718,16.900356,10.752312314795082
1673609787.147725,16.899755,10.742273622340297
1673609787.148732,16.906534,10.7322373064699
1673609787.149739,16.902374,10.722198614015113
1673609787.150746,16.905212,10.712159921560328
1673609787.151753,16.899033,10.70212360568993
1673609787.15276,16.876797,10.692084913235144
1673609787.153767,16.890427,10.682046220780359
1673609787.154774,16.937859,10.672009904909961
1673609787.155781,16.967789,10.661971212455175
1673609787.156788,16.955481,10.65193252000039
1673609787.157795,16.947763,10.641896204129992
1673609787.158803,16.936729,10.630940384615386
1673609787.15981,16.92555,10.623425968973747
1673609787.160817,16.936176,10.680407969957082
1673609787.161824,16.936152,10.630559015733017
1673609787.162831,16.886749,10.609818145069081
1673609787.163838,16.842321,10.570771650596658
1673609787.164845,16.855808,10.538362358130662
1673609787.165852,16.888985,10.606140517027864
1673609787.166859,16.891268,10.551542410501193
1673609787.167866,16.895813,10.505617564451208
1673609787.168873,16.895115,10.501494643799843
1673609787.16988,16.90728,10.497372699218708
1673609787.170887,16.919636,10.493249778567344
1673609787.171895,16.913218,10.489122953635059
1673609787.172902,16.908264,10.485000032983695
1673609787.173909,16.907135,10.48087808840256
1673609787.174916,16.905621,10.476755167751195
1673609787.175923,16.895741,10.472632247099831
1673609787.17693,16.890884,10.468510302518697
1673609787.177937,16.887253,10.464387381867333
1673609787.178944,16.894129,10.460264461215967
1673609787.179951,16.901583,10.456142516634833
1673609787.180958,16.907761,10.452019595983469
1673609787.181965,16.916824,10.447896675332103
1673609787.182972,16.918242,10.443774730750969
1673609787.18398,16.916847,10.439647905818685
1673609787.184987,16.920717,10.435524985167321
1673609787.185994,16.923002,10.431403040586186
1673609787.187001,16.917233,10.42728011993482
1673609787.188008,16.915092,10.423157199283457
1673609787.189015,16.899706,10.419035254702322
1673609787.190022,16.904131,10.414912334050957
1673609787.191029,16.889273,10.410789413399593
1673609787.192036,16.885498,10.406667468818458
1673609787.193043,16.90139,10.402544548167093
1673609787.19405,16.907976,10.398421627515729
1673609787.195057,16.902206,10.394299682934594
1673609787.196064,16.897278,10.39017676228323
1673609787.197072,16.900091,10.386049937350945
1673609787.198079,16.906462,10.381927016699581
1673609787.199086,16.906319,10.377805072118447
1673609787.200093,16.894201,10.373682151467081
1673609787.2011,16.884464,10.369559230815717
1673609787.202107,16.881773,10.365437286234583
1673609787.203114,16.888046,10.361314365583217
1673609787.204121,16.895115,10.357191444931853
1673609787.205128,16.895235,10.353069500350719
1673609787.206135,16.892735,10.348946579699355
1673609787.207142,16.900597,10.34482365904799
1673609787.208149,16.918001,10.340701714466855
1673609787.209157,16.918266,10.336574889534571
1673609787.210164,16.905716,10.332451968883205
1673609787.211171,16.901798,10.32833002430207
1673609787.212178,16.908962,10.330860837386744
1673609787.213185,16.912569,10.337968770624702
1673609787.214192,16.908121,10.314077091537545
1673609787.215199,16.907448,10.295062387219838
1673609787.216206,16.904011,10.313280779208394
1673609787.217213,16.899418,10.331493413587605
1673609787.21822,16.900764,10.337339062947068
1673609787.219227,16.905405,10.331749329041488
1673609787.220234,16.904322,10.362845071769193
1673609787.221241,16.889971,10.396847599152238
1673609787.222249,16.878839,10.394206415446174
1673609787.223256,16.866121,10.391567730494799
1673609787.224263,16.852755,10.388929670232098
1673609787.22527,16.851385,10.386290985280723
1673609787.226277,16.848524,10.383652300329349
1673609787.227284,16.843452,10.381014240066646
1673609787.228291,16.850086,10.378375555115271
1673609787.229298,16.868382,10.375736870163896
1673609787.230305,16.911848,10.373098809901194
1673609787.231312,17.000677,10.37046012494982
1673609787.232319,17.036377,10.367821439998446
1673609787.233326,17.060057,10.365183379735743
1673609787.234334,17.065323,10.362542196029679
1673609787.235341,17.030704,10.359903511078306
1673609787.236348,17.004332,10.357265450815603
1673609787.237355,16.96493,10.354626765864229
1673609787.238362,16.900909,10.351988080912854
1673609787.239369,16.8454,10.349350020650151
1673609787.240376,16.821598,10.346711335698776
1673609787.241383,16.841312,10.344072650747401
1673609787.24239,16.822176,10.341434590484699
1673609787.243397,16.815325,10.338795905533326
1673609787.244404,16.868982,10.336157220581951
1673609787.245411,16.916704,10.333519160319248
1673609787.246418,16.93305,10.330880475367874
1673609787.247426,16.926632,10.328239291661811
1673609787.248433,16.904875,10.325600606710436
1673609787.24944,16.886557,10.322962546447734
1673609787.250447,16.877518,10.320323861496359
1673609787.251454,16.879272,10.317685176544984
1673609787.252461,16.86754,10.315047116282281
1673609787.253468,16.860977,10.312408431330907
1673609787.254475,16.886581,10.309769746379533
1673609787.255482,16.910091,10.307131686116831
1673609787.256489,16.913698,10.304493001165456
1673609787.257496,16.903793,10.301854316214081
1673609787.258503,16.897327,10.299216255951379
1673609787.259511,16.902304,10.296575072245316
1673609787.260518,16.921343,10.293936387293941
1673609787.261525,16.918915,10.291298327031239
1673609787.262532,16.903168,10.288659642079864
1673609787.263539,16.897831,10.286020957128489
1673609787.264546,16.903313,10.283382896865787
1673609787.265553,16.895813,10.280744211914412
1673609787.26656,16.891485,10.278105526963039
1673609787.267567,16.898552,10.275467466700336
1673609787.268574,16.90115,10.272828781748961
1673609787.269581,16.898552,10.270190096797586
1673609787.270588,16.901318,10.267552036534884
1673609787.271595,16.889753,10.264913351583509
1673609787.272603,16.886724,10.262272167877446
1673609787.27361,16.891748,10.259633482926072
1673609787.274617,16.897543,10.256995422663369
1673609787.275624,16.89699,10.254356737711994
1673609787.276631,16.893408,10.243688973772056
1673609787.277638,16.891293,10.254019248450167
1673609787.278645,16.890114,10.271168
1673609787.279652,16.891413,10.241855854077253
1673609787.280659,16.897062,10.22679109680496
1673609787.281666,16.898697,10.271168
1673609787.2826731,16.90098,10.29146907556615
1673609787.28368,16.906679,10.286798552217453
1673609787.284688,16.906029,10.250327263710062
1673609787.285695,16.899683,10.236952027735592
1673609787.286702,16.903145,10.240339453380482
1673609787.287709,16.908216,10.243727681162634
1673609787.288716,16.909948,10.247115908944783
1673609787.289723,16.91264,10.250503334589675
1673609787.29073,16.907616,10.253891562371825
1673609787.291737,16.905355,10.257279790153975
1673609787.292744,16.907833,10.260667215798867
1673609787.293751,16.912136,10.264055443581016
1673609787.294758,16.908627,10.267443671363168
1673609787.295765,16.901463,10.27083109700806
1673609787.296772,16.887783,10.27421932479021
1673609787.29778,16.870522,10.277610761121396
1673609787.298787,16.877951,10.280998988903546
1673609787.299794,16.895716,10.284386414548438
1673609787.300801,16.901846,10.287774642330588
1673609787.301808,16.877758,10.291162870112737
1673609787.302815,16.875713,10.29455029575763
1673609787.303822,16.888647,10.297938523539779
1673609787.3048291,16.905235,10.30132675132193
1673609787.305836,16.90704,10.30471417696682
1673609787.306843,16.903553,10.308102404748972
1673609787.30785,16.900452,10.311489830393862
1673609787.308857,16.890692,10.314878058176014
1673609787.309865,16.902952,10.318269494507199
1673609787.311879,16.90086,10.32504514793424
1673609787.312886,16.924685,10.328433375716392
1673609787.313893,16.948557,10.331821603498542
1673609787.3149,16.944469,10.335209029143433
1673609787.315907,16.920309,10.338597256925583
1673609787.316914,16.899706,10.341985484707735
1673609787.317921,16.90324,10.345372910352625
1673609787.318928,16.911919,10.348761138134776
1673609787.319935,16.907207,10.352149365916926
1673609787.320942,16.898722,10.355536791561818
1673609787.321949,16.878262,10.358925019343967
1673609787.322957,16.854029,10.362316455675154
1673609787.3239641,16.873743,10.365704683457304
1673609787.324971,16.886724,10.369092109102196
1673609787.325978,16.931681,10.372480336884346
1673609787.3269851,16.983103,10.375868564666495
1673609787.327992,17.00248,10.379255990311387
1673609787.328999,17.007673,10.37971
1673609787.330006,17.016665,10.395607962327134
1673609787.331013,17.038757,10.445881062947068
1673609787.33202,17.002577,10.419761103218116
1673609787.333027,16.915791,10.399610587982831
1673609787.334034,16.877998,10.414206811158799
1673609787.335042,16.844366,10.465537807151371
1673609787.336049,16.827538,10.436798745350501
1673609787.337056,16.850496,10.484389118741058
1673609787.338063,16.855495,10.522118685264664
1673609787.33907,16.858574,10.524431
1673609787.340077,16.863478,10.490056888412017
1673609787.341084,16.866699,10.488245
1673609787.342091,16.873671,10.494327388461697
1673609787.343098,16.880642,10.50067900232761
1673609787.344105,16.877733,10.50703212024606
1673609787.345112,16.875738,10.513385238164512
1673609787.346119,16.893673,10.519736852030425
1673609787.347126,16.909851,10.52735854397902
1673609787.348134,16.920837,10.538580353537762
1673609787.3491411,16.911005,10.549791546436563
1673609787.350148,16.903,10.561000085170377
1673609787.351155,16.900669,10.572211278069178
1673609787.352162,16.904131,10.583419816802992
1673609787.353169,16.907207,10.594631009701795
1673609787.354176,16.903793,10.605842202600595
1673609787.355183,16.911848,10.61705074133441
1673609787.35619,16.903913,10.62826193423321
1673609787.357197,16.891558,10.63947312713201
1673609787.358204,16.897038,10.650681665865825
1673609787.359211,16.91942,10.661892858764627
1673609787.360219,16.923243,10.675591407963758
1673609787.361226,16.939543,10.687241
1673609787.362233,16.94471,10.687241
1673609787.36324,16.937498,10.71451683118741
1673609787.364247,16.932161,10.759597
1673609787.365254,16.914637,10.738381772348033
1673609787.366261,16.909395,10.73412403051979
1673609787.367268,16.895596,10.777686
1673609787.368275,16.872614,10.800043312991656
1673609787.369282,16.873936,10.836665558075868
1673609787.370289,16.892159,10.847973372141015
1673609787.371296,16.92305,10.859278509166845
1673609787.372303,16.910742,10.870586323231992
1673609787.373311,16.876436000000002,10.881904845454397
1673609787.374318,16.86528,10.893209982480228
1673609787.375325,16.867155,10.904517796545374
1673609787.376332,16.881315,10.91582561061052
1673609787.377339,16.907568,10.927130747636353
1673609787.378346,16.92697,10.9384385617015
1673609787.379353,16.915092,10.949746375766646
1673609787.38036,16.901798,10.961051512792476
1673609787.381367,16.918219,10.972359326857623
1673609787.382374,16.929157,10.983667140922769
1673609787.383381,16.90937,10.9949722779486
1673609787.384388,16.861242,11.006280092013746
1673609787.385396,16.846457,11.017598614236151
1673609787.386403,16.86278,11.028906428301298
1673609787.38741,16.874559,11.04021156532713
1673609787.388417,16.878839,11.051519379392275
1673609787.389424,16.89312,11.062827193457421
1673609787.390431,16.901077,11.074132330483254
1673609787.391438,16.937691,11.0854401445484
1673609787.392445,16.969088,11.096747958613546
1673609787.393452,16.963558,11.108053095639377
1673609787.394459,16.940552,11.119360909704524
1673609787.395466,16.923651,11.13066872376967
1673609787.396473,16.910284,11.141973860795503
1673609787.39748,16.899033,11.153281674860647
1673609787.398488,16.894249,11.168887789034565
1673609787.399495,16.900116,11.187099993800667
1673609787.400502,16.915092,11.182200621363853
1673609787.401509,16.915886,11.187355977353993
1673609787.402516,16.912737,11.217383226514068
1673609787.403523,16.90699,11.21800743252265
1673609787.40453,16.906078,11.211857
1673609787.405537,16.904682,11.248423175965666
1673609787.406544,16.898169,11.278442117310442
1673609787.407551,16.898312,11.291234670425624
1673609787.408558,16.900309,11.301509276873098
1673609787.409565,16.888336,11.311786316331808
1673609787.410573,16.879585,11.322073087835461
1673609787.41158,16.894947,11.33235012729417
1673609787.412587,16.910645,11.342624733741646
1673609787.413594,16.912689,11.352901773200355
1673609787.414601,16.910164,11.363178812659065
1673609787.415608,16.906366,11.37345341910654
1673609787.416615,16.892975,11.38373045856525
1673609787.417622,16.884129,11.39400749802396
1673609787.418629,16.889681,11.404282104471434
1673609787.419636,16.894754,11.414559143930145
1673609787.420643,16.891508,11.424836183388855
1673609787.42165,16.885979,11.43511078983633
1673609787.422657,16.904322,11.44538782929504
1673609787.423665,16.930815,11.455674600798691
1673609787.424672,16.929518,11.465949207246167
1673609787.425679,16.901991,11.476226246704876
1673609787.426686,16.902086,11.486503286163586
1673609787.427693,16.932859,11.49677789261106
1673609787.4287,16.941105,11.50705493206977
1673609787.429707,16.91894,11.517331971528481
1673609787.430714,16.909781,11.527606577975956
1673609787.431721,16.928724,11.537883617434666
1673609787.432728,16.925838,11.548160656893376
1673609787.433735,16.940552,11.55843526334085
1673609787.434742,16.930887,11.568712302799561
1673609787.43575,16.883455,11.578999074303212
1673609787.436757,16.880642,11.589276113761922
1673609787.437764,16.893143,11.599550720209397
1673609787.438771,16.896725,11.609827759668107
1673609787.439778,16.900309,11.620104799126818
1673609787.440785,16.89336,11.630379405574292
1673609787.441792,16.890619,11.640656445033002
1673609787.442799,16.884922,11.650933484491713
1673609787.443806,16.862852,11.661208090939187
1673609787.444813,16.842419,11.671485130397897
1673609787.44582,16.80756,11.681762169856608
1673609787.446827,16.795443,11.692036776304082
1673609787.447834,16.842827,11.702313815762793
1673609787.448842,16.890306,11.712600587266444
1673609787.449849,16.965626,11.722875193713918
1673609787.450856,17.032963,11.733152233172628
1673609787.451863,17.078207,11.743429272631339
1673609787.45287,17.105518,11.753703879078813
1673609787.453877,17.079121,11.737839868144968
1673609787.454884,17.070875,11.753306523843586
1673609787.455891,17.043036,11.754553
1673609787.456898,17.007143,11.720367161620977
1673609787.457905,16.932426,11.752819147353362
1673609787.458912,16.826359,11.771908783500239
1673609787.459919,16.823114,11.755169928247915
1673609787.460927,16.839605,11.719315248450167
1673609787.461934,16.854942,11.807124188125893
1673609787.462941,16.879393,11.807597742561258
1673609787.463948,16.873383,11.806343734978912
1673609787.464955,16.873646,11.805089727396563
1673609787.465962,16.881195,11.803836016691012
1673609787.466969,16.884657,11.802582009108663
1673609787.467976,16.885475,11.801328001526317
1673609787.468983,16.8911,11.800074290820765
1673609787.46999,16.887423,11.798820283238417
1673609787.470997,16.881868,11.79756627565607
1673609787.472004,16.88312,11.796312564950519
1673609787.491139,16.911175,11.786857453955276
1673609787.492146,16.928915,11.784959668910126
1673609787.493153,16.940744,11.783061883864976
1673609787.49416,16.924662,11.781164548106057
1673609787.495167,16.910284,11.779266763060907
1673609787.496174,16.896437,11.777368978015756
1673609787.497181,16.871628,11.775471642256838
1673609787.498188,16.856842,11.773573857211687
1673609787.499196,16.852612,11.771674275021606
1673609787.500203,16.857973,11.76977693926269
1673609787.50121,16.870329,11.767879154217537
1673609787.502217,16.893263,11.765981369172387
1673609787.503224,16.899225,11.764084033413468
1673609787.504231,16.915621,11.762186248368318
1673609787.505238,16.930119,11.760288463323167
1673609787.506245,16.923243,11.758391127564249
1673609787.507252,16.921103,11.756493342519098
1673609787.508259,16.942234,11.754595557473948
1673609787.509266,16.954159,11.752698221715029
1673609787.510273,16.942211,11.750800436669879
1673609787.511281,16.93745,11.7489008544798
1673609787.512288,16.941729,11.747003069434648
1673609787.513295,16.933195,11.74510573367573
1673609787.514302,16.922424,11.743207948630578
1673609787.515309,16.909058,11.741310163585428
1673609787.516316,16.904732,11.739412827826511
1673609787.517323,16.905188,11.737515042781359
1673609787.51833,16.906847,11.735617257736209
1673609787.519337,16.90288,11.73371992197729
1673609787.520344,16.899923,11.73182213693214
1673609787.521351,16.900644,11.72992435188699
1673609787.522358,16.904034,11.72802701612807
1673609787.523365,16.898504,11.72612923108292
1673609787.524373,16.897038,11.724229648892841
1673609787.52538,16.882469,11.722332313133922
1673609787.526387,16.860929,11.720434528088772
1673609787.527394,16.851049,11.718536743043622
1673609787.528401,16.857853,11.718375
1673609787.529408,16.869368,11.70158854601812
1673609787.530415,16.870546,11.666454308059132
1673609787.531422,16.87343,11.664108
1673609787.532429,16.889971,11.646019
1673609787.533436,16.932161,11.63047799231951
1673609787.534443,16.954159,11.629004795777352
1673609787.53545,16.940407,11.664982938195777
1673609787.536458,16.919203,11.683475178187404
1673609787.537465,16.92692,11.678354495743545
1673609787.538472,16.936729,11.674427367119387
1673609787.539479,16.921007,11.670499308557122
1673609787.540486,16.933989,11.66657124999486
1673609787.541493,16.946201,11.662644121370702
1673609787.5425,16.911848,11.65871606280844
1673609787.543507,16.905333,11.654788004246175
1673609787.544514,16.904154,11.650860875622019
1673609787.545521,16.901485,11.646932817059755
1673609787.546528,16.90913,11.643004758497492
1673609787.547535,16.915117,11.639077629873334
1673609787.548542,16.92103,11.635149571311072
1673609787.54955,16.916584,11.631217792996381
1673609787.550557,16.915188,11.627290664372225
1673609787.551564,16.914106,11.62336260580996
1673609787.552571,16.918987,11.619434547247698
1673609787.553578,16.918747,11.61550741862354
1673609787.554585,16.908289,11.611579360061278
1673609787.555592,16.891388,11.607651301499013
1673609787.556599,16.885355,11.603724172874857
1673609787.557606,16.89514,11.599796114312593
1673609787.558613,16.925453,11.59586805575033
1673609787.55962,16.935888,11.591940927126172
1673609787.560627,16.942139,11.58801286856391
1673609787.561635,16.945623,11.584081090249219
1673609787.562642,16.952692,11.580153031686955
1673609787.563649,16.923483,11.576225903062799
1673609787.564656,16.916151,11.572297844500534
1673609787.565663,16.902206,11.568369785938271
1673609787.56667,16.845135,11.564442657314114
1673609787.567677,16.811357,11.560514598751851
1673609787.568684,16.842033,11.556586540189587
1673609787.569691,16.886219,11.55265941156543
1673609787.570698,16.907856,11.548731353003166
1673609787.571705,16.914732,11.544803294440904
1673609787.572712,16.92103,11.540876165816746
1673609787.573719,16.930935,11.536948107254483
1673609787.574727,16.95488,11.533016328939793
1673609787.575734,16.968775,11.529089200315637
1673609787.576741,16.941753,11.525161141753372
1673609787.577748,16.908962,11.52123308319111
1673609787.578755,16.912064,11.517305954566952
1673609787.579762,16.930695,11.51337789600469
1673609787.580769,16.930695,11.509449837442425
1673609787.581776,16.918579,11.505522708818267
1673609787.582783,16.918482,11.501594650256004
1673609787.58379,16.925117,11.551825571530758
1673609787.584797,16.922354,11.53859833524082
1673609787.585804,16.908817,11.588754812634088
1673609787.586812,16.888817,11.522785696232713
1673609787.587819,16.900524,11.57149315379113
1673609787.588826,16.921175,11.59114362669845
1673609787.589833,16.92716,11.556505248450167
1673609787.59084,16.925503,11.591061535526942
1673609787.591847,16.929398,11.573873913945173
1673609787.592854,16.920549,11.57714465419653
1673609787.593861,16.918339,11.580677969156069
1673609787.594868,16.917521,11.584210447630056
1673609787.595875,16.912352,11.587743762589595
1673609787.596882,16.911896,11.591277077549131
1673609787.597889,16.908987,11.575935068176399
1673609787.598897,16.904154,11.621516096566523
1673609787.599904,16.904371,11.563587303290415
1673609787.600911,16.912857,11.604179813825983
1673609787.601918,16.917521,11.609485482448308
1673609787.602925,16.91293,11.609097863188117
1673609787.603932,16.906414,11.60871033569385
1673609787.604939,16.90122,11.608322716433658
1673609787.605946,16.894129,11.607935097173467
1673609787.606953,16.877085,11.6075475696792
1673609787.60796,16.853909,11.607159950419009
1673609787.608967,16.836912,11.606772331158817
1673609787.609974,16.819628,11.60638480366455
1673609787.610981,16.82523,11.605997184404359
1673609787.611989,16.838692000000002,11.605609198080474
1673609787.612996,16.853477,11.605221578820283
1673609787.614003,16.884369,11.604834051326016
1673609787.61501,16.927811,11.604446432065824
1673609787.616017,16.942354,11.604058812805633
1673609787.617024,16.935358,11.603671285311364
1673609787.618031,16.951946,11.603283666051174
1673609787.619038,17.007769,11.602896046790983
1673609787.620045,17.071934,11.602508519296714
1673609787.621052,17.089073,11.602120900036523
1673609787.622059,17.074482,11.601733280776333
1673609787.623066,17.050272,11.601345753282065
1673609787.624074,17.019356,11.60095776695818
1673609787.625081,16.987864,11.600570147697988
1673609787.626088,16.921921,11.600182620203721
1673609787.627095,16.838356,11.59979500094353
1673609787.628102,16.789745,11.599407381683339
1673609787.629109,16.806717,11.599019854189072
1673609787.630116,16.864344,11.59863223492888
1673609787.631123,16.893072,11.598244615668689
1673609787.63213,16.909035,11.59785708817442
1673609787.633137,16.922234,11.59746946891423
1673609787.634144,16.923723,11.597081849654039
1673609787.635151,16.914925,11.59669432215977
1673609787.636158,16.903408,11.596306702899579
1673609787.637166,16.894081,11.595918716575694
1673609787.638173,16.892061000000002,11.595531097315504
1673609787.63918,16.890715,11.595143569821236
1673609787.640187,16.88723,11.594755950561044
1673609787.641194,16.896389,11.594368331300853
1673609787.642201,16.903553,11.593980803806586
1673609787.643208,16.908842,11.593593184546394
1673609787.644215,16.91151,11.593205565286203
1673609787.645222,16.908289,11.592818037791936
1673609787.646229,16.90336,11.592430418531745
1673609787.647236,16.904202,11.592042799271553
1673609787.648243,16.907375,11.591743
1673609787.649251,16.909443,11.600280835518474
1673609787.650258,16.913626,11.619130970910826
1673609787.651265,16.902952,11.579188515231788
1673609787.652272,16.884682,11.607270968211921
1673609787.653279,16.868189,11.489192864900662
1673609787.654286,16.849463,11.423784056953643
1673609787.655293,16.83357,11.498081552317881
1673609787.6563,16.827633,11.586585802383789
1673609787.657307,16.826406,11.561084745476478
1673609787.658314,16.863646,11.517708494571773
1673609787.659321,16.928146,11.47433224366707
1673609787.660328,16.970146,11.430966261761158
1673609787.661335,16.977261,11.463662769670957
1673609787.662343,16.957067,11.482623049117787
1673609787.66335,16.976156,11.465560558893657
1673609787.664357,16.98892,11.447349733015495
1673609787.665364,16.956442,11.482804186933715
1673609787.666371,16.917688,11.411121036242251
1673609787.667378,16.916391,11.392911267525037
1673609787.668385,16.92091,11.447203158798283
1673609787.669392,16.915188,11.465083771060312
1673609787.670399,16.91865,11.46342806533393
1673609787.671406,16.914877,11.461771967538942
1673609787.672413,16.909178,11.460115869743952
1673609787.67342,16.899731,11.45846016401757
1673609787.674428,16.90312,11.456802497948154
1673609787.675435,16.909323,11.455146400153165
1673609787.676442,16.912809,11.453490694426783
1673609787.677449,16.912064,11.451834596631794
1673609787.678456,16.908194,11.450178498836806
1673609787.679463,16.907423,11.448522793110424
1673609787.68047,16.915646,11.446866695315435
1673609787.681477,16.933916,11.445210597520447
1673609787.682484,16.93721,11.443554891794063
1673609787.683491,16.93899,11.441898793999075
1673609787.684498,16.928579,11.440242696204086
1673609787.685505,16.914757,11.438586990477704
1673609787.686512,16.90687,11.436930892682716
1673609787.68752,16.901052,11.4352732266133
1673609787.688527,16.905573,11.43361712881831
1673609787.689534,16.918507,11.431961423091929
1673609787.690541,16.924444,11.43030532529694
1673609787.691548,16.92668,11.42864922750195
1673609787.692555,16.91906,11.426993521775568
1673609787.693562,16.90913,11.42533742398058
1673609787.694569,16.901438,11.42368132618559
1673609787.695576,16.897278,11.422025620459209
1673609787.696583,16.887373,11.42036952266422
1673609787.69759,16.878046,11.418713424869232
1673609787.698597,16.869583,11.417057719142848
1673609787.699605,16.877831,11.415400053073434
1673609787.700612,16.88747,11.413743955278445
1673609787.701619,16.883335,11.412088249552061
1673609787.702626,16.894802,11.401763596662693
1673609787.703633,16.924805,11.369999262279446
1673609787.70464,16.92942,11.3421994308536
1673609787.705647,16.929613,11.307223208631378
1673609787.706654,16.95089,11.310292206674614
1673609787.707661,16.964857,11.273869981163566
1673609787.723774,16.908962,11.258485258505871
1673609787.724782,16.905235,11.251439752607709
1673609787.725789,16.904875,11.24440091227804
1673609787.726796,16.903528,11.237363738340495
1673609787.727803,16.895741,11.230324898010826
1673609787.72881,16.893576,11.223286057681158
1673609787.729817,16.916391,11.216248883743612
1673609787.730824,16.934877,11.209210043413943
1673609787.731831,16.929132,11.202171203084276
1673609787.732838,16.915333,11.19513402914673
1673609787.733845,16.898817,11.188095188817062
1673609787.734852,16.902327,11.181056348487393
1673609787.735859,16.918459,11.174019174549848
1673609787.736866,16.921944,11.16698033422018
1673609787.737874,16.924589,11.159934828322017
1673609787.738881,16.930815,11.152895987992348
1673609787.739888,16.936369,11.145858814054804
1673609787.740895,16.939253,11.138819973725136
1673609787.741902,16.931488,11.131781133395467
1673609787.742909,16.919107,11.124743959457922
1673609787.743916,16.908001,11.117705119128253
1673609787.744923,16.905476,11.110666278798584
1673609787.74593,16.905188,11.10362910486104
1673609787.746937,16.89699,11.096590264531372
1673609787.747944,16.887735,11.089551424201703
1673609787.748951,16.886845,11.082514250264158
1673609787.749959,16.882277,11.075468744365995
1673609787.750966,16.884682,11.068429904036327
1673609787.751973,16.901678,11.061392730098781
1673609787.75298,16.907495,11.054353889769112
1673609787.753987,16.903,11.047315049439444
1673609787.754994,16.91526,11.0402778755019
1673609787.756001,16.922642,11.033239035172231
1673609787.757008,16.921583,11.026200194842563
1673609787.758015,16.919228,11.019163020905017
1673609787.759022,16.933651,11.012124180575348
1673609787.760029,16.934565,11.00508534024568
1673609787.761036,16.92894,10.998048166308136
1673609787.762043,16.940432,10.991009325978467
1673609787.763051,16.93346,10.983963820080305
1673609787.764058,16.933363,10.976924979750637
1673609787.765065,16.943268,10.96988780581309
1673609787.766072,16.944181,10.962848965483422
1673609787.767079,16.923025,10.944184173104436
1673609787.768086,16.898504,10.90042854159714
1673609787.769093,16.88485,10.883045957081546
1673609787.7701,16.899323,10.911900370529327
1673609787.771107,16.910742,10.937821632181167
1673609787.772114,16.915861,10.96642596137339
1673609787.773121,16.92697,10.952793277539342
1673609787.774128,16.939638,10.914321928486293
1673609787.775136,16.948532,10.937239416309012
1673609787.776143,16.946537,10.976325101088781
1673609787.77715,16.923555,10.97554522126315
1673609787.778157,16.907953,10.974765156763157
1673609787.779164,16.904442,10.973985092263165
1673609787.780171,16.917353,10.973205212437534
1673609787.781178,16.910862,10.97242514793754
1673609787.782185,16.906149,10.971645083437549
1673609787.783192,16.917906,10.970865203611918
1673609787.784199,16.934301,10.970085139111925
1673609787.785206,16.937185,10.969305074611933
1673609787.786213,16.927906,10.968525194786302
1673609787.78722,16.928051,10.967745130286309
1673609787.788228,16.926439,10.966964327088874
1673609787.789235,16.909035,10.96618426258888
1673609787.790242,16.89949,10.96540438276325
1673609787.791249,16.898361,10.964624318263258
1673609787.792256,16.912184,10.963844253763265
1673609787.793263,16.913145,10.963064373937634
1673609787.79427,16.893312,10.962284309437642
1673609787.795277,16.891821,10.961504244937649
1673609787.796284,16.891748,10.960724365112018
1673609787.797291,16.88122,10.959944300612024
1673609787.7982981,16.884249,10.959164236112032
1673609787.799305,16.885931,10.958384356286402
1673609787.800313,16.880787,10.957603553088965
1673609787.80132,16.882687,10.956823488588974
1673609787.802327,16.901077,10.956043608763341
1673609787.803334,16.926367,10.95526354426335
1673609787.804341,16.924444,10.954483479763358
1673609787.805348,16.949686,10.953703599937725
1673609787.806355,16.962404,10.952923535437733
1673609787.807362,16.947956,10.952143470937742
1673609787.808369,16.937305,10.95136359111211
1673609787.809376,16.923723,10.950583526612117
1673609787.810383,16.909876,10.949803462112126
1673609787.81139,16.91288,10.949023582286493
1673609787.812397,16.940937,10.948243517786501
1673609787.813405,16.942019,10.947462714589065
1673609787.814412,16.917185,10.946682650089073
1673609787.815419,16.931776,10.945902770263443
1673609787.816426,16.935984,10.945122705763449
1673609787.8174331,16.938389,10.944342641263457
1673609787.81844,16.946898,10.943562761437825
1673609787.819447,16.937355,10.942782696937833
1673609787.8204541,16.927761,10.942002632437841
1673609787.821461,16.931776,10.941222752612209
1673609787.822468,16.951754,10.936208576877235
1673609787.823475,16.945961,10.889334407725322
1673609787.824482,16.91329,10.920724904148784
1673609787.82549,16.897543,10.906146304171633
1673609787.826497,16.890547,10.920453180972817
1673609787.827504,16.883335,10.900160204101097
1673609787.828511,16.880907,10.87476329058403
1673609787.829518,16.882687,10.91540689341917
1673609787.830525,16.88908,10.865681552217454
1673609787.831532,16.898241,10.850051
1673609787.832539,16.913963,10.850051
1673609787.833546,16.924492,10.850051
1673609787.834553,16.920477,10.850051
1673609787.83556,16.93947,10.850051
1673609787.836567,16.936296,10.850051
1673609787.837574,16.922642,10.850051
1673609787.838582,16.905813,10.850051
1673609787.8395891,16.902134,10.850051
1673609787.840596,16.899515,10.845312070083434
1673609787.841603,16.903553,10.84654350929014
1673609787.8426101,16.911175,10.881246969928402
1673609787.843617,16.918098,10.863020390319505
1673609787.844624,16.926271,10.850051
1673609787.845631,16.934757,10.844681232474965
1673609787.846638,16.936321,10.837461159513591
1673609787.847645,16.923243,10.85567820977354
1673609787.848652,16.91918,10.850891730090606
1673609787.849659,16.907928,10.814181391011644
1673609787.850667,16.894226,10.815141116027958
1673609787.851674,16.893312,10.816099933073584
1673609787.852681,16.908289,10.817058523126537
1673609787.853688,16.91305,10.818017340172164
1673609787.854695,16.916704,10.818976157217788
1673609787.855702,16.916655,10.819934747270743
1673609787.856709,16.917738,10.820893564316368
1673609787.857716,16.926006,10.821852381361994
1673609787.858723,16.927521,10.822810971414947
1673609787.85973,16.925358,10.823769788460574
1673609787.860737,16.924997,10.824728605506198
1673609787.861744,16.921583,10.825687195559153
1673609787.862751,16.907303,10.826646012604778
1673609787.863759,16.903601,10.827605737621091
1673609787.8647661,16.90324,10.828564554666716
1673609787.865773,16.899706,10.829523144719671
1673609787.86678,16.9011,10.830481961765297
1673609787.867787,16.911366,10.83144055181825
1673609787.868794,16.910141,10.832399368863877
1673609787.869801,16.902184,10.833358185909502
1673609787.870808,16.903818,10.834316775962456
1673609787.871815,16.899778,10.835275593008081
1673609787.872822,16.899155,10.836234410053708
1673609787.873829,16.891846,10.83719300010666
1673609787.874836,16.880138,10.838151817152287
1673609787.875844,16.872805,10.839111542168599
1673609787.876851,16.866987,10.840070359214225
1673609787.877858,16.87944,10.841028949267178
1673609787.878865,16.89312,10.841987766312805
1673609787.879872,16.894682,10.84294658335843
1673609787.880879,16.912952,10.843905173411384
1673609787.881886,16.943846,10.84486399045701
1673609787.882893,16.965385,10.845822807502635
1673609787.8839,16.952477,10.84678139755559
1673609787.884907,16.925766,10.847740214601215
1673609787.885914,16.895523,10.848699031646841
1673609787.886921,16.901751,10.849657621699794
1673609787.887928,16.913939,10.83931738899476
1673609787.888936,16.927473,10.842845620286397
1673609787.889943,16.935936,10.872082142584645
1673609787.89095,16.927881,10.886229
1673609787.891957,16.917953,10.886229
1673609787.892964,16.903891,10.817852603719599
1673609787.893971,16.910332,10.835300562097736
1673609787.894978,16.9387,10.856490407963758
1673609787.895985,16.945383,10.814726987124462
1673609787.896992,16.939663,10.797959952578127
1673609787.897999,16.92716,10.801290106089002
1673609787.899006,16.915405,10.804619471211263
1673609787.900013,16.905788,10.807949624722138
1673609787.901021,16.901583,10.811282931787472
1673609787.902028,16.887926,10.826035071053887
1673609787.903035,16.855953,10.86814
1673609787.904042,16.848982,10.863835559847402
1673609787.905049,16.88913,10.854484832141155
1673609787.906056,16.911077,10.845348610727056
1673609787.907063,16.926632,10.791740300429185
1673609787.90807,16.945288,10.836775381974249
1673609787.909077,16.9569,10.848591914494717
1673609787.910084,16.948124,10.843209227006232
1673609787.911091,16.931801,10.837826539517746
1673609787.912098,16.921391,10.832445126339746
1673609787.913105,16.916222,10.82706243885126
1673609787.914113,16.904322,10.821674654120836
1673609787.91512,16.896437,10.816293240942834
1673609787.916127,16.913385,10.810910553454349
1673609787.917134,16.931681,10.805527865965864
1673609787.918141,16.933844,10.800146452787862
1673609787.919148,16.929325,10.794763765299377
1673609787.920155,16.926992,10.789381077810893
1673609787.921162,16.932041,10.78399966463289
1673609787.922169,16.951994,10.778616977144406
1673609787.923176,16.955145,10.773234289655921
1673609787.924183,16.909828,10.767852876477919
1673609787.92519,16.860184,10.762470188989434
1673609787.926198,16.874922,10.757082404259009
1673609787.927205,16.909756,10.751699716770522
1673609787.928212,16.928074,10.746318303592522
1673609787.929219,16.920862,10.740935616104037
1673609787.930226,16.917738,10.73555292861555
1673609787.931233,16.924589,10.73017151543755
1673609787.93224,16.931536,10.724788827949066
1673609787.933247,16.929205,10.71940614046058
1673609787.934254,16.919756,10.71402472728258
1673609787.935261,16.906847,10.708642039794094
1673609787.936268,16.894176,10.703259352305608
1673609787.937275,16.895716,10.697877939127608
1673609787.938282,16.902592,10.692495251639123
1673609787.93929,16.907232,10.687107466908698
1673609787.940297,16.911175,10.681726053730696
1673609787.941304,16.916992,10.676343366242211
1673609787.942311,16.919155,10.670960678753726
1673609787.943318,16.917208,10.665579265575724
1673609787.944325,16.913626,10.66019657808724
1673609787.945332,16.913771,10.654813890598755
1673609787.946339,16.907688,10.649432477420753
1673609787.947346,16.90163,10.644049789932268
1673609787.948353,16.90312,10.638667102443781
1673609787.94936,16.9055,10.633285689265781
1673609787.950367,16.915573,10.627903001777296
1673609787.951375,16.924517,10.622515217046871
1673609787.952382,16.923145,10.617132529558384
1673609787.953389,16.916512,10.593716511921793
1673609787.954396,16.910284,10.600117279208392
1673609787.955403,16.90699,10.614877
1673609787.95641,16.900139,10.684786570980393
1673609787.957417,16.899635,10.674089232941176
1673609787.958424,16.899611,10.706819682352942
1673609787.959431,16.910261,10.683954240522876
1673609787.960438,16.926031,10.701759491503267
1673609787.961445,16.938267,10.723419
1673609787.962452,16.948582,10.689409955184743
1673609787.963459,16.952644,10.674560585121602
1673609787.964467,16.959375,10.630252167381974
1673609787.965474,16.968462,10.6128716528403
1673609787.966481,16.953918,10.609401523220235
1673609787.967488,16.938629,10.605931393600173
1673609787.968495,16.915958,10.602462085507007
1673609787.969502,16.897638,10.598991955886945
1673609787.970509,16.858622,10.59552182626688
1673609787.971516,16.819843,10.592052518173716
1673609787.972523,16.80953,10.588582388553652
1673609787.97353,16.828186,10.58511225893359
1673609787.974537,16.84511,10.581642950840424
1673609787.975544,16.870354,10.578172821220361
1673609787.976552,16.902977,10.574699405492703
1673609787.977559,16.911703,10.57122927587264
1673609787.978566,16.991781,10.567759967779475
1673609787.979573,16.99897,10.56428983815941
1673609787.98058,16.965986,10.560819708539347
1673609787.981587,16.941128,10.557350400446182
1673609787.982594,16.924204,10.553880270826118
1673609787.983601,16.914131,10.550410141206056
1673609787.984608,16.90377,10.54694083311289
1673609787.985615,16.902134,10.543470703492828
1673609787.986622,16.908794,10.540000573872764
1673609787.987629,16.917353,10.5365312657796
1673609787.988636,16.920189,10.533061136159535
1673609787.989644,16.923435,10.529587720431877
1673609787.990651,16.931608,10.526118412338713
1673609787.991658,16.928434,10.522648282718649
1673609787.992665,16.9193,10.519178153098585
1673609787.993672,16.917545,10.51570884500542
1673609787.994679,16.941248,10.512238715385358
1673609787.995686,16.955841,10.508768585765294
1673609787.996693,16.963991,10.50529927767213
1673609787.9977,16.960361,10.501829148052066
1673609787.998707,16.963654,10.498359018432001
1673609787.999714,16.960001,10.494889710338837
1673609788.000721,16.940454,10.491419580718773
1673609788.001729,16.918026,10.487946164991115
1673609788.002736,16.892542,10.484476035371053
1673609788.003743,16.872108,10.481006727277887
1673609788.00475,16.890474,10.477536597657824
1673609788.005757,16.916655,10.47406646803776
1673609788.006764,16.924517,10.470597159944596
1673609788.007771,16.935743,10.486058275393418
1673609788.008778,16.936369,10.520307779976163
1673609788.009785,16.928051,10.524431
1673609788.010792,16.91918,10.443014673104434
1673609788.011799,16.898504,10.516021781883195
1673609788.012806,16.892109,10.507891705531712
1673609788.013813,16.905333,10.473011249880782
1673609788.014821,16.910862,10.520575469606674
1673609788.015828,16.913939,10.524431
1673609788.016835,16.90728,10.512349183992795
1673609788.017842,16.905766,10.499445621207856
1673609788.018849,16.915092,10.486545113243654
1673609788.019856,16.92127,10.473641550458716
1673609788.020863,16.915981,10.496750366714354
1673609788.02187,16.910284,10.466076070083433
1673609788.022877,16.900524,10.450960169929933
1673609788.023884,16.893047,10.449473055566369
1673609788.024891,16.890211,10.447986293265862
1673609788.025898,16.898191,10.446499178902297
1673609788.026906,16.905573,10.445010656286494
1673609788.027913,16.90901,10.443523541922927
1673609788.02892,16.915646,10.442036779622422
1673609788.029927,16.909781,10.440549665258855
1673609788.030934,16.92132,10.43906255089529
1673609788.031941,16.953028,10.437575788594785
1673609788.032948,16.949326,10.436088674231218
1673609788.033955,16.927641,10.434601559867653
1673609788.034962,16.907953,10.433114797567146
1673609788.035969,16.897711,10.431627683203581
1673609788.036976,16.895861,10.430140568840015
1673609788.037983,16.884296,10.42865380653951
1673609788.03899,16.876699,10.427166692175945
1673609788.039998,16.891317,10.42567816956014
1673609788.041005,16.934685,10.424191407259634
1673609788.042012,16.975796,10.422704292896068
1673609788.043019,16.969063,10.421217178532503
1673609788.044026,16.96524,10.419730416231996
1673609788.045033,16.954832,10.418243301868431
1673609788.04604,16.936152,10.416756187504866
1673609788.047047,16.935431,10.41526942520436
1673609788.048054,16.926945,10.413782310840794
1673609788.049061,16.913506,10.412295196477228
1673609788.050068,16.882877,10.410808434176722
1673609788.051075,16.870306,10.409321319813156
1673609788.052083,16.878094,10.407832797197353
1673609788.05309,16.863525,10.406345682833788
1673609788.054097,16.85552,10.40485892053328
1673609788.055104,16.860641,10.403371806169716
1673609788.056111,16.869633,10.40188469180615
1673609788.057118,16.883408,10.400397929505644
1673609788.058125,16.90966,10.398910815142079
1673609788.059132,16.956972,10.397423700778512
1673609788.060139,16.984787,10.395936938478007
1673609788.061146,16.974882,10.39444982411444
1673609788.062153,16.94875,10.392962709750876
1673609788.06316,16.935984,10.391475947450369
1673609788.064167,16.928795,10.389988833086804
1673609788.065175,16.925911,10.388500310471
1673609788.066182,16.922977,10.387013548170493
1673609788.067189,16.914059,10.385526433806929
1673609788.068196,16.912809,10.384039319443362
1673609788.069203,16.912569,10.382552557142857
1673609788.07021,16.913265,10.38106544277929
1673609788.071217,16.903145,10.384543587044535
1673609788.072224,16.894009,10.435696144152745
1673609788.073231,16.904034,10.4502028583691
1673609788.074238,16.912712,10.43597005148987
1673609788.075245,16.910837,10.454179519313305
1673609788.076252,16.913986,10.467913081545063
1673609788.07726,16.917353,10.452066
1673609788.078267,16.92709,10.449554017151025
1673609788.079274,16.926126,10.439227695465393
1673609788.080281,16.918409,10.470205337828192
1673609788.081288,16.914852,10.470529953071628
1673609788.082295,16.912592,10.470854491464864
1673609788.083302,16.917738,10.4711791067083
1673609788.084309,16.924541,10.471503721951738
1673609788.085316,16.928627,10.471828260344973
1673609788.086323,16.923988,10.47215287558841
1673609788.08733,16.927065,10.472477490831846
1673609788.088337,16.920815,10.472802029225083
1673609788.089344,16.9168,10.473126644468518
1673609788.090352,16.920549,10.473451567112754
1673609788.091359,16.916824,10.473776105505989
1673609788.092366,16.920549,10.474100720749426
1673609788.093373,16.920742,10.474425335992862
1673609788.09438,16.925478,10.474749874386099
1673609788.095387,16.930719,10.475074489629534
1673609788.096394,16.918242,10.47539910487297
1673609788.097401,16.913218,10.475723643266207
1673609788.098408,16.917953,10.476048258509643
1673609788.099415,16.910524,10.47637287375308
1673609788.100422,16.903601,10.476697412146315
1673609788.101429,16.902977,10.477022027389753
1673609788.102437,16.92103,10.477346950033986
1673609788.103444,16.924997,10.477671565277422
1673609788.104451,16.913145,10.477996103670659
1673609788.105458,16.909491,10.478320718914096
1673609788.106465,16.909708,10.478645334157532
1673609788.107472,16.901678,10.478969872550769
1673609788.108479,16.923651,10.479294487794204
1673609788.109486,16.953077,10.47961910303764
1673609788.110493,16.956923,10.479943641430877
1673609788.122578,16.938869,10.483839024352111
1673609788.123585,16.946537,10.484163639595547
1673609788.124592,16.930407,10.484488254838983
1673609788.125599,16.911968,10.48481279323222
1673609788.126606,16.90752,10.485137408475655
1673609788.127614,16.90764,10.48546233111989
1673609788.128621,16.880594,10.485786946363326
1673609788.129628,16.853067,10.486111484756563
1673609788.130635,16.851601,10.486436099999999
1673609788.131642,16.857491,10.486760715243435
1673609788.132649,16.888697,10.487085253636671
1673609788.133656,16.910669,10.487409868880109
1673609788.134663,16.922544,10.487734484123544
1673609788.13567,17.009451,10.488059022516781
1673609788.136677,17.016615,10.488245
1673609788.137684,17.008802,10.488245
1673609788.138691,16.972284,10.496275929422985
1673609788.139699,16.929373,10.506334
1673609788.140706,16.893696,10.4808989296875
1673609788.141713,16.905355,10.491315777847309
1673609788.14272,16.891052,10.5356468
1673609788.143727,16.886892,10.488245
1673609788.144734,16.912905,10.488245
1673609788.145741,16.934685,10.486682763556036
1673609788.146748,16.93519,10.483497972658691
1673609788.147755,16.932667,10.480313935736463
1673609788.148762,16.931993,10.477129144839118
1673609788.149769,16.916054,10.473944353941773
1673609788.150776,16.913218,10.470760317019547
1673609788.151783,16.914419,10.467575526122202
1673609788.152791,16.910164,10.464387719324385
1673609788.153798,16.910934,10.46120292842704
1673609788.154805,16.907856,10.458018891504814
1673609788.155812,16.908289,10.454834100607469
1673609788.156819,16.914467,10.451649309710124
1673609788.157826,16.932787,10.448465272787896
1673609788.158833,16.930502,10.445280481890551
1673609788.15984,16.939373,10.442095690993206
1673609788.160847,16.951105,10.438911654070978
1673609788.161854,16.936344,10.435726863173633
1673609788.162861,16.90086,10.432542072276288
1673609788.163868,16.859631,10.429358035354062
1673609788.164876,16.842226,10.426170228556245
1673609788.165883,16.855568,10.4229854376589
1673609788.16689,16.88545,10.419801400736674
1673609788.167897,16.897638,10.416616609839329
1673609788.168904,16.903072,10.413431818941984
1673609788.169911,16.924877,10.410247782019756
1673609788.170918,16.951153,10.40706299112241
1673609788.171925,16.959856,10.403878200225066
1673609788.172932,16.959976,10.400694163302838
1673609788.173939,16.957861,10.397509372405493
1673609788.174946,16.953413,10.394324581508148
1673609788.175953,16.949928,10.391140544585921
1673609788.17696,16.939301,10.387955753688576
1673609788.177968,16.930792,10.38476794689076
1673609788.178975,16.930647,10.381583155993415
1673609788.179982,16.934061,10.378399119071188
1673609788.180989,16.929085,10.375214328173843
1673609788.181996,16.924637,10.372029537276497
1673609788.183003,16.914492,10.36884550035427
1673609788.18401,16.907568,10.365660709456925
1673609788.185017,16.913338,10.36247591855958
1673609788.186024,16.916151,10.359291881637352
1673609788.187031,16.911245,10.356107090740007
1673609788.188038,16.916704,10.352922299842662
1673609788.189045,16.921391,10.349738262920436
1673609788.190053,16.916487,10.34655045612262
1673609788.19106,16.915213,10.344429743919886
1673609788.192067,16.916439,10.358521268653158
1673609788.193074,16.914347,10.307346
1673609788.194081,16.914011,10.309916587505962
1673609788.195088,16.912376,10.33929389058403
1673609788.196095,16.919901,10.284650645207439
1673609788.197102,16.930695,10.246643905102527
1673609788.198109,16.929253,10.35803315498331
1673609788.199116,16.946104,10.329272713945173
1673609788.200123,16.963053,10.361872084391946
1673609788.20113,16.952765,10.36418034048306
1673609788.202137,16.933989,10.366489143165717
1673609788.203145,16.924229,10.368800132214552
1673609788.204152,16.919683,10.37110893489721
1673609788.205159,16.90877,10.373417190988324
1673609788.206166,16.903458,10.375725993670981
1673609788.207173,16.900066,10.378034796353639
1673609788.20818,16.899225,10.380343052444752
1673609788.209187,16.912159,10.38265185512741
1673609788.210194,16.923723,10.384960657810069
1673609788.211201,16.934134,10.387268913901183
1673609788.212208,16.938845,10.38957771658384
1673609788.213215,16.936031,10.391886519266498
1673609788.214222,16.953581,10.394194775357612
1673609788.21523,16.950865,10.396505764406445
1673609788.216237,16.929806,10.397799
1673609788.217244,16.935358,10.414076962088698
1673609788.218251,16.946922,10.409179011680571
1673609788.219258,16.951923,10.388103226990939
1673609788.220265,16.937859,10.406317776824034
1673609788.221272,16.932642,10.407240824034334
1673609788.222279,16.936129,10.42412399284863
1673609788.223286,16.939543,10.407572786123033
1673609788.224293,16.930552,10.388699234620887
1673609788.2253,16.913506,10.415316736838577
1673609788.226307,16.912809,10.41417841025794
1673609788.227314,16.919949,10.413039814123293
1673609788.228322,16.921871,10.411900139772609
1673609788.229329,16.908529,10.410761543637962
1673609788.230336,16.922281,10.409623217057325
1673609788.231343,16.943726,10.408484620922678
1673609788.23235,16.940744,10.407346024788032
1673609788.233357,16.951538,10.406207698207394
1673609788.234364,16.940454,10.405069102072748
1673609788.235371,16.894514,10.403930505938101
1673609788.236378,16.862371,10.402792179357464
1673609788.237385,16.893793,10.401653583222817
1673609788.238392,16.922737,10.400514987088169
1673609788.239399,16.91305,10.399376660507532
1673609788.240407,16.915958,10.39823698615685
1673609788.241414,16.954014,10.397098390022203
1673609788.242421,16.963558,10.395960063441565
1673609788.243428,16.98296,10.394821467306919
1673609788.244435,16.986855,10.393682871172272
1673609788.245442,16.933748,10.392544544591635
1673609788.246449,16.897951,10.391405948456988
1673609788.247456,16.913626,10.39026735232234
1673609788.248463,16.914564,10.389129025741703
1673609788.24947,16.909708,10.387990429607056
1673609788.250477,16.918266,10.38685183347241
1673609788.251484,16.923145,10.385713506891772
1673609788.252491,16.930454,10.384574910757125
1673609788.253499,16.928724,10.383435236406443
1673609788.254506,16.922882,10.382296640271797
1673609788.255513,16.923243,10.38115831369116
1673609788.25652,16.9212,10.380019717556511
1673609788.257527,16.91531,10.392972678826895
1673609788.258534,16.910261,10.357639381406436
1673609788.259541,16.90103,10.357036836671435
1673609788.260548,16.903673,10.375261262041011
1673609788.261555,16.901894,10.365939887008343
1673609788.262562,16.89526,10.34772061349547
1673609788.263569,16.900717,10.301458664520743
1673609788.264576,16.908915,10.345830940405245
1673609788.265584,16.920574,10.318745434191703
1673609788.266591,16.937258,10.30825388546249
1673609788.267598,16.947811,10.30940075961986
1673609788.268605,16.959015,10.310547905355294
1673609788.269612,16.953053,10.311695051090727
1673609788.270619,16.934204,10.312841925248097
1673609788.271626,16.9174,10.313989070983531
1673609788.272633,16.918674,10.315136216718964
1673609788.27364,16.934374,10.316283090876334
1673609788.274647,16.939663,10.317430236611768
1673609788.275654,16.922785,10.318577382347202
1673609788.276661,16.929157,10.319724256504573
1673609788.277668,16.937979,10.320871402240005
1673609788.278676,16.925959,10.322019634287688
1673609788.279683,16.917353,10.323166780023122
1673609788.28069,16.910357,10.324313654180493
1673609788.281697,16.905308,10.325460799915925
1673609788.282704,16.906174,10.326607945651359
1673609788.283711,16.908337,10.32775481980873
1673609788.284718,16.921055,10.328901965544162
1673609788.285725,16.938051,10.330049111279596
1673609788.286732,16.947931,10.331195985436967
1673609788.287739,16.960554,10.332343131172399
1673609788.288746,16.939758,10.333490276907833
1673609788.289753,16.911871,10.334637151065204
1673609788.290761,16.893,10.335785383112887
1673609788.291768,16.883455,10.336932528848319
1673609788.292775,16.881556,10.33807940300569
1673609788.293782,16.912497,10.339226548741124
1673609788.294789,16.930119,10.340373694476558
1673609788.295796,16.953533,10.341520568633928
1673609788.296803,16.97315,10.34266771436936
1673609788.29781,17.016352,10.343814860104795
1673609788.298817,17.007383,10.344961734262165
1673609788.299824,16.97089,10.346108879997598
1673609788.300831,16.934422,10.347256025733031
1673609788.301838,16.924997,10.348402899890402
1673609788.302845,16.922161,10.349550045625836
1673609788.303853,16.907207,10.350698277673517
1673609788.30486,16.891148,10.351845423408951
1673609788.305867,16.903481,10.352992297566322
1673609788.306874,16.912088,10.354139443301756
1673609788.307881,16.905668,10.355286589037188
1673609788.308888,16.900837,10.35643346319456
1673609788.309895,16.90086,10.357580608929993
1673609788.310902,16.893768,10.358727754665425
1673609788.311909,16.88146,10.359874628822796
1673609788.312916,16.86694,10.36102177455823
1673609788.3139231,16.870787,10.361613
1673609788.31493,16.868742,10.325797297567954
1673609788.315938,16.879248,10.307453800953516
1673609788.316945,16.908314,10.364911306044377
1673609788.317952,16.942595,10.299832155460182
1673609788.318959,16.945456,10.343524
1673609788.319966,16.924902,10.362742690822408
1673609788.320973,16.931849,10.37971
1673609788.32198,16.958149,10.37971
1673609788.322987,16.953125,10.380144900625954
1673609788.323994,16.953894,10.38093789947889
1673609788.325001,16.941153,10.381731086112755
1673609788.326008,16.925285,10.382524272746618
1673609788.327015,16.913698,10.383317271599555
1673609788.328022,16.920166,10.384110458233419
1673609788.32903,16.936512,10.384904395990988
1673609788.330037,16.93923,10.385697582624854
1673609788.331044,16.937162,10.38649058147779
1673609788.332051,16.935383,10.387283768111654
1673609788.3330581,16.925478,10.388076954745518
1673609788.334065,16.920622,10.388869953598455
1673609788.335072,16.922522,10.389663140232319
1673609788.3360791,16.919203,10.390456326866182
1673609788.337086,16.919493,10.39124932571912
1673609788.338093,16.922064,10.392042512352983
1673609788.3391,16.92555,10.39283551120592
1673609788.340107,16.935791,10.393628697839784
1673609788.341115,16.922209,10.394422635597355
1673609788.342122,16.896677,10.395215822231219
1673609788.343129,16.892735,10.396008821084155
1673609788.344136,16.90127,10.39680200771802
1673609788.345143,16.889753,10.397595194351883
1673609788.34615,16.881556,10.39838819320482
1673609788.347157,16.891388,10.399181379838684
1673609788.348164,16.914371,10.399974566472547
1673609788.349171,16.927618,10.400767565325486
1673609788.350178,16.934374,10.40156075195935
1673609788.351185,16.952932,10.402353938593214
1673609788.352192,16.971924,10.40314693744615
1673609788.353199,16.970747,10.403940124080014
1673609788.354207,16.959904,10.404734061837583
1673609788.3552141,16.944229,10.405527248471447
1673609788.356221,16.944662,10.406320247324386
1673609788.357228,16.957453,10.40711343395825
1673609788.3582351,16.985651,10.407906620592113
1673609788.359242,16.989185,10.40869961944505
1673609788.360249,16.976612,10.409492806078914
1673609788.361256,16.963053,10.410285804931851
1673609788.362263,16.951899,10.411078991565715
1673609788.36327,16.95649,10.411872178199578
1673609788.364277,16.9569,10.412665177052515
1673609788.365284,16.927618,10.41345836368638
1673609788.366292,16.924709,10.41425230144395
1673609788.367299,16.954975,10.415045488077814
1673609788.368306,16.984882,10.41583848693075
1673609788.369313,16.98493,10.364705981402002
1673609788.37032,16.963102,10.39599573962804
1673609788.371327,16.90925,10.397799
1673609788.372334,16.878119,10.397799
1673609788.373341,16.886316,10.380231881020505
1673609788.374348,16.860231,10.362014196901074
1673609788.375355,16.828859,10.379438156652359
1673609788.376362,16.852997,10.3258620565093
1673609788.377369,16.880161,10.343502439809297
1673609788.378376,16.898962,10.342917836571951
1673609788.379384,16.914371,10.342310380071881
1673609788.3803911,16.924973,10.341703498270487
1673609788.381398,16.923796,10.341096760143763
1673609788.382405,16.926199,10.34048987834237
1673609788.383412,16.923002,10.339883140215644
1673609788.384419,16.921608,10.33927625841425
1673609788.385426,16.922857,10.338669376612856
1673609788.386433,16.928724,10.33806263848613
1673609788.38744,16.924492,10.337455756684736
1673609788.388447,16.91151,10.336848874883342
1673609788.389454,16.912424,10.336242136756617
1673609788.390461,16.910645,10.335635254955223
1673609788.391469,16.910885,10.335027798455155
1673609788.392476,16.924829,10.33442091665376
1673609788.393483,16.928411,10.333814178527035
1673609788.39449,16.924685,10.333207296725641
1673609788.395497,16.919926,10.332600414924247
1673609788.396504,16.919613,10.331993676797522
1673609788.397511,16.919756,10.331386794996128
1673609788.398518,16.91716,10.330779913194734
1673609788.399525,16.918194,10.33017317506801
1673609788.400532,16.91526,10.329566293266616
1673609788.401539,16.919252,10.328959411465222
1673609788.402546,16.931536,10.328352673338497
1673609788.403553,16.934975,10.327745791537103
1673609788.404561,16.925478,10.327138335037032
1673609788.405568,16.900717,10.326531596910309
1673609788.406575,16.865953,10.325924715108915
1673609788.407582,16.844822,10.32531783330752
1673609788.408589,16.857635,10.324711095180795
1673609788.409596,16.875233,10.324104213379401
1673609788.410603,16.891773,10.323497331578007
1673609788.41161,16.910429,10.322890593451282
1673609788.412617,16.921801,10.322283711649888
1673609788.413624,16.936129,10.321676829848494
1673609788.414631,16.960505,10.321070091721769
1673609788.415638,16.962812,10.320463209920376
1673609788.416646,16.949999,10.319855753420306
1673609788.417653,16.947908,10.319248871618912
1673609788.41866,16.965698,10.318642133492187
1673609788.419667,16.984304,10.318035251690793
1673609788.420674,16.989233,10.317428369889399
1673609788.421681,16.977839,10.316821631762673
1673609788.422688,16.935839,10.316214749961281
1673609788.423695,16.890547,10.315607868159887
1673609788.424702,16.882614,10.315001130033162
1673609788.425709,16.887373,10.314394248231768
1673609788.426716,16.871868,10.313787366430374
1673609788.427723,16.842129,10.313180628303648
1673609788.42873,16.853765,10.312573746502254
1673609788.429738,16.881845,10.311966290002186
1673609788.430745,16.871868,10.31135955187546
1673609788.431752,16.870234,10.310752670074066
1673609788.432759,16.877132,10.310145788272672
1673609788.433766,16.888119,10.309539050145947
1673609788.434773,16.919035,10.308932168344553
1673609788.43578,16.930286,10.308325286543159
1673609788.436787,16.945984,10.307718548416434
1673609788.437794,16.960049,10.314380611111112
1673609788.438801,16.955889,10.325435
1673609788.439808,16.966131,10.28898958989032
1673609788.440815,16.952957,10.23499
1673609788.441823,16.933411,10.250111610395804
1673609788.44283,16.905693,10.278858197186457
1673609788.443837,16.896484,10.26581676066746
1673609788.444844,16.911366,10.250870710061992
1673609788.445851,16.934444,10.287307494039103
1673609788.446858,16.95089,10.239416239218878
1673609788.450886,16.938869,10.241531536750745
1673609788.451893,16.902086,10.198804
1673609788.4529,16.905813,10.203214418178616
1673609788.453907,16.906942,10.21218821701603
1673609788.454915,16.914419,10.22117051376901
1673609788.455922,16.952572,10.230142188127532
1673609788.456929,16.979809,10.239115986964947
1673609788.457936,16.979353,10.24808978580236
1673609788.458943,16.979473,10.257061460160882
1673609788.45995,16.966587,10.266035258998297
1673609788.460957,16.942474,10.255571952312827
1673609788.461964,16.924349,10.21914406865316
1673609788.462971,16.915741,10.214903922746782
1673609788.463978,16.896582,10.218631236051502
1673609788.464985,16.876266,10.215409017878427
1673609788.465992,16.88509,10.218130809728184
1673609788.467,16.913458,10.198804
1673609788.468007,16.915092,10.207507286599904
1673609788.469014,16.903625,10.23454938784267
1673609788.470021,16.906799,10.27098634620887
1673609788.471028,16.903265,10.252919210300428
1673609788.472035,16.908361,10.216892
1673609788.473042,16.917833,10.216892
1673609788.474049,16.907328,10.216892
1673609788.475056,16.899563,10.216892
1673609788.476063,16.909348,10.216892
1673609788.47707,16.913002,10.216892
1673609788.478077,16.910189,10.216892
1673609788.479084,16.906847,10.216892
1673609788.480092,16.90966,10.216892
1673609788.481099,16.908241,10.216892
1673609788.482106,16.922569,10.216892
1673609788.483113,16.925045,10.216892
1673609788.48412,16.904322,10.216892
1673609788.485127,16.897615,10.216892
1673609788.486134,16.899105,10.216892
1673609788.487141,16.904732,10.216892
1673609788.488148,16.909731,10.216892
1673609788.489155,16.930141,10.216892
1673609788.490162,16.969328,10.216892
1673609788.491169,17.000532,10.216892
1673609788.492177,17.006592,10.216892
1673609788.493184,16.987864,10.216892
1673609788.494191,16.961756,10.216892
1673609788.495198,16.939806,10.216892
1673609788.496205,16.927401,10.216892
1673609788.497212,16.913338,10.216892
1673609788.498219,16.895813,10.216892
1673609788.499226,16.879295,10.204229537434431
1673609788.500233,16.882902,10.198804
1673609788.50124,16.892662,10.211717840286054
1673609788.502247,16.900909,10.229941201716738
1673609788.503254,16.894466,10.208648593705293
1673609788.504261,16.888407,10.212100448259418
1673609788.505269,16.884874,10.257220555899881
1673609788.506276,16.890932,10.244038813066284
1673609788.507283,16.899996,10.233759952672605
1673609788.50829,16.9011,10.23212350545657
1673609788.509297,16.893625,10.230487445657015
1673609788.510304,16.882589,10.22885099844098
1673609788.511311,16.899466,10.227214551224945
1673609788.512318,16.905956,10.22557849142539
1673609788.513325,16.884296,10.223942044209354
1673609788.514332,16.87533,10.22230559699332
1673609788.515339,16.889681,10.220669537193764
1673609788.516346,16.90901,10.219033089977728
1673609788.517354,16.951994,10.217395093095769
1673609788.518361,17.004885,10.215758645879733
1673609788.519368,16.998875,10.214122586080178
1673609788.520375,16.949566,10.212486138864142
1673609788.521382,16.963583,10.210849691648107
1673609788.522389,16.986492,10.209213631848552
1673609788.523396,16.954134,10.207577184632516
1673609788.524403,16.91853,10.205940737416482
1673609788.52541,16.907688,10.204304677616927
1673609788.526417,16.915453,10.20266823040089
1673609788.527424,16.890667,10.201031783184856
1673609788.528431,16.883047,10.199395723385301
1673609788.529438,16.896364,10.197759276169265
1673609788.530446,16.899563,10.196121279287306
1673609788.531453,16.90103,10.19448521948775
1673609788.53246,16.903721,10.192848772271715
1673609788.533467,16.910622,10.191212325055679
1673609788.534474,16.918266,10.189576265256125
1673609788.535481,16.932209,10.187939818040089
1673609788.536488,16.933723,10.186303370824053
1673609788.537495,16.926319,10.1846673110245
1673609788.538502,16.930286,10.183030863808463
1673609788.539509,16.934324,10.181394416592427
1673609788.540516,16.931128,10.179758356792874
1673609788.541523,16.927546,10.178121909576838
1673609788.542531,16.943508,10.176483912694877
1673609788.543538,16.935743,10.174847465478843
1673609788.544545,16.916271,10.173211405679288
1673609788.545552,16.910091,10.171574958463252
1673609788.546559,16.92091,10.169938511247217
1673609788.547566,16.914011,10.168302451447662
1673609788.548573,16.894779,10.166666004231626
1673609788.54958,16.893143,10.16502955701559
1673609788.550587,16.896101,10.163393497216036
1673609788.551594,16.922665,10.16175705
1673609788.552601,16.957956,10.160120602783964
1673609788.553608,16.955938,10.15848454298441
1673609788.554615,16.955698,10.156848095768375
1673609788.555623,16.943581,10.155210098886414
1673609788.55663,16.928795,10.15357403908686
1673609788.557637,16.91526,10.151937591870825
1673609788.558644,16.912136,10.150301144654788
1673609788.559651,16.906487,10.148665084855235
1673609788.560658,16.892231,10.147028637639199
1673609788.561665,16.895571,10.145392190423163
1673609788.562672,16.915911,10.11848555293276
1673609788.563679,16.920141,10.081451506078665
1673609788.564686,16.915478,10.045361485932284
1673609788.565693,16.911486,10.045089757749166
1673609788.5667,16.909443,10.06298304672229
1673609788.567708,16.905861,10.054083
1673609788.568715,16.908817,10.035156742012399
1673609788.569722,16.915573,10.05624717306317
1673609788.570729,16.917473,10.070834949451598
1673609788.571736,16.91276,10.0521312949943
1673609788.572743,16.908937,10.048519528894795
1673609788.57375,16.910357,10.044906907534553
1673609788.574757,16.919804,10.04129428617431
1673609788.575764,16.919683,10.037682520074805
1673609788.576771,16.899851,10.034069898714561
1673609788.577778,16.88312,10.030457277354317
1673609788.578785,16.882637,10.026845511254814
1673609788.579792,16.879873,10.02323288989457
1673609788.5808,16.868694,10.019616847491372
1673609788.581807,16.867325,10.016005081391867
1673609788.582814,16.87355,10.012392460031624
1673609788.583821,16.880449,10.00877983867138
1673609788.584828,16.900524,10.005168072571877
1673609788.585835,16.931416,10.001555451211633
1673609788.586842,16.952572,9.99794282985139
1673609788.587849,16.955961,9.994331063751885
1673609788.588856,16.954374,9.99071844239164
1673609788.589863,16.93918,9.987105821031397
1673609788.59087,16.917208,9.983494054931894
1673609788.591877,16.90966,9.97988143357165
1673609788.592885,16.910309,9.976265391168452
1673609788.593892,16.90704,9.972652769808208
1673609788.594899,16.910091,9.969041003708703
1673609788.595906,16.926439,9.965428382348462
1673609788.596913,16.931656,9.961815760988218
1673609788.59792,16.917015,9.958203994888713
1673609788.598927,16.915117,9.95459137352847
1673609788.599934,16.922184,9.950978752168226
1673609788.600941,16.923676,9.94736698606872
1673609788.601948,16.920237,9.943754364708479
1673609788.602955,16.898191,9.940141743348235
1673609788.603962,16.898985,9.93652997724873
1673609788.604969,16.926872,9.932917355888486
1673609788.605977,16.940985,9.929301313485288
1673609788.606984,16.944975,9.925689547385785
1673609788.607991,16.937017,9.922076926025541
1673609788.608998,16.931801,9.918464304665298
1673609788.610005,16.964327,9.914852538565793
1673609788.611012,16.984329,9.911239917205549
1673609788.612019,16.978174,9.907627295845305
1673609788.613026,16.987263,9.904015529745802
1673609788.614033,16.984667,9.900402908385558
1673609788.61504,16.971323,9.896790287025315
1673609788.616047,16.948149,9.89317852092581
1673609788.617054,16.940817,9.882664119694802
1673609788.618062,16.916006,9.890695049117788
1673609788.619069,16.867756,9.891592166905102
1673609788.620076,16.863333,9.89119969535161
1673609788.621083,16.864487,9.891091851216023
1673609788.62209,16.844629,9.84539060085837
1673609788.623097,16.835783,9.809525022407628
1673609788.624104,16.857347,9.810338358130663
1673609788.625111,16.880089,9.8092681855031
1673609788.626118,16.902592,9.800819
1673609788.627125,16.926271,9.800819
1673609788.628132,16.937523,9.800819
1673609788.629139,16.941538,9.800819
1673609788.630147,16.940865,9.800819
1673609788.631154,16.944206,9.800819
1673609788.632161,16.947596,9.835713486769965
1673609788.633168,16.946587,9.866852418693371
1673609788.634175,16.935408,9.849410378636147
1673609788.635182,16.916775,9.837006
1673609788.636189,16.895788,9.812726024320458
1673609788.637196,16.896749,9.813091463519314
1673609788.638203,16.909924,9.83130548557807
1673609788.63921,16.912159,9.837006
1673609788.640217,16.913097,9.811707887458274
1673609788.641224,16.917448,9.798015686288648
1673609788.642231,16.921991,9.79401663288887
1673609788.643239,16.931705,9.790013792506702
1673609788.644246,16.921871,9.786014739106923
1673609788.645253,16.914827,9.782016632452738
1673609788.64626,16.907976,9.778017579052959
1673609788.647267,16.903168,9.774018525653178
1673609788.648274,16.911896,9.770020418998994
1673609788.649281,16.914827,9.766021365599213
1673609788.650288,16.914925,9.762022312199434
1673609788.651295,16.913458,9.75802420554525
1673609788.652302,16.915213,9.75402515214547
1673609788.653309,16.909443,9.750026098745689
1673609788.654316,16.905285,9.746027992091506
1673609788.655324,16.913914,9.74202515170934
1673609788.656331,16.914637,9.73802609830956
1673609788.657338,16.909515,9.734027991655376
1673609788.658345,16.901005,9.730028938255595
1673609788.659352,16.896582,9.726029884855816
1673609788.660359,16.897207,9.722031778201632
1673609788.661366,16.892494,9.718032724801851
1673609788.662373,16.890787,9.71403367140207
1673609788.66338,16.899443,9.710035564747887
1673609788.664387,16.892351,9.706036511348108
1673609788.665394,16.88336,9.702037457948327
1673609788.666401,16.897638,9.698039351294144
1673609788.667408,16.908361,9.694040297894363
1673609788.668416,16.916992,9.690037457512197
1673609788.669423,16.929781,9.686038404112416
1673609788.67043,16.93923,9.682040297458233
1673609788.671437,16.954905,9.678041244058452
1673609788.672444,16.952644,9.674042190658673
1673609788.673451,16.935335,9.67004408400449
1673609788.674458,16.928532,9.666045030604709
1673609788.675465,16.93697,9.66204597720493
1673609788.676472,16.944855,9.658047870550744
1673609788.677479,16.942066,9.654048817150965
1673609788.678486,16.928244,9.650049763751184
1673609788.679493,16.922905,9.646051657097
1673609788.680501,16.925117,9.642048816714833
1673609788.681508,16.935598,9.638049763315054
1673609788.682515,16.928892,9.65604193323796
1673609788.683522,16.922304,9.637936695351609
1673609788.684529,16.921824,9.620317791130185
1673609788.685536,16.915453,9.656421640915594
1673609788.686543,16.896221,9.673290055793991
1673609788.68755,16.876965,9.63801
1673609788.688557,16.876387,9.637306970195517
1673609788.689564,16.899971,9.61908853218884
1673609788.690571,16.93084,9.60187268561346
1673609788.691578,16.942715,9.602662095235143
1673609788.692585,16.952547,9.60345169178783
1673609788.693593,16.948221,9.604242036064525
1673609788.6946,16.933123,9.60503163261721
1673609788.695607,16.929613,9.605821042238894
1673609788.696614,16.935936,9.606610638791581
