measure_time,emg_ch_1,grip_force_inter
1673610159.18849,11.127404,-0.311557
1673610159.189497,11.130626,-0.3655738421554602
1673610159.190504,11.132717,-0.32990047091082497
1673610159.191511,11.133222,-0.34887356686531584
1673610159.192518,11.129832,-0.3989829763948498
1673610159.193525,11.13327,-0.29537006223175966
1673610159.194532,11.135049,-0.3469759003338102
1673610159.195539,11.134279,-0.3287577201430274
1673610159.196547,11.132861,-0.31139496853066356
1673610159.1975539,11.134929,-0.30853196060176136
1673610159.198561,11.132573,-0.3056682747169205
1673610159.199568,11.128895,-0.3028045888320796
1673610159.214674,11.139015,-0.2598499785154054
1673610159.215681,11.139929,-0.25698629263056455
1673610159.216688,11.136563,-0.25412328470166234
1673610159.217695,11.132044,-0.25125959881682147
1673610159.218702,11.127188,-0.2483959129319806
1673610159.219709,11.127933,-0.2455329050030784
1673610159.220716,11.128029,-0.24266921911823752
1673610159.221724,11.128486,-0.2398028214096421
1673610159.2227309,11.127861,-0.2369398134807399
1673610159.223738,11.126611,-0.23407612759589902
1673610159.224745,11.129496,-0.23121244171105815
1673610159.2257519,11.126587,-0.22834943378215594
1673610159.226759,11.12714,-0.22548574789731507
1673610159.227766,11.126779,-0.22262206201247423
1673610159.2287729,11.129063,-0.21975905408357202
1673610159.22978,11.131539,-0.21689536819873118
1673610159.230787,11.131876,-0.2140316823138903
1673610159.2317939,11.129423,-0.2111686743849881
1673610159.232801,11.132957,-0.20830498850014723
1673610159.233809,11.136612,-0.2054385907915518
1673610159.234816,11.135795,-0.20257490490671093
1673610159.235823,11.1319,-0.19971189697780872
1673610159.23683,11.131419,-0.19684821109296785
1673610159.237837,11.13238,-0.19398452520812698
1673610159.238844,11.132357,-0.19112151727922477
1673610159.239851,11.131515,-0.1882578313943839
1673610159.240858,11.128294,-0.18539414550954306
1673610159.241865,11.130673,-0.184925
1673610159.242872,11.127308,-0.16956617095851217
1673610159.243879,11.126971,-0.166836
1673610159.244886,11.127981,-0.166836
1673610159.245893,11.128726,-0.1353592422508345
1673610159.246901,11.130914,-0.14653923647199046
1673610159.2479079,11.128101,-0.18075857796852646
1673610159.248915,11.13077,-0.184925
1673610159.249922,11.133631,-0.184925
1673610159.2509289,11.134088,-0.176925209485016
1673610159.251936,11.134279,-0.1680328107652022
1673610159.252943,11.136203,-0.15914041204538842
1673610159.2539499,11.139809,-0.15025011853360487
1673610159.254957,11.139497,-0.20930328755364808
1673610159.255964,11.137597,-0.14468900238663485
1673610159.256971,11.136924,-0.11525528894711767
1673610159.257978,11.134665,-0.17464396448152564
1673610159.258986,11.131804,-0.10659278826895566
1673610159.259993,11.131299,-0.12606788268955652
1673610159.261,11.131299,-0.08290376281287248
1673610159.262007,11.130096,-0.09242760658082975
1673610159.263014,11.13113,-0.029714243436754176
1673610159.264021,11.132693,-0.054709801857585144
1673610159.265028,11.129808,-0.05749287754556133
1673610159.266035,11.128173,-0.056604237512066335
1673610159.267042,11.129616,-0.055715807857367156
1673610159.268049,11.129543,-0.05482716782387216
1673610159.269056,11.128919,-0.053938527790377166
1673610159.270063,11.130866,-0.05305009813567798
1673610159.271071,11.130553,-0.052160616586999754
1673610159.272078,11.133558,-0.05127197655350476
1673610159.2730849,11.137357,-0.05038354689880557
1673610159.274092,11.136804,-0.04949490686531058
1673610159.275099,11.137069,-0.04860626683181559
1673610159.2761059,11.139568,-0.047717837177116404
1673610159.277113,11.14267,-0.04682919714362141
1673610159.27812,11.137573,-0.045940557110126415
1673610159.279127,11.132188,-0.045052127455427235
1673610159.280134,11.130313,-0.04416348742193224
1673610159.281141,11.130506,-0.043274847388437246
1673610159.282148,11.128222,-0.042386417733738066
1673610159.283155,11.129592,-0.04149777770024307
1673610159.284163,11.129303,-0.040608296151564846
1673610159.28517,11.130866,-0.03971965611806985
1673610159.286177,11.130337,-0.03883122646337066
1673610159.287184,11.129856,-0.03794258642987567
1673610159.288191,11.128726,-0.037053946396380676
1673610159.289198,11.128318,-0.03616551674168149
1673610159.290205,11.132741,-0.035276876708186494
1673610159.291212,11.133991,-0.03438823667469151
1673610159.292219,11.133822,-0.03349980701999232
1673610159.293226,11.136636,-0.032611166986497325
1673610159.294233,11.137526,-0.03172252695300233
1673610159.29524,11.138294,-0.03083409729830315
1673610159.296248,11.136203,-0.029944615749624925
1673610159.297255,11.132404,-0.02905597571612993
1673610159.2982619,11.136395,-0.028167546061430748
1673610159.299269,11.135121,-0.027278906027935753
1673610159.300276,11.132428,-0.026390265994440755
1673610159.301283,11.131274,-0.025501836339741575
1673610159.30229,11.129399,-0.02461319630624658
1673610159.303297,11.127621,-0.023724556272751586
1673610159.304304,11.128222,-0.0228361266180524
1673610159.305311,11.128871,-0.008295216738197426
1673610159.306318,11.130553,0.04308060977353993
1673610159.307325,11.1319,0.01035707606103958
1673610159.308332,11.129904,-0.007864976372315036
1673610159.30934,11.134544,-0.00947432864321608
1673610159.310347,11.138343,0.009730830985915493
1673610159.311354,11.141011,0.018527326458752515
1673610159.312361,11.139641,-0.021750106783919594
1673610159.313368,11.133702,-0.004027
1673610159.314375,11.13327,-0.002659716046277665
1673610159.315382,11.135698,0.04456869170243205
1673610159.316389,11.137069,0.03216
1673610159.317396,11.136467,0.03256432148101588
1673610159.318403,11.13803,0.03380639707069667
1673610159.31941,11.135866,0.03504847266037746
1673610159.320417,11.133799,0.03629025419807206
1673610159.321425,11.13077,0.03753350599569762
1673610159.322432,11.130506,0.03877558158537841
1673610159.323439,11.130145,0.040017363123073
1673610159.324446,11.126514,0.041259438712753796
1673610159.325453,11.126875,0.04250151430243458
1673610159.32646,11.130193,0.04374329584012918
1673610159.327467,11.131587,0.04498537142980997
1673610159.328474,11.133799,0.04622744701949076
1673610159.329481,11.13613,0.047469228557185356
1673610159.330488,11.134953,0.04871130414686615
1673610159.331495,11.135674,0.04995337973654694
1673610159.553053,11.107354,1.2598207699642432
1673610159.55406,11.096681,1.3125242830233668
1673610159.555067,11.108508,1.3026301089651884
1673610159.556074,11.116562,1.333701663647199
1673610159.557081,11.12262,1.3800884663805437
1673610159.558088,11.128149,1.3618183175965666
1673610159.559095,11.135915,1.388913
1673610159.560102,11.137357,1.3984990174058178
1673610159.56111,11.131587,1.4349769217930377
1673610159.5621169,11.123173,1.4643462755030365
1673610159.563124,11.122067,1.4753857948597875
1673610159.564131,11.121442,1.4864253142165387
1673610159.5651379,11.119254,1.4974622200507146
1673610159.566145,11.119278,1.5085017394074658
1673610159.567152,11.119447,1.5195412587642168
1673610159.5681589,11.122499,1.530578164598393
1673610159.569166,11.131419,1.541617683955144
1673610159.570173,11.132188,1.552657203311895
1673610159.5711799,11.133967,1.5636941091460712
1673610159.572187,11.13892,1.5747336285028222
1673610159.573195,11.136227,1.5857836019498732
1673610159.574202,11.133101,1.5968231213066244
1673610159.575209,11.138727,1.6078600271408003
1673610159.576216,11.136539,1.6188995464975515
1673610159.577223,11.131154,1.6299390658543025
1673610159.57823,11.127621,1.6409759716884786
1673610159.579237,11.124134,1.6520154910452298
1673610159.580244,11.122019,1.6630550104019808
1673610159.581251,11.121322,1.674091916236157
1673610159.582258,11.123221,1.685131435592908
1673610159.583265,11.125024,1.696170954949659
1673610159.584272,11.123245,1.707207860783835
1673610159.585279,11.122885,1.7182473801405862
1673610159.586287,11.122188,1.7292973535876373
1673610159.5872939,11.120312,1.7403342594218132
1673610159.588301,11.125649,1.7513737787785644
1673610159.589308,11.127501,1.7624132981353153
1673610159.5903149,11.128582,1.7734502039694915
1673610159.591322,11.131635,1.7844897233262427
1673610159.592329,11.133631,1.7955292426829936
1673610159.5933359,11.133702,1.8065661485171698
1673610159.594343,11.134665,1.8176056678739207
1673610159.59535,11.137116,1.828645187230672
1673610159.5963569,11.133342,1.8396820930648479
1673610159.597364,11.132188,1.850721612421599
1673610159.598372,11.13101,1.86177158586865
1673610159.672895,11.141396,2.9155451553658063
1673610159.673903,11.140626,2.922286812112542
1673610159.67491,11.13928,2.973430570658037
1673610159.675917,11.138367,2.9854912864850283
1673610159.676924,11.128966,3.010268203883495
1673610159.677931,11.117836,2.9881728696120686
1673610159.678938,11.111105,3.0072655138926354
1673610159.679945,11.108581,3.037928781553398
1673610159.680952,11.107835,3.111313712594187
1673610159.681959,11.104974,3.0563166162097737
1673610159.682966,11.098892,3.115270255124604
1673610159.683973,11.094853,3.1414243200262955
1673610159.68498,11.092762,3.167572193151258
1673610159.685987,11.094253,3.193726258052949
1673610159.686995,11.095238,3.219905090061555
1673610159.6880019,11.091151,3.246052963186518
1673610159.689009,11.088964,3.272207028088209
1673610159.690016,11.088434,3.2983610929899
1673610159.6910229,11.085477,3.3245089661148626
1673610159.69203,11.085093,3.350663031016554
1673610159.693037,11.085549,3.3768170959182453
1673610159.6940439,11.087353,3.4029649690432078
1673610159.695051,11.086967,3.4291190339448994
1673610159.696058,11.090815,3.4552730988465905
1673610159.6970649,11.097089,3.481420971971553
1673610159.698072,11.096681,3.507575036873244
1673610159.69908,11.082328,3.53375386888185
1673610159.700087,11.067519,3.5599079337835415
1673610159.701094,11.066029,3.586055806908504
1673610159.702101,11.064731,3.612209871810195
1673610159.703108,11.065836,3.6383639367118867
1673610159.704115,11.076342,3.664511809836849
1673610159.705122,11.076895,3.6906658747385404
1673610159.706129,11.076654,3.716819939640232
1673610159.707136,11.0749,3.7429678127651944
1673610159.708143,11.073626,3.7691218776668856
1673610159.70915,11.085958,3.795275942568577
1673610159.710157,11.096681,3.8214238156935396
1673610159.711164,11.087713,3.8475778805952308
1673610159.712172,11.077641,3.8737567126038366
1673610159.762526,11.079106,5.335910792244141
1673610159.7635329,11.083218,5.374318252537085
1673610159.76454,11.089035,5.412734807658419
1673610159.765547,11.094373,5.451151362779753
1673610159.776625,11.095791,5.8737334691144305
1673610159.777632,11.099012,5.912150024235765
1673610159.778639,11.106994,5.950566579357099
1673610159.779646,11.108892,5.988974039650043
1673610159.780653,11.109662,6.0273905947713775
1673610159.78166,11.104493,6.065807149892712
1673610159.782667,11.097835,6.104214610185656
1673610159.783674,11.096656,6.14263116530699
1673610159.784681,11.098796,6.1810477204283245
1673610159.785688,11.103892,6.219455180721268
1673610159.786696,11.100887,6.257908115156164
1673610159.787703,11.090982,6.296324670277499
1673610159.7887099,11.085526,6.334732130570442
1673610159.789717,11.093002,6.373148685691777
1673610159.790724,11.094997,6.411565240813111
1673610159.7917309,11.101392,6.5241939852205
1673610159.792738,11.11084,6.5599027591797805
1673610159.793745,11.116489,6.608992278493085
1673610159.794752,11.126418,6.663624564719904
1673610159.795759,11.129327,6.655548690987124
1673610159.796766,11.121202,6.653142
1673610159.797773,11.067952,6.732814831942789
1673610159.79878,11.013981,6.743596
1673610159.799788,11.028285,6.840847018597997
1673610159.800795,11.042229,6.85213
1673610159.801802,11.043791,6.85213
1673610159.802809,11.042637,6.85213
1673610159.803816,11.043406,6.85213
1673610159.804823,11.047926,6.894987785407725
1673610159.80583,11.047349,6.982491107296138
1673610159.806837,11.046772,7.074161456366237
1673610159.807844,11.048647,7.144616243146603
1673610159.808851,11.055186,7.146439945636624
1673610159.809858,11.06901,7.201100314735336
1673610159.810865,11.069947,7.258377482701437
1673610159.811873,11.067135,7.3191621509293014
1673610159.81288,11.066125,7.379889312375493
1673610159.8138869,11.062543,7.440602097126266
1673610159.814894,11.047036,7.501329258572458
1673610159.815901,11.037517,7.562056420018649
1673610159.816908,11.029992,7.6227692047694235
1673610159.817915,11.019294,7.683496366215615
1673610159.818922,11.015207,7.7442235276618065
1673610159.923658,11.058768,13.426174034334764
1673610159.924665,11.055667,13.417691870083432
1673610159.925673,11.063673,13.463711466380543
1673610159.92668,11.066293,13.542086929899858
1673610159.927687,11.068192,13.374232135022476
1673610159.928694,11.06901,13.105680675766244
1673610159.929701,11.067832,12.837129216510013
1673610159.930708,11.064081,12.844524098356752
1673610159.931715,11.067639,12.976719459465905
1673610159.932722,11.076198,12.987795689498807
1673610159.933729,11.082304,12.999787358130662
1673610159.934736,11.078986,13.078856781138366
1673610159.935743,11.068697,13.123938294272076
1673610159.93675,11.057037,13.144887907963758
1673610159.937758,11.056581,13.194335724458204
1673610159.938765,11.074299,13.248984006676205
1673610159.939772,11.090622,13.333358085711373
1673610159.940779,11.103989,13.422158653967175
1673610159.941786,11.099613,13.510959222222978
1673610159.942793,11.086079,13.599738767616977
1673610159.9438,11.055283,13.688539335872779
1673610159.944807,10.967943,13.777339904128581
1673610159.945814,10.983618,13.86611944952258
1673610159.946821,11.039752,13.954920017778381
1673610159.947828,11.058047,14.043720586034183
1673610160.164351,11.087544,22.653227346062053
1673610160.165358,11.078746,22.737088562514884
1673610160.166365,11.088554,22.751418746304243
1673610160.167372,11.096872,22.72784570291595
1673610160.168379,11.085646,22.662309219897086
1673610160.169386,11.079612,22.644808
1673610160.170393,11.075428,22.631333625744933
1673610160.1714,11.065308,22.613116588936574
1673610160.172407,11.074563,22.622359489985694
1673610160.173414,11.079179,22.709853598569726
1673610160.174421,11.060475,22.72127903910348
1673610160.175428,11.042349,22.703064180257513
1673610160.176435,11.040882,22.71332121888412
1673610160.177443,11.033982,22.731553647199046
1673610160.1784499,11.00761,22.743186225758553
1673610160.179457,11.003643,22.753139222964656
1673610160.180464,11.004725,22.76309222017076
1673610160.1814709,11.014774,22.773042861080175
1673610160.182478,11.03254,22.782995858286277
1673610160.183485,11.060499,22.792948855492384
1673610160.1844919,11.078698,22.8028994964018
1673610160.185499,11.077496,22.812852493607902
1673610160.186506,11.097546,22.822805490814005
1673610160.1875129,11.10531,22.832756131723425
1673610160.18852,11.068024,22.842709128929528
1673610160.189528,11.061149,22.852671551322377
1673610160.190535,11.099493,22.862624548528483
1673610160.191542,11.114902,22.8725751894379
1673610160.192549,11.112186,22.882528186644002
1673610160.193556,11.113196,22.892481183850105
1673610160.194563,11.113317,22.902431824759525
1673610160.19557,11.113508,22.912384821965627
1673610160.196577,11.108004,22.92233781917173
1673610160.197584,11.099012,22.932288460081146
1673610160.198591,11.093916,22.94224145728725
1673610160.199598,11.080092,22.952194454493355
1673610160.200605,11.045691,22.96214509540277
1673610160.201612,11.026891000000001,22.972098092608874
1673610160.20262,11.030737,22.982060515001727
1673610160.2036269,11.02052,22.992011155911143
1673610160.204634,11.003763,23.001964153117246
1673610160.205641,11.006384,23.01191715032335
1673610160.2066479,11.015832,23.02186779123277
1673610160.207655,11.022131,23.03182078843887
1673610160.208662,11.008668,23.041773785644974
1673610160.2096689,11.011649,23.05172442655439
1673610160.210676,11.034776,23.061677423760493
1673610160.211683,11.069923,23.0716304209666
1673610160.2126899,11.1081,23.081581061876015
1673610160.213697,11.12589,23.091534059082118
1673610160.216719,11.094276,23.08037415417661
1673610160.217726,11.102017,23.052397667620408
1673610160.218733,11.120095,23.051395461538462
1673610160.21974,11.120841,23.087034975917977
1673610160.220747,11.105743,23.10630243508353
1673610160.221754,11.101176,23.10605004191474
1673610160.222761,11.094901,23.10606074892704
1673610160.223768,11.087088,23.099751946809988
1673610160.224775,11.094974,23.105050108252428
1673610160.225782,11.095839,23.110347015395284
1673610160.226789,11.084444,23.11179106437768
1673610160.227797,11.054633,23.084455721096546
1673610160.2288039,11.047853,23.121547209823557
1673610160.229811,11.049801,23.02405436047326
1673610160.230818,11.044464,23.018361253915273
1673610160.2318249,11.03795,23.012669495157134
1673610160.232832,11.047373,23.006976388599146
1673610160.233839,11.064682,23.001283282041157
1673610160.2348459,11.080309,22.995591523283018
1673610160.235853,11.086367,22.98989841672503
1673610160.23686,11.090045,22.98420531016704
1673610160.2378669,11.101007,22.978513551408902
1673610160.238874,11.105383,22.972820444850914
1673610160.239882,11.097858,22.967121947093535
1673610160.240889,11.089661,22.961428840535547
1673610160.241896,11.082064,22.955737081777407
1673610160.242903,11.082592,22.95004397521942
1673610160.24391,11.085429,22.94435086866143
1673610160.244917,11.06949,22.93865910990329
1673610160.245924,11.045114,22.932966003345303
1673610160.246931,11.036122,22.927272896787315
1673610160.247938,11.0348,22.921581138029175
1673610160.248945,11.036579,22.915888031471187
1673610160.249952,11.028646,22.9101949249132
1673610160.250959,11.013597,22.90450316615506
1673610160.251966,11.000374,22.898810059597075
1673610160.252974,11.004244,22.893111561839692
1673610160.2539809,11.01201,22.887419803081553
1673610160.254988,11.016649,22.881726696523565
1673610160.255995,11.036074,22.876033589965576
1673610160.2570019,11.0492,22.870341831207437
1673610160.258009,11.028549,22.864648724649452
1673610160.259016,11.007898,22.858955618091464
1673610160.2600229,10.995157,22.853263859333325
1673610160.26103,11.027179,22.847570752775336
1673610160.262037,11.064682,22.849973025751073
1673610160.2630439,11.08567,22.849309124701957
1673610160.264051,11.090429,22.80002418192656
1673610160.265059,11.087833,22.77305306531585
1673610160.266066,11.085934,22.794231242250834
1673610160.267073,11.083074,22.737345457081545
1673610160.26808,11.080333,22.701834464362335
1673610160.269087,11.070476,22.721114751549834
1673610160.270094,11.055571,22.684682801144493
1673610160.271101,11.025761,22.654522365122617
1673610160.272108,10.986286,22.63370161307902
1673610160.273115,10.976501,22.612885790190738
1673610160.274122,10.976117,22.59206503814714
1673610160.275129,10.945249,22.571244286103543
1673610160.276136,10.922603,22.550428463215262
1673610160.277143,10.917458,22.529607711171664
1673610160.278151,10.931545,22.518177
1673610160.2791579,10.967197,22.49311330996662
1673610160.280165,11.003379,22.455425198617075
1673610160.281172,11.019943,22.46304228033373
1673610160.2821789,11.028813,22.473264040772534
1673610160.283186,11.045691,22.463909
1673610160.284193,11.060619,22.427942128724673
1673610160.2851999,11.065379,22.391544
1673610160.286207,11.068961,22.41003491177873
1673610160.287214,11.076487,22.416721243013907
1673610160.288221,11.080260000000001,22.395322979437157
1673610160.289228,11.082064,22.373919648784025
1673610160.290236,11.091608,22.352496049825348
1673610160.291243,11.091896,22.331092719172215
1673610160.29225,11.102498,22.309694455595466
1673610160.293257,11.094805,22.288291124942333
1673610160.294264,11.076294,22.266887794289197
1673610160.295271,11.047565,22.24548953071245
1673610160.296278,11.027348,22.22408620005932
1673610160.297285,11.016265,22.202682869406182
1673610160.298292,11.007682,22.181284605829436
1673610160.299299,11.003692,22.1598812751763
1673610160.300306,10.996552,22.138477944523167
1673610160.301313,10.989579,22.114886127324752
1673610160.302321,10.988257,22.08681849308536
1673610160.303328,10.996719,22.096239628128725
1673610160.3043349,11.023693,22.06287218025751
1673610160.305342,11.047902,22.054202261802576
1673610160.306349,11.088915,22.084015
1673610160.3073559,11.101464,22.084015
1673610160.308363,11.089757,22.08045240724845
1673610160.30937,11.092353,22.07330996948021
1673610160.310377,11.09168,22.100911203728263
1673610160.311384,11.077448,22.095218128641463
1673610160.312391,11.031987,22.089525053554667
1673610160.313398,11.019727,22.083833326260265
1673610160.314405,11.033935,22.078140251173465
1673610160.315413,11.053095,22.072441784917075
1673610160.31642,11.076101,22.06674870983028
1673610160.317427,11.092449,22.061056982535874
1673610160.318434,11.098772,22.055363907449077
1673610160.319441,11.085429,22.049670832362278
1673610160.320448,11.068577,22.043979105067876
1673610160.321455,11.073072,22.038286029981077
1673610160.322462,11.071318,22.032592954894277
1673610160.323469,11.055018,22.026901227599875
1673610160.324476,11.046556,22.021208152513076
1673610160.325483,11.046844,22.01551507742628
1673610160.32649,11.046243,22.009823350131875
1673610160.327498,11.047758,22.004124883875487
1673610160.328505,11.040353,21.998431808788688
1673610160.3295119,11.045522,21.992740081494286
1673610160.330519,11.052638,21.987047006407487
1673610160.331526,11.048383,21.981353931320687
1673610160.332533,11.043454,21.975662204026285
1673610160.33354,11.027612,21.96996912893949
1673610160.334547,11.02951,21.96427605385269
1673610160.335554,11.041075,21.958584326558288
1673610160.336561,11.046844,21.95289125147149
1673610160.337568,11.048743,21.94719817638469
1673610160.338575,11.046051,21.941506449090287
1673610160.339582,11.049537,21.935813374003487
1673610160.34059,11.072688,21.9301149077471
1673610160.341597,11.113196,21.9244218326603
1673610160.342604,11.119183,21.937047552324195
1673610160.343611,11.101584,21.957382
1673610160.344618,11.076245,21.957382
1673610160.345625,11.086776,21.949080265379113
1673610160.346632,11.089011,21.94772410250298
1673610160.347639,11.087641,21.957382
1673610160.348646,11.090815,21.94870075751073
1673610160.349653,11.098219,21.94810351990465
1673610160.35066,11.095285,21.948446314735335
1673610160.351667,11.081102,21.937498086151198
1673610160.352675,11.079732,21.9338820215378
1673610160.353682,11.083915,21.93026937798837
1673610160.354689,11.078578,21.926657589704934
1673610160.355696,11.070957,21.923044946155503
1673610160.356703,11.06788,21.919432302606076
1673610160.35771,11.050618,21.915820514322636
1673610160.358717,11.038718,21.91220787077321
1673610160.359724,11.034126,21.908595227223778
1673610160.360731,11.012057,21.90498343894034
1673610160.361738,10.992344,21.90137079539091
1673610160.362745,10.999124,21.897758151841483
1673610160.363752,11.023236,21.894146363558047
1673610160.364759,11.025808,21.890533720008616
1673610160.365767,11.037493,21.88691765539522
1673610160.366774,11.04557,21.883305011845792
1673610160.367781,11.032251,21.879693223562352
1673610160.368788,11.040041,21.876080580012925
1673610160.369795,11.060788,21.872467936463494
1673610160.370802,11.050041,21.868856148180058
1673610160.371809,11.024583,21.865243504630627
1673610160.372816,11.020135,21.8616308610812
1673610160.373823,11.046195,21.85801907279776
1673610160.37483,11.073986,21.854406429248332
1673610160.391951,11.06723,21.79298892311006
1673610160.392958,11.077785,21.78937713482662
1673610160.393965,11.017587,21.78576449127719
1673610160.394972,10.977848,21.78215184772776
1673610160.395979,11.01148,21.778540059444325
1673610160.396986,11.037517,21.776484
1673610160.397993,11.052325,21.76850526847878
1673610160.399,11.053648,21.766497871752087
1673610160.400007,11.053359,21.76825512446352
1673610160.401014,11.0561,21.783471705293277
1673610160.402021,11.06324,21.812662
1673610160.403029,11.070885,21.82992259261025
1673610160.404036,11.074419,21.82257755412494
1673610160.405043,11.08192,21.785692396518836
1673610160.40605,11.104542,21.778729538447823
1673610160.407057,11.124063,21.78327006233658
1673610160.408064,11.124784,21.787809511290707
1673610160.409071,11.094324,21.792350035179464
1673610160.410078,11.091728,21.790926419033326
1673610160.411085,11.083265,21.783783788503523
1673610160.412092,11.043238,21.776639466609634
1673610160.413099,11.013668,21.769495144715744
1673610160.414106,10.992127,21.762352514185938
1673610160.415113,10.989555,21.75520819229205
1673610160.416121,10.982896,21.74805710494182
1673610160.417128,10.956884,21.740912783047932
1673610160.418135,10.94847,21.733770152518126
1673610160.419142,10.961548,21.726625830624236
1673610160.420149,11.002249,21.719481508730347
1673610160.421156,11.04206,21.712338878200544
1673610160.422163,11.069634,21.705194556306655
1673610160.42317,11.084539,21.698050234412765
1673610160.424177,11.124399,21.69090760388296
1673610160.425184,11.159402,21.68376328198907
1673610160.426191,11.151108,21.67661896009518
1673610160.427198,11.118677,21.669476329565377
1673610160.473524,11.009005,21.355985613390672
1673610160.474531,11.042204,21.35486048348994
1673610160.475538,11.071438,21.35373508716015
1673610160.476545,11.096392,21.352609690830363
1673610160.477552,11.108701,21.351484560929627
1673610160.47856,11.117692,21.350358098883618
1673610160.479567,11.135362,21.34923270255383
1673610160.480574,11.153128,21.348107572653095
1673610160.481581,11.136972,21.34698217632331
1673610160.482588,11.12423,21.345856779993518
1673610160.483595,11.100527,21.344731650092786
1673610160.484602,11.092666,21.343606253762996
1673610160.485609,11.08353,21.342480857433205
1673610160.486616,11.077399,21.35794810300429
1673610160.487623,11.080597,21.394883938866748
1673610160.48863,11.077328,21.434745338749895
1673610160.489637,11.078722,21.474597301748602
1673610160.490644,11.094853,21.51445870163175
1673610160.491652,11.074419,21.554357849052664
1673610160.492659,11.039656,21.594219248935815
1673610160.493666,10.982368,21.634071211934522
1673610160.494673,10.936474,21.67393261181767
1673610160.49568,10.937099,21.713794011700816
1673610160.496687,10.930296,21.753645974699523
1673610160.497694,10.933902,21.79350737458267
1673610160.498701,10.945272,21.83336877446582
1673610160.499708,10.957846,21.873220737464525
1673610160.500715,10.997537,21.913082137347676
1673610160.501722,11.078265,21.952943537230823
1673610160.502729,11.138078,21.99279550022953
1673610160.503737,11.138607,22.032694647650445
1673610160.504744,11.116009,22.072556047533595
1673610160.505751,11.106921,22.1124080105323
1673610160.506758,11.129616,22.15226941041545
1673610160.507765,11.148536,22.192130810298597
1673610160.516829,11.075044,22.550892846131376
1673610160.517836,11.090549,22.590754246014523
1673610160.518843,11.101657,22.63060620901323
1673610160.51985,11.112643,22.670467608896377
1673610160.520857,11.116033,22.710329008779524
1673610160.521864,11.113845,22.75018097177823
1673610160.522871,11.083458,22.79004237166138
1673610160.523878,11.022732,22.82990377154453
1673610160.524885,11.014125,22.869755734543233
1673610160.525892,11.026241,22.909617134426384
1673610160.5268989,11.025111,22.949469097425087
1673610160.527906,11.017707,22.989330497308238
1673610160.528914,11.032348,23.029229644729153
1673610160.529921,11.06723,23.069091044612303
1673610160.530928,11.088531,23.108943007611007
1673610160.531935,11.094204,23.148804407494158
1673610160.532942,11.102089,23.18700897759237
1673610160.533949,11.13779,23.232352266809727
1673610160.534956,11.124375,23.277967500000003
1673610160.535963,11.116489,23.323571608343265
1673610160.53697,11.13178,22.93252409448019
1673610160.537977,11.11697,22.82797339523242
1673610160.538984,11.10233,22.893874386504532
1673610160.539991,11.090935,22.892947316165948
1673610160.540998,11.078289,22.938700023361143
1673610160.542006,11.075091,22.970714947782547
1673610160.543013,11.09507,23.038872161659516
1673610160.54402,11.097546,23.08866791702432
1673610160.584303,11.098747,23.78725521316166
1673610160.58531,11.091969,23.784485
1673610160.586317,11.091295,23.800066969964245
1673610160.587324,11.10394,23.818281561278017
1673610160.588331,11.098123,23.852329781592754
1673610160.589338,11.04432,23.77706935637664
1673610160.590345,11.019943,23.814640444444446
1673610160.591352,11.006288,23.804462496900335
1673610160.59236,10.947172,23.867987898450536
1673610160.5933669,10.922506,23.88096893821287
1673610160.594374,10.944143,23.887636597639872
1673610160.595381,11.00422,23.894304257066878
1673610160.5963879,11.085622,23.900970337976027
1673610160.597395,11.139929,23.90763799740303
1673610160.598402,11.169259,23.914305656830035
1673610160.5994089,11.211282,23.920971737739183
1673610160.600416,11.192073,23.927639397166185
1673610160.601423,11.160483,23.93430705659319
1673610160.6024299,11.127789,23.94097313750234
1673610160.603437,11.096128,23.947640796929342
1673610160.604445,11.072495,23.954314770427775
1673610160.605452,11.060379,23.960982429854777
1673610160.606459,11.063745,23.967648510763926
1673610160.607466,11.073937,23.97431617019093
1673610160.608473,11.064802,23.980983829617934
1673610160.60948,11.076221,23.987649910527082
1673610160.610487,11.086439,23.994317569954088
1673610160.611494,11.082953,24.00098522938109
1673610160.612501,11.095118,24.00765131029024
1673610160.613508,11.114134,24.014318969717245
1673610160.614515,11.117523,24.020986629144247
1673610160.615522,11.111922,24.027652710053395
1673610160.616529,11.109831,24.0343203694804
1673610160.617537,11.106273,24.04099434297883
1673610160.6185439,11.105215,24.04766042388798
1673610160.6276069,11.066173,24.10766462317745
1673610160.628614,11.071534,24.11433228260445
1673610160.629622,11.048887,24.121006256102884
1673610160.630629,11.044873,24.127673915529886
1673610160.631636,11.044151,24.134339996439035
1673610160.632643,11.034391,24.14100765586604
1673610160.63365,11.039632,24.147675315293043
1673610160.634657,11.051604,24.15434139620219
1673610160.635664,11.051147,24.161009055629197
1673610160.636671,11.067447,24.1676767150562
1673610160.637678,11.106104,24.174342795965348
1673610160.638685,11.112667,24.18101045539235
1673610160.639692,11.115191,24.187678114819356
1673610160.640699,11.116899,24.194344195728505
1673610160.641706,11.103148,24.201011855155507
1673610160.642714,11.084468,24.20768582865394
1673610160.6437209,11.066317,24.21435190956309
1673610160.644728,11.071125,24.22101956899009
1673610160.645735,11.062398,24.227687228417096
1673610160.6467419,11.085862,24.234353309326245
1673610160.647749,11.105359,24.241020968753247
1673610160.648756,11.085622,24.247688628180253
1673610160.6497629,11.01737,24.254354709089398
1673610160.65077,10.987824,24.288657000715308
1673610160.651777,10.948133,24.273971075107294
1673610160.6527839,10.943301,24.324421011444922
1673610160.653791,10.949216,24.36178114898689
1673610160.654799,10.957245,24.328492870052457
1673610160.655806,10.963832,24.362332978302337
1673610160.656813,10.983762,24.39875296090584
1673610160.65782,11.03093,24.417371291845495
1673610160.658827,11.04884,24.45353633762518
1673610160.659834,11.06723,24.45847572640177
1673610160.660841,11.111682,24.4631682238531
1673610160.661848,11.118677,24.46786072130443
1673610160.662855,11.127692,24.461938328564617
1673610160.707167,11.184789,25.978989977479422
1673610160.708174,11.159715,26.014287664049032
1673610160.709181,11.137044,26.049585350618642
1673610160.710188,11.120841,26.084874680728365
1673610160.711195,11.109205,26.120172367297975
1673610160.712202,11.109662,26.15547005386759
1673610160.713209,11.114591,26.19075938397731
1673610160.714216,11.109374,26.244676489985693
1673610160.715223,11.103532,26.299236962574494
1673610160.71623,11.102282,26.335665324034334
1673610160.717237,11.09341,26.55659981244813
1673610160.718245,11.096175,26.58887813716814
1673610160.7192519,11.090886,26.585852019634956
1673610160.720259,11.086223,26.61222717814661
1673610160.721266,11.097858,26.648579419917013
1673610160.7222729,11.093434,26.664120886061948
1673610160.72328,11.081871,26.802821918454935
1673610160.724287,11.080621,26.83925798426323
1673610160.73033,11.109109,26.97129567342189
1673610160.731337,11.097882,27.008599760615347
1673610160.732344,11.099757,27.045895016348773
1673610160.733351,11.102786,27.08319910354223
1673610160.734358,11.10531,27.120503190735693
1673610160.735365,11.098002,27.15779844646912
1673610160.736372,11.098507,27.195102533662578
1673610160.737379,11.099781,27.23240662085604
1673610160.738386,11.080766,27.269701876589462
1673610160.739393,11.057158,27.307005963782924
1673610160.7404,11.052445,27.344310050976382
1673610160.741407,11.050282,27.381605306709808
1673610160.742414,11.038238,27.418909393903267
1673610160.743422,11.044416,27.456248806936873
1673610160.7444289,11.055018,27.4935440626703
1673610160.745436,11.047301,27.530848149863758
1673610160.746443,11.030737,27.56815223705722
1673610160.7474499,11.031627,27.605447492790642
1673610160.748457,11.0323,27.642751579984104
1673610160.749464,11.017971,27.680055667177566
1673610160.7504709,11.020928,27.71735092291099
1673610160.751478,11.003162,27.75465501010445
1673610160.752485,11.005157,27.79195909729791
1673610160.7534919,11.029343,27.829254353031335
1673610160.754499,11.051291,27.866558440224793
1673610160.755507,11.080429,27.9038978532584
1673610160.756514,11.104613,27.94120194045186
1673610160.757521,11.124616,27.978497196185284
1673610160.758528,11.119206,28.015801283378746
1673610160.759535,11.106609,28.053105370572204
1673610160.762556,11.073529,28.16500880069255
1673610160.763563,11.087857,28.202304056425973
1673610160.76457,11.060643,28.239608143619435
1673610160.765577,10.939695,28.276912230812897
1673610160.766584,10.869305,28.31420748654632
1673610160.767591,10.781244,28.35151157373978
1673610160.768599,10.772542,28.40166830893921
1673610160.7696059,10.854977,28.415564
1673610160.770613,10.953927,28.733262089910497
1673610160.77162,10.98821,28.79239038893409
1673610160.7726269,11.043094,28.819767035801465
1673610160.773634,11.146059,28.90936767005696
1673610160.774641,11.198588,28.944195825396825
1673610160.7756479,11.245852,29.03409910455655
1673610160.776655,11.265734,29.08219203539463
1673610160.777662,11.250323,29.39566919046484
1673610160.7786689,11.229456,29.45030863662375
1673610160.779676,11.211402,29.48901130069652
1673610160.780684,11.192578,29.504207581507828
1673610160.781691,11.159618,29.51938948551609
1673610160.782698,11.131274,29.534567795323596
1673610160.783705,11.118726,29.549749699331862
1673610160.784712,11.109566,29.564931603340128
1673610160.785719,11.102571,29.580109913147634
1673610160.786726,11.1062,29.595291817155896
1673610160.787733,11.112547,29.610473721164162
1673610160.78874,11.112716,29.62565203097167
1673610160.789747,11.100454,29.640833934979934
1673610160.790754,11.089997,29.6560158389882
1673610160.791761,11.085886,29.671194148795703
1673610160.792768,11.08781,29.68637605280397
1673610160.793776,11.087424,29.70157233361527
1673610160.7947829,11.075188,29.716750643422778
1673610160.79579,11.069707,29.731932547431043
1673610160.796797,11.090526,29.74711445143931
1673610160.7978039,11.124928,29.762292761246815
1673610160.798811,11.126587,29.777474665255077
1673610160.799818,11.124159,29.792656569263343
1673610160.8008249,11.115816,29.80783487907085
1673610160.801832,11.099637,29.823016783079115
1673610160.802839,11.096151,29.83819868708738
1673610160.803846,11.097041,29.853376996894887
1673610160.804853,11.084203,29.86855890090315
1673610160.805861,11.076702,29.883755181714456
1673610160.806868,11.073697,29.898937085722718
1673610160.807875,11.081054,29.914115395530224
1673610160.808882,11.08115,29.92929729953849
1673610160.809889,11.064778,29.944479203546756
1673610160.810896,11.055114,29.959657513354262
1673610160.811903,11.030112,29.974839417362524
1673610160.81291,11.01826,29.99002132137079
1673610160.813917,11.021578,30.005199631178296
1673610160.814924,11.057542,30.020381535186562
1673610160.815931,11.097161,30.035563439194828
1673610160.816938,11.093603,30.05074174900233
1673610160.817946,11.059609,30.065938029813637
1673610160.818953,11.039271,30.0811199338219
1673610160.8199599,11.043334,30.096298243629406
1673610160.820967,11.02052,30.11148014763767
1673610160.821974,10.9972,30.116034
1673610160.8229809,11.030087,30.103155896041965
1673610160.823988,11.0542,30.084933703456496
1673610160.824995,11.036194,30.06671371316166
1673610160.826002,11.078097,30.088282061039582
1673610160.827009,11.133342,30.08455403432658
1673610160.828016,11.147358,30.12039223319027
1673610160.829023,11.156806,30.134123
1673610160.83003,11.167407,30.147887025744932
1673610160.831038,11.178923,30.14381148879182
1673610160.832045,11.169163,30.132808772716363
1673610160.833052,11.147093,30.121808661450583
1673610160.834059,11.110985,30.110805945375127
1673610160.835066,11.078962,30.09980322929967
1673610160.836073,11.071462,30.11308402575107
1673610160.83708,11.07627,30.08548989413448
1673610160.838087,11.078025,30.12603658760429
1673610160.839094,11.07913,30.10308703290415
1673610160.840101,11.101007,30.050995666189795
1673610160.841108,11.118917,30.03543952358789
1673610160.842115,11.135866,30.025936646363082
1673610160.843123,11.155075,30.016422517803647
1673610160.84413,11.163441,30.006917390311912
1673610160.8451369,11.154402,29.997414513087104
1673610160.846144,11.148463,29.987909385595373
1673610160.847151,11.144737,29.97840425810364
1673610160.848158,11.140795,29.96890138087883
1673610160.849165,11.122139,29.959396253387098
1673610160.850172,11.120769,29.949891125895366
1673610160.851179,11.115191,29.94038824867056
1673610160.852186,11.102209,29.930883121178823
1673610160.853193,11.096055,29.92137799368709
1673610160.8542,11.088218,29.911875116462284
1673610160.855207,11.07877,29.90236998897055
1673610160.856215,11.069875,29.892855860411117
1673610160.857222,11.062975,29.883350732919382
1673610160.924696,11.1513,29.210889492058833
1673610160.925703,11.137934,29.19757636995195
1673610160.92671,11.132573,29.184266399625866
1673610160.927717,11.113317,29.170953277518983
1673610160.928724,11.109902,29.157640155412096
1673610160.929731,11.094708,29.144330185086012
1673610160.930738,11.085261,29.13101706297913
1673610160.931746,11.090285,29.117691333749036
1673610160.932753,11.113004,29.104378211642153
1673610160.93376,11.113244,29.09106824131607
1673610160.934767,11.061149,29.077755119209183
1673610160.935774,10.984291,29.0644419971023
1673610160.936781,10.918035,29.051132026776216
1673610160.937788,10.903178,29.037818904669333
1673610160.938795,10.921737,29.024505782562446
1673610160.939802,10.955778,29.011195812236366
1673610160.940809,10.999628,28.99788269012948
1673610160.941816,11.071534,28.984569568022593
1673610160.942823,11.148103,28.971259597696513
1673610160.943831,11.147309,28.95793386846642
1673610160.944838,11.151565,28.944620746359536
1673610160.945845,11.149858,28.931310776033452
1673610160.946852,11.10531,28.917997653926566
1673610160.947859,11.118052,28.904684531819683
1673610160.948866,11.076487,28.8913745614936
1673610160.949873,11.035737,28.878061439386716
1673610160.95088,11.039224,28.86361838650453
1673610160.951887,11.073577,28.849726
1673610160.952894,11.100671,28.849726
1673610160.953901,11.093026,28.845149583690986
1673610160.954908,11.117283,28.831636
1673610160.955915,11.150411,28.821974898688914
1673610160.956923,11.132693,28.815344335956127
1673610160.95793,11.141685,28.862712642584643
1673610160.958937,11.151588,28.839268815450644
1673610160.959944,11.139881,28.81390091455366
1673610160.960951,11.128534,28.81512837274581
1673610160.961958,11.125264,28.81635554034654
1673610160.962965,11.106946,28.817582998538693
1673610160.963972,11.126491,28.818810456730848
1673610160.964979,11.131924,28.820037624331572
1673610160.965986,11.110263,28.821265082523727
1673610160.966993,11.101681,28.82249254071588
1673610160.968,11.016313,28.823719708316606
1673610160.969008,10.89498,28.824948328874473
1673610160.970015,10.858727,28.826175787066624
1673610160.971022,10.888057,28.827402954667352
1673610160.972029,10.932652,28.828630412859507
1673610160.973036,11.000614,28.829857871051658
1673610160.974043,11.059465,28.831085038652386
1673610160.97505,11.129015,28.831636
1673610160.976057,11.166999,28.81129970958512
1673610160.977064,11.191063,28.785159023843587
1673610160.978071,11.181303,28.777361
1673610160.979078,11.17986,28.777361
1673610160.980085,11.176471,28.777361
1673610160.981092,11.165412,28.766562276108726
1673610160.9821,11.163273,28.715496978784266
1673610160.983107,11.1889,28.686916
1673610160.984114,11.197098,28.698113339055794
1673610160.985121,11.198443,28.705006
1673610160.986128,11.176784,28.705006
1673610160.987135,11.166735,28.68184770052456
1673610160.988142,11.166398,28.645413256972585
1673610160.989149,11.149065,28.62081025917978
1673610160.990156,11.128053,28.60924840250204
1673610160.991163,11.128389,28.601166730124195
1673610160.99217,11.118557,28.59308505774635
1673610160.993177,11.114591,28.585005298643217
1673610160.994185,11.112234,28.576915973166532
1673610160.996199,11.123342,28.56075454168555
1673610160.997206,11.137164,28.55267286930771
1673610160.998213,11.136516,28.544591196929865
1673610160.99922,11.118846,28.53651143782673
1673610161.000227,11.118894,28.528429765448887
1673610161.001234,11.138318,28.520348093071043
1673610161.002241,11.138535,28.512268333967906
1673610161.003248,11.117235,28.504186661590065
1673610161.004255,11.11447,28.49610498921222
1673610161.005262,11.113725,28.488025230109084
1673610161.006269,11.122332,28.479943557731243
1673610161.007277,11.129303,28.471854232254554
1673610161.008284,11.121634,28.46377255987671
1673610161.009291,11.121562,28.455692800773576
1673610161.010298,11.109037,28.44761112839573
1673610161.011305,11.10132,28.439529456017887
1673610161.012312,11.111994,28.431449696914754
1673610161.013319,11.121249,28.42336802453691
1673610161.014326,11.119975,28.415286352159065
1673610161.015333,11.117452,28.407206593055932
1673610161.01634,11.1106,28.399124920678087
1673610161.017347,11.084228,28.391043248300242
1673610161.018354,11.066846,28.38296348919711
1673610161.019362,11.077881,28.374874163720424
1673610161.020369,11.070741,28.36679249134258
1673610161.021376,11.047445,28.36709338721984
1673610161.022383,11.039079,28.39124668104887
1673610161.02339,11.042445,28.415564
1673610161.024397,11.036002,28.403191048640917
1673610161.025404,11.033886,28.393723565547127
1673610161.026411,11.052999,28.33891550514905
1673610161.027418,11.067327,28.408597781831187
1673610161.028425,11.041964,28.415564
1673610161.029432,11.001841,28.347754164520744
1673610161.030439,10.99708,28.42858464282308
1673610161.031446,11.021962,28.382042281525628
1673610161.032454,11.027732,28.344682694802096
1673610161.033461,11.037901,28.360675544587505
1673610161.034468,11.052782,28.41408903837902
1673610161.035475,11.055836,28.39951749953662
1673610161.036482,11.073817,28.383025913658926
1673610161.037489,11.134785,28.366538232039254
1673610161.038496,11.123822,28.350046646161562
1673610161.039503,11.118076,28.333555060283867
1673610161.04051,11.124832,28.317067378664195
1673610161.041517,11.116201,28.300575792786503
1673610161.0425239,11.125625,28.28408811116683
1673610161.043531,11.116009,28.267596525289136
1673610161.044539,11.095334,28.251089322379364
1673610161.045546,11.103171,28.23459773650167
1673610161.048567,11.072039,28.18512688312661
1673610161.049574,11.07377,28.168639201506938
1673610161.050581,11.106705,28.152147615629247
1673610161.051588,11.140074,28.13565602975155
1673610161.052595,11.133438,28.11916834813188
1673610161.053602,11.119447,28.102676762254188
1673610161.054609,11.108268,28.086185176376492
1673610161.055616,11.083578,28.06969749475682
1673610161.056623,11.081511,28.05320590887913
1673610161.057631,11.114662,28.036698705969354
1673610161.058638,11.11976,28.020207120091662
1673610161.059645,11.112884,28.00371943847199
1673610161.060652,11.129543,27.987227852594295
1673610161.061659,11.171014,27.970736266716603
1673610161.062666,11.174572,27.95424858509693
1673610161.063673,11.159282,27.937756999219236
1673610161.0646799,11.158128,27.921269317599563
1673610161.065687,11.149497,27.90477773172187
1673610161.066694,11.127572,27.88828614584418
1673610161.0677009,11.107811,27.871798464224504
1673610161.068708,11.107066,27.855306878346813
1673610161.069716,11.110263,27.838799675437038
1673610161.070723,11.117716,27.822308089559346
1673610161.07173,11.076101,27.805820407939674
1673610161.072737,11.007177,27.825142913292044
1673610161.073744,10.965275,27.836674
1673610161.074751,10.953519,27.861859248927036
1673610161.075758,10.962173,27.87286
1673610161.076765,10.975972,27.87286
1673610161.077772,11.018067,27.846915483547924
1673610161.078779,11.068289,27.836674
1673610161.079786,11.108989,27.836674
1673610161.080793,11.162383,27.836674
1673610161.0818,11.202531,27.836674
1673610161.082808,11.202338,27.836674
1673610161.083815,11.194237,27.836674
1673610161.084822,11.186472,27.836674
1673610161.085829,11.163945,27.836674
1673610161.0868359,11.141372,27.836674
1673610161.087843,11.135818,27.836674
1673610161.08885,11.131971,27.836674
1673610161.0898569,11.111393,27.836674
1673610161.090864,11.100094,27.836674
1673610161.091871,11.110359,27.836674
1673610161.0928779,11.139088,27.836674
1673610161.093885,11.141973,27.836674
1673610161.094893,11.129399,27.836674
1673610161.0959,11.087256,27.812899721506916
1673610161.096907,11.040689,27.83652805363528
1673610161.097914,11.045185,27.842628663805435
1673610161.098921,11.0749,27.836674
1673610161.099928,11.096801,27.799507858402862
1673610161.100935,11.12137,27.85751133762518
1673610161.101942,11.13202,27.878303089651883
1673610161.102949,11.120985,27.86908676665402
1673610161.103956,11.118653,27.863704079165537
1673610161.104963,11.130722,27.858321391677052
1673610161.10597,11.107162,27.85293997849905
1673610161.106977,11.086223,27.847557291010567
1673610161.107985,11.048887,27.84216950628014
1673610161.1089919,10.993883,27.83678809310214
1673610161.109999,10.932652,27.831405405613655
1673610161.186537,11.101248,27.44971371449793
1673610161.1875439,11.092473,27.447740213635687
1673610161.188551,11.085382,27.44576624545143
1673610161.189558,11.089877,27.44379227726718
1673610161.1905649,11.096584,27.441818776404936
1673610161.191572,11.103459,27.43984480822068
1673610161.192579,11.09519,27.446332127324748
1673610161.1935859,11.083915,27.433505949690034
1673610161.194593,11.068072,27.402512
1673610161.195601,11.049513,27.386449697186457
1673610161.196608,11.030857,27.33369126323319
1673610161.197615,10.993883,27.343677467461266
1673610161.198622,10.960299,27.360458673819743
1673610161.199629,10.969818,27.320604871244637
1673610161.200636,10.992753,27.338817363528012
1673610161.201643,10.990108,27.343869891245244
1673610161.20265,10.979002,27.334804025013597
1673610161.203657,10.986214,27.325740305057096
1673610161.204664,11.026265,27.316674438825448
1673610161.205671,11.046459,27.307608572593804
1673610161.206678,11.088698,27.298544852637303
1673610161.207685,11.102691,27.289478986405655
1673610161.208693,11.092233,27.28040453507341
1673610161.2096999,11.082785,27.27134081511691
1673610161.210707,11.075789,27.262274948885263
1673610161.211714,11.010903,27.253209082653616
1673610161.2127209,10.891951,27.244145362697118
1673610161.213728,10.778119,27.23507949646547
1673610161.214735,10.749703,27.226013630233822
1673610161.2157419,10.74915,27.216949910277325
1673610161.216749,10.763935,27.207884044045677
1673610161.217756,10.757468,27.19881817781403
1673610161.2187629,10.783672,27.189754457857532
1673610161.21977,10.909645,27.180688591625884
1673610161.220778,11.065572,27.171614140293638
1673610161.221785,11.174596,27.16254827406199
1673610161.286238,11.025016,27.11521584275803
1673610161.287245,11.019895,27.121409975252128
1673610161.2882519,11.004701,27.127602641332285
1673610161.289259,11.003692,27.133796773826383
1673610161.290266,11.032468,27.139990906320484
1673610161.2912729,11.044224,27.14618357240064
1673610161.29228,11.023356,27.15237770489474
1673610161.293287,11.063889,27.158571837388838
1673610161.2942939,11.129543,27.164764503468994
1673610161.295301,11.114902,27.170958635963093
1673610161.296309,11.066269,27.177158634112963
1673610161.297316,11.054056,27.18335276660706
1673610161.298323,11.038647,27.18954543268722
1673610161.29933,11.046628,27.195739565181317
1673610161.300337,11.062037,27.20193369767542
1673610161.301344,11.08341,27.208126363755575
1673610161.302351,11.117476,27.214320496249673
1673610161.303358,11.11786,27.22051462874377
1673610161.304365,11.134208,27.226707294823928
1673610161.305372,11.157743,27.232901427318026
1673610161.306379,11.146805,27.239095559812128
1673610161.307386,11.146541,27.24528822589228
1673610161.315443,11.122836,27.29484421867296
1673610161.3164499,11.113797,27.301036884753117
1673610161.317457,11.105527,27.30723101724722
1673610161.318464,11.088098,27.313425149741317
1673610161.319471,11.066942,27.319617815821474
1673610161.320478,11.056821,27.32581194831557
1673610161.321486,11.058359,27.335612449630865
1673610161.322493,11.050667,27.348244
1673610161.3235,11.024294,27.342528871244635
1673610161.324507,11.010663,27.34768275804529
1673610161.325514,11.025905,27.37249480800381
1673610161.326521,10.984675,27.342160751789976
1673610161.327528,10.946162,27.336378098712448
1673610161.328535,10.969987,27.35458958156704
1673610161.329542,10.972126,27.353406994510742
1673610161.330549,10.984507,27.333345494584005
1673610161.331556,11.042156,27.34215076768841
1673610161.332563,11.062807,27.350953956211107
1673610161.333571,11.083915,27.359767567642315
1673610161.334578,11.145482,27.368572840746715
1673610161.3355849,11.16284,27.377376029269417
1673610161.336592,11.144521,27.38618130237382
1673610161.337599,11.149426,27.39498657547822
1673610161.3386059,11.138174,27.403789764000923
1673610161.339613,11.130049,27.412595037105323
1673610161.34062,11.127885,27.421400310209727
1673610161.341627,11.128678,27.43020349873243
1673610161.342634,11.139977,27.43900877183683
1673610161.343641,11.1419,27.447814044941232
1673610161.344648,11.131371,27.456617233463934
1673610161.345655,11.125168,27.465422506568334
1673610161.346663,11.136395,27.47423611799954
1673610161.513838,11.023356,27.699769732538737
1673610161.514845,11.014629,27.691952
1673610161.515852,11.016842,27.691952
1673610161.516859,11.058552,27.691952
1673610161.517866,11.08002,27.691952
1673610161.518873,11.064827,27.691952
1673610161.51988,11.059826,27.691952
1673610161.520887,11.06812,27.691952
1673610161.521894,11.054897,27.691952
1673610161.522902,11.049176,27.691952
1673610161.523909,11.05521,27.691952
1673610161.524916,11.038959,27.691952
1673610161.525923,11.018428,27.691952
1673610161.52693,10.969361,27.691952
1673610161.527937,10.898153,27.691952
1673610161.528944,10.906303,27.691952
1673610161.529951,10.943542,27.691952
1673610161.530958,10.974578,27.691952
1673610161.531965,10.985252,27.691952
1673610161.532972,11.006384,27.691952
1673610161.533979,11.039271,27.691952
1673610161.534987,11.059298,27.691952
1673610161.535994,11.088387,27.691952
1673610161.537001,11.073049,27.691952
1673610161.538008,11.099084,27.691952
1673610161.539015,11.184548,27.691952
1673610161.540022,11.213734,27.691952
1673610161.541029,11.237101,27.691952
1673610161.542036,11.250059,27.691952
1673610161.543043,11.206281,27.691952
1673610161.54405,11.185895,27.691952
1673610161.545057,11.16748,27.691952
1673610161.546064,11.107186,27.691952
1673610161.547071,11.107618,27.691952
1673610161.548079,11.134905,27.691952
1673610161.549086,11.13815,27.691952
1673610161.550093,11.120384,27.691952
1673610161.5511,11.10233,27.691952
1673610161.552107,11.110023,27.691952
1673610161.553114,11.123822,27.691952
1673610161.554121,11.121202,27.691952
1673610161.555128,11.115865,27.691952
1673610161.556135,11.121995,27.691952
1673610161.557142,11.131394,27.691952
1673610161.5581489,11.146084,27.691952
1673610161.559156,11.141973,27.691952
1673610161.560164,11.131299,27.691952
1673610161.561171,11.121081,27.691952
1673610161.562178,11.107571,27.691952
1673610161.563185,11.088314,27.691952
1673610161.564192,11.072856,27.708639847639486
1673610161.565199,11.083651,27.726852848354795
1673610161.566206,11.094131,27.778926121096546
1673610161.567213,11.089396,27.73123052551264
1673610161.56822,11.091992,27.659398326180256
1673610161.569227,11.102161,27.655775
1673610161.570234,11.105792,27.69064980047676
1673610161.571241,11.096488,27.691952
1673610161.572248,11.103123,27.621183208392942
1673610161.573256,11.102378,27.6522424256
1673610161.574263,11.095454,27.673862
1673610161.57527,11.089396,27.69345519599428
1673610161.576277,11.081511,27.72148094922527
1673610161.577284,11.075068,27.716834703147352
1673610161.578291,11.081944,27.721229231759658
1673610161.579298,11.086944,27.717087468176402
1673610161.5803049,11.07978,27.742457775870292
1673610161.581312,11.082592,27.742450156890797
1673610161.582319,11.07639,27.695213078665077
1673610161.5833259,11.065187,27.676079500890566
1673610161.584333,11.059586,27.681438038511704
1673610161.585341,11.06675,27.68680165050559
1673610161.586348,11.082111,27.692160188126728
1673610161.587355,11.092473,27.697517457154678
1673610161.588362,11.091945,27.702875994775816
1673610161.589369,11.090959,27.708234532396954
1673610161.590376,11.071005,27.713591801424904
1673610161.591383,11.067712,27.718950339046042
1673610161.59239,11.07425,27.72430887666718
1673610161.593397,11.071414,27.72966614569513
1673610161.594404,11.065355,27.73502468331627
1673610161.595411,11.053864,27.740383220937407
1673610161.596418,11.039464,27.74574048996536
1673610161.597425,11.028622,27.7510990275865
1673610161.598433,11.029102,27.75646263958038
1673610161.59944,10.986935,27.76182117720152
1673610161.600447,10.958615,27.767178446229472
1673610161.601454,10.907217,27.77253698385061
1673610161.6024609,10.864496,27.77789425287856
1673610161.603468,10.862525,27.7832527904997
1673610161.604475,10.912578,27.788611328120837
1673610161.6054819,10.983834,27.793968597148787
1673610161.606489,10.994244,27.799327134769925
1673610161.607496,11.019991,27.804685672391063
1673610161.6085029,11.094685,27.810042941419013
1673610161.60951,11.159474,27.81540147904015
1673610161.610518,11.206594,27.820765091034037
1673610161.611525,11.230562,27.826123628655175
1673610161.612532,11.215945,27.831480897683125
1673610161.613539,11.163633,27.836839435304263
1673610161.614546,11.127164,27.8421979729254
1673610161.615553,11.112787,27.847555241953355
1673610161.61656,11.107931,27.852913779574493
1673610161.617567,11.074563,27.854771
1673610161.618574,11.064514,27.854771
1673610161.619581,11.048335,27.87908227103695
1673610161.620588,11.033982,27.854092729136863
1673610161.621595,11.064731,27.873905562947066
1673610161.622602,11.112186,27.878413905125146
1673610161.62361,11.150988,27.885540414878395
1673610161.6246169,11.16361,27.890949
1673610161.625624,11.127596,27.890949
1673610161.626631,11.121298,27.88524253628171
1673610161.6276379,11.13024,27.87728401703391
1673610161.628645,11.12589,27.869323613220814
1673610161.629652,11.122836,27.86136320940772
1673610161.6306589,11.13803,27.85164264401526
1673610161.631666,11.151829,27.846442206197853
1673610161.632673,11.148175,27.894327035254882
1673610161.6336799,11.154353,27.898559388066825
1673610161.634687,11.168682,27.858406914878397
1673610161.635695,11.152527,27.873106666193284
1673610161.636702,11.117596,27.874294714084318
1673610161.637709,11.100334,27.875482480714012
1673610161.638716,11.102498,27.876670528605043
1673610161.639723,11.104782,27.877858576496077
1673610161.64073,11.096728,27.879046343125772
1673610161.641737,11.075981,27.880234391016803
1673610161.642744,11.06187,27.881422438907837
1673610161.643751,11.048455,27.88261020553753
1673610161.644758,11.046965,27.883798253428562
1673610161.645765,11.05735,27.884986301319593
1673610161.646772,11.073482,27.886174067949288
1673610161.647779,11.086223,27.88736211584032
1673610161.648787,11.089828,27.888551288776707
1673610161.6497939,11.098026,27.889739055406398
1673610161.650801,11.117259,27.890927103297432
1673610161.651808,11.137069,27.892115151188463
1673610161.6528149,11.143631,27.893302917818158
1673610161.653822,11.117115,27.894490965709192
1673610161.654829,11.097378,27.895679013600223
1673610161.6558359,11.105623,27.896866780229917
1673610161.656843,11.117547,27.89805482812095
1673610161.65785,11.123774,27.899242876011982
1673610161.6588569,11.111609,27.900430642641677
1673610161.659864,11.107955,27.90161869053271
1673610161.660872,11.112354,27.902807863469093
1673610161.661879,11.112691,27.903995911360127
1673610161.662886,11.080669,27.90518367798982
1673610161.663893,11.052325,27.906371725880852
1673610161.6649,11.042637,27.907559773771887
1673610161.665907,11.03706,27.90874754040158
1673610161.666914,11.028598,27.909935588292612
1673610161.667921,11.031001,27.911123636183646
1673610161.668928,11.023116,27.91231140281334
1673610161.669935,11.011624,27.91349945070437
1673610161.670942,11.022106,27.914687498595406
1673610161.671949,11.038887,27.9158752652251
1673610161.672956,11.043166,27.91706331311613
1673610161.673964,11.025953,27.918252486052516
1673610161.6749709,11.019895,27.91944025268221
1673610161.675978,11.013548,27.92062830057324
1673610161.676985,10.989628,27.921816348464276
1673610161.6810129,10.842957,27.92656797750573
1673610161.68202,10.863487,27.93677576422958
1673610161.683027,10.912001,27.945215
1673610161.6840339,10.979483,27.974954210300428
1673610161.685041,11.060836,27.958279477495108
1673610161.686049,11.112931,27.999491
1673610161.687056,11.141228,27.904721056751466
1673610161.688063,11.16171,28.010925157860402
1673610161.68907,11.205152,28.035669
1673610161.690077,11.227437,28.054507536903984
1673610161.691084,11.236283,28.022499035225046
1673610161.692091,11.22335,28.035669
1673610161.693098,11.223662,28.051606660944206
1673610161.694105,11.172816,28.053759
1673610161.695112,11.120601,28.057313082969408
1673610161.696119,11.100671,28.061312136369185
1673610161.697126,11.108917,28.06531024302337
1673610161.698133,11.129039,28.06930929642315
1673610161.699141,11.1369,28.073312136805317
1673610161.7001479,11.140218,28.0773102434595
1673610161.701155,11.146059,28.08130929685928
1673610161.702162,11.155026,28.085308350259062
1673610161.7031689,11.151348,28.089306456913246
1673610161.704176,11.137886,28.093305510313023
1673610161.705183,11.139304,28.097304563712804
1673610161.7061899,11.148728,28.101302670366987
1673610161.707197,11.146925,28.105301723766768
1673610161.708204,11.130842,28.10930077716655
1673610161.7092109,11.131179,28.113298883820732
1673610161.710218,11.140842,28.117297937220513
1673610161.711226,11.128101,28.121300777602677
1673610161.712233,11.122524,28.125299831002458
1673610161.71324,11.114061,28.12929793765664
1673610161.714247,11.105984,28.133296991056422
1673610161.715254,11.101151,28.137296044456203
1673610161.716261,11.091368,28.141294151110387
1673610161.717268,11.08204,28.145293204510168
1673610161.718275,11.085237,28.14929225790995
1673610161.719282,11.091151,28.153290364564132
1673610161.720289,11.093867,28.15728941796391
1673610161.721296,11.087857,28.16128847136369
1673610161.722303,11.085477,28.165286578017874
1673610161.72331,11.100503,28.169285631417655
1673610161.724318,11.106777,28.17328847179982
1673610161.7253249,11.088121,28.177286578454005
1673610161.726332,11.067736,28.181285631853786
1673610161.727339,11.064466,28.185284685253563
1673610161.7283459,11.048215,28.189282791907747
1673610161.729353,11.011986,28.193281845307528
1673610161.73036,10.984435,28.19728089870731
1673610161.7313669,10.981694,28.201279005361492
1673610161.732374,10.983738,28.205278058761273
1673610161.733381,10.983257,28.209277112161054
1673610161.7343879,10.990181,28.213275218815237
1673610161.735395,10.965708,28.203697632331902
1673610161.736403,10.965466,28.150939383404864
1673610161.73741,11.028453,28.180389
1673610161.738417,11.094661,28.191232248450167
1673610161.739424,11.121129,28.234657
1673610161.740431,11.154426,28.234657
1673610161.741438,11.129135,28.242653507508937
1673610161.742445,11.077231,28.274967291368622
1673610161.743452,11.070404,28.280425752503575
1673610161.744459,11.059754,28.253373151420096
1673610161.745466,11.044031,28.255978928364417
1673610161.746473,11.052374,28.25858470530874
1673610161.74748,11.088771,28.26118986535511
1673610161.748487,11.096319,28.26379564229943
1673610161.749495,11.111753,28.266403886835555
1673610161.7505019,11.108027,28.269009046881926
1673610161.751509,11.087353,28.271614823826248
1673610161.752516,11.06788,28.27422060077057
1673610161.7535229,11.083867,28.276825760816937
1673610161.75453,11.104229,28.27943153776126
1673610161.755537,11.124063,28.282037314705583
1673610161.7565439,11.133702,28.28464247475195
1673610161.757551,11.143559,28.287248251696273
1673610161.758558,11.104493,28.276051336194563
1673610161.7595649,10.993354,28.298700948497853
1673610161.760572,10.9496,28.372684716805722
1673610161.76158,10.977222,28.354451789938004
1673610161.762587,10.975636,28.336233783023367
1673610161.763594,11.00987,28.332199598808103
1673610161.764601,11.050258,28.343359339175493
1673610161.769636,11.207747,28.345383273848565
1673610161.770643,11.235803,28.345788099118906
1673610161.77165,11.222893,28.346192924389246
1673610161.772657,11.195223,28.34659765382027
1673610161.773664,11.175269,28.347002479090612
1673610161.774672,11.155099,28.347407687718217
1673610161.7756789,11.144905,28.347812417149242
1673610161.776686,11.126467,28.348217242419583
1673610161.777693,11.080044,28.348622067689927
1673610161.7786999,11.064442,28.349026797120953
1673610161.779707,11.076607,28.349431622391293
1673610161.780714,11.086535,28.349836447661634
1673610161.7817209,11.09228,28.35024117709266
1673610161.782728,11.103292,28.350646002363
1673610161.783735,11.11685,28.35105082763334
1673610161.7847419,11.130506,28.351455557064366
1673610161.785749,11.121322,28.351860382334706
1673610161.786757,11.099084,28.35226559096231
1673610161.787764,11.09906,28.35267041623265
1673610161.788771,11.096199,28.353075145663677
1673610161.789778,11.082664,28.35347997093402
1673610161.790785,11.06425,28.353884796204362
1673610161.791792,11.050378,28.354289525635387
1673610161.792799,11.03093,28.354694350905728
1673610161.793806,11.008067,28.35509917617607
1673610161.794813,11.001167,28.355503905607094
1673610161.79582,11.028285,28.355908730877434
1673610161.796827,11.050138,28.356313556147775
1673610161.797834,11.037324,28.3567182855788
1673610161.798841,11.05723,28.35712311084914
1673610161.799849,11.074971,28.357528319476746
1673610161.8008559,11.067591,28.35793304890777
1673610161.801863,11.043839,28.358337874178112
1673610161.80287,11.041796,28.358742699448456
1673610161.8038769,11.052614,28.35914742887948
1673610161.804884,11.031218,28.359552254149822
1673610161.805891,10.973304,28.359957079420163
1673610161.8068979,10.968713,28.360361808851188
1673610161.807905,10.952245,28.36076663412153
1673610161.808912,10.949456,28.36117145939187
1673610161.8099189,11.020784,28.348318609680494
1673610161.810926,11.125024,28.343199
1673610161.811934,11.140602,28.36968122699094
1673610161.812941,11.125625,28.39720249268913
1673610161.813948,11.145578,28.37918150540369
1673610161.814955,11.140169,28.34297483984747
1673610161.815962,11.152431,28.393842295801527
1673610161.816969,11.180799,28.396242605338415
1673610161.817976,11.167648,28.35137657367668
1673610161.818983,11.1488,28.343879893970033
1673610161.81999,11.143439,28.344757615348374
1673610161.820997,11.130457,28.345635544569813
1673610161.822004,11.123221,28.346513473791248
1673610161.823011,11.113628,28.347391195169592
1673610161.824018,11.103219,28.348269124391027
1673610161.825026,11.090815,28.34914788498483
1673610161.8260329,11.07978,28.350025606363175
1673610161.82704,11.075981,28.35090353558461
1673610161.828047,11.07312,28.351781464806045
1673610161.8290539,11.085021,28.35265918618439
1673610161.830061,11.12577,28.353537115405825
1673610161.831068,11.168802,28.354415044627263
1673610161.8320749,11.155627,28.355292766005604
1673610161.833082,11.146925,28.356170695227043
1673610161.834089,11.135795,28.357048624448478
1673610161.835096,11.131179,28.357926345826822
1673610161.836103,11.1037,28.358804275048257
1673610161.837111,11.048672,28.35968303564206
1673610161.838118,11.019702,28.360560964863495
1673610161.839125,11.014174,28.364414973056746
1673610161.840132,11.032612,28.372864269909396
1673610161.841139,11.062807,28.346583949940403
1673610161.842146,11.105576,28.347262102288983
1673610161.843153,11.121225,28.310748489270384
1673610161.84416,11.111633,28.386173564004768
1673610161.845167,11.120817,28.343199
1673610161.846174,11.143487,28.343199
1673610161.847181,11.117908,28.339054372436813
1673610161.848188,11.038815,28.324310446721007
1673610161.849196,10.978617,28.32089151817193
1673610161.850203,10.954264,28.317475824181557
1673610161.8512099,10.947942,28.314060938830856
1673610161.852217,10.964986,28.310645244840483
1673610161.853224,10.990589,28.30722955085011
1673610161.8542309,11.005783,28.303814665499413
1673610161.855238,11.035112,28.300398971509036
1673610161.856245,11.068048,28.296983277518663
1673610161.857252,11.086439,28.293568392167966
1673610161.858259,11.0993,28.290152698177593
1673610161.859266,11.105119,28.286737004187216
1673610161.860273,11.116129,28.28332211883652
1673610161.86128,11.072712,28.279906424846146
1673610161.862288,11.038791,28.27648749629707
1673610161.863295,11.041579,28.273071802306696
1673610161.864302,11.0492,28.28350414398093
1673610161.865309,11.050738,28.3134786602289
1673610161.866316,11.065596,28.311938895565092
1673610161.867323,11.096584,28.282223468653157
1673610161.86833,11.158392,28.270844
1673610161.869337,11.198179,28.24994372818312
1673610161.870344,11.162214,28.259115613733904
1673610161.871351,11.072039,28.30345594445769
1673610161.872358,11.024077,28.256150041726276
1673610161.873365,11.030737,28.234657
1673610161.874373,11.039632,28.234657
1673610161.87538,11.039656,28.234657
1673610161.8763869,11.057614,28.234657
1673610161.877394,11.068168,28.234657
1673610161.878401,11.089108,28.234657
1673610161.879408,11.113388,28.193419013352408
1673610161.880415,11.12476,28.180389
1673610161.881422,11.105503,28.222393337544695
1673610161.882429,11.115095,28.248783072961373
1673610161.883436,11.129568,28.24910759701114
1673610161.884443,11.118196,28.24445620874338
1673610161.88545,11.100695,28.239805921656554
1673610161.886457,11.082833,28.235154533388794
1673610161.887465,11.082905,28.230498740397298
1673610161.888472,11.081775,28.225847352129538
1673610161.889479,11.069731,28.221197065042713
1673610161.890486,11.076871,28.216545676774953
1673610161.891493,11.124496,28.211894288507192
1673610161.8925,11.150531,28.207244001420367
1673610161.894514,11.158441,28.197941224884847
1673610161.895521,11.142357,28.19329093779802
1673610161.896528,11.12964,28.18863954953026
1673610161.897535,11.142357,28.183988161262505
1673610161.898542,11.145603,28.17933787417568
1673610161.89955,11.121538,28.17468208118418
1673610161.900557,11.118509,28.17003069291642
1673610161.901564,11.134279,28.165380405829595
1673610161.902571,11.127548,28.160729017561835
1673610161.903578,11.112691,28.156077629294074
1673610161.904585,11.106946,28.151427342207253
1673610161.905592,11.101945,28.146775953939493
1673610161.906599,11.081078,28.142124565671732
1673610161.907606,11.079707,28.137474278584907
1673610161.908613,11.068601,28.132822890317147
1673610161.90962,11.068457,28.128171502049387
1673610161.910627,11.079612,28.12352121496256
1673610161.911634,11.084949,28.1188698266948
1673610161.912642,11.084564,28.114214033703306
1673610161.913649,11.099781,28.109562645435545
1673610161.914656,11.121009,28.10491235834872
1673610161.915663,11.116922,28.10026097008096
1673610161.91667,11.098267,28.0956095818132
1673610161.917677,11.070957,28.090959294726375
1673610161.918684,11.045402,28.086307906458615
1673610161.919691,11.034247,28.081656518190854
1673610161.920698,11.02927,28.07700623110403
1673610161.921705,11.024991,28.072354842836273
1673610161.922712,11.048792,28.067703454568512
1673610161.923719,11.081102,28.063053167481687
1673610161.924727,11.095358,28.058397374490188
1673610161.925734,11.112379,28.053745986222427
1673610161.926741,11.110576,28.049095699135602
1673610161.927748,11.082641,28.044444310867842
1673610161.928755,11.059032,28.039792922600085
1673610161.929762,11.052254,28.035669
1673610161.930769,11.050282,28.04004257010014
1673610161.931776,11.034319,28.125743882108182
1673610161.932783,11.013837,28.14911985872576
1673610161.93379,11.002129,28.191277126213592
1673610161.934797,10.982464,28.186435194174756
1673610161.935804,10.934286,28.14250742105263
1673610161.936811,10.850505,28.14040242105263
1673610161.937819,10.846033,28.144110650485434
1673610161.938826,10.915342,28.108009709379573
1673610161.954939,11.085405,28.068264682080738
1673610161.955946,11.09305,28.065780544361964
1673610161.956953,11.092257,28.063296406643186
1673610161.95796,11.132333,28.060812857025198
1673610161.958967,11.154378,28.05832871930642
1673610161.959974,11.160483,28.055844581587646
1673610161.960981,11.164427,28.053361031969658
1673610161.961988,11.140314,28.05087689425088
1673610161.962996,11.114158,28.048390404128963
1673610161.964003,11.113268,28.04590626641019
1673610161.96501,11.136467,28.043422716792197
1673610161.966017,11.153031,28.040938579073423
1673610161.967024,11.130193,28.038454441354645
1673610161.968031,11.121322,28.035970891736657
1673610161.969038,11.130506,28.033486754017883
1673610161.970045,11.12613,28.031002616299105
1673610161.971052,11.122139,28.028519066681117
1673610161.972059,11.109446,28.02603492896234
1673610161.973066,11.104109,28.023550791243565
1673610161.974073,11.084972,28.021067241625577
1673610161.975081,11.081823,28.018580751503656
1673610161.976088,11.069201,28.01609661378488
1673610161.977095,11.054465,28.013613064166893
1673610161.978102,11.052518,28.011128926448116
1673610161.979109,11.043839,28.00864478872934
1673610161.980116,11.041843,28.00616123911135
1673610161.981123,11.032781,28.003677101392576
1673610161.98213,11.055066,28.0011929636738
1673610161.983137,11.063432,28.005223065092988
1673610161.984144,11.053648,28.01758
1673610161.985151,11.046315,28.01758
1673610161.986158,11.044753,28.023691614926083
1673610161.987165,11.044151,28.035669
1673610161.988173,11.064129,28.022896743027413
1673610161.98918,11.097425,27.999491
1673610161.990187,11.119591,28.01276661802575
1673610161.991194,11.149546,28.022137824314658
1673610161.992201,11.163489,28.0042485303928
1673610161.993208,11.16159,28.016821152951504
1673610161.994215,11.17111,28.02939675268817
1673610161.995222,11.156926,28.04197235242484
1673610161.996229,11.137189,28.053759
1673610161.997236,11.128053,28.053759
1673610161.998243,11.095165,28.053759
1673610161.99925,11.06675,28.053759
1673610162.000258,11.037396,28.053759
1673610162.004286,10.971356,28.053759
1673610162.005293,10.955634,28.053759
1673610162.0063,10.992393,28.053759
1673610162.007307,11.019294,28.053759
1673610162.008314,11.026602,28.053759
1673610162.009321,11.044056,28.053759
1673610162.010328,11.066196,28.053759
1673610162.011335,11.09067,28.053759
1673610162.012342,11.116778,28.053759
1673610162.01335,11.111753,28.053759
1673610162.014357,11.085237,28.053759
1673610162.015364,11.072183,28.053759
1673610162.016371,11.06848,28.053759
1673610162.017378,11.079852,28.053759
1673610162.018385,11.095959,28.053759
1673610162.019392,11.10019,28.053759
1673610162.020399,11.117787,28.053759
1673610162.021406,11.150844,28.053759
1673610162.022413,11.168898,28.053759
1673610162.02342,11.1557,28.053759
1673610162.024427,11.095527,28.053759
1673610162.025435,11.066125,28.053759
1673610162.026442,11.073817,28.053759
1673610162.027449,11.073216,28.053759
1673610162.028456,11.080236,28.053759
1673610162.029463,11.090309,28.053759
1673610162.03047,11.11173,28.053759
1673610162.031477,11.135433,28.053759
1673610162.032484,11.143872,28.053759
1673610162.033491,11.137404,28.053759
1673610162.034498,11.123798,28.053759
1673610162.035505,11.143079,28.053759
1673610162.036512,11.128582,28.053759
1673610162.037519,11.089637,28.053759
1673610162.038527,11.068841,28.053759
1673610162.039534,11.058239,28.053759
1673610162.040541,11.034896,28.053759
1673610162.041548,10.998763,28.053759
1673610162.042555,10.969049,28.053759
1673610162.043562,10.960876,28.053759
1673610162.044569,10.984026,28.053759
1673610162.045576,11.06134,28.053759
1673610162.046583,11.11423,28.053759
1673610162.114058,11.23876,27.95383780031296
1673610162.115065,11.196184,27.949930290885753
1673610162.116072,11.196881,27.946023706531797
1673610162.117079,11.153272,27.94211619710459
1673610162.1180859,11.127981,27.938209612750637
1673610162.119093,11.124663,27.93430210332343
1673610162.1201,11.095551,27.93039459389622
1673610162.1211069,11.097522,27.92648800954227
1673610162.122114,11.108148,27.922580500115057
1673610162.123121,11.111105,27.91867299068785
1673610162.1241279,11.109662,27.914766406333896
1673610162.125135,11.116273,27.91085889690669
1673610162.126143,11.112619,27.906947687186463
1673610162.12715,11.098099,27.903040177759255
1673610162.128157,11.063937,27.8991335934053
1673610162.129164,11.039319,27.89522608397809
1673610162.130171,11.018116,27.891318574550883
1673610162.131178,11.012298,27.88741199019693
1673610162.132185,11.036987,27.883504480769723
1673610162.133192,11.046484,27.879596971342515
1673610162.134199,11.039584,27.87569038698856
1673610162.135206,11.028141,27.87178287756135
1673610162.136213,10.995638,27.867875368134143
1673610162.13722,10.919429,27.86396878378019
1673610162.138227,10.911136,27.860061274352983
1673610162.139235,10.946042,27.856150064632757
1673610162.1402419,10.985973,27.8522434802788
1673610162.141249,11.009052,27.848335970851593
1673610162.142256,11.048816,27.844428461424386
1673610162.1432629,11.051388,27.840521877070433
1673610162.14427,11.07514,27.836614367643225
1673610162.145277,11.148055,27.832706858216017
1673610162.1462839,11.175509,27.82880027386206
1673610162.147291,11.175029,27.824892764434853
1673610162.148298,11.188203,27.820985255007646
1673610162.1493049,11.200271,27.817078670653693
1673610162.150312,11.205392,27.813171161226485
1673610162.15132,11.192746,27.80925995150626
1673610162.152327,11.154137,27.805352442079048
1673610162.153334,11.123919,27.801445857725096
1673610162.154341,11.11185,27.797538348297888
1673610162.155348,11.103388,27.79363083887068
1673610162.156355,11.107498,27.789724254516727
1673610162.157362,11.12589,27.78581674508952
1673610162.158369,11.144857,27.784722116595137
1673610162.159376,11.141973,27.79561260896519
1673610162.160383,11.141203,27.754035822407626
1673610162.16139,11.113557,27.700040191463998
1673610162.162397,11.078915,27.740585821173106
1673610162.163404,11.04521,27.707099935399285
1673610162.164412,11.012466,27.69813830472103
1673610162.1654189,11.013908,27.734573272770625
1673610162.166426,11.013885,27.747584442193087
1673610162.167433,10.985036,27.67290071449695
1673610162.1684399,10.961573,27.667857846572257
1673610162.169447,10.98643,27.662813784504078
1673610162.170454,11.022443,27.6577697224359
1673610162.1714609,11.022732,27.652726854511208
1673610162.177504,11.111946,27.622458899671702
1673610162.178511,11.119927,27.61741603174701
1673610162.179518,11.131996,27.612371969678833
1673610162.180525,11.130217,27.607327907610657
1673610162.181532,11.136756,27.602285039685963
1673610162.182539,11.13303,27.597240977617787
1673610162.183546,11.111562,27.59219691554961
1673610162.184553,11.107955,27.587154047624917
1673610162.18556,11.094108,27.582109985556738
1673610162.186567,11.079106,27.57706592348856
1673610162.187574,11.085862,27.572023055563868
1673610162.188581,11.070355,27.56697899349569
1673610162.189589,11.044127,27.561930154853588
1673610162.1905959,11.02629,27.556887286928895
1673610162.191603,10.996792,27.55184322486072
1673610162.19261,11.009293,27.546799162792542
1673610162.1936169,11.035233,27.541756294867845
1673610162.194624,11.030544,27.53671223279967
1673610162.195631,11.013837,27.531668170731493
1673610162.1966379,11.010182,27.5266253028068
1673610162.197645,10.997513,27.521581240738623
1673610162.198652,10.954504,27.516537178670447
1673610162.1996589,10.935369,27.511494310745753
1673610162.200666,10.965466,27.506450248677577
1673610162.205702,10.969025,27.481226355906248
1673610162.206709,11.021145,27.476183487981555
1673610162.207716,11.054537,27.47113942591338
1673610162.208723,11.094685,27.4660953638452
1673610162.20973,11.120577,27.461052495920505
1673610162.210737,11.140891,27.45600843385233
1673610162.211744,11.16974,27.450964371784153
1673610162.212751,11.179645,27.44592150385946
1673610162.213758,11.205512,27.440877441791283
1673610162.214766,11.214767,27.43582860314918
1673610162.2157729,11.208084,27.430785735224482
1673610162.21678,11.218205,27.425741673156306
1673610162.217787,11.215392,27.42069761108813
1673610162.2187939,11.201881,27.415654743163437
1673610162.219801,11.175701,27.41061068109526
1673610162.220808,11.147285,27.405566619027084
1673610162.2218149,11.127212,27.388152516090585
1673610162.222822,11.112956,27.373639334287077
1673610162.223829,11.104229,27.399293863614687
1673610162.2248359,11.109181,27.382805149940406
1673610162.225843,11.102185,27.353212077253218
1673610162.226851,11.103748,27.376589471626133
1673610162.2439709,11.034824,27.330154
1673610162.244978,11.036242,27.330154
1673610162.245985,11.010832,27.343542497854077
1673610162.2469919,11.014269,27.280689200953518
1673610162.247999,11.028045,27.271427915593705
1673610162.249006,11.06134,27.33095508011445
1673610162.2500129,11.111922,27.34115013036884
1673610162.25102,11.119423,27.331847272460724
1673610162.252028,11.143656,27.32253560502808
1673610162.253035,11.165028,27.313232747119965
1673610162.254042,11.161999,27.303932091592987
1673610162.255049,11.148849,27.294629233684873
1673610162.256056,11.137837,27.285326375776762
1673610162.257063,11.118917,27.27602572024978
1673610162.25807,11.094011,27.26672286234167
1673610162.259077,11.090165,27.257420004433556
1673610162.260084,11.092401,27.248119348906577
1673610162.261091,11.069178,27.238816490998463
1673610162.262098,11.060355,27.229513633090352
1673610162.263105,11.047349,27.22021297756337
1673610162.264112,11.025713,27.21091011965526
1673610162.2661269,10.979843,27.192297796695634
1673610162.267134,11.014414,27.18299493878752
1673610162.268141,11.042877,27.17369208087941
1673610162.2691479,11.058239,27.164391425352427
1673610162.270155,11.096488,27.155088567444317
1673610162.271162,11.083194,27.145785709536202
1673610162.2721689,11.07425,27.136485054009224
1673610162.273176,11.053479,27.12718219610111
1673610162.274183,11.010856,27.117879338192996
1673610162.2751899,10.995589,27.108578682666018
1673610162.288282,11.196929,26.98764152986055
1673610162.289289,11.182433,26.97833867195244
1673610162.290297,11.193852,26.96902700451979
1673610162.2913039,11.183347,26.959726348992813
1673610162.292311,11.157478,26.9504234910847
1673610162.293318,11.141685,26.94112063317659
1673610162.2943249,11.130025,26.931819977649607
1673610162.295332,11.106705,26.922517119741496
1673610162.296339,11.068433,26.917480696232715
1673610162.2973459,11.037517,26.941136957081547
1673610162.298353,11.028141,26.86176021716329
1673610162.29936,11.009005,26.877903
1673610162.3003669,11.009196,26.87569804840248
1673610162.301374,11.017923,26.859806
1673610162.302382,11.041796,26.857326578069127
1673610162.303389,11.026361,26.84432209203624
1673610162.304396,11.022683,26.857075829041488
1673610162.305403,11.041002,26.8396700828701
1673610162.30641,11.073962,26.826629090476885
1673610162.307417,11.128438,26.813591185439826
1673610162.308424,11.16772,26.800550193046615
1673610162.309431,11.164979,26.787509200653403
1673610162.310438,11.142093,26.774471295616344
1673610162.311445,11.119278,26.761430303223133
1673610162.312452,11.110696,26.748389310829918
1673610162.313459,11.120865,26.735351405792862
1673610162.314466,11.119134,26.722310413399647
1673610162.315474,11.095911,26.723230728486293
1673610162.3164809,11.089396,26.716651675250358
1673610162.317488,11.094253,26.688603309012876
1673610162.318495,11.105767,26.678907
1673610162.3195019,11.102161,26.67026361516452
1673610162.320509,11.106417,26.678364038626608
1673610162.321516,11.104613,26.670296367818832
1673610162.3225229,11.097281,26.624683629470674
1673610162.32353,11.100094,26.634008474010493
1673610162.324537,11.100383,26.660474256927397
1673610162.3255439,11.074082,26.659799709066984
1673610162.326551,11.04444,26.659125001474663
1673610162.327559,11.029847,26.6584496549547
1673610162.328566,11.007465,26.657774947362377
1673610162.329573,10.97542,26.657100399501967
1673610162.33058,10.964529,26.656425691909647
1673610162.331587,10.974001,26.655750984317326
1673610162.332594,11.010519,26.655076436456916
1673610162.333601,11.054657,26.654401728864595
1673610162.334608,11.079419,26.653727021272275
1673610162.335615,11.117572,26.653052473411865
1673610162.336622,11.130481,26.65237776581954
1673610162.337629,11.114422,26.65170305822722
1673610162.338636,11.083241,26.65102851036681
1673610162.339643,11.067832,26.65035380277449
1673610162.340651,11.053479,26.649678456254524
1673610162.3416579,11.006167,26.649003908394114
1673610162.342665,10.968737,26.648329200801793
1673610162.343672,10.984411,26.647654493209473
1673610162.3446789,11.00297,26.646979945349063
1673610162.345686,11.040834,26.646305237756742
1673610162.346693,11.072783,26.64563053016442
1673610162.3476999,11.099661,26.64495598230401
1673610162.348707,11.125529,26.644281274711688
1673610162.349714,11.177216,26.643606567119367
1673610162.350721,11.205199,26.642932019258957
1673610162.351728,11.190679,26.642729
1673610162.352736,11.175653,26.604093264186933
1673610162.353743,11.176784,26.627486904625655
1673610162.35475,11.142766,26.65585915613826
1673610162.355757,11.124207,26.660818
1673610162.356764,11.120552,26.620655466857414
1673610162.357771,11.115936,26.674116183357178
1673610162.358778,11.115792,26.642440339451728
1673610162.359785,11.115528,26.65217461516452
1673610162.360792,11.11774,26.660818
1673610162.361799,11.118004000000001,26.660818
1673610162.362806,11.108748,26.660818
1673610162.363813,11.098412,26.660818
1673610162.364821,11.083194,26.69760898736591
1673610162.365828,11.072736,26.71335132256157
1673610162.3668349,11.067519,26.71080153390077
1673610162.367842,11.076101,26.70825114145388
1673610162.368849,11.089204,26.705700749006986
1673610162.3698559,11.078626,26.703150960346182
1673610162.370863,11.009052,26.70060056789929
1673610162.37187,10.97941,26.698050175452398
1673610162.372877,11.005807,26.695500386791597
1673610162.373884,11.026915,26.692949994344705
1673610162.384962,11.151036,26.6648950736428
1673610162.385969,11.169811,26.662345284982
1673610162.386976,11.142477,26.659794892535107
1673610162.387983,11.136707,26.657244500088215
1673610162.38899,11.125072,26.654694711427414
1673610162.389998,11.090309,26.65214190383616
1673610162.391005,11.073096,26.649591511389268
1673610162.3920119,11.042084,26.647041722728463
1673610162.393019,11.033862,26.64449133028157
1673610162.394026,11.075524,26.64194093783468
1673610162.395033,11.096848,26.63939114917388
1673610162.39604,11.090358,26.636840756726986
1673610162.397047,11.080260000000001,26.634290364280094
1673610162.398054,11.080934,26.631740575619293
1673610162.399061,11.117043,26.6291901831724
1673610162.400068,11.107234,26.62663979072551
1673610162.401075,11.071149,26.624090002064708
1673610162.417189,11.180125,26.59011917167382
1673610162.418196,11.156998,26.6208059699284
1673610162.419203,11.155747,26.551173846117198
1673610162.42021,11.16219,26.532975317282478
1673610162.421217,11.154305,26.51877217501192
1673610162.422224,11.129976,26.55374328040057
1673610162.423231,11.097137,26.565590661740167
1673610162.424238,11.070957,26.5181589137746
1673610162.425245,11.059177,26.540031526296957
1673610162.426252,11.03528,26.561898960644008
1673610162.427259,11.03052,26.58377157316637
1673610162.428267,11.097089,26.5598006509299
1673610162.429274,11.108051,26.550252958839575
1673610162.430281,11.1319,26.5477029809695
1673610162.431288,11.153199,26.545152399268535
1673610162.432295,11.142333,26.54260181756757
1673610162.433302,11.115191,26.540051839697497
1673610162.434309,11.09531,26.537501257996528
1673610162.435316,11.082136,26.534950676295562
1673610162.436323,11.066269,26.53240069842549
1673610162.43733,11.052734,26.52985011672452
1673610162.438337,11.052301,26.527299535023555
1673610162.439344,11.058624,26.524749557153484
1673610162.440352,11.046965,26.522196560128936
1673610162.441359,11.039584,26.51964597842797
1673610162.442366,11.024583,26.517096000557896
1673610162.443373,11.014871,26.51454541885693
1673610162.44438,11.052109,26.511994837155964
1673610162.445387,11.12625,26.509444859285892
1673610162.446394,11.144088,26.506894277584923
1673610162.447401,11.141372,26.504343695883957
1673610162.448408,11.154498,26.501793718013886
1673610162.449415,11.164162,26.499243136312916
1673610162.450422,11.150771,26.49669255461195
1673610162.451429,11.121346,26.49414257674188
1673610162.452436,11.065596,26.491591995040913
1673610162.453444,10.984531,26.489038998016365
1673610162.454451,10.945729,26.486488416315396
1673610162.455458,10.961644,26.483938438445325
1673610162.456465,10.976645,26.48138785674436
1673610162.457472,10.978665,26.47883727504339
1673610162.458479,10.973329,26.476287297173318
1673610162.459486,11.002538,26.473736715472352
1673610162.460493,11.042757,26.471186133771386
1673610162.4615,11.114687,26.46863615590131
1673610162.462507,11.152238,26.466085574200346
1673610162.463514,11.125529,26.46353499249938
1673610162.464521,11.088891,26.46098501462931
1673610162.465529,11.079419,26.45843201760476
1673610162.466536,11.060932,26.45588143590379
1673610162.467543,11.047806,26.45333145803372
1673610162.46855,11.01314,26.450780876332754
1673610162.469557,10.96126,26.448230294631788
1673610162.470564,10.927892,26.445680316761713
1673610162.471571,10.945345,26.443129735060747
1673610162.472578,10.97453,26.44057915335978
1673610162.473585,11.009749,26.43802917548971
1673610162.474592,11.055907,26.43547859378874
1673610162.475599,11.113268,26.432928012087775
1673610162.476606,11.160725,26.430378034217703
1673610162.477613,11.163008,26.427827452516734
1673610162.478621,11.18301,26.43092436051502
1673610162.479628,11.195438,26.46459898855508
1673610162.480635,11.166494,26.467849339547602
1673610162.481642,11.14392,26.500355135753356
1673610162.482649,11.127019,26.433883263550474
1673610162.483656,11.123076,26.41983770984585
1673610162.484663,11.139761,26.396912227442208
1673610162.48567,11.147045,26.385479575832917
1673610162.486677,11.131227,26.45325176727996
1673610162.487684,11.136996,26.425391613452685
1673610162.488691,11.155676,26.42417601393632
1673610162.489698,11.152214,26.42296070220393
1673610162.490706,11.13226,26.42174395155166
1673610162.491713,11.094685,26.420528352035294
1673610162.49272,11.067135,26.419313040302907
1673610162.493727,11.080069,26.418097440786543
1673610162.494734,11.090021,26.416881841270175
1673610162.495741,11.089444,26.415666529537788
1673610162.496748,11.074611,26.414450930021424
1673610162.497755,11.052278,26.413235330505056
1673610162.498762,11.079924,26.41202001877267
1673610162.499769,11.075068,26.410804419256305
1673610162.500776,11.065283,26.40958881973994
1673610162.501783,11.07324,26.40837350800755
1673610162.50279,11.107763,26.407157908491186
1673610162.503798,11.128534,26.405941157838914
1673610162.504805,11.132957,26.40472555832255
1673610162.505812,11.137934,26.403510246590162
1673610162.515883,11.092666,26.391353963642533
1673610162.51689,11.068192,26.39013836412617
1673610162.517897,11.072856,26.388923052393782
1673610162.518904,11.091703,26.387707452877414
1673610162.519911,11.090238,26.38649185336105
1673610162.520918,11.078265,26.385276541628663
1673610162.521925,11.078241,26.3840609421123
1673610162.522932,11.053479,26.38284534259593
1673610162.523939,11.000614,26.381630030863544
1673610162.529982,10.948687,26.374335570413425
1673610162.530989,10.990613,26.373120258681034
1673610162.531996,11.04944,26.37190465916467
1673610162.533003,11.050234,26.3610818490701
1673610162.53401,11.044368,26.342870539928487
1673610162.535017,11.053071,26.335199
1673610162.536024,11.074587,26.303169761802575
1673610162.537031,11.075765,26.313320805721094
1673610162.538038,11.099204,26.335199
1673610162.539045,11.115191,26.335199
1673610162.540052,11.111441,26.346379085836908
1673610162.54106,11.127308,26.364611160190705
1673610162.542067,11.169595,26.371376
1673610162.543074,11.190535,26.371376
1673610162.544081,11.186929,26.371376
1673610162.545088,11.168922,26.371376
1673610162.546095,11.144905,26.371376
1673610162.547102,11.109879,26.371376
1673610162.548109,11.091223,26.371376
1673610162.549116,11.09805,26.371376
1673610162.550123,11.122067,26.371376
1673610162.55113,11.119975,26.371376
1673610162.552137,11.085502,26.371376
1673610162.553144,11.074179,26.371376
1673610162.554152,11.080669,26.371376
1673610162.555159,11.085069,26.371376
1673610162.556166,11.091776,26.371376
1673610162.557173,11.062591,26.371376
1673610162.55818,11.064514,26.371376
1673610162.559187,11.07651,26.371376
1673610162.560194,11.065644,26.371376
1673610162.561201,11.050354,26.371376
1673610162.562208,11.067423,26.371376
1673610162.563215,11.095358,26.371376
1673610162.564222,11.098844,26.371376
1673610162.565229,11.094637,26.371376
1673610162.566237,11.102882,26.371376
1673610162.567244,11.09204,26.371376
1673610162.568251,11.069081,26.371376
1673610162.569258,11.043911,26.371376
1673610162.570265,11.025617,26.371376
1673610162.571272,10.999724,26.371376
1673610162.572279,11.000157,26.371376
1673610162.573286,11.027636,26.371376
1673610162.574293,11.058792,26.371376
1673610162.5753,11.051364,26.371376
1673610162.576307,11.067471,26.371376
1673610162.577314,11.100094,26.371376
1673610162.578321,11.133342,26.370017733015494
1673610162.579329,11.171206,26.318300439198854
1673610162.580336,11.187553,26.352564364806867
1673610162.581343,11.16183,26.332649602050548
1673610162.58235,11.137981,26.284839817640048
1673610162.583357,11.122596,26.352184793991416
1673610162.584364,11.100238,26.337657379828325
1673610162.585371,11.085261,26.36865949106079
1673610162.586378,11.078313,26.33470219837785
1673610162.587385,11.069514,26.32860338078968
1673610162.588392,11.088627,26.322503119010744
1673610162.5893989,11.105696,26.316404301422573
1673610162.590406,11.128991,26.31030403964364
1673610162.591414,11.115912,26.304198001101657
1673610162.592421,11.089637,26.29809773932272
1673610162.593428,11.077135,26.29199892173455
1673610162.594435,11.06687,26.285898659955617
1673610162.595442,11.072086,26.27979839817668
1673610162.596449,11.112163,26.27369958058851
1673610162.597456,11.111633,26.267599318809573
1673610162.598463,11.082256,26.26149905703064
1673610162.59947,11.056749,26.25540023944247
1673610162.600477,11.046412,26.249299977663533
1673610162.601484,11.030016,26.26781669964243
1673610162.602491,10.999316,26.316253918454937
1673610162.603498,10.971766,26.28229770672389
1673610162.604506,10.991695,26.320161434430137
1673610162.605513,11.033189,26.280924
1673610162.60652,11.034896,26.280924
1673610162.607527,11.029006,26.27674463876967
1673610162.608534,11.043286,26.267142726102502
1673610162.609541,11.065163,26.27649448092513
1673610162.610548,11.08841,26.262835
1673610162.662916,10.985517,26.069285437884503
1673610162.663923,10.964794,26.072531899391592
1673610162.6649299,10.972967,26.075777592323508
1673610162.665937,10.980372,26.079024053830597
1673610162.666945,10.97304,26.08227358963835
1673610162.667952,10.965299,26.08552005114544
1673610162.668959,10.991503,26.08876574407736
1673610162.669966,10.989988,26.092012205584446
1673610162.670973,10.9828,26.09525866709153
1673610162.67198,11.021193,26.09850436002345
1673610162.672987,11.046965,26.10175082153054
1673610162.673994,11.03653,26.104997283037626
1673610162.675001,11.093987,26.108242975969546
1673610162.676008,11.1513,26.11148943747663
1673610162.677015,11.176495,26.114735898983717
1673610162.678022,11.157791,26.117981591915637
1673610162.679029,11.124063,26.121228053422726
1673610162.680037,11.116995,26.12447758923048
1673610162.6810439,11.140722,26.1277232821624
1673610162.682051,11.166278,26.13096974366949
1673610162.683058,11.171182,26.134216205176575
1673610162.6840649,11.159571,26.137461898108494
1673610162.685072,11.147045,26.14070835961558
1673610162.686079,11.151252,26.14395482112267
1673610162.6870859,11.14618,26.14720051405459
1673610162.688093,11.125649,26.150446975561675
1673610162.6891,11.11762,26.15369343706876
1673610162.6901069,11.118149,26.15693913000068
1673610162.691114,11.112595,26.160185591507766
1673610162.692122,11.094685,26.163435127315523
1673610162.693129,11.093964,26.16668158882261
1673610162.694136,11.092882,26.16992728175453
1673610162.695143,11.102931,26.173173743261618
1673610162.69615,11.09882,26.176420204768704
1673610162.697157,11.065908,26.179665897700623
1673610162.698164,11.013235,26.18291235920771
1673610162.699171,10.967703,26.186158820714798
1673610162.700178,10.971381,26.189404513646714
1673610162.701185,10.988041,26.192650975153803
1673610162.702192,10.992104,26.19589743666089
1673610162.703199,10.982896,26.19914312959281
1673610162.721327,11.113413,26.137819560801145
1673610162.722334,11.114879,26.22555736842105
1673610162.723341,11.110888,26.24465442560801
1673610162.724348,11.104229,26.136426040247677
1673610162.725355,11.101272,26.20824784191702
1673610162.726362,11.108701,26.17232358347026
1673610162.727369,11.117187,26.16813636822215
1673610162.728376,11.114782,26.163950144265527
1673610162.729383,11.119639,26.15976292901742
1673610162.730391,11.108508,26.155571748603354
1673610162.7313979,11.069923,26.192222081545065
1673610162.732405,11.060788,26.19579530472103
1673610162.733412,11.072856,26.190477
1673610162.7344189,11.0874,26.216520014067715
1673610162.735426,11.083145,26.213505460896517
1673610162.736433,11.071991,26.195289500595948
1673610162.7374399,11.06247,26.21727913471626
1673610162.738447,11.058408,26.213125911063422
1673610162.739454,11.077424,26.1949067639485
1673610162.7404609,11.089757,26.21804030965435
1673610162.741468,11.076822,26.22529888798367
1673610162.742476,11.044608,26.223519703610016
1673610162.743483,11.026482,26.22174220247607
1673610162.74449,11.039104,26.21996512215205
1673610162.745497,11.030953,26.218187621018107
1673610162.746504,10.989315,26.216410119884163
1673610162.747511,10.994123,26.214633039560145
1673610162.7626169,11.107258,26.187970943360895
1673610162.763624,11.081511,26.18619344222695
1673610162.764631,11.069611,26.184415941093008
1673610162.7656379,11.063624,26.18263886076899
1673610162.766645,11.073866,26.180861359635045
1673610162.767653,11.077424,26.17908217526139
1673610162.76866,11.082064,26.177304674127445
1673610162.769667,11.083722,26.175527593803427
1673610162.770674,11.078001,26.173750092669483
1673610162.771681,11.093459,26.171972591535535
1673610162.772688,11.113028,26.170195511211517
1673610162.773695,11.120721,26.168418010077573
1673610162.774702,11.077544,26.16664050894363
1673610162.775709,11.030664,26.16486342861961
1673610162.776716,10.998018,26.163085927485668
1673610162.777723,11.000398,26.16130842635172
1673610162.77873,11.031963,26.159531346027702
1673610162.779737,11.020039,26.157753844893758
1673610162.780745,11.009461,26.155974660520105
1673610162.7817519,11.047542,26.15620596829559
1673610162.782759,11.092209,26.188311361945637
1673610162.783766,11.078049,26.156715479256082
1673610162.7847729,11.050354,26.19181412446352
1673610162.78578,11.064875,26.205634895113228
1673610162.786787,11.083939,26.17239
1673610162.7877939,11.101849,26.170672450643778
1673610162.788801,11.097738,26.152445447675806
1673610162.789808,11.079924,26.13817307129232
1673610162.7908149,11.091632,26.153877099152542
1673610162.791822,11.127308,26.150279738700565
1673610162.79283,11.155507,26.146678971657252
1673610162.793837,11.143559,26.143081611205275
1673610162.794844,11.107907,26.13948510240113
1673610162.795851,11.095574,26.13142752360515
1673610162.796858,11.075668,26.085377006436232
1673610162.797865,11.059538,26.12179725679542
1673610162.798872,11.034102,26.156263160944206
1673610162.799879,11.038094,26.17028837553648
1673610162.800886,11.056653,26.154242622158414
1673610162.801893,11.074851,26.153846598897054
1673610162.8029,11.086319,26.1534505756357
1673610162.803907,11.10358,26.153054646129846
1673610162.804914,11.106994,26.152658622868486
1673610162.805922,11.071774,26.1522622245851
1673610162.8069289,11.055114,26.151866295079248
1673610162.807936,11.037901,26.15147027181789
1673610162.808943,11.018356,26.151074248556533
1673610162.8099499,11.020736,26.15067831905068
1673610162.810957,11.021458,26.15028229578932
1673610162.811964,10.994484,26.14988627252796
1673610162.8129709,10.971333,26.149490343022112
1673610162.813978,10.994315,26.149094319760753
1673610162.814985,11.023982,26.148698296499393
1673610162.8159919,11.036026,26.148302366993544
1673610162.816999,11.050738,26.147906343732185
1673610162.818007,11.095887,26.147509945448796
1673610162.819014,11.135097,26.14711392218744
1673610162.820021,11.171903,26.146717992681587
1673610162.821028,11.145411,26.146321969420228
1673610162.822035,11.108075,26.14592594615887
1673610162.823042,11.105551,26.14553001665302
1673610162.824049,11.125457,26.14513399339166
1673610162.825056,11.116826,26.1447379701303
1673610162.826063,11.102305,26.14434204062445
1673610162.82707,11.11661,26.143946017363092
1673610162.828077,11.147238,26.143549994101733
1673610162.829084,11.150098,26.14315406459588
1673610162.830091,11.136707,26.142758041334524
1673610162.831099,11.118941,26.142361643051135
1673610162.8321059,11.098195,26.141965713545286
1673610162.833113,11.091175,26.141569690283927
1673610162.83412,11.084251,26.141173667022567
1673610162.8351269,11.080813,26.140777737516714
1673610162.836134,11.097305,26.14038171425536
1673610162.837141,11.109542,26.139985690994
1673610162.844191,11.022251,26.137213340653474
1673610162.845198,11.026265,26.136817411147625
1673610162.846205,11.047733,26.136421387886266
1673610162.847212,11.066413,26.119954689392134
1673610162.848219,11.068793,26.133015433953265
1673610162.849226,11.053071,26.163059429784976
1673610162.850233,11.071582,26.136202
1673610162.85124,11.104277,26.144684520977165
1673610162.852247,11.103148,26.14737057992565
1673610162.853254,11.097738,26.168993891425536
1673610162.854261,11.06723,26.150356462559746
1673610162.855268,11.058985,26.126029301115242
1673610162.856276,11.062182,26.12586874382798
1673610162.8572829,11.0918,26.140610331902717
1673610162.85829,11.106777,26.142913131139725
1673610162.859297,11.099324,26.124698118235994
1673610162.8603039,11.0874,26.08322991988555
1673610162.861311,11.054176,26.06443482888682
1673610162.862318,11.021169,26.06534568333214
1673610162.8633249,11.002297,26.06625632213957
1673610162.864332,10.983209,26.06716717658489
1673610162.865339,10.976357,26.068078031030208
1673610162.866346,10.996095,26.068988669837637
1673610162.867353,11.021241,26.069899524282956
1673610162.868361,11.034632,26.07081124127983
1673610162.869368,11.043406,26.07172209572515
1673610162.870375,11.068817,26.07263273453258
1673610162.871382,11.055499,26.0735435889779
1673610162.872389,11.039104,26.074454443423217
1673610162.873396,11.040137,26.075365082230647
1673610162.874403,11.052589,26.076275936675962
1673610162.87541,11.051124,26.07718679112128
1673610162.876417,11.045281,26.07809742992871
1673610162.877424,11.047589,26.07900828437403
1673610162.878431,11.038358,26.07991913881935
1673610162.879438,11.059538,26.08082977762678
1673610162.880446,11.066678,26.081741494623653
1673610162.881453,11.057061,26.082652349068972
1673610162.8824599,11.051124,26.0835629878764
1673610162.883467,11.06288,26.08447384232172
1673610162.884474,11.078915,26.08538469676704
1673610162.8854809,11.121658,26.08629533557447
1673610162.886488,11.166253,26.08720619001979
1673610162.887495,11.191015,26.088117044465108
1673610162.888502,11.197987,26.089027683272537
1673610162.889509,11.169354,26.089938537717853
1673610162.890516,11.128149,26.09084939216317
1673610162.891523,11.082785,26.0917600309706
1673610162.89253,11.046724,26.09267088541592
1673610162.893538,11.060066,26.0935826024128
1673610162.894545,11.054537,26.094493456858117
1673610162.895552,11.030761,26.095404095665543
1673610162.896559,11.049537,26.096314950110862
1673610162.897566,11.045955,26.09722580455618
1673610162.898573,11.030376,26.09813644336361
1673610162.89958,11.011744,26.09904729780893
1673610162.900587,11.011744,26.09995815225425
1673610162.901594,11.018116,26.167541510491176
1673610162.902601,11.038742,26.10437207508939
1673610162.903608,11.059345,26.082893500715308
1673610162.904615,11.0818,26.030157679542203
1673610162.905623,11.106897,26.0624668045292
1673610162.90663,11.115576,26.098903602765855
1673610162.9076369,11.111369,26.064718239389602
1673610162.908644,11.120769,26.081629772293752
1673610162.909651,11.112595,26.1356586932062
1673610162.910658,11.102089,26.126945401914227
1673610162.911665,11.100767,26.11759360322628
1673610162.912672,11.102907,26.108241804538334
1673610162.913679,11.099806,26.09889221981788
1673610162.914686,11.09204,26.089540421129932
1673610162.915693,11.117307,26.080188622441984
1673610162.9167,11.11935,26.07083903772153
1673610162.917707,11.128078,26.061487239033582
1673610162.918715,11.128942,26.052126584475666
1673610162.919722,11.118076,26.051565636471988
1673610162.920729,11.102282,26.05198311707201
1673610162.921736,11.072856,26.039782731282784
1673610162.922743,11.053888,26.076222549463647
1673610162.92375,11.050161,26.081094603242725
1673610162.924757,11.062158,26.058636171912255
1673610162.925764,11.106153,26.075367200047687
1673610162.926771,11.091512,26.090615762812874
1673610162.927778,11.059345,26.108926545779685
1673610162.928785,11.065115,26.06693512253386
1673610162.929792,11.078193,26.075030182410014
1673610162.9308,11.083746,26.08313482677572
1673610162.931807,11.086679,26.091231803549785
1673610162.932814,11.077664,26.09932686342594
1673610162.933821,11.076101,26.107423840200006
1673610162.934828,11.06074,26.115520816974072
1673610162.935835,11.037781,26.123615876850227
1673610162.936842,11.028381,26.131712853624293
1673610162.971083,11.048166,26.456073824988078
1673610162.97209,11.116922,26.46183
1673610162.973097,11.171975,26.46183
1673610162.974104,11.161325,26.46183
1673610162.975111,11.147959,26.46183
1673610162.976118,11.157551,26.46183
1673610162.977125,11.155989,26.469398023150358
1673610162.978132,11.13178,26.46450069241774
1673610162.979139,11.109469,26.451571438379023
1673610162.980146,11.079587,26.469787607296137
1673610162.981154,11.076822,26.463706912732476
1673610162.982161,11.096031,26.476663818831945
1673610162.983168,11.108941,26.507743590605628
1673610162.984175,11.099566,26.481040928230804
1673610162.985182,11.101128,26.46369229675881
1673610162.986189,11.10596,26.467630443585282
1673610162.987196,11.119134,26.47156952295895
1673610162.988203,11.12298,26.475508602332624
1673610162.98921,11.120071,26.479446749159095
1673610162.990217,11.117643,26.483385828532764
1673610162.991224,11.092906,26.487324907906437
1673610162.992231,11.053985,26.491263054732908
1673610162.993238,11.025136,26.495202134106577
1673610162.994246,11.017154,26.49914494366905
1673610162.995253,11.018524,26.50308402304272
1673610162.99626,11.000566,26.50702216986919
1673610162.997267,11.00547,26.510961249242865
1673610162.998274,11.044368,26.514900328616534
1673610162.999281,11.066485,26.518838475443005
1673610163.000288,11.069418,26.522777554816678
1673610163.001295,11.094564,26.526716634190347
1673610163.002302,11.127692,26.530654781016818
1673610163.003309,11.130722,26.53459386039049
1673610163.004316,11.117523,26.53853293976416
1673610163.005323,11.097258,26.54247108659063
1673610163.006331,11.089972,26.5464138961531
1673610163.007338,11.095118,26.550352975526774
1673610163.008345,11.104566,26.554291122353245
1673610163.009352,11.097738,26.558230201726914
1673610163.010359,11.081655,26.562169281100587
1673610163.011366,11.074491,26.566107427927058
1673610163.012373,11.077039,26.570046507300727
1673610163.01338,11.069971,26.5739855866744
1673610163.014387,11.051051,26.57792373350087
1673610163.015394,11.043767,26.58186281287454
1673610163.016401,11.040498,26.585801892248213
1673610163.017408,11.044031,26.589740039074684
1673610163.018415,11.039945,26.593679118448353
1673610163.019423,11.05134,26.597621928010827
1673610163.02043,11.060403,26.601561007384497
1673610163.021437,11.077929,26.605499154210968
1673610163.022444,11.087064,26.579872185802763
1673610163.023451,11.084636,26.637740356563246
1673610163.024458,11.08038,26.674421411063424
1673610163.025465,11.09995,26.63771841168057
1673610163.026472,11.124663,26.596925002145923
1673610163.027479,11.120745,26.616428148783978
1673610163.028486,11.096848,26.596422802383792
1673610163.029493,11.084588,26.616937076537912
1673610163.0305,11.081318,26.59591577253219
1673610163.031508,11.086175,26.588463
1673610163.032515,11.091392,26.588463
1673610163.033522,11.090574,26.588463
1673610163.034529,11.071774,26.588463
1673610163.035536,11.056725,26.588463
1673610163.036543,11.017154,26.568929117310443
1673610163.03755,10.984459,26.601751699093942
1673610163.038557,10.916881,26.61265885598474
1673610163.039564,10.871059,26.58952006006646
1673610163.040571,10.840408,26.591417646858098
1673610163.041578,10.83596,26.593315233649736
1673610163.042585,10.884763,26.595212371202074
1673610163.043592,10.936137,26.597109957993712
1673610163.0446,10.965779,26.59900934174254
1673610163.045607,11.031097,26.600906928534176
1673610163.046614,11.114447,26.602804066086517
1673610163.047621,11.148608,26.604701652878155
1673610163.048628,11.164643,26.60659923966979
1673610163.049635,11.182144,26.60849637722213
1673610163.050642,11.190775,26.61039396401377
1673610163.051649,11.195704,26.612291550805406
1673610163.052656,11.199333,26.614188688357746
1673610163.053663,11.198011,26.616086275149385
1673610163.05467,11.182168,26.61798386194102
1673610163.055677,11.149737,26.61988099949336
1673610163.056685,11.102065,26.62178038324219
1673610163.057692,11.058047,26.623677970033825
1673610163.058699,11.038406,26.625575107586165
1673610163.059706,11.039224,26.627472694377804
1673610163.060713,11.018404,26.62937028116944
1673610163.06172,10.992127,26.63126741872178
1673610163.062727,10.990156,26.63316500551342
1673610163.063734,11.0041,26.635062592305054
1673610163.064741,11.07288,26.636959729857395
1673610163.065748,11.117403,26.638857316649034
1673610163.066755,11.121009,26.64075490344067
1673610163.067762,11.120144,26.64265204099301
1673610163.068769,11.104686,26.64454962778465
1673610163.069777,11.112283,26.646449011533473
1673610163.070784,11.108075,26.648346598325112
1673610163.071791,11.100863,26.650243735877453
1673610163.072798,11.116393,26.65214132266909
1673610163.073805,11.120216,26.654038909460727
1673610163.074812,11.087473,26.655936047013068
1673610163.075819,11.084949,26.657833633804707
1673610163.076826,11.116178,26.659731220596342
1673610163.077833,11.108892,26.661628358148683
1673610163.07884,11.081294,26.66352594494032
1673610163.079847,11.055595,26.665423531731957
1673610163.080854,11.042686,26.667320669284297
1673610163.081862,11.055018,26.669220053033126
1673610163.082869,11.049176,26.67111763982476
1673610163.083876,11.00446,26.6730147773771
1673610163.084883,10.990108,26.67491236416874
1673610163.08589,10.995277,26.676809950960376
1673610163.086897,11.03367,26.678707088512716
1673610163.087904,11.068384,26.678907
1673610163.088911,11.071486,26.678907
1673610163.089918,11.078842,26.678907
1673610163.090925,11.081823,26.678907
1673610163.091932,11.086559,26.678907
1673610163.092939,11.104638,26.611192795183594
1673610163.093946,11.115408,26.657725588459705
1673610163.094954,11.111826,26.67802282141154
1673610163.095961,11.09406,26.713568120619787
1673610163.096968,11.07425,26.71274352707589
1673610163.097975,11.061557,26.71029860351981
1673610163.098982,11.052181,26.707853679963733
1673610163.099989,11.047638,26.705409335224786
1673610163.100996,11.063384,26.70296441166871
1673610163.102003,11.07276,26.700519488112633
1673610163.10301,11.081655,26.698075143373686
1673610163.104017,11.081631,26.69563021981761
1673610163.1050239,11.078025,26.69318587507866
1673610163.106031,11.081895,26.690740951522585
1673610163.107039,11.094757,26.688293712697988
1673610163.108046,11.09192,26.68584878914191
1673610163.109053,11.061677,26.683404444402964
1673610163.11006,11.043911,26.680959520846887
1673610163.111067,11.041988,26.67851459729081
1673610163.112074,11.05057,26.676070252551863
1673610163.113081,11.042806,26.673625328995787
1673610163.114088,11.001841,26.67118040543971
1673610163.115095,10.983569,26.668736060700763
1673610163.116102,10.994628,26.666291137144686
1673610163.117109,11.012754,26.66384621358861
1673610163.118116,11.019221,26.661401868849662
1673610163.119123,11.029535,26.658956945293586
1673610163.120131,11.040473,26.656509706468988
1673610163.121138,11.03266,26.65406478291291
1673610163.122145,11.029703,26.651620438173964
1673610163.123152,11.034872,26.649175514617887
1673610163.124159,11.045882,26.64673059106181
1673610163.125166,11.064225,26.644286246322864
1673610163.126173,11.086343,26.641841322766787
1673610163.1271799,11.095214,26.63939697802784
1673610163.139265,11.023549,26.610057316537784
1673610163.140272,11.026891000000001,26.607612971798837
1673610163.141279,11.037493,26.616861513230035
1673610163.142286,11.05158,26.65595286123033
1673610163.143293,11.024727,26.66834430066762
1673610163.1443,10.955322,26.660818
1673610163.145308,10.945105,26.660818
1673610163.146315,11.014029,26.68274623509776
1673610163.147322,11.091536,26.719179690987126
1673610163.148329,11.111657,26.721962428605483
1673610163.1493359,11.108315,26.726430066046735
1673610163.150343,11.149834,26.729405332940807
1673610163.15135,11.182865,26.7234042552206
1673610163.1523569,11.18176,26.71740459821008
1673610163.153364,11.183611,26.703906532188842
1673610163.154371,11.177481,26.685690210965433
1673610163.1553779,11.167889,26.758919434430137
1673610163.156385,11.139448,26.805538
1673610163.157393,11.093219,26.79383642240763
1673610163.1584,11.076967,26.787451
1673610163.159407,11.082376,26.787451
1673610163.160414,11.083698,26.787451
1673610163.161421,11.063648,26.79965994062947
1673610163.162428,11.041603,26.806125371438625
1673610163.163435,11.049994,26.80699287387106
1673610163.164442,11.065619,26.807860376303495
1673610163.165449,11.06824,26.8087276733613
1673610163.166456,11.060331,26.80959517579373
1673610163.167463,11.057638,26.810462678226166
1673610163.16847,11.065379,26.81132997528397
1673610163.169477,11.090886,26.812197477716406
1673610163.170485,11.091752,26.813065801647355
1673610163.1714919,11.059057,26.81393309870516
1673610163.172499,11.049897,26.814800601137595
1673610163.173506,11.047205,26.81566810357003
1673610163.1745129,11.035473,26.816535400627835
1673610163.17552,11.042781,26.817402903060266
1673610163.176527,11.06889,26.8182704054927
1673610163.1775339,11.077064,26.819137702550506
1673610163.178541,11.043935,26.82000520498294
1673610163.179548,11.047253,26.820872707415376
1673610163.1805549,11.053743,26.82174000447318
1673610163.181562,11.063384,26.822607506905612
1673610163.18257,11.068866,26.823475830836564
1673610163.183577,11.04355,26.824343333268995
1673610163.184584,11.015904,26.8252106303268
1673610163.185591,11.016385,26.826078132759235
1673610163.186598,11.032444,26.82694563519167
1673610163.187605,11.03629,26.827812932249476
1673610163.188612,11.039224,26.82868043468191
1673610163.203718,11.070692,26.84169276579379
1673610163.204725,11.111946,26.82400657081545
1673610163.2057319,11.106489,26.823627
1673610163.206739,11.094468000000001,26.823627
1673610163.207747,11.096055,26.859823259895087
1673610163.208754,11.092257,26.878049644253696
1673610163.209761,11.07288,26.895992
1673610163.210768,11.076318,26.8948014182165
1673610163.211775,11.082448,26.84224319408679
1673610163.212782,11.092016,26.859657082815396
1673610163.213789,11.102931,26.855491346472576
1673610163.214796,11.097041,26.851325610129756
1673610163.215803,11.0987,26.84716085999346
1673610163.21681,11.097161,26.84299512365064
1673610163.217817,11.089516,26.854345658082973
1673610163.218824,11.08002,26.885313032657926
1673610163.219831,11.067014,26.870228672389125
1673610163.220839,11.077064,26.885862680972817
1673610163.2218459,11.04545,26.895992
1673610163.222853,10.993378,26.896280595403706
1673610163.22386,10.978256,26.896676640558105
1673610163.2248669,10.976694,26.89707259195182
1673610163.225874,10.995085,26.897468637106222
1673610163.226881,11.005374,26.89786468226062
1673610163.2278879,11.000878,26.898260633654335
1673610163.246016,11.085141,26.90538972771564
1673610163.2470229,11.087569,26.90578567910935
1673610163.24803,11.065788,26.906181724263753
1673610163.249037,11.050907,26.906577769418156
1673610163.2500439,11.067567,26.906973720811866
1673610163.251051,11.094997,26.90736976596627
1673610163.252058,11.098652,26.907765811120672
1673610163.2530649,11.098123,26.908161762514382
1673610163.254072,11.099277,26.908557807668785
1673610163.255079,11.100767,26.90895385282319
1673610163.2560859,11.039608,26.909349804216898
1673610163.257093,10.984531,26.9097458493713
1673610163.258101,10.979483,26.910142269568464
1673610163.259108,10.992993,26.910538314722864
1673610163.260115,10.986574,26.910934266116577
1673610163.261122,10.968496,26.91133031127098
1673610163.262129,10.983906,26.91172635642538
1673610163.263136,11.016577,26.912122307819093
1673610163.264143,11.088964,26.912518352973496
1673610163.26515,11.130553,26.912914398127896
1673610163.266157,11.101055,26.91331034952161
1673610163.267164,11.117139,26.91370639467601
1673610163.268171,11.115408,26.913141699570815
1673610163.269178,11.102282,26.895992
1673610163.270185,11.066509,26.897186500595947
1673610163.271193,11.019798,26.915419050548405
1673610163.2721999,10.998956,26.93070887052933
1673610163.273207,10.994244,26.91249039055794
1673610163.274214,10.996552,26.894271496781883
1673610163.2752209,10.991912,26.874218826895564
1673610163.276228,11.006985,26.849602265855985
1673610163.277235,11.078746,26.913243439316062
1673610163.2782419,11.12863,26.905971895644047
1673610163.279249,11.135915,26.898698630081512
1673610163.280256,11.121562,26.891425364518977
1673610163.2812629,11.111777,26.88415382084696
1673610163.28227,11.149762,26.876880555284426
1673610163.283278,11.159306,26.869600402159804
1673610163.284285,11.117403,26.86232713659727
1673610163.285292,11.081102,26.855055592925254
1673610163.286299,11.040041,26.84778232736272
1673610163.287306,11.022082,26.840509061800184
1673610163.288313,11.010014,26.83323751812817
1673610163.28932,10.999797,26.825964252565633
1673610163.290327,11.014871,26.818690987003098
1673610163.291334,11.037901,26.811419443331083
1673610163.292341,11.057807,26.804146177768548
1673610163.293348,11.069322,26.796872912206013
1673610163.294355,11.090549,26.789601368533997
1673610163.295362,11.114687,26.782328102971462
1673610163.29637,11.11721,26.77504794984684
1673610163.2973769,11.090429,26.767776406174825
1673610163.298384,11.099253,26.76050314061229
1673610163.299391,11.099421,26.753229875049755
1673610163.3003979,11.08591,26.74595833137774
1673610163.301405,11.088795,26.738685065815204
1673610163.302412,11.101537,26.73141180025267
1673610163.3034189,11.104373,26.724140256580654
1673610163.304426,11.098483,26.71686699101812
1673610163.305433,11.092377,26.709593725455584
1673610163.3064399,11.093651,26.70232218178357
1673610163.307447,11.071245,26.695048916221033
1673610163.308455,11.066773,26.68776876309641
1673610163.309462,11.066196,26.680495497533876
1673610163.310469,11.05723,26.67322395386186
1673610163.311476,11.056628,26.665950688299326
1673610163.312483,11.054489,26.65867742273679
1673610163.31349,11.020856,26.651405879064775
1673610163.314497,10.977776,26.64413261350224
1673610163.315504,10.942604,26.636859347939705
1673610163.316511,10.925584,26.62958780426769
1673610163.317518,10.914092,26.622314538705155
1673610163.318525,10.928036,26.61504127314262
1673610163.319532,10.944695,26.607769729470604
1673610163.320539,10.9615,26.60049646390807
1673610163.321547,11.021482,26.593216310783447
1673610163.3225539,11.105792,26.585944767111435
1673610163.323561,11.166662,26.578671501548897
1673610163.324568,11.188996,26.57139823598636
1673610163.3255749,11.172696,26.56412669231435
1673610163.326582,11.153896,26.55685342675181
1673610163.327589,11.141973,26.549580161189276
1673610163.3285959,11.129496,26.542308617517264
1673610163.329603,11.098363,26.535035351954726
1673610163.33061,11.085766,26.52776208639219
1673610163.3316169,11.104373,26.520490542720175
1673610163.332624,11.105696,26.53774488078207
1673610163.333632,11.09971,26.585092878397713
1673610163.334639,11.090165,26.574149183397683
1673610163.335646,11.088314,26.516098
1673610163.336653,11.085742,26.484063656169663
1673610163.33766,11.069778,26.52949394873629
1673610163.338667,11.073482,26.538386367103694
1673610163.339674,11.081703,26.522373960419646
1673610163.340681,11.050835,26.552277
1673610163.341688,11.052975,26.55133080382038
1673610163.342695,11.083097,26.549272754045553
1673610163.343702,11.089637,26.547214704270722
1673610163.344709,11.06336,26.54515714172359
1673610163.345716,11.037468,26.54309909194876
1673610163.346724,11.039801,26.54103909326316
1673610163.3477309,11.026121,26.538981530716026
1673610163.348738,11.01588,26.536923480941198
1673610163.349745,11.0235,26.53486543116637
1673610163.3507519,11.027155,26.532807868619233
1673610163.351759,11.03706,26.530749818844406
1673610163.352766,11.059345,26.528691769069578
1673610163.3537729,11.020977,26.52663420652244
1673610163.35478,10.938061,26.524576156747614
1673610163.355787,10.919958,26.522518106972786
1673610163.3567939,10.970684,26.52046054442565
1673610163.357801,11.001648,26.51840249465082
1673610163.358809,11.000518,26.516342495965223
1673610163.359816,11.039704,26.514284446190395
1673610163.360823,11.067447,26.512226883643258
1673610163.36183,11.097378,26.51016883386843
1673610163.362837,11.139737,26.508110784093603
1673610163.363844,11.157454,26.506053221546466
1673610163.364851,11.140049,26.50399517177164
1673610163.365858,11.136419,26.50193712199681
1673610163.366865,11.142406,26.499879559449674
1673610163.367872,11.125986,26.497821509674846
1673610163.368879,11.113484,26.49576345990002
1673610163.369886,11.123822,26.493705897352882
1673610163.370893,11.112307,26.491647847578054
1673610163.371901,11.106153,26.489587848892455
1673610163.3729079,11.096055,26.48753028634532
1673610163.373915,11.036314,26.48547223657049
1673610163.374922,10.977055,26.483414186795663
1673610163.3759289,10.961404,26.48135662424853
1673610163.376936,10.965299,26.4792985744737
1673610163.377943,10.987657,26.47724052469887
1673610163.3789499,11.016793,26.475182962151738
1673610163.379957,11.045907,26.47312491237691
1673610163.380964,11.081679,26.47106686260208
1673610163.381971,11.029607,26.469009300054946
1673610163.382978,10.958255,26.46695125028012
1673610163.383986,10.924767,26.46489125159452
1673610163.384993,10.905029,26.462833201819688
1673610163.386,10.91818,26.452492396757272
1673610163.387007,10.952678,26.472119542073898
1673610163.388014,10.996046,26.450064497854076
1673610163.389021,11.036555,26.436726193317423
1673610163.390028,11.085502,26.471677929030722
1673610163.391035,11.130073,26.499854543395326
1673610163.392042,11.13868,26.495893021479713
1673610163.393049,11.147886,26.46969197308883
1673610163.394056,11.154329,26.46183
1673610163.395063,11.152238,26.463910534912362
1673610163.396071,11.136972,26.46753347626717
1673610163.397078,11.129663,26.471152990052108
1673610163.3980849,11.12399,26.474771646944575
1673610163.399092,11.1062,26.47839116072951
1673610163.400099,11.079179,26.490447776824034
1673610163.4011059,11.071726,26.551280669051025
1673610163.402113,11.082544,26.52377646841478
1673610163.40312,11.069418,26.490827347639485
