measure_time,emg_ch_1,grip_force_inter
1673610102.892606,12.266541,0.267326
1673610102.8936129,12.268056,0.33964830930243645
1673610102.89462,12.26582,0.3335758435607686
1673610102.895627,12.266637,0.3275033778191007
1673610102.8966339,12.269858,0.3214323496876937
1673610102.897641,12.266853,0.3153598839460258
1673610102.898649,12.264017,0.3092816677633147
1673610102.899656,12.262046,0.30320920202164686
1673610102.900663,12.263464,0.29713817389023983
1673610102.90167,12.264449,0.29106570814857197
1673610102.902677,12.264449,0.2849932424069041
1673610102.903684,12.263512,0.27892221427549707
1673610102.904691,12.263536,0.2728497485338292
1673610102.905698,12.263777,0.26677728279216134
1673610102.906705,12.263464,0.26070625466075426
1673610102.907712,12.263271,0.25463378891908645
1673610102.908719,12.263464,0.2553242291169451
1673610102.909726,12.264449,0.303504
1673610102.910733,12.26856,0.29894940200286124
1673610102.911741,12.264498,0.2697522572792363
1673610102.9127479,12.265171,0.2879812744396757
1673610102.913755,12.269787000000001,0.30889010383424625
1673610102.914762,12.272263,0.3340764200477327
1673610102.9157689,12.27183,0.3064511270863138
1673610102.916776,12.26719,0.32467255441771853
1673610102.917783,12.267863,0.33956268192612515
1673610102.9187899,12.271037,0.3388341396145079
1673610102.919797,12.271878,0.3381054247851754
1673610102.920804,12.266902,0.33737670995584296
1673610102.9218109,12.263848,0.3366481676442257
1673610102.922818,12.263416,0.3359194528148932
1673610102.923826,12.263175,0.33519004791469964
1673610102.924833,12.262647,0.33446133308536713
1673610102.92584,12.263584,0.3337327907737499
1673610102.926847,12.265171,0.33300407594441744
1673610102.927854,12.262527,0.33227536111508493
1673610102.928861,12.264978,0.3315468188034677
1673610102.929868,12.272672,0.33081810397413525
1673610102.930875,12.269907,0.33008938914480274
1673610102.931882,12.266421,0.3293608468331855
1673610102.932889,12.267239,0.32863213200385305
1673610102.933896,12.269811,0.32790341717452054
1673610102.934903,12.269667,0.3271748748629033
1673610102.93591,12.269474,0.3264461600335708
1673610102.936918,12.271565,0.3257167551333772
1673610102.9379249,12.271878,0.32498821282176
1673610102.938932,12.272984,0.32425949799242754
1673610102.939939,12.267623,0.323530783163095
1673610102.9409459,12.263608,0.3228022408514778
1673610102.941953,12.265267,0.32207352602214534
1673610102.94296,12.266493,0.3279982767325554
1673610102.9439669,12.266662,0.3266702875536481
1673610102.944974,12.265628,0.31015108424821003
1673610102.945981,12.262527,0.29446018645684313
1673610102.9469879,12.261084,0.25613830459633247
1673610102.947995,12.259689,0.2743500579952267
1673610102.949003,12.264738,0.25903260034602077
1673610102.95001,12.262383,0.29046200287935503
1673610102.951017,12.268729,0.22345509674632882
1673610102.952024,12.274714,0.24480422479141833
1673610102.953031,12.27058,0.22658908893657606
1673610102.954038,12.268056,0.2224269799713877
1673610102.955045,12.27498,0.249237
1673610102.956052,12.274426,0.2541754608965188
1673610102.957059,12.274499,0.267326
1673610102.958066,12.265868,0.27770938784266985
1673610102.959073,12.262454,0.2928679785407725
1673610102.96008,12.26844,0.2727690896518836
1673610102.961087,12.280797,0.2798438467222884
1673610102.962095,12.291039,0.2674763794319344
1673610102.9631019,12.294211,0.2679556642176393
1673610102.964109,12.303203,0.2684350624972551
1673610102.965116,12.291543,0.2689144607768708
1673610102.9661229,12.232211,0.26939374556257567
1673610102.96713,12.210719,0.26987314384219147
1673610102.971158,12.256371,0.27179062346674365
1673610102.9721649,12.258535,0.2722699082524485
1673610102.973172,12.257478,0.27274930653206425
1673610102.97418,12.262141,0.2732291587873236
1673610102.975187,12.264738,0.27370855706693936
1673610102.976194,12.263848,0.2741878418526443
1673610102.977201,12.265291,0.27466724013226
1673610102.978208,12.277384,0.2751466384118758
1673610102.979215,12.29313,0.27562592319758067
1673610102.980222,12.289019,0.2761053214771964
1673610102.981229,12.285413,0.2765847197568122
1673610102.982236,12.289259,0.27706400454251706
1673610102.983243,12.288105,0.27754340282213286
1673610102.98425,12.256973,0.2780228011017486
1673610102.985257,12.217258,0.27850208588745345
1673610102.986264,12.220816,0.27898148416706925
1673610102.987272,12.232548,0.27946133642232857
1673610102.9882789,12.236057,0.2799406212080335
1673610102.989286,12.236754,0.2804200194876492
1673610102.990293,12.241611,0.280899417767265
1673610102.9912999,12.240216,0.2813787025529699
1673610102.992307,12.238702,0.28185810083258567
1673610102.993314,12.239784,0.2823374991122014
1673610102.9943209,12.24904,0.28281678389790627
1673610102.995328,12.261108,0.28329618217752206
1673610102.996335,12.261733,0.2837755804571378
1673610102.9973419,12.266229,0.2842548652428427
1673610102.998349,12.276711,0.28473426352245845
1673610102.999357,12.283682,0.2852141157777178
1673610103.000364,12.279643,0.3171724749642346
1673610103.001371,12.267936,0.33969
1673610103.002378,12.264209,0.3288555774916548
1673610103.003385,12.261997,0.321601
1673610103.004392,12.258007,0.321601
1673610103.005399,12.262021,0.33281497234144014
1673610103.006406,12.263584,0.2943115259895088
1673610103.007413,12.264714,0.32467328826895564
1673610103.00842,12.264425,0.29979851918951134
1673610103.009427,12.262141,0.267326
1673610103.010434,12.261324,0.267326
1673610103.011441,12.265532,0.267326
1673610103.012449,12.263824,0.267326
1673610103.0134559,12.263945,0.267326
1673610103.014463,12.265243,0.267326
1673610103.01547,12.266733,0.267326
1673610103.0164769,12.269354,0.267326
1673610103.017484,12.265916,0.267326
1673610103.018491,12.260916,0.267326
1673610103.0194979,12.260796,0.267326
1673610103.020505,12.261204,0.267326
1673610103.021512,12.262383,0.267326
1673610103.0225189,12.255627,0.267326
1673610103.023526,12.254088,0.267326
1673610103.024534,12.264666,0.267326
1673610103.025541,12.280244,0.267326
1673610103.026548,12.291086,0.267326
1673610103.027555,12.298972,0.267326
1673610103.028562,12.305006,0.267326
1673610103.029569,12.304213,0.267326
1673610103.030576,12.258801,0.267326
1673610103.031583,12.190285,0.267326
1673610103.03259,12.214252,0.267326
1673610103.033597,12.241035,0.267326
1673610103.034604,12.250627,0.267326
1673610103.035611,12.253222,0.267326
1673610103.036618,12.251804,0.267326
1673610103.037626,12.249881,0.267326
1673610103.0386329,12.251155,0.267326
1673610103.03964,12.250747,0.267326
1673610103.040647,12.249544,0.267326
1673610103.0416539,12.247261,0.267326
1673610103.042661,12.246779,0.267326
1673610103.043668,12.249376,0.267326
1673610103.0446749,12.250554,0.267326
1673610103.045682,12.248487,0.267326
1673610103.046689,12.248246,0.267326
1673610103.0476959,12.245914,0.267326
1673610103.048703,12.243463,0.267326
1673610103.049711,12.243294,0.267326
1673610103.050718,12.246876,0.267326
1673610103.051725,12.248896,0.267326
1673610103.052732,12.250723,0.267326
1673610103.053739,12.249112,0.267326
1673610103.054746,12.250818,0.267326
1673610103.055753,12.250794,0.26653239580352883
1673610103.05676,12.254809,0.19464226698450537
1673610103.057767,12.260723,0.17732858369098714
1673610103.058774,12.261444,0.19497
1673610103.059781,12.261709,0.19638468574153553
1673610103.060788,12.262623,0.23281244672228843
1673610103.061795,12.255723,0.2663684992846924
1673610103.062803,12.249424,0.249237
1673610103.0638099,12.249544,0.2467791382598331
1673610103.064817,12.245314,0.21311952325407932
1673610103.065824,12.239688,0.21393369594589795
1673610103.0668309,12.239519,0.21474767588849977
1673610103.067838,12.242236,0.21556184858031838
1673610103.068845,12.246179,0.216376021272137
1673610103.0698519,12.245962,0.21719000121473883
1673610103.070859,12.248006,0.21800417390655746
1673610103.071866,12.250723,0.2188183465983761
1673610103.0728729,12.258102,0.2196323265409779
1673610103.07388,12.258079,0.22044649923279652
1673610103.074888,12.256348,0.22126144292148242
1673610103.075895,12.26005,0.22207561561330103
1673610103.076902,12.263945,0.22288959555590285
1673610103.077909,12.263777,0.22370376824772148
1673610103.078916,12.257622,0.2245179409395401
1673610103.079923,12.25291,0.22533192088214193
1673610103.08093,12.246996,0.22614609357396054
1673610103.081937,12.248319,0.22696026626577917
1673610103.082944,12.251444,0.227774246208381
1673610103.083951,12.255386,0.22858841890019962
1673610103.084958,12.261637,0.22940259159201826
1673610103.085965,12.253559,0.23021657153462005
1673610103.086973,12.234519,0.23103151522330595
1673610103.08798,12.239207,0.23184568791512455
1673610103.0889869,12.246828,0.23265966785772638
1673610103.089994,12.248871,0.233473840549545
1673610103.091001,12.250674,0.23428801324136364
1673610103.0920079,12.262815,0.23510199318396546
1673610103.093015,12.278008,0.23591616587578407
1673610103.094022,12.283465,0.2367303385676027
1673610103.0950289,12.283225,0.23754431851020452
1673610103.096036,12.287793,0.23835849120202315
1673610103.097043,12.272311,0.23917266389384179
1673610103.0980499,12.215648,0.23998664383644358
1673610103.099057,12.196031,0.2408008165282622
1673610103.100065,12.219181,0.24161576021694808
1673610103.101072,12.227548,0.24242993290876672
1673610103.102079,12.224783,0.24324391285136854
1673610103.103086,12.226153,0.24405808554318717
1673610103.104093,12.232091,0.2448722582350058
1673610103.1051,12.239832,0.2456862381776076
1673610103.106107,12.24827,0.24650041086942623
1673610103.107114,12.254617,0.24731458356124486
1673610103.108121,12.256516,0.24812856350384668
1673610103.109128,12.258656,0.24894273619566532
1673610103.110135,12.262021,0.24975690888748392
1673610103.111142,12.257214,0.25057088883008577
1673610103.11215,12.24928,0.2513858325187716
1673610103.113157,12.247261,0.2522000052105903
1673610103.1141639,12.24702,0.25301398515319207
1673610103.115171,12.248463,0.25382815784501067
1673610103.116178,12.244905,0.25464233053682933
1673610103.1171849,12.243654,0.2554563104794311
1673610103.118192,12.244568,0.2562704831712498
1673610103.119199,12.250458,0.2570846558630684
1673610103.1202059,12.259353,0.2578986358056702
1673610103.121213,12.26017,0.25871280849748884
1673610103.12222,12.248343,0.25952698118930745
1673610103.123227,12.241299,0.2603409611319093
1673610103.124234,12.24351,0.2611551338237279
1673610103.125242,12.249593,0.2619700775124138
1673610103.126249,12.243871,0.2627842502042324
1673610103.127256,12.24089,0.26359823014683426
1673610103.128263,12.245986,0.26441240283865286
1673610103.12927,12.244015,0.26522657553047146
1673610103.130277,12.244617,0.2660405554730733
1673610103.131284,12.249953,0.2668547281648919
1673610103.132291,12.252742,0.274997115852205
1673610103.133298,12.252237,0.285415
1673610103.134305,12.25404,0.277491897234144
1673610103.135312,12.26029,0.2769449584164056
1673610103.136319,12.279283,0.23799457815173988
1673610103.137327,12.286976,0.2012897649743297
1673610103.138334,12.288923,0.2109620979777841
1673610103.1393409,12.289812,0.28236433836513813
1673610103.140348,12.251035,0.24155459241300625
1673610103.141355,12.199444,0.2914270051267445
1673610103.1423619,12.207305,0.28589648760133524
1673610103.143369,12.227451,0.2793666255369928
1673610103.144376,12.230961,0.2975907861230329
1673610103.145383,12.232091,0.3014539909287527
1673610103.14639,12.233678,0.29841779236039756
1673610103.147397,12.237644,0.2953815937920425
1673610103.148404,12.240121,0.292346114020697
1673610103.149411,12.241299,0.2893099154523419
1673610103.150419,12.24214,0.2862708416959486
1673610103.151426,12.240313,0.2832346431275935
1673610103.152433,12.242957,0.28019916335624795
1673610103.15344,12.247068,0.2771629647878929
1673610103.154447,12.247622,0.2741267662195378
1673610103.155454,12.244664,0.27109128644819225
1673610103.156461,12.249881,0.2680550878798372
1673610103.157468,12.252261,0.2650188893114821
1673610103.158475,12.24916,0.2619834095401366
1673610103.159482,12.248319,0.25894721097178147
1673610103.160489,12.251324,0.2559110124034264
1673610103.161496,12.246058,0.2528755326320809
1673610103.162504,12.24416,0.2498364588756876
1673610103.163511,12.241707,0.2468002603073325
1673610103.1645179,12.237356,0.24376478053598696
1673610103.165525,12.238173,0.2407285819676319
1673610103.166532,12.237043,0.23769238339927679
1673610103.167539,12.236683,0.2346569036279313
1673610103.168546,12.236731,0.2316207050595762
1673610103.169553,12.2425,0.22858450649122108
1673610103.17056,12.246779,0.2255490267198756
1673610103.171567,12.250627,0.2225128281515205
1673610103.172574,12.246539,0.2194766295831654
1673610103.173581,12.252789,0.2164411498118199
1673610103.174588,12.266132,0.2134049512434648
1673610103.175596,12.281278,0.21036587748707147
1673610103.176603,12.287047,0.2073296789187164
1673610103.17761,12.285341,0.20429419914737088
1673610103.178617,12.289091,0.20125800057901577
1673610103.179624,12.259906,0.1982218020106607
1673610103.180631,12.247333,0.19518632223931517
1673610103.181638,12.270315,0.1921501236709601
1673610103.182645,12.277888,0.189113925102605
1673610103.183652,12.190381,0.1860784453312595
1673610103.184659,12.164922,0.1830422467629044
1673610103.185666,12.197857,0.1800060481945493
1673610103.186673,12.213964,0.1769705684232038
1673610103.187681,12.227427,0.21222323839009288
1673610103.188688,12.235529,0.2486590491177873
1673610103.189695,12.240602,0.26717921575179
1673610103.190702,12.248679,0.2853977477348593
1673610103.191709,12.260266,0.21296833914081145
1673610103.192716,12.267334,0.1954358111587983
1673610103.193723,12.276181,0.2318717323172184
1673610103.19473,12.261349,0.2654455030996662
1673610103.195737,12.202041,0.19547954929577466
1673610103.196744,12.183433,0.2110761886099204
1673610103.197751,12.204637,0.22667282792406615
1673610103.198758,12.21858,0.24226577485201062
1673610103.199765,12.227739,0.25786241416615635
1673610103.200773,12.229375,0.267326
1673610103.20178,12.229134,0.27463664735336196
1673610103.202787,12.231754,0.24824523122765196
1673610103.203794,12.230072,0.1954425174642123
1673610103.204801,12.223436,0.1965810877829987
1673610103.205808,12.21834,0.19771938855388774
1673610103.206815,12.211969,0.19885795887267418
1673610103.207822,12.20531,0.19999652919146063
1673610103.208829,12.208315,0.20113482996234963
1673610103.209836,12.2068,0.20227340028113608
1673610103.210843,12.206127,0.20341197059992253
1673610103.21185,12.209709,0.20455027137081153
1673610103.212858,12.219301,0.20568991988118773
1673610103.213865,12.240337,0.20682849019997418
1673610103.214872,12.241299,0.20796679097086318
1673610103.215879,12.247669,0.20910536128964963
1673610103.216886,12.261396,0.21024393160843607
1673610103.217893,12.256276,0.21138223237932507
1673610103.2189,12.254329,0.21252080269811152
1673610103.219907,12.250627,0.21365937301689797
1673610103.220914,12.251804,0.21479767378778697
1673610103.221921,12.256131,0.21593624410657342
1673610103.222928,12.253992,0.21707481442535986
1673610103.223935,12.233798,0.21821311519624886
1673610103.224942,12.232115,0.2193516855150353
1673610103.22595,12.240769,0.22049133402541152
1673610103.226957,12.238847,0.22162990434419796
1673610103.227964,12.23875,0.22276820511508696
1673610103.228971,12.245938,0.2239067754338734
1673610103.229978,12.245698,0.22504534575265986
1673610103.230985,12.245145,0.22618364652354886
1673610103.231992,12.243967,0.2273222168423353
1673610103.232999,12.24238,0.22846078716112175
1673610103.234006,12.236803,0.22959908793201075
1673610103.235013,12.226321,0.2307376582507972
1673610103.23602,12.223196,0.23187622856958365
1673610103.237027,12.2306,0.23301452934047265
1673610103.238035,12.249184,0.23415417785084885
1673610103.239042,12.256276,0.2352927481696353
1673610103.240049,12.256371,0.2364310489405243
1673610103.241056,12.254449,0.23756961925931075
1673610103.242063,12.242188,0.2387081895780972
1673610103.24307,12.202785,0.2398464903489862
1673610103.244077,12.195381,0.24098506066777264
1673610103.245084,12.217066,0.2421236309865591
1673610103.246091,12.230865,0.2432619317574481
1673610103.247098,12.235289,0.24440050207623454
1673610103.248105,12.239304,0.24553907239502099
1673610103.249112,12.234086,0.24667737316590999
1673610103.250119,12.233341,0.24781594348469643
1673610103.251127,12.230985,0.24895559199507267
1673610103.252134,12.228629,0.2766615625744934
1673610103.253141,12.225841,0.285415
1673610103.254148,12.228846,0.2435178741058655
1673610103.255155,12.229302,0.231148
1673610103.256162,12.229206,0.24343930267515923
1673610103.257169,12.22923,0.23391249312277126
1673610103.258176,12.23512,0.267326
1673610103.259183,12.236731,0.2754443948038716
1673610103.26019,12.233125,0.28934979521141113
1673610103.261197,12.23274,0.26288438104941414
1673610103.262204,12.238558,0.26911882346988514
1673610103.263212,12.240938,0.2711450350792608
1673610103.264219,12.234568,0.27316932974293223
1673610103.265226,12.236443,0.2751931451701776
1673610103.266233,12.239424,0.27721743983384906
1673610103.26724,12.238461,0.27924173449752043
1673610103.268247,12.229687,0.2812655499247658
1673610103.269254,12.221369,0.28328984458843726
1673610103.270261,12.223076,0.2853141392521087
1673610103.271268,12.230961,0.2873379546793541
1673610103.272275,12.23536,0.28936224934302546
1673610103.273282,12.245434,0.2913865440066969
1673610103.274289,12.249232,0.2934103594339423
1673610103.275296,12.244544,0.2954346540976137
1673610103.276304,12.252622,0.2974608657069894
1673610103.277311,12.264858,0.2994851603706608
1673610103.278318,12.28938,0.30150897579790614
1673610103.279325,12.299549,0.3035332704615776
1673610103.280332,12.25291,0.305557565125249
1673610103.281339,12.195598,0.3075813805524944
1673610103.282346,12.189202,0.30960567521616583
1673610103.283353,12.164658,0.31162996987983727
1673610103.28436,12.162927,0.3136537853070826
1673610103.285367,12.201199,0.31567807997075403
1673610103.286374,12.231321,0.31770237463442547
1673610103.287381,12.236876,0.31972619006167086
1673610103.288389,12.232115,0.3217524016710465
1673610103.289396,12.234326,0.32377669633471795
1673610103.290403,12.245337,0.3258005117619633
1673610103.29141,12.25416,0.3278248064256347
1673610103.292417,12.246828,0.32984910108930615
1673610103.293424,12.235962,0.33187291651655154
1673610103.294431,12.222619,0.333897211180223
1673610103.295438,12.238101,0.3359215058438944
1673610103.296445,12.245145,0.33794532127113974
1673610103.297452,12.229687,0.3399696159348112
1673610103.298459,12.224446,0.3419939105984826
1673610103.299466,12.222355,0.344017726025728
1673610103.300473,12.212401,0.3460420206893994
1673610103.301481,12.207931,0.3480682322987751
1673610103.302488,12.214854,0.3500925269624465
1673610103.303495,12.221633,0.35211634238969186
1673610103.304502,12.229952,0.3541406370533633
1673610103.305509,12.23738,0.3561649317170347
1673610103.306516,12.23649,0.36146667167381974
1673610103.307523,12.234495,0.3605980572246066
1673610103.31558,12.243126,0.3755523145669658
1673610103.316587,12.263536,0.3743659664627519
1673610103.317594,12.279235,0.373179618358538
1673610103.318601,12.270219,0.3719935511132503
1673610103.319608,12.261853,0.3708072030090364
1673610103.320615,12.260242,0.3696208549048225
1673610103.321622,12.231201,0.3684347876595348
1673610103.322629,12.197112,0.36724843955532094
1673610103.323636,12.194491,0.366062091451107
1673610103.324643,12.203435,0.3648760242058193
1673610103.32565,12.208964,0.3636896761016054
1673610103.326658,12.210335,0.3625022045616868
1673610103.327665,12.218748,0.3613158564574729
1673610103.328672,12.220624,0.3601297892121852
1673610103.329679,12.217162,0.3589434411079713
1673610103.330686,12.220287,0.3577570930037574
1673610103.331693,12.227475,0.3565710257584697
1673610103.3327,12.233605,0.3553846776542558
1673610103.3337069,12.233605,0.3541986104089681
1673610103.334714,12.23738,0.3530122623047542
1673610103.335721,12.233726,0.3518259142005403
1673610103.3367279,12.234735,0.35063984695525263
1673610103.337735,12.235817,0.3494534988510387
1673610103.338743,12.249881,0.34826602731112005
1673610103.33975,12.290678,0.3470796792069062
1673610103.340757,12.316473,0.3458936119616185
1673610103.341764,12.353208,0.3447072638574046
1673610103.342771,12.378017,0.34352091575319066
1673610103.343778,12.338494,0.34233484850790297
1673610103.344785,12.218628,0.3411485004036891
1673610103.345792,12.145905,0.3399621522994752
1673610103.346799,12.188625,0.3256552823080591
1673610103.347806,12.190141,0.36409332904148783
1673610103.348813,12.192569,0.375868
1673610103.34982,12.194948,0.31825949880895665
1673610103.350827,12.179394,0.3616715303102625
1673610103.351835,12.178673,0.3464873924654268
1673610103.352842,12.198962999999999,0.3100511213349225
1673610103.353849,12.220143,0.31845106914639965
1673610103.354856,12.2256,0.3366708536003815
1673610103.3558629,12.234086,0.33969
1673610103.35687,12.252982,0.33969
1673610103.357877,12.25053,0.33969
1673610103.3588839,12.227739,0.33969
1673610103.359891,12.204781,0.33969
1673610103.360898,12.192352,0.33969
1673610103.3619049,12.18889,0.33969
1673610103.362912,12.184155,0.33969
1673610103.36392,12.187327,0.33969
1673610103.364927,12.200069,0.33969
1673610103.365934,12.196703,0.33969
1673610103.366941,12.19805,0.33969
1673610103.367948,12.206103,0.33969
1673610103.368955,12.21846,0.33969
1673610103.369962,12.23387,0.33969
1673610103.370969,12.251732,0.33969
1673610103.371976,12.26332,0.33969
1673610103.372983,12.26231,0.4090814378275369
1673610103.37399,12.275364,0.39455277136038186
1673610103.374997,12.266613,0.3587192484501669
1673610103.376004,12.261373,0.41101111084624553
1673610103.377012,12.258801,0.37626480209823554
1673610103.3780189,12.258344,0.46595535288507395
1673610103.379026,12.25416,0.43008324320457797
1673610103.380033,12.253439,0.41168370243204583
1673610103.3810399,12.261349,0.376188553051911
1673610103.382047,12.267671,0.3952592022247575
1673610103.383054,12.26832,0.4143298513976041
1673610103.3840609,12.267118,0.43339598573873356
1673610103.385068,12.26618,0.4524666349115801
1673610103.386075,12.248655,0.47153728408442663
1673610103.3870819,12.195621,0.49060341842555616
1673610103.388089,12.189011,0.495646537672866
1673610103.389097,12.215768,0.4703974214797136
1673610103.390104,12.226418,0.4553712407716123
1673610103.391111,12.228773,0.43731733500238434
1673610103.392118,12.220191,0.43828088377088303
1673610103.393125,12.207088,0.5175382586946164
1673610103.394132,12.208699,0.538678
1673610103.395139,12.212401,0.5154003812589414
1673610103.396146,12.221658,0.5317465143061516
1673610103.397153,12.22233,0.595458198274449
1673610103.39816,12.227523,0.6011512733612481
1673610103.399167,12.234495,0.6068443484480472
1673610103.400174,12.231947,0.6125360757424488
1673610103.401181,12.227788,0.6182291508292479
1673610103.402189,12.224951,0.6239276170856368
1673610103.4031959,12.21947,0.6296193443800384
1673610103.404203,12.217931,0.6353124194668375
1673610103.40521,12.222907,0.6410054945536366
1673610103.4062169,12.25392,0.6466972218480382
1673610103.407224,12.306353,0.6523902969348373
1673610103.408231,12.324263,0.6580833720216365
1673610103.4092379,12.335778,0.6637750993160381
1673610103.410245,12.328325,0.6694681744028371
1673610103.411252,12.270267,0.6751612494896362
1673610103.4122589,12.190958,0.6808529767840379
1673610103.413266,12.215142,0.686546051870837
1673610103.414274,12.207665,0.6922445181272259
1673610103.415281,12.196655,0.6979375932140249
1673610103.416288,12.210455,0.7036293205084265
1673610103.417295,12.196992,0.7093223955952257
1673610103.418302,12.222018,0.7150154706820248
1673610103.419309,12.225264,0.7207071979764264
1673610103.420316,12.193049,0.7264002730632255
1673610103.421323,12.195021,0.7320933481500246
1673610103.42233,12.197953,0.7377850754444262
1673610103.423337,12.198747,0.7434781505312253
1673610103.424344,12.208964,0.7491712256180244
1673610103.425351,12.21834,0.754862952912426
1673610103.426358,12.221874,0.7605560279992252
1673610103.427366,12.228269,0.766254494255614
1673610103.4283729,12.232091,0.7719462215500157
1673610103.42938,12.23113,0.7980914325226515
1673610103.430387,12.229663,0.7977838116805721
1673610103.4313939,12.230961,0.7795711258941345
1673610103.432401,12.23536,0.827271078125
1673610103.433408,12.233438,0.81003
1673610103.4344149,12.231971,0.8641322688
1673610103.435422,12.233197,0.9354425168539325
1673610103.436429,12.235,0.9175447221777422
1673610103.4374359,12.231538,0.8975897599999999
1673610103.438443,12.231707,0.871339092257783
1673610103.439451,12.226538,0.8810124540228795
1673610103.440458,12.216345,0.8906766640739124
1673610103.441465,12.216345,0.9003385861964296
1673610103.442472,12.226008,0.9100027962474626
1673610103.443479,12.229663,0.9196670062984956
1673610103.444486,12.225888,0.9293289284210127
1673610103.445493,12.222547,0.9389931384720457
1673610103.4465,12.218628,0.9486573485230787
1673610103.447507,12.223269,0.9583192706455957
1673610103.448514,12.227715,0.9679834806966288
1673610103.449521,12.230793,0.9776476907476618
1673610103.450528,12.231441,0.9873096128701789
1673610103.451535,12.228341,0.996973822921212
1673610103.452543,12.228196,1.0066471846863083
1673610103.4535499,12.233293,1.0163091068088255
1673610103.454557,12.235168,1.0259733168598584
1673610103.455564,12.238053,1.0356375269108915
1673610103.4565709,12.234351,1.0452994490334087
1673610103.457578,12.228245,1.0549636590844416
1673610103.458585,12.227475,1.0646278691354745
1673610103.4595919,12.216345,1.0742897912579916
1673610103.460599,12.209156,1.0839540013090248
1673610103.461606,12.212401,1.0936182113600577
1673610103.4626129,12.211464,1.1032801334825748
1673610103.46362,12.201078,1.1129443435336077
1673610103.464628,12.201776,1.1226177052987043
1673610103.465635,12.197833,1.1322819153497372
1673610103.466642,12.200622,1.1419438374722544
1673610103.467649,12.208675,1.1516080475232873
1673610103.468656,12.221393,1.1612722575743204
1673610103.469663,12.233702,1.1709341796968373
1673610103.47067,12.23536,1.1805983897478705
1673610103.471677,12.224951,1.1902625997989034
1673610103.472684,12.22572,1.1999245219214205
1673610103.473691,12.234856,1.2095887319724534
1673610103.474698,12.251275,1.2192529420234866
1673610103.475705,12.271998,1.226103
1673610103.476712,12.257093,1.2098254878397712
1673610103.47772,12.24214,1.1829809632808774
1673610103.4787269,12.237837,1.2251029220500596
1673610103.479734,12.242309,1.2681046394849784
1673610103.480741,12.268873,1.2744189685264662
1673610103.4817479,12.301255,1.2440546789034563
1673610103.482755,12.319021,1.2204183786361469
1673610103.483762,12.304934,1.2378604186933715
1673610103.4847689,12.257982,1.2196463397711015
1673610103.485776,12.199853,1.2145984822407627
1673610103.486783,12.178265,1.226103
1673610103.4877899,12.18401,1.2124305798760133
1673610103.488797,12.197112,1.2108168247914182
1673610103.489805,12.129126,1.2370840667620409
1673610103.490812,12.109941,1.2043910243204579
1673610103.491819,12.142059,1.2012785964243147
1673610103.492826,12.169898,1.2459731815384616
1673610103.493833,12.192424,1.2503071163417228
1673610103.49484,12.20781,1.2546400251187522
1673610103.495847,12.223389,1.2589739599220133
1673610103.496854,12.244977,1.2633078947252747
1673610103.497861,12.250627,1.2676408035023041
1673610103.498868,12.251371,1.2719747383055653
1673610103.499875,12.247381,1.2763086731088267
1673610103.500882,12.240769,1.280641581885856
1673610103.501889,12.233678,1.2849755166891172
1673610103.502897,12.233438,1.2893135555973059
1673610103.5039039,12.241515,1.2936464643743353
1673610103.504911,12.247068,1.2979803991775967
1673610103.505918,12.245337,1.3023143339808578
1673610103.5069249,12.207113,1.3066472427578872
1673610103.507932,12.221225,1.3109811775611484
1673610103.508939,12.246659,1.3153151123644098
1673610103.5099459,12.23726,1.3196480211414392
1673610103.510953,12.229062,1.3239819559447004
1673610103.51196,12.23661,1.3283158907479617
1673610103.5129669,12.240169,1.3326487995249912
1673610103.513974,12.218893,1.3369827343282523
1673610103.514982,12.19978,1.341320773236441
1673610103.515989,12.202185,1.345654708039702
1673610103.516996,12.20769,1.3499876168167315
1673610103.518003,12.229711,1.354321551619993
1673610103.51901,12.249784,1.358655486423254
1673610103.520017,12.232115,1.3629883952002835
1673610103.521024,12.219734,1.3673223300035449
1673610103.522031,12.223966,1.371656264806806
1673610103.523038,12.220672,1.3759891735838354
1673610103.524045,12.213892,1.3803231083870968
1673610103.525052,12.222547,1.384657043190358
1673610103.526059,12.232451,1.3889899519673874
1673610103.527066,12.227187,1.3933238867706486
1673610103.528074,12.22411,1.3976619256788372
1673610103.5290809,12.228485,1.4019948344558666
1673610103.530088,12.232788,1.406328769259128
1673610103.531095,12.236923,1.4106627040623891
1673610103.5321019,12.239639,1.4149956128394185
1673610103.533109,12.238774,1.41932954764268
1673610103.534116,12.209973,1.423663482445941
1673610103.5351229,12.21007,1.4279963912229705
1673610103.53613,12.221513,1.4323303260262317
1673610103.537137,12.217379,1.436664260829493
1673610103.5381439,12.211296,1.4409971696065225
1673610103.539151,12.213844,1.4453311044097836
1673610103.540159,12.214734,1.4496691433179723
1673610103.541166,12.218653,1.4540030781212336
1673610103.542173,12.226465,1.458335986898263
1673610103.54318,12.222235,1.4626699217015242
1673610103.544187,12.221729,1.4670038565047854
1673610103.545194,12.228509,1.471336765281815
1673610103.546201,12.228365,1.4756707000850762
1673610103.547208,12.240625,1.4800046348883373
1673610103.548215,12.247068,1.484337543665367
1673610103.549222,12.2325,1.4886714784686281
1673610103.550229,12.20329,1.4930054132718893
1673610103.551236,12.166244,1.4973383220489187
1673610103.552243,12.173985,1.50167225685218
1673610103.553251,12.206968,1.5060102957603685
1673610103.5542579,12.23149,1.5103432045373981
1673610103.555265,12.230937,1.5146771393406593
1673610103.556272,12.228581,1.5190110741439207
1673610103.5572789,12.234735,1.52334398292095
1673610103.558286,12.239568,1.5276779177242112
1673610103.559293,12.233678,1.5320118525274724
1673610103.5602999,12.21346,1.533634
1673610103.561307,12.216345,1.5682043933253873
1673610103.562314,12.253559,1.5995585920362423
1673610103.5633209,12.292385,1.605998
1673610103.564328,12.31294,1.5702890607866506
1673610103.565336,12.319214,1.5878675100143063
1673610103.566343,12.268537,1.605998
1673610103.56735,12.220504,1.605998
1673610103.568357,12.164537,1.605998
1673610103.569364,12.158142,1.6118582634493976
1673610103.570371,12.203916,1.6203597723971153
1673610103.571378,12.191727,1.6288632944892676
1673610103.572385,12.179202,1.6373668165814197
1673610103.573392,12.181918,1.6458683255291373
1673610103.574399,12.183265,1.6543718476212896
1673610103.575406,12.193386,1.662875369713442
1673610103.576413,12.215095,1.6713768786611596
1673610103.57742,12.222739,1.679880400753312
1673610103.578428,12.217066,1.6883919754232029
1673610103.5794349,12.205237,1.6968934843709205
1673610103.580442,12.20168,1.7053970064630728
1673610103.581449,12.207281,1.7139005285552251
1673610103.5824559,12.2181,1.7224020375029427
1673610103.583463,12.227692,1.7309055595950948
1673610103.58447,12.214902,1.7394090816872472
1673610103.5854769,12.212041,1.7479105906349648
1673610103.586484,12.21834,1.7564141127271171
1673610103.587491,12.2256,1.7649176348192694
1673610103.5884979,12.225913,1.773419143766987
1673610103.589505,12.210936,1.7819226658591392
1673610103.590513,12.186246,1.7904342405290303
1673610103.59152,12.170739,1.7989377626211827
1673610103.592527,12.178986,1.8074392715689003
1673610103.593534,12.199733,1.8159427936610526
1673610103.594541,12.201151,1.8244463157532047
1673610103.595548,12.191943,1.8329478247009223
1673610103.596555,12.192016,1.8414513467930747
1673610103.597562,12.199973,1.849954868885227
1673610103.598569,12.217282,1.8584563778329446
1673610103.599576,12.22923,1.8669598999250967
1673610103.600583,12.222571,1.875463422017249
1673610103.60159,12.20632,1.8839649309649666
1673610103.602598,12.205983,1.8924765056348578
1673610103.603605,12.198627,1.9009800277270101
1673610103.6046119,12.184731,1.9094815366747278
1673610103.605619,12.171124,1.91798505876688
1673610103.606626,12.163071,1.9264885808590322
1673610103.61569,12.308588,2.0030222928328376
1673610103.616697,12.26808,2.01152581492499
1673610103.617704,12.177903,2.020027323872707
1673610103.618711,12.158671,2.02853084596486
1673610103.619718,12.158311,2.0370343680570118
1673610103.620725,12.182519,2.0455358770047294
1673610103.621732,12.216537,2.0540393990968817
1673610103.622739,12.23613,2.062542921189034
1673610103.623746,12.228269,2.0710444301367517
1673610103.624753,12.224927,2.069463592274678
1673610103.62576,12.229807,2.0722548870083433
1673610103.626767,12.222018,2.1015531855030996
1673610103.627775,12.197617,2.163965358729266
1673610103.628782,12.184779,2.1655206336800674
1673610103.6297889,12.1993,2.1391355601799775
1673610103.630796,12.211824,2.148703
1673610103.631803,12.219037,2.1409240831942786
1673610103.6328099,12.221898,2.1464170748688605
1673610103.633817,12.222426,2.1795788468538744
1673610103.634824,12.209445,2.2085861729069163
1673610103.6358309,12.197737,2.237586631695268
1673610103.636838,12.194491,2.26659395774831
1673610103.637845,12.198434,2.295601283801352
1673610103.638852,12.196295,2.3246017425897034
1673610103.639859,12.19252,2.3536090686427458
1673610103.640867,12.199251,2.3826438637545504
1673610103.641874,12.210695,2.4116511898075923
1673610103.642881,12.22334,2.440651648595944
1673610103.643888,12.24214,2.469658974648986
1673610103.644895,12.246035,2.498666300702028
1673610103.645902,12.233846,2.5276667594903794
1673610103.646909,12.211657,2.556674085543422
1673610103.647916,12.210719,2.5856814115964637
1673610103.648923,12.226658,2.6146818703848154
1673610103.64993,12.244832,2.6436891964378573
1673610103.650937,12.225817,2.6726965224908996
1673610103.651944,12.197208,2.7016969812792513
1673610103.652952,12.195165,2.7307317763910555
1673610103.653959,12.194901,2.759739102444098
1673610103.6549659,12.18865,2.7887395612324495
1673610103.655973,12.196823,2.8177468872854914
1673610103.65698,12.209709,2.8467542133385337
1673610103.6579869,12.215022,2.875754672126885
1673610103.658994,12.227764,2.904761998179927
1673610103.660001,12.225336,2.933769324232969
1673610103.661008,12.217137,2.962769783021321
1673610103.662015,12.214157,2.991777109074363
1673610103.663022,12.215046,3.020784435127405
1673610103.664029,12.204949,3.0497848939157564
1673610103.665036,12.194948,3.0787922199687987
1673610103.666044,12.195141,3.1078270150806033
1673610103.667051,12.198194,3.1368343411336452
1673610103.668058,12.186847,3.165834799921997
1673610103.669065,12.187135,3.194842125975039
1673610103.670072,12.198073,3.223849452028081
1673610103.671079,12.213003,3.2528499108164324
1673610103.672086,12.225864,3.2818572368694747
1673610103.673093,12.222763,3.310864562922517
1673610103.6741,12.217931,3.3398650217108683
1673610103.675107,12.220864,3.3688723477639106
1673610103.676114,12.225648,3.3978796738169526
1673610103.677121,12.237573,3.426880132605304
1673610103.678129,12.240169,3.4559149277171084
1673610103.679136,12.208555,3.4849222537701507
1673610103.6801429,12.169465,3.5207245992848626
1673610103.68115,12.159128,3.523554
1673610103.682157,12.156363,3.557420196471149
1673610103.683164,12.162374,3.6108943325387366
1673610103.684171,12.183241,3.6655573175965666
1673610103.685178,12.201728,3.650953738197425
1673610103.686185,12.195212,3.6850611299475444
1673610103.687192,12.177279,3.7390527940405245
1673610103.688199,12.174273,3.7229388020982355
1673610103.689206,12.188457,3.7583017999478945
1673610103.690213,12.201078,3.7948666498583057
1673610103.691221,12.192039,3.831466125573556
1673610103.692228,12.159777,3.868030975483967
1673610103.693235,12.148093,3.9045871689431677
1673610103.694242,12.158359,3.941152018853579
1673610103.695249,12.166989,3.9777168687639897
1673610103.696256,12.145161,4.014273062223191
1673610103.697263,12.121481,4.050837912133602
1673610103.69827,12.084025,4.087402762044013
1673610103.699277,12.089362,4.1239589555032135
1673610103.700284,12.138765,4.160523805413625
1673610103.701291,12.213051,4.197088655324036
1673610103.702298,12.281879,4.2336448487832365
1673610103.703306,12.262718,4.270244324498488
1673610103.704313,12.17449,4.306809174408898
1673610103.70532,12.171581,4.343365367868099
1673610103.706327,12.214301,4.37993021777851
1673610103.707334,12.219542,4.416495067688921
1673610103.708341,12.220864,4.453051261148122
1673610103.709348,12.224734,4.489616111058533
1673610103.710355,12.222547,4.526180960968944
1673610103.711362,12.226369,4.562737154428145
1673610103.712369,12.221538,4.599302004338556
1673610103.713376,12.21144,4.635866854248967
1673610103.714383,12.1943,4.672423047708168
1673610103.71539,12.156964,4.708987897618579
1673610103.716398,12.096502,4.745587373333829
1673610103.717405,12.038829,4.782152223244241
1673610103.718412,12.002672,4.8187084167034415
1673610103.719419,11.980578,4.855273266613852
1673610103.720426,11.952668,4.891838116524263
1673610103.721433,11.942739,4.928394309983465
1673610103.72244,11.966924,4.964959159893875
1673610103.723447,12.006735,5.001524009804286
1673610103.724454,12.068711,5.038080203263488
1673610103.725461,12.148574,5.0746450531738985
1673610103.726468,12.203819,5.111209903084309
1673610103.727475,12.25505,5.14776609654351
1673610103.728483,12.316233,5.184365572258761
1673610103.72949,12.314959,5.220930422169172
1673610103.730497,12.261806,5.257486615628373
1673610103.731504,12.233726,5.294051465538784
1673610103.732511,12.249713,5.330616315449195
1673610103.733518,12.265026,5.325964369098712
1673610103.734525,12.244568,5.338168345411204
1673610103.735532,12.233991,5.403801602765856
1673610103.736539,12.234615,5.4402297606103955
1673610103.737546,12.241803,5.502875292967819
1673610103.738553,12.251011,5.549644
1673610103.73956,12.238991,5.549644
1673610103.740567,12.229952,5.576990945887962
1673610103.741575,12.222426,5.6224354020028615
1673610103.742582,12.223869,5.660984328248132
1673610103.743589,12.222355,5.701502099121749
1673610103.744596,12.216369,5.742029464542102
1673610103.745603,12.215503,5.782556829962456
1673610103.74661,12.212401,5.8230746008360725
1673610103.747617,12.209902,5.863601966256426
1673610103.748624,12.198699,5.90412933167678
1673610103.749631,12.189107,5.944647102550396
1673610103.750638,12.177952,5.98517446797075
1673610103.751645,12.162397,6.025701833391103
1673610103.752652,12.156748,6.06621960426472
1673610103.75366,12.157445,6.106785347872025
1673610103.754667,12.16372,6.147312713292379
1673610103.755674,12.189275,6.187830484165995
1673610103.756681,12.201223,6.228357849586349
1673610103.757688,12.191583,6.268885215006703
1673610103.758695,12.186847,6.309402985880319
1673610103.759702,12.175981,6.349930351300673
1673610103.760709,12.168287,6.390457716721027
1673610103.761716,12.176148,6.430975487594643
1673610103.762723,12.177326,6.4715028530149965
1673610103.76373,12.177399,6.512030218435351
1673610103.764737,12.189227,6.552547989308967
1673610103.765744,12.199804,6.59307535472932
1673610103.766752,12.198386,6.633641098336626
1673610103.767759,12.192449,6.674168463756979
1673610103.768766,12.186703,6.714686234630596
1673610103.769773,12.196511,6.75521360005095
1673610103.77078,12.211247,6.795740965471303
1673610103.771787,12.216513,6.836258736344919
1673610103.772794,12.212161,6.876786101765274
1673610103.773801,12.205526,6.917313467185627
1673610103.774808,12.191486,6.957831238059244
1673610103.775815,12.161196,6.9983586034795975
1673610103.776822,12.157205,7.038885968899951
1673610103.777829,12.160499,7.079403739773568
1673610103.778837,12.151988,7.119969483380872
1673610103.779844,12.154945,7.160496848801227
1673610103.780851,12.171701,7.201014619674842
1673610103.781858,12.173553,7.241541985095196
1673610103.782865,12.172855,7.28206935051555
1673610103.783872,12.173047,7.322587121389167
1673610103.784879,12.154464,7.36311448680952
1673610103.785886,12.146915,7.403641852229875
1673610103.786893,12.160354,7.44415962310349
1673610103.7879,12.168167,7.484686988523844
1673610103.788907,12.168648,7.5252143539441985
1673610103.789914,12.169585,7.565732124817814
1673610103.790921,12.187568,7.606259490238168
1673610103.791929,12.222426,7.6468252338454725
1673610103.798978,12.145208,7.930497602694475
1673610103.799985,12.111551,7.9525874563662375
1673610103.800992,12.14855,8.001168592274679
1673610103.801999,12.172615,8.071117693444577
1673610103.803006,12.160955,8.066832161897949
1673610103.804014,12.153983,8.095319964711493
1673610103.805021,12.154656,8.163171442536957
1673610103.806028,12.145137,8.15688869487485
1673610103.807035,12.116865,8.186533064377683
1673610103.808042,12.113138,8.206886424177396
1673610103.809049,12.097152,8.25665410352523
1673610103.810056,12.105253,8.31033880956317
1673610103.811063,12.142083,8.364023515601108
1673610103.81207,12.180909,8.417695512191594
1673610103.813077,12.198073,8.471380218229532
1673610103.814084,12.220816,8.525064924267472
1673610103.815091,12.260843,8.578736920857958
1673610103.816098,12.253078,8.632421626895896
1673610103.817106,12.195669,8.686157170723643
1673610103.818113,12.199636,8.73984187676158
1673610103.81912,12.239279,8.793513873352069
1673610103.820127,12.237885,8.84761664123957
1673610103.821134,12.204108,8.886241677157845
1673610103.822141,12.188578,8.904455756080115
1673610103.823148,12.182495,8.964019002145923
1673610103.824155,12.183962,8.989362669845054
1673610103.825162,12.186679,9.00169807367668
1673610103.826169,12.197833,9.07642239580353
1673610103.8271759,12.215503,9.121620935637663
1673610103.828183,12.209229,9.140682636146877
1673610103.829191,12.119942,9.152972443668478
1673610103.830198,12.088954,9.19624063348996
1673610103.831205,12.130544,9.239498579895294
1673610103.832212,12.165546,9.282766769716778
1673610103.833219,12.185043,9.32603495953826
1673610103.834226,12.206536,9.369292905943594
1673610103.835233,12.215936,9.412561095765078
1673610103.83624,12.189178,9.45582928558656
1673610103.837247,12.145041,9.499087231991894
1673610103.838254,12.077967,9.542355421813378
1673610103.839261,12.043854,9.58562361163486
1673610103.840268,12.027218,9.628881558040193
1673610103.841275,12.029069,9.672149747861678
1673610103.842283,12.057749,9.715458911347763
1673610103.84329,12.076669,9.758727101169248
1673610103.844297,12.113355,9.8019850475745809
1673610103.845304,12.157782,9.845253237396065
1673610103.846311,12.186727,9.888521427217547
1673610103.847318,12.209156,9.93177937362288
1673610103.848325,12.19442,9.975047563444363
1673610103.8493319,12.173673,10.018305509849696
1673610103.850339,12.136434,10.06157369967118
1673610103.851346,12.086237,10.104841889492665
1673610103.8523529,12.082102,10.148099835897996
1673610103.85336,12.058542,10.223128246245532
1673610103.854368,12.024164,10.277568267286599
1673610103.855375,12.01099,10.326379561516452
1673610103.856382,12.026015,10.368528060085836
1673610103.857389,12.080636,10.4428389363528
1673610103.858396,12.168407,10.508422851454458
1673610103.859403,12.232837,10.511546488316643
1673610103.86041,12.253295,10.545355791656736
1673610103.861417,12.266829,10.626282242489271
1673610103.862424,12.277191,10.648304782250868
1673610103.863431,12.322868,10.64451470034705
1673610103.864438,12.325801,10.640724618443233
1673610103.865445,12.298756,10.636935433812594
1673610103.866452,12.279932,10.633145351908777
1673610103.86746,12.2563,10.719796527532777
1673610103.868467,12.234856,10.723419
1673610103.869474,12.236419,10.776275627324749
1673610103.870481,12.227644,10.75994196305125
1673610103.8714879,12.191174,10.795343957796852
1673610103.872495,12.124846,10.838529252365554
1673610103.873502,12.074097,10.881796912560162
1673610103.8745089,12.042243,10.925054329464006
1673610103.875516,12.03556,10.968321989658614
1673610103.876523,12.038517,11.011589649853223
1673610103.8775299,12.059239,11.054847066757066
1673610103.878537,12.086597,11.098114726951675
1673610103.879545,12.118403,11.141423360309346
1673610103.880552,12.179586,11.184691020503955
1673610103.881559,12.211127,11.227948437407798
1673610103.882566,12.258271,11.271216097602407
1673610103.883573,12.322483,11.314483757797015
1673610103.88458,12.297673,11.357741174700859
1673610103.885587,12.256564,11.401008834895467
1673610103.886594,12.257165,11.444276495090076
1673610103.887601,12.246419,11.494158820047732
1673610103.888608,12.230072,11.601589945688422
1673610103.889615,12.210912,11.682197
1673610103.890622,12.197617,11.688808930615165
1673610103.891629,12.201439,11.743465138531235
1673610103.892637,12.209252,11.795697980929678
1673610103.8936439,12.204156,11.829518778969957
1673610103.894651,12.193073,11.847737020028612
1673610103.895658,12.195789,11.877390828843861
1673610103.8966649,12.207257,11.962631837261581
1673610103.897672,12.201464,12.018154130449592
1673610103.898679,12.197425,12.073676423637602
1673610103.8996859,12.211272,12.129185572343324
1673610103.900693,12.220071,12.184707865531335
1673610103.9017,12.215648,12.240230158719346
1673610103.9027069,12.186799,12.295739307425068
1673610103.903714,12.168336,12.351261600613078
1673610103.904722,12.146315,12.406836471730246
1673610103.905729,12.139415,12.462358764918257
1673610103.906736,12.15783,12.517867913623979
1673610103.907743,12.1736,12.57339020681199
1673610103.90875,12.189828,12.6289125
1673610103.909757,12.190886,12.684421648705722
1673610103.910764,12.204493,12.739943941893733
1673610103.911771,12.230961,12.795466235081744
1673610103.912778,12.227139,12.850975383787466
1673610103.913785,12.198939,12.906497676975476
1673610103.914792,12.207521,12.962019970163487
1673610103.915799,12.220215,13.01752911886921
1673610103.916806,12.217017,13.07305141205722
1673610103.917814,12.216969,13.139719053648069
1673610103.9188209,12.195429,13.224984013349225
1673610103.919828,12.165379,13.303779281354316
1673610103.920835,12.15569,13.370643978520286
1673610103.9218419,12.165282,13.591463155807366
1673610103.922849,12.146651,13.687494068117314
1673610103.923856,12.106238,13.710549404446546
1673610103.9248629,12.097055,13.782808743614002
1673610103.92587,12.081237,13.852086350047303
1673610103.926877,12.0665,13.897540863765373
1673610103.9278839,12.062437,14.043307776824035
1673610103.928891,12.034622,14.003862197424892
1673610103.929899,12.054913,14.062500164043874
1673610103.930906,12.082271,14.135359009296781
1673610103.931913,12.095517,14.175339906533141
1673610103.93292,12.146579,14.244919202670483
1673610103.933927,12.220215,14.293994433430885
1673610103.934934,12.251708,14.340895072991483
1673610103.935941,12.205598,14.387806818552448
1673610103.936948,12.139559,14.434718564113416
1673610103.937955,12.121168,14.481619203674011
1673610103.938962,12.026352,14.528530949234979
1673610103.939969,11.979857,14.575442694795944
1673610103.941983,12.026328,14.669255079917507
1673610103.942991,12.100084,14.716211249479953
1673610103.9439979,12.12362,14.763111889040548
1673610103.945005,12.141579,14.810023634601515
1673610103.946012,12.167446,14.856935380162481
1673610103.9470189,12.197953,14.903836019723078
1673610103.948026,12.234326,14.950747765284044
1673610103.949033,12.239928,14.997659510845011
1673610103.9500399,12.212498,15.044560150405607
1673610103.951047,12.183241,15.091471895966574
1673610103.952054,12.15783,15.13838364152754
1673610103.9530609,12.09994,15.185284281088137
1673610103.954068,12.047412,15.232196026649103
1673610103.955076,12.033901,15.279152196211548
1673610103.956083,12.055177,15.326063941772514
1673610103.95709,12.07162,15.372964581333111
1673610103.958097,12.105277,15.419876326894077
1673610103.959104,12.140039,15.466788072455044
1673610103.960111,12.171966,15.51368871201564
1673610103.961118,12.202762,15.560600457576607
1673610103.962125,12.194852,15.607512203137572
1673610103.963132,12.204949,15.65441284269817
1673610103.964139,12.234015,15.701324588259135
1673610103.965146,12.245794,15.748236333820103
1673610103.966153,12.239448,15.795136973380698
1673610103.96716,12.218604,15.842048718941665
1673610103.968168,12.215695,15.88900488850411
1673610103.9691749,12.219518,15.935905528064707
1673610103.970182,12.208051,15.982817273625672
1673610103.971189,12.197857,16.02972901918664
1673610103.9721959,12.199131,16.076629658747237
1673610103.973203,12.196992,16.114279
1673610103.97421,12.19002,16.110550862660943
1673610103.9752169,12.181125,16.1038868397711
1673610103.976224,12.182207,16.14430825363528
1673610103.977231,12.185909,16.1948483051979
1673610103.9782379,12.183745,16.23551022532189
1673610103.979245,12.176534,16.28144947056019
1673610103.980253,12.175307,16.29968159227468
1673610103.98126,12.177639,16.31789923319027
1673610103.982267,12.178168,16.33308680486641
1673610103.983274,12.178673,16.33971501860687
1673610103.984281,12.171172,16.346343232347326
1673610103.985288,12.169249,16.352969876908396
1673610103.986295,12.170571,16.359598090648856
1673610103.987302,12.171556,16.366226304389315
1673610103.988309,12.162854,16.382154960190704
1673610103.989316,12.163118,16.41511612112542
1673610103.990323,12.172302,16.42181
1673610103.99133,12.182207,16.406817043384983
1673610103.992337,12.188698,16.47932821602289
1673610103.993345,12.199901,16.524710793991414
1673610103.9943519,12.204997,16.545741962574493
1673610103.995359,12.192857,16.545619513240386
1673610103.996366,12.165883,16.54230712856206
1673610103.9973729,12.14367,16.53899552806572
1673610103.99838,12.104749,16.535683143387395
1673610103.999387,12.090324,16.53237075870907
1673610104.0003939,12.115302,16.529059158212725
1673610104.001401,12.117923,16.5257467735344
1673610104.002408,12.121937,16.522434388856077
1673610104.0034149,12.134366,16.51912278835973
1673610104.004422,12.135713,16.515810403681407
1673610104.00543,12.166845,16.512494882275167
1673610104.006437,12.184491,16.509182497596846
1673610104.007444,12.175355,16.5058708971005
1673610104.008451,12.165138,16.502558512422176
1673610104.009458,12.151844,16.499246127743852
1673610104.010465,12.145905,16.495934527247506
1673610104.011472,12.129029,16.492622142569182
1673610104.012479,12.096022,16.489309757890858
1673610104.013486,12.073977,16.485998157394512
1673610104.014493,12.063447,16.48268577271619
1673610104.0155,12.089242,16.479373388037867
1673610104.016507,12.147492,16.47606178754152
1673610104.017514,12.168095,16.472749402863197
1673610104.018522,12.113042,16.469433881456958
1673610104.0195289,12.080107,16.46612228096061
1673610104.020536,12.082271,16.462809896282288
1673610104.021543,12.118211,16.459497511603963
1673610104.0225499,12.096959,16.45618591110762
1673610104.023557,12.040199,16.452873526429297
1673610104.024564,11.985147,16.449561141750973
1673610104.0255709,12.013586,16.446249541254627
1673610104.026578,12.084602,16.442937156576303
1673610104.027585,12.113307,16.43962477189798
1673610104.0285919,12.130833,16.436313171401633
1673610104.029599,12.163551,16.43300078672331
1673610104.030607,12.179442,16.429685265317072
1673610104.031614,12.199757,16.42637288063875
1673610104.032621,12.237573,16.423061280142402
1673610104.033628,12.24553,16.41974889546408
1673610104.034635,12.257141,16.416436510785754
1673610104.035642,12.291062,16.413124910289408
1673610104.036649,12.276902,16.409812525611084
1673610104.037656,12.251011,16.40650014093276
1673610104.038663,12.241082,16.403721
1673610104.03967,12.233389,16.394547773778307
1673610104.040677,12.229326,16.349445
1673610104.041684,12.221176,16.35937101144492
1673610104.042691,12.21382,16.403721
1673610104.043699,12.209782,16.407304303694875
1673610104.0447059,12.2018,16.425514923938962
1673610104.045713,12.192327,16.439899
1673610104.04672,12.196246,16.439899
1673610104.0477269,12.203916,16.442609758745597
1673610104.048734,12.190429,16.45470083048941
1673610104.049741,12.177399,16.46679190223323
1673610104.0507479,12.180090999999999,16.478880111507408
1673610104.051755,12.186967,16.490971183251222
1673610104.052762,12.186534,16.50306225499504
1673610104.0537689,12.18514,16.51515046426922
1673610104.054776,12.17259,16.527241536013037
1673610104.055784,12.16235,16.539344057635397
1673610104.056791,12.157277,16.55143512937921
1673610104.057798,12.146338,16.563523338653393
1673610104.058805,12.133381,16.575614410397208
1673610104.059812,12.142276,16.587705482141025
1673610104.060819,12.157373,16.599793691415204
1673610104.061826,12.145088,16.611884763159022
1673610104.062833,12.154993,16.623975834902836
1673610104.06384,12.179322,16.636064044177015
1673610104.064847,12.190188,16.648155115920833
1673610104.065854,12.188097,16.660246187664647
1673610104.066861,12.180837,16.67233439693883
1673610104.067868,12.184155,16.684425468682644
1673610104.068876,12.178865,16.696527990305004
1673610104.0698829,12.177471,16.708616199579186
1673610104.07089,12.184635,16.720707271323
1673610104.071897,12.179442,16.73279834306682
1673610104.0729039,12.187977,16.744886552340997
1673610104.073911,12.194444,16.75697762408481
1673610104.074918,12.161484,16.76906869582863
1673610104.0759249,12.134655,16.781156905102808
1673610104.076932,12.127995,16.793247976846626
1673610104.077939,12.132107,16.80533904859044
1673610104.0789459,12.145929,16.81742725786462
1673610104.079953,12.165715,16.829518329608437
1673610104.080961,12.172013,16.841620851230797
1673610104.081968,12.156507,16.853711922974615
1673610104.082975,12.156484,16.865800132248793
1673610104.083982,12.165859,16.87789120399261
1673610104.084989,12.16396,16.889982275736426
1673610104.085996,12.138117,16.902070485010604
1673610104.087003,12.076188,16.914161556754422
1673610104.08801,12.041065,16.926252628498236
1673610104.089017,12.063928,16.93834083777242
1673610104.090024,12.121865,16.950431909516233
1673610104.091031,12.177351,16.96252298126005
1673610104.092038,12.210262,16.97461119053423
1673610104.093045,12.186991,16.986702262278044
1673610104.094053,12.190285,16.998804783900408
1673610104.0950599,12.216465,17.010892993174586
1673610104.096067,12.219975,17.022984064918404
1673610104.097074,12.214518,17.03507513666222
1673610104.0980809,12.216657,17.047163345936397
1673610104.099088,12.208411,17.059254417680215
1673610104.100095,12.160859,17.07134548942403
1673610104.1011019,12.108258,17.08343369869821
1673610104.102109,12.090853,17.095524770442026
1673610104.103116,12.106503,17.107615842185844
1673610104.1041229,12.115566,17.109236
1673610104.10513,12.100204,17.109236
1673610104.106138,12.065346,17.12528060658083
1673610104.107145,12.050585,17.09497610872675
1673610104.108152,12.064552,17.10744209296782
1673610104.109159,12.098137,17.142084312827848
1673610104.110166,12.141049,17.095752439675724
1673610104.111173,12.16735,17.157846449582838
1673610104.11218,12.188361,17.129895658559846
1673610104.113187,12.198218,17.145975646227342
1673610104.114194,12.18574,17.166037204815748
1673610104.115201,12.150401,17.186103513950822
1673610104.116208,12.163047,17.206169823085897
1673610104.117215,12.187087,17.2262313816743
1673610104.118223,12.156147,17.246316692996054
1673610104.11923,12.133285,17.26638300213113
1673610104.1202369,12.142853,17.286444560719534
1673610104.121244,12.175307,17.30651086985461
1673610104.122251,12.194347,17.326577178989684
1673610104.1232579,12.183121,17.346638737578086
1673610104.124265,12.183457,17.36670504671316
1673610104.125272,12.204469,17.386771355848236
1673610104.1262789,12.214205,17.406832914436638
1673610104.127286,12.205983,17.426899223571713
1673610104.128293,12.196992,17.446965532706788
1673610104.1292999,12.196631,17.467027091295193
1673610104.130307,12.20769,17.487093400430265
1673610104.131315,12.220504,17.507178711752022
1673610104.132322,12.21322,17.527245020887097
1673610104.133329,12.183121,17.5473065794755
1673610104.134336,12.157805,17.567372888610574
1673610104.135343,12.169826,17.58743919774565
1673610104.13635,12.17259,17.60750075633405
1673610104.137357,12.168984,17.627567065469126
1673610104.138364,12.148646,17.6476333746042
1673610104.139371,12.113331,17.667694933192607
1673610104.140378,12.097704,17.687761242327678
1673610104.141385,12.085467,17.707827551462753
1673610104.142392,12.095973,17.72788911005116
1673610104.1434,12.119605,17.747974421372913
1673610104.144407,12.143887,17.768040730507987
1673610104.1454139,12.177663,17.788102289096393
1673610104.146421,12.202545,17.808168598231465
1673610104.147428,12.213844,17.82823490736654
1673610104.1484349,12.191823,17.848296465954945
1673610104.149442,12.181726,17.86836277509002
1673610104.150449,12.186774,17.88842908422509
1673610104.1514559,12.182928,17.908490642813497
1673610104.152463,12.124413,17.928556951948572
1673610104.15347,12.106671,17.948623261083647
1673610104.154477,12.123452,17.96868481967205
1673610104.155484,12.156844,17.988751128807124
1673610104.156492,12.188217,18.008836440128878
1673610104.157499,12.18865,18.028902749263953
1673610104.158506,12.176172,18.04896430785236
1673610104.159513,12.175524,18.066167497377208
1673610104.16052,12.167206,18.038139347318236
1673610104.161527,12.185092,18.13802269194087
1673610104.162534,12.212426,18.110703802098236
1673610104.163541,12.228436,18.194637
1673610104.164548,12.232692,18.19153159227468
1673610104.165555,12.222499,18.168552226037196
1673610104.166562,12.215286,18.263378088200238
1673610104.167569,12.196102,18.230824
1673610104.168577,12.173624,18.23282949217784
1673610104.169584,12.173072,18.25040459375295
1673610104.1705909,12.168961,18.26797553455591
1673610104.171598,12.157108,18.285550636131017
1673610104.172605,12.159945,18.30312573770613
1673610104.1736119,12.174273,18.320696678509087
1673610104.174619,12.186246,18.338271780084195
1673610104.175626,12.162614,18.355846881659307
1673610104.176633,12.126097,18.373417822462265
1673610104.17764,12.116889,18.390992924037374
1673610104.178647,12.106071,18.408568025612485
1673610104.179654,12.092968,18.42613896641544
1673610104.180661,12.044358,18.443714067990552
1673610104.181669,11.983705,18.461305812654274
1673610104.182676,11.919708,18.478880914229386
1673610104.183683,11.917544,18.496451855032344
1673610104.18469,11.923964,18.514026956607452
1673610104.185697,11.938436,18.531602058182564
1673610104.186704,12.009163,18.549172998985522
1673610104.187711,12.078616,18.56674810056063
1673610104.188718,12.149993,18.584323202135742
1673610104.189725,12.227812,18.601894142938697
1673610104.190732,12.2826,18.61946924451381
1673610104.191739,12.290558,18.63704434608892
1673610104.192746,12.254088,18.654615286891875
1673610104.193754,12.231634,18.6722070315556
1673610104.194761,12.210359,18.68978213313071
1673610104.1957679,12.208483,18.707353073933668
1673610104.196775,12.195742,18.72492817550878
1673610104.197782,12.171172,18.742503277083888
1673610104.198789,12.140376,18.760074217886846
1673610104.199796,12.130784,18.777649319461958
1673610104.200803,12.144752,18.795224421037066
1673610104.20181,12.152349,18.812795361840024
1673610104.202817,12.165138,18.830370463415132
1673610104.203824,12.129197,18.847945564990244
1673610104.204831,12.079121,18.865516505793202
1673610104.205838,12.090516,18.88309160736831
1673610104.206846,12.154489,18.900683352032036
1673610104.207853,12.183553,18.918258453607145
1673610104.20886,12.149103,18.935829394410103
1673610104.209867,12.115807,18.953404495985215
1673610104.210874,12.163504,18.970979597560323
1673610104.211881,12.202041,18.98855053836328
1673610104.212888,12.241587000000001,19.00612563993839
1673610104.213895,12.277431,19.0237007415135
1673610104.214902,12.260892,19.04127168231646
1673610104.215909,12.227788,19.058846783891568
1673610104.216916,12.227331,19.07642188546668
1673610104.217923,12.230889,19.093992826269638
1673610104.218931,12.211777,19.11158457093336
1673610104.219938,12.188698,19.12915967250847
1673610104.220945,12.182519,19.146730613311426
1673610104.221952,12.1874,19.164305714886538
1673610104.222959,12.188481,19.181880816461646
1673610104.223966,12.18776,19.199451757264605
1673610104.224973,12.182207,19.217026858839716
1673610104.22598,12.184034,19.234601960414825
1673610104.226987,12.189322,19.28687566650786
1673610104.227994,12.184491,19.35175940023838
1673610104.229001,12.166941,19.38820808782816
1673610104.230008,12.157228,19.415665927038624
1673610104.231015,12.164922,19.442984957608953
1673610104.232023,12.157205,19.488682214115403
1673610104.23303,12.144247,19.515221
1673610104.234037,12.157037,19.54373035841867
1673610104.235044,12.150907,19.57910945088221
1673610104.236051,12.143814,19.603957988764627
1673610104.237058,12.14456,19.634555573263977
1673610104.238065,12.152156,19.665160403224967
1673610104.239072,12.154152,19.695765233185956
1673610104.240079,12.164994,19.726362817685306
1673610104.241086,12.179274,19.75696764764629
1673610104.242093,12.186774,19.78757247760728
1673610104.2431,12.192929,19.81817006210663
1673610104.244108,12.206175,19.848803873914175
1673610104.245115,12.208892,19.87940870387516
1673610104.246122,12.189828,19.91000628837451
1673610104.247129,12.178793,19.9406111183355
1673610104.248136,12.176028,19.97121594829649
1673610104.249143,12.174898,20.00181353279584
1673610104.25015,12.167759,20.032418362756825
1673610104.251157,12.166941,20.063023192717814
1673610104.252164,12.165883,20.093620777217165
1673610104.253171,12.14843,20.124225607178154
1673610104.254178,12.140665,20.154830437139143
1673610104.255185,12.123091,20.18542802163849
1673610104.256192,12.096622,20.21603285159948
1673610104.2572,12.049815,20.246666663407023
1673610104.258207,12.025535,20.277271493368012
1673610104.259214,12.020005,20.30786907786736
1673610104.260221,12.060682,20.338473907828348
1673610104.261228,12.081117,20.369078737789337
1673610104.262235,12.060923,20.399676322288688
1673610104.263242,12.073327,20.430281152249677
1673610104.264249,12.092079,20.460885982210662
1673610104.265256,12.1116,20.491483566710013
1673610104.266263,12.14754,20.522088396671002
1673610104.26727,12.179586,20.55269322663199
1673610104.268277,12.188001,20.58329081113134
1673610104.269285,12.195862,20.61392462293888
1673610104.270292,12.2068,20.64452945289987
1673610104.271299,12.215768,20.67512703739922
1673610104.272306,12.209396,20.70573186736021
1673610104.273313,12.208675,20.736336697321196
1673610104.27432,12.226538,20.766934281820546
1673610104.275327,12.233702,20.797539111781536
1673610104.276334,12.216489,20.828143941742525
1673610104.277341,12.206296,20.858741526241875
1673610104.278348,12.193891,20.88934635620286
1673610104.279355,12.180236,20.91995118616385
1673610104.280362,12.152925,20.9505487706632
1673610104.281369,12.139559,20.982034388173584
1673610104.282377,12.163118,21.052881
1673610104.283384,12.187857,21.05157845398188
1673610104.284391,12.192376,21.016703
1673610104.285398,12.191847,21.01851405601907
1673610104.286405,12.190525,21.052881
1673610104.287412,12.172038,21.054036965665237
1673610104.288419,12.149391,21.073541445398188
1673610104.289426,12.155787,21.10856142669845
1673610104.290433,12.163864,21.124852059629227
1673610104.29144,12.145208,21.120284677252425
1673610104.292447,12.140016,21.115717294875626
1673610104.293454,12.142444,21.111150993792002
1673610104.294462,12.151675,21.106579286242496
1673610104.295469,12.164177,21.102011903865694
1673610104.296476,12.168551,21.09744560278207
1673610104.297483,12.151435,21.092878220405268
1673610104.29849,12.126865,21.08831083802847
1673610104.299497,12.131842,21.083744536944845
1673610104.300504,12.137708,21.079177154568043
1673610104.301511,12.135833,21.07460977219124
1673610104.302518,12.128308,21.070043471107617
1673610104.303525,12.073544,21.06547608873082
1673610104.304532,12.00385,21.060908706354017
1673610104.305539,11.949663,21.056342405270392
1673610104.306546,11.930839,21.05177502289359
1673610104.307554,11.934613,21.047203315344085
1673610104.308561,11.955384,21.042635932967286
1673610104.309568,11.989666,21.038069631883662
1673610104.310575,12.03931,21.03350224950686
1673610104.311582,12.087487,21.028934867130058
1673610104.312589,12.067798,21.024368566046434
1673610104.313596,12.169778,21.019801183669635
1673610104.314603,12.279956,21.015233801292833
1673610104.31561,12.287673,21.01066750020921
1673610104.316617,12.259498,21.00610011783241
1673610104.317624,12.262815,21.00153273545561
1673610104.318631,12.274499,20.996966434371984
1673610104.319639,12.223196,20.99239472682248
1673610104.320646,12.194107,20.987827344445677
1673610104.321653,12.209541,20.983261043362052
1673610104.32266,12.221513,20.978693660985254
1673610104.323667,12.213364,20.974126278608452
1673610104.324674,12.201464,20.969559977524828
1673610104.325681,12.184611,20.964992595148026
1673610104.326688,12.169947,20.960425212771227
1673610104.327695,12.192207,20.955858911687603
1673610104.328702,12.201992,20.9512915293108
1673610104.329709,12.202473,20.946724146934
1673610104.330716,12.20031,20.942157845850375
1673610104.331723,12.210647,20.937590463473576
1673610104.332731,12.206511,20.93301875592407
1673610104.333738,12.206488,20.92845137354727
1673610104.334745,12.186654,20.923885072463644
1673610104.335752,12.149944,20.919317690086842
1673610104.336759,12.076381,20.914750307710044
1673610104.337766,12.009452,20.91018400662642
1673610104.338773,12.003778,20.905616624249618
1673610104.33978,12.036906,20.901049241872816
1673610104.340787,12.057124,20.89648294078919
1673610104.341794,12.0571,20.891915558412393
1673610104.3428009,12.06811,20.88734925732877
1673610104.343808,12.111696,20.882781874951966
1673610104.344816,12.168143,20.87821016740246
1673610104.345823,12.187256,20.87364278502566
1673610104.34683,12.230167,20.837229810862315
1673610104.347837,12.26332,20.79430061001192
1673610104.348844,12.247068,20.781528
1673610104.349851,12.21608,20.769560766587112
1673610104.350858,12.206511,20.775527052869734
1673610104.351865,12.204733,20.80594925631855
1673610104.352872,12.200742,20.793012026252985
1673610104.353879,12.196487,20.781528
1673610104.354886,12.186967,20.819298217453504
1673610104.355893,12.18413,20.82988362857733
1673610104.3569,12.182832,20.821412171016494
1673610104.357908,12.17961,20.812932691242054
1673610104.358915,12.147805,20.804461233681216
1673610104.359922,12.127707,20.79599178167378
1673610104.360929,12.129317,20.78752032411294
1673610104.361936,12.152949,20.779048866552102
1673610104.362943,12.174898,20.770579414544667
1673610104.36395,12.178216,20.762107956983826
1673610104.3649569,12.135207,20.75363850497639
1673610104.365964,12.112393,20.745167047415553
1673610104.366971,12.109365,20.736695589854712
1673610104.3679779,12.086237,20.728226137847276
1673610104.368985,12.091213,20.71975468028644
1673610104.369993,12.107849,20.711275200512
1673610104.371,12.095878,20.70280374295116
1673610104.372007,12.081308,20.694334290943722
1673610104.373014,12.103835,20.685862833382885
1673610104.374021,12.135112,20.677391375822047
1673610104.375028,12.167374,20.668921923814608
1673610104.376035,12.191102,20.66045046625377
1673610104.377042,12.209926,20.651979008692933
1673610104.378049,12.199708,20.643509556685494
1673610104.379056,12.155594,20.635038099124657
1673610104.380063,12.133164,20.62656664156382
1673610104.38107,12.113114,20.61809718955638
1673610104.382077,12.108282,20.609625731995543
1673610104.383085,12.118091,20.601146252221106
1673610104.384092,12.135207,20.59267479466027
1673610104.385099,12.163936,20.58420534265283
1673610104.386106,12.174394,20.575733885091992
1673610104.3871129,12.182063,20.567264433084553
1673610104.38812,12.207088,20.558792975523716
1673610104.389127,12.197713,20.550321517962878
1673610104.3901339,12.181726,20.54185206595544
1673610104.391141,12.193026,20.5333806083946
1673610104.392148,12.193337,20.524909150833764
1673610104.3931549,12.178529,20.516439698826325
1673610104.394162,12.173432,20.507968241265488
1673610104.39517,12.167157,20.49948876149105
1673610104.396177,12.177423,20.491017303930214
1673610104.397184,12.18139,20.482547851922774
1673610104.398191,12.106624,20.474076394361937
1673610104.399198,12.000821,20.4656049368011
1673610104.400205,11.965433,20.45713548479366
1673610104.401212,11.968126,20.448664027232823
1673610104.402219,11.982045,20.440192569671986
1673610104.403226,11.972958,20.450919952358266
1673610104.404233,11.983993,20.4029574725537
1673610104.40524,12.060923,20.370174494515975
1673610104.406247,12.139439,20.351962886769964
1673610104.407254,12.214205,20.37460807963758
1673610104.408262,12.216969,20.383545
1673610104.4092689,12.220335,20.355766082479143
1673610104.410276,12.261349,20.361384240343348
1673610104.411283,12.269234,20.407897354315686
1673610104.4122899,12.236202,20.42197918504891
1673610104.413297,12.188938,20.424857970677984
1673610104.414304,12.115903,20.427736756307056
1673610104.4153109,12.037147,20.43061486040544
1673610104.416318,12.043084,20.433493646034517
1673610104.417325,12.068158,20.43637243166359
1673610104.4183319,12.072005,20.439250535761975
1673610104.419339,12.039189,20.442129321391047
1673610104.420347,12.070562,20.445010833142874
1673610104.421354,12.154223,20.44788961877195
1673610104.422361,12.146747,20.45076772287033
1673610104.423368,12.14331,20.453646508499407
1673610104.424375,12.186222,20.45652529412848
1673610104.425382,12.189684,20.459403398226865
1673610104.426389,12.20644,20.462282183855937
1673610104.427396,12.225576,20.465160969485012
1673610104.428403,12.213171000000001,20.468039073583395
1673610104.42941,12.212618,20.47091785921247
1673610104.430417,12.208748,20.473796644841542
1673610104.431424,12.208483,20.476674748939928
1673610104.432431,12.196896,20.479553534569
1673610104.433439,12.187304,20.48243504632083
1673610104.4344459,12.177182,20.485313150419213
1673610104.435453,12.163624,20.48819193604829
1673610104.43646,12.15456,20.49107072167736
1673610104.4374669,12.155113,20.493948825775746
1673610104.438474,12.171028,20.496827611404818
1673610104.439481,12.16937,20.499706397033894
1673610104.4404879,12.153815,20.502584501132276
1673610104.441495,12.149127,20.50546328676135
1673610104.442502,12.139415,20.508342072390423
1673610104.4435089,12.119365,20.51122017648881
1673610104.444516,12.120158,20.51409896211788
1673610104.445524,12.118067,20.516980473869708
1673610104.446531,12.117634,20.519859259498784
1673610104.447538,12.121385,20.522737363597166
1673610104.448545,12.108788,20.52561614922624
1673610104.449552,12.086406,20.528494934855313
1673610104.450559,12.038276,20.5313730389537
1673610104.451566,12.014476,20.53425182458277
1673610104.452573,12.036113,20.537130610211847
1673610104.45358,12.03794,20.54000871431023
1673610104.454587,12.055994,20.542887499939305
1673610104.455594,12.127755,20.545766285568376
1673610104.456601,12.188265,20.548644389666762
1673610104.457608,12.211993,20.551523175295834
1673610104.458616,12.235336,20.554404687047665
1673610104.4596229,12.274859,20.557282791146047
1673610104.46063,12.303804,20.560161576775123
1673610104.461637,12.289644,20.563040362404195
1673610104.4626439,12.262887,20.56591846650258
1673610104.463651,12.230577,20.568797252131652
1673610104.464658,12.203795,20.571676037760728
1673610104.4656649,12.170162,20.57455414185911
1673610104.466672,12.132467,20.577432927488186
1673610104.467679,12.135569,20.580311713117258
1673610104.4686859,12.153382,20.570223776638855
1673610104.469693,12.148502,20.536727469957082
1673610104.470701,12.146747,20.560065995708158
1673610104.471708,12.160931,20.555368401668655
1673610104.472715,12.162878,20.568654937052933
1673610104.473722,12.164609,20.542539303290415
1673610104.474729,12.163431,20.582541
1673610104.475736,12.142492,20.58754846995708
1673610104.476743,12.137828,20.616040869814018
1673610104.47775,12.134006,20.657374780082986
1673610104.478757,12.137732,20.66594107188516
1673610104.479764,12.113162,20.674509392172254
1673610104.480771,12.093257,20.683077712459347
1673610104.481778,12.084555,20.688650768533968
1673610104.482785,12.076332,20.65890907773009
1673610104.483793,12.090132,20.704712997615644
1673610104.4847999,12.094483,20.66133218331347
1673610104.485807,11.98618,20.725526380543634
1673610104.486814,11.947811,20.710541179404785
1673610104.4878209,11.976372,20.724003745669595
1673610104.488828,12.031545,20.737469499849695
1673610104.489835,12.110927,20.750935254029795
1673610104.4908419,12.167927,20.764397820294604
1673610104.491849,12.158118,20.777863574474704
1673610104.492856,12.127275,20.7913293286548
1673610104.4938629,12.110806,20.804791894919614
1673610104.49487,12.05395,20.818257649099714
1673610104.495878,12.02176,20.831736154940966
1673610104.496885,12.025968,20.845201909121066
1673610104.497892,12.0477,20.858664475385876
1673610104.498899,12.049118,20.872130229565975
1673610104.499906,12.048013,20.885595983746075
1673610104.500913,12.08691,20.899058550010885
1673610104.50192,12.114605,20.912524304190985
1673610104.502927,12.146315,20.925990058371085
1673610104.503934,12.187448,20.939452624635894
1673610104.504941,12.224831,20.952918378815994
1673610104.505948,12.287313,20.966384132996094
1673610104.506955,12.264474,20.979846699260904
1673610104.507962,12.209036,20.993312453441003
1673610104.50897,12.189899,21.006790959282256
1673610104.5099769,12.185116,21.02025352554707
1673610104.510984,12.171509,21.033719279727165
1673610104.511991,12.176846,21.047185033907265
1673610104.5129979,12.181245,21.06064760017208
1673610104.514005,12.186077,21.074113354352175
1673610104.515012,12.196872,21.087579108532275
1673610104.5160189,12.202041,21.101041674797084
1673610104.517026,12.206416,21.114507428977184
1673610104.518033,12.20906,21.127973183157284
1673610104.5190399,12.208122,21.141435749422094
1673610104.520047,12.189684,21.154901503602193
1673610104.521055,12.155426,21.16838000944345
1673610104.522062,12.138261,21.18184576362355
1673610104.523069,12.148887,21.19530832988836
1673610104.524076,12.160233,21.20877408406846
1673610104.525083,12.159777,21.22223983824856
1673610104.52609,12.133838,21.23570240451337
1673610104.527097,12.125303,21.249168158693468
1673610104.528104,12.139944,21.262633912873568
1673610104.529111,12.158863,21.276096479138378
1673610104.530118,12.154103,21.289562233318478
1673610104.531125,12.131241,21.303027987498574
1673610104.532132,12.095853,21.316490553763387
1673610104.533139,12.087391,21.324234
1673610104.534147,12.122298,21.34001076037196
1673610104.5351539,12.126409,21.384449843861738
1673610104.536161,12.118691,21.398404888412017
1673610104.537168,12.121288,21.3950399527897
1673610104.5381749,12.152036,21.439860142550657
1673610104.539182,12.18151,21.46043569408679
1673610104.540189,12.182111,21.49410301144492
1673610104.5411959,12.184683,21.523768598569724
1673610104.542203,12.170067,21.52431113001306
1673610104.54321,12.14742,21.563578420936558
1673610104.5442169,12.103642,21.602836415626406
1673610104.545224,12.047772,21.6421037065499
1673610104.546232,12.044815,21.681408182407985
1673610104.547239,12.056931,21.72067547333148
1673610104.548246,12.050994,21.759933468021327
1673610104.549253,12.043421,21.799200758944824
1673610104.55026,12.056787,21.838468049868318
1673610104.551267,12.100133,21.877726044558166
1673610104.552274,12.137877,21.916993335481664
1673610104.553281,12.147156,21.978654775870293
1673610104.554288,12.130544,22.05373099809297
1673610104.555295,12.146459,22.084015
1673610104.556302,12.174273,22.09226589580353
1673610104.557309,12.177591,22.09373002193087
1673610104.558316,12.192376,22.084015
1673610104.559324,12.198915,22.118610094182166
1673610104.5603309,12.178385,22.165150685578066
1673610104.561338,12.182688,22.174469
1673610104.562345,12.188337,22.181239420146458
1673610104.5633519,12.191775,22.19489994775204
1673610104.564359,12.191775,22.20856371014986
1673610104.565366,12.180356,22.222227472547683
1673610104.5663729,12.151339,22.235888000153267
1673610104.56738,12.126097,22.24955176255109
1673610104.568387,12.113235,22.263215524948908
1673610104.5693939,12.100301,22.276876052554496
1673610104.570401,12.065273,22.290539814952314
1673610104.571409,12.006975,22.304216516519073
1673610104.572416,11.960866,22.317880278916892
1673610104.573423,11.949807,22.33154080652248
1673610104.57443,11.953461,22.3452045689203
1673610104.575437,11.991084,22.358868331318117
1673610104.576444,11.988776,22.372528858923705
1673610104.577451,12.004811,22.386192621321523
1673610104.578458,12.056955,22.399856383719346
1673610104.579465,12.101719,22.41351691132493
1673610104.580472,12.164754,22.427180673722752
1673610104.581479,12.15033,22.44084443612057
1673610104.582486,12.148093,22.454504963726155
1673610104.583493,12.201464,22.468168726123977
1673610104.584501,12.189635000000001,22.481845427690736
1673610104.5855079,12.183914,22.49550595529632
1673610104.586515,12.210118,22.50916971769414
1673610104.587522,12.229423,22.52283348009196
1673610104.5885289,12.247717,22.536494007697545
1673610104.589536,12.246684,22.550157770095367
1673610104.590543,12.206031,22.554363
1673610104.5915499,12.188241,22.554363
1673610104.592557,12.182063,22.580086838340485
1673610104.593564,12.185284,22.563481868885024
1673610104.5945709,12.199107,22.56761291944306
1673610104.595578,12.188217,22.562926502734957
1673610104.596586,12.181774,22.604484949093617
1673610104.597593,12.170979,22.53831184624938
1673610104.5986,12.177808,22.54014186176032
1673610104.599607,12.179082,22.550612238887506
1673610104.600614,12.171389,22.56898078969957
1673610104.601621,12.16081,22.56709216023734
1673610104.602628,12.151195,22.5604671786231
1673610104.603635,12.136746,22.55384219700886
1673610104.604642,12.122947,22.547218783808827
1673610104.605649,12.120999,22.540593802194586
1673610104.606656,12.119268,22.533968820580345
1673610104.607663,12.099507,22.527345407380313
1673610104.60867,12.092656,22.520720425766072
1673610104.609678,12.086597,22.514089170495
1673610104.6106849,12.072462,22.50746575729497
1673610104.611692,12.049167,22.50084077568073
1673610104.612699,12.097776,22.494215794066488
1673610104.6137059,12.159825,22.487592380866456
1673610104.614713,12.170307,22.480967399252215
1673610104.61572,12.12576,22.474342417637974
1673610104.6167269,12.111648,22.467719004437942
1673610104.617734,12.112634,22.4610940228237
1673610104.618741,12.097488,22.45446904120946
1673610104.6197479,12.084025,22.44784562800943
1673610104.620755,12.084386,22.441220646395188
1673610104.621763,12.11059,22.434589391124117
1673610104.62277,12.146915,22.427964409509876
1673610104.623777,12.1542,22.421340996309844
1673610104.624784,12.177663,22.414716014695603
1673610104.625791,12.182568,22.408091033081362
1673610104.626798,12.15908,22.40146761988133
1673610104.627805,12.139415,22.39484263826709
1673610104.628812,12.127899,22.38821765665285
1673610104.629819,12.105037,22.381594243452817
1673610104.630826,12.094338,22.374969261838576
1673610104.631833,12.114557,22.368344280224335
1673610104.63284,12.139872,22.361720867024303
1673610104.633848,12.148262,22.355089611753233
1673610104.634855,12.12237,22.34846463013899
1673610104.6358619,12.094147,22.34184121693896
1673610104.636869,12.145305,22.33521623532472
1673610104.637876,12.158407,22.328591253710478
1673610104.6388829,12.155066,22.321967840510446
1673610104.63989,12.150738,22.315342858896205
1673610104.640897,12.141579,22.308717877281964
1673610104.6419039,12.153912,22.302094464081932
1673610104.642911,12.182688,22.29546948246769
1673610104.643918,12.20168,22.28884450085345
1673610104.6449249,12.20454,22.280843110978804
1673610104.645932,12.196823,22.260365394849785
1673610104.64694,12.188145,22.240867493556088
1673610104.647947,12.163984,22.311477095374347
1673610104.648954,12.139655,22.262227352703025
1673610104.649961,12.118596,22.241211661097854
1673610104.650968,12.099099,22.213596137339056
1673610104.651975,12.081982,22.222592060966896
1673610104.652982,12.071212,22.202116068735084
1673610104.653989,12.05722,22.246824
1673610104.654996,12.048205,22.246824
1673610104.656003,12.078424,22.246824
1673610104.65701,12.089458,22.246824
1673610104.658017,12.107922,22.246824
1673610104.659025,12.152637,22.22949409966619
1673610104.660032,12.169128,22.201854240286053
1673610104.6610389,12.195694,22.156897075107295
1673610104.662046,12.215768,22.1382905
1673610104.663053,12.243101,22.15638
1673610104.6640599,12.259833,22.15638
1673610104.665067,12.23601,22.14695542918455
1673610104.666074,12.192664,22.100081117997618
1673610104.6670809,12.165355,22.085274415355272
1673610104.668088,12.153863,22.09836933871856
1673610104.669095,12.127106,22.09142907947843
1673610104.670102,12.116408,22.084490463292102
1673610104.671109,12.097416,22.077550204051974
1673610104.672117,12.048661,22.070603372596658
1673610104.673124,11.976685,22.063663113356533
1673610104.674131,11.957284,22.0567244971702
1673610104.675138,11.984859,22.049784237930076
1673610104.676145,12.02955,22.042843978689948
1673610104.677152,12.100228,22.03590536250362
1673610104.678159,12.111864,22.02896510326349
1673610104.679166,12.053806,22.022024844023367
1673610104.680173,12.058062,22.015086227837035
1673610104.68118,12.119485,22.00814596859691
1673610104.682187,12.16134,22.001205709356782
1673610104.683194,12.178962,21.994267093170453
1673610104.684202,12.130231,21.987320261715137
1673610104.685209,12.102753,21.98038000247501
1673610104.6862159,12.098738,21.97344138628868
1673610104.687223,12.104003,21.966501127048552
1673610104.68823,12.114845,21.959560867808424
1673610104.6892369,12.112947,21.952622251622095
1673610104.690244,12.094844,21.945681992381967
1673610104.691251,12.080731,21.938741733141843
1673610104.692258,12.098137,21.93180311695551
1673610104.693265,12.122082,21.924862857715386
1673610104.694272,12.12487,21.917922598475258
1673610104.695279,12.105638,21.91098398228893
1673610104.696286,12.11648,21.9040437230488
1673610104.697294,12.145665,21.897096891593485
1673610104.698301,12.170859,21.89015663235336
1673610104.699308,12.177615,21.883218016167028
1673610104.700315,12.189202,21.876277756926903
1673610104.701322,12.201127,21.869337497686775
1673610104.702329,12.209156,21.862398881500447
1673610104.703336,12.214012,21.85545862226032
1673610104.704343,12.200862,21.84851836302019
1673610104.70535,12.176749,21.84157974683386
1673610104.706357,12.152252,21.834639487593734
1673610104.707364,12.125784,21.82769922835361
1673610104.708371,12.143454,21.820760612167277
1673610104.709379,12.183505,21.81381378071196
1673610104.710386,12.202834,21.82785693252265
1673610104.7113929,12.189755,21.84607778683834
1673610104.7124,12.172855,21.83339544839094
1673610104.713407,12.15581,21.815176517644254
1673610104.714414,12.145882,21.750891808555586
1673610104.715421,12.166436,21.794573
1673610104.716428,12.167807,21.812662
1673610104.717435,12.12124,21.780503777777778
1673610104.718442,12.072943,21.825109509298997
1673610104.719449,12.05109,21.83535853006284
1673610104.720456,12.051931,21.840495171946518
1673610104.721463,12.051763,21.84563303017921
1673610104.722471,12.045776,21.85077575380796
1673610104.723478,12.055994,21.855913612040652
1673610104.724485,12.085227,21.861050253924333
1673610104.725492,12.134053,21.866188112157026
1673610104.726499,12.16735,21.871325970389716
1673610104.727506,12.206632,21.876462612273397
1673610104.728513,12.233365,21.88160047050609
1673610104.72952,12.218773,21.886738328738783
1673610104.730527,12.177832,21.891874970622464
1673610104.731534,12.127755,21.897012828855154
1673610104.732541,12.104436,21.902150687087847
1673610104.733548,12.103955,21.907287328971528
1673610104.734556,12.123091,21.912430052600275
1673610104.735563,12.125952,21.917567910832968
1673610104.73657,12.118091,21.922704552716645
1673610104.737577,12.128885,21.92784241094934
1673610104.738584,12.10446,21.932980269182032
1673610104.739591,12.031425,21.938116911065713
1673610104.740598,11.988464,21.943254769298406
1673610104.741605,11.97053,21.9483926275311
1673610104.742612,11.956923,21.953529269414776
1673610104.743619,11.92091,21.95866712764747
1673610104.744626,11.957404,21.963804985880163
1673610104.745633,12.008105,21.968941627763844
1673610104.74664,12.030944,21.974079485996533
1673610104.747648,12.082078,21.97922220962528
1673610104.748655,12.137997,21.984360067857974
1673610104.749662,12.187688,21.989496709741655
1673610104.750669,12.235553,21.994634567974348
1673610104.751676,12.261012,21.99977242620704
1673610104.752683,12.247838,22.00490906809072
1673610104.75369,12.244231,22.01004692632341
1673610104.754697,12.218051,22.015184784556105
1673610104.755704,12.152781,22.020321426439786
1673610104.756711,12.114196,22.02545928467248
1673610104.757718,12.121216,22.03059714290517
1673610104.758725,12.11797,22.03573378478885
1673610104.759733,12.106359,22.040876508417597
1673610104.76074,12.098426,22.04601436665029
1673610104.761747,12.081501,22.051151008533967
1673610104.762754,12.057725,22.05628886676666
1673610104.763761,12.010077,22.061426724999354
1673610104.764768,11.980578,22.072707139723416
1673610104.765775,11.983512,22.117811074374256
1673610104.766782,12.027098,22.107134147353364
1673610104.767789,12.063038,22.13300963948498
1673610104.768796,12.06585,22.11041036281287
1673610104.769803,12.158286,22.15348577253219
1673610104.77081,12.251492,22.13829
1673610104.771817,12.288226,22.141437961859356
1673610104.772825,12.277264,22.15967086957558
1673610104.773832,12.22649,22.175757450895173
1673610104.774839,12.232837,22.182618898726595
1673610104.775846,12.225287,22.189481971338466
1673610104.776853,12.217282,22.19634504395034
1673610104.77786,12.213484,22.203206491781764
1673610104.778867,12.199828,22.210069564393635
1673610104.779874,12.181558,22.216932637005506
1673610104.780881,12.178288,22.223794084836932
1673610104.781888,12.166172,22.230657157448803
1673610104.782895,12.154032,22.237520230060674
1673610104.783902,12.141819,22.2443816778921
1673610104.78491,12.140352,22.251251249625764
1673610104.785917,12.142733,22.258114322237635
1673610104.786924,12.143381,22.264975770069057
1673610104.787931,12.141122,22.271838842680932
1673610104.788938,12.120086,22.278701915292803
1673610104.789945,12.095853,22.285563363124226
1673610104.790952,12.061283,22.292426435736097
1673610104.791959,12.017313,22.299289508347968
1673610104.792966,12.006351,22.306150956179394
1673610104.793973,12.005244,22.313014028791265
1673610104.79498,12.02741,22.319877101403137
1673610104.795987,12.088641,22.326738549234562
1673610104.796994,12.088425,22.333601621846434
1673610104.798002,12.189611,22.340471193580097
1673610104.799009,12.241899,22.347334266191968
1673610104.800016,12.244712,22.354195714023394
1673610104.801023,12.206007,22.361058786635265
1673610104.80203,12.192232,22.367921859247136
1673610104.803037,12.197762,22.37478330707856
1673610104.804044,12.18062,22.381646379690434
1673610104.805051,12.164345,22.388509452302305
1673610104.806058,12.150738,22.395370900133727
1673610104.807065,12.128789,22.4022339727456
1673610104.808072,12.110974,22.40909704535747
1673610104.809079,12.098666,22.415958493188896
1673610104.810087,12.077149,22.42282806492256
1673610104.811094,12.080491,22.42969113753443
1673610104.812101,12.12261,22.436552585365856
1673610104.813108,12.129342,22.443415657977727
1673610104.814115,12.101815,22.4502787305896
1673610104.815122,12.089506,22.45714017842102
1673610104.816129,12.108186,22.464003251032896
1673610104.817136,12.128116,22.470866323644767
1673610104.818143,12.123981,22.47772777147619
1673610104.81915,12.120831,22.48459084408806
1673610104.820157,12.139968,22.491453916699932
1673610104.821164,12.168191,22.498315364531358
1673610104.822171,12.170259,22.527119649499284
1673610104.823179,12.153142,22.590899654112036
1673610104.824186,12.151171,22.6224155598474
1673610104.825193,12.146915,22.64062886981402
1673610104.8262,12.11237,22.672892270386264
1673610104.827207,12.071789,22.66682269010727
1673610104.828214,11.998994,22.677192508106817
1673610104.829221,11.907976,22.695412580591324
1673610104.830228,11.908866,22.713628308700834
1673610104.831235,11.957692,22.761560867442643
1673610104.832242,11.996758,22.816690050646912
1673610104.833249,12.061644,22.871819233851184
1673610104.834256,12.103186000000001,22.92693536563898
1673610104.835264,12.11285,22.98211675450916
1673610104.836271,12.091622,23.004641937947493
1673610104.837278,12.086237,22.9903710944206
1673610104.838285,12.095421,22.950877171052632
1673610104.839292,12.096142,22.908984539473686
1673610104.840299,12.084555,22.867101825657894
1673610104.841306,12.076813,22.87784726824034
1673610104.842313,12.079313,22.863900354077252
1673610104.84332,12.09345,22.926712661501785
1673610104.844327,12.127899,23.070956071339488
1673610104.845334,12.115855,23.089078132286996
1673610104.846341,12.132635,23.08967026882793
1673610104.847348,12.143165,23.215226970316788
1673610104.848356,12.12886,23.182307783258594
1673610104.849363,12.173624,23.131643480798004
1673610104.85037,12.216296,23.167339836408978
1673610104.851377,12.236226,23.187439765182184
1673610104.852384,12.239544,23.169367876610977
1673610104.853391,12.264065,23.15153339801462
1673610104.854398,12.262334,23.169751511357397
1673610104.855405,12.23762,23.18796962470017
1673610104.856412,12.22435,23.206183425042624
1673610104.857419,12.206752,23.2244015383854
1673610104.8584259,12.192304,23.242615338727855
1673610104.859433,12.188097,23.260833452070628
1673610104.860441,12.184996,23.279068817414675
1673610104.861448,12.176341,23.297286930757448
1673610104.862455,12.164081,23.315500731099903
1673610104.863462,12.148934,23.33371884444268
1673610104.864469,12.137444,23.35193695778545
1673610104.865476,12.122298,23.370150758127906
1673610104.866483,12.097079,23.388368871470682
1673610104.86749,12.055393,23.406586984813455
1673610104.868497,12.018082,23.42480078515591
1673610104.869504,12.014668,23.443018898498686
1673610104.870511,12.030078,23.461237011841458
1673610104.871518,12.075779,23.479450812183913
1673610104.872525,12.102296,23.49766892552669
1673610104.873533,12.1185,23.515904290870733
1673610104.87454,12.174466,23.534122404213505
1673610104.875547,12.202185,23.552336204555964
1673610104.876554,12.211753,23.570554317898736
1673610104.877561,12.195598,23.58877243124151
1673610104.878568,12.187015,23.606986231583967
1673610104.879575,12.183938,23.62520434492674
1673610104.8805819,12.154152,23.643418145269194
1673610104.881589,12.158262,23.66163625861197
1673610104.882596,12.170331,23.679854371954743
1673610104.8836029,12.163047,23.698068172297198
1673610104.88461,12.149031,23.716286285639974
1673610104.885618,12.146098,23.734521650984018
1673610104.886625,12.125688,23.730592034770183
1673610104.887632,12.088929,23.698637728659993
1673610104.888639,12.061788,23.775740451551314
1673610104.889646,12.043445,23.797766489270387
1673610104.890653,12.031929,23.79928492260062
1673610104.89166,12.004596,23.833708894988067
1673610104.892667,11.960337000000001,23.815478068192657
1673610104.893674,11.996806,23.818517328411527
1673610104.894681,12.038301,23.873143351789977
1673610104.895688,12.061764,23.90910563268469
1673610104.896695,12.061547,23.902528057473738
1673610104.897702,12.076717,23.895948924702946
1673610104.89871,12.119654,23.889363561692786
1673610104.899717,12.148623,23.88278442892199
1673610104.900724,12.164658,23.87620685371104
1673610104.901731,12.187568,23.860231443967574
1673610104.9027379,12.213195,23.88650819833135
1673610104.903745,12.217354,23.878084538351597
1673610104.904752,12.212931,23.965450277804297
1673610104.9057589,12.189659,23.95305731235098
1673610104.906766,12.169826,24.008596387473208
1673610104.907773,12.186823,23.92686810214797
1673610104.9087799,12.213772,23.919622492736345
1673610104.909787,12.204781,23.929559692547777
1673610104.910795,12.178385,23.939506302586302
1673610104.911802,12.172278,23.949443502397735
1673610104.912809,12.175307,23.959378349652393
1673610104.913816,12.152421,23.969315549463825
1673610104.914823,12.116889,23.979252749275258
1673610104.91583,12.095878,23.989187596529916
1673610104.916837,12.093353,23.99912479634135
1673610104.917844,12.114028,24.00906199615278
1673610104.918851,12.092175,24.01899684340744
1673610104.919858,12.03806,24.02893404321887
1673610104.920865,11.982526,24.038871243030304
1673610104.921872,11.94132,24.048806090284963
1673610104.922879,11.94721,24.058743290096395
1673610104.923887,11.983175,24.06868990013492
1673610104.9248939,11.997407,24.07862474738958
1673610104.925901,12.041786,24.08856194720101
1673610104.926908,12.071259,24.098499147012443
1673610104.9279149,12.050344,24.108433994267102
1673610104.928922,12.095252,24.118371194078534
1673610104.929929,12.155354,24.128308393889967
1673610104.9309359,12.188097,24.138243241144625
1673610104.931943,12.193987,24.148180440956057
1673610104.93295,12.205021,24.15811764076749
1673610104.9339569,12.229399,24.16805248802215
1673610104.934964,12.216777,24.17798968783358
1673610104.935972,12.185693,24.18793629787211
1673610104.936979,12.126625,24.197873497683542
1673610104.937986,12.118091,24.2078083449382
1673610104.938993,12.143621,24.217745544749633
1673610104.94,12.144103,24.227682744561065
1673610104.941007,12.12463,24.237617591815724
1673610104.942014,12.1185,24.247554791627156
1673610104.943021,12.110446,24.257491991438588
1673610104.944028,12.109917,24.267426838693247
1673610104.945035,12.117273,24.27736403850468
1673610104.946042,12.102585,24.28730123831611
1673610104.947049,12.112874,24.29723608557077
1673610104.948056,12.144127,24.307173285382202
1673610104.949064,12.161292,24.317119895420728
1673610104.9500709,12.171989,24.327054742675386
1673610104.951078,12.178745,24.33699194248682
1673610104.952085,12.164609,24.342259973803287
1673610104.9530919,12.167903,24.32406004176611
1673610104.954099,12.162037,24.302553765379113
1673610104.955106,12.141362,24.289935683194276
1673610104.9561129,12.119052,24.3457563710062
1673610104.95712,12.11749,24.283882501430615
1673610104.958127,12.14468,24.319626685101312
1673610104.9591339,12.198627,24.287108675011922
1673610104.960141,12.161436,24.28905409084406
1673610104.961149,12.154921,24.344320276183456
1673610104.962156,12.11785,24.340136712302055
1673610104.963163,12.051114,24.335954138847708
1673610104.96417,12.051451,24.331770574966306
1673610104.965177,12.09078,24.327587011084905
1673610104.966184,12.086718,24.323404437630558
1673610104.967191,12.065803,24.319220873749156
1673610104.968198,12.0527,24.315037309867755
1673610104.969205,12.010966,24.310854736413408
1673610104.970212,11.995364,24.306671172532006
1673610104.971219,12.026521,24.302487608650605
1673610104.972226,12.028372,24.298305035196258
1673610104.973233,12.038709,24.294121471314856
1673610104.974241,12.067918,24.289933945725235
1673610104.9752479,12.079746,24.285751372270887
1673610104.976255,12.099051,24.281567808389486
1673610104.977262,12.146435,24.277384244508085
1673610104.9782689,12.152156,24.273201671053737
1673610104.979276,12.14867,24.269018107172336
1673610104.980283,12.190332,24.264834543290934
1673610104.9812899,12.194468,24.26065196983659
1673610104.982297,12.162758,24.256468405955186
1673610104.983304,12.169898,24.252284842073784
1673610104.9843109,12.192784,24.24810226861944
1673610104.985318,12.175668,24.24391870473804
1673610104.986326,12.157349,24.239731179148414
1673610104.987333,12.157469,24.235547615267013
1673610104.98834,12.137924,24.231365041812666
1673610104.989347,12.112754,24.227181477931264
1673610104.990354,12.07477,24.222997914049863
1673610104.991361,12.069553,24.21881534059552
1673610104.992368,12.107512,24.214631776714114
1673610104.993375,12.158575,24.210448212832713
1673610104.994382,12.198867,24.20626563937837
1673610104.995389,12.12975,24.202082075496968
1673610104.996396,12.063351,24.197898511615566
1673610104.997403,12.027049,24.19371593816122
1673610104.99841,12.029526,24.189532374279818
1673610104.999418,12.034189,24.185344848690193
1673610105.0004249,12.041954,24.18116227523585
1673610105.001432,12.064672,24.176978711354447
1673610105.002439,12.094363,24.172795147473046
1673610105.0034459,12.146819,24.1686125740187
1673610105.004453,12.196102,24.164429010137297
1673610105.00546,12.187183,24.160245446255896
1673610105.0064669,12.177158,24.15606287280155
1673610105.007474,12.193217,24.151879308920147
1673610105.008481,12.182832,24.147695745038746
1673610105.0094879,12.145257,24.1435131715844
1673610105.010495,12.133885,24.139329607702997
1673610105.011503,12.137972,24.135142082113376
1673610105.01251,12.114989,24.130958518231974
1673610105.013517,12.078015,24.126775944777627
1673610105.014524,12.080107,24.122592380896226
1673610105.015531,12.09893,24.118408817014824
1673610105.016538,12.113667,24.114226243560477
1673610105.017545,12.133188,24.110113
1673610105.018552,12.139823,24.109241760610395
1673610105.019559,12.145738,24.074495564958283
1673610105.020566,12.164297,24.09270977753934
1673610105.021573,12.175427000000001,24.10685191630901
1673610105.02258,12.167446,24.037748
1673610105.023587,12.151315,24.039879184787793
1673610105.024595,12.134895,24.07029848211731
1673610105.0256019,12.085155,24.018321949451597
1673610105.026609,12.030127,24.000968127050175
1673610105.027616,11.983583,23.99349074075587
1673610105.0286229,11.926103,23.986015124676122
1673610105.02963,11.894225,23.978537738381814
1673610105.030637,11.884249,23.97106035208751
1673610105.0316439,11.886171,23.96358473600776
1673610105.032651,11.886557,23.956107349713456
1673610105.033658,11.926295,23.948629963419148
1673610105.0346649,12.027939,23.941154347339403
1673610105.035672,12.150978,23.933676961045094
1673610105.03668,12.247982,23.926192493892557
1673610105.037687,12.333014,23.91871510759825
1673610105.038694,12.354818,23.9112394915185
1673610105.039701,12.36703,23.903762105224196
1673610105.040708,12.330129,23.89628471892989
1673610105.041715,12.25731,23.888809102850143
1673610105.042722,12.206536,23.881331716555835
1673610105.043729,12.180428,23.87385433026153
1673610105.044736,12.17372,23.86637871418178
1673610105.045743,12.161412,23.858901327887477
1673610105.04675,12.163287,23.85142394159317
1673610105.047757,12.168648,23.843948325513423
1673610105.048764,12.156075,23.836470939219115
1673610105.049772,12.150185,23.828986472066575
1673610105.0507789,12.150497,23.82151085598683
1673610105.051786,12.136963,23.81403346969252
1673610105.052793,12.127058,23.806556083398217
1673610105.0537999,12.113211,23.79908046731847
1673610105.054807,12.092536,23.791603081024164
1673610105.055814,12.118331,23.784125694729855
1673610105.0568209,12.130664,23.776650078650107
1673610105.057828,12.120639,23.769172692355802
1673610105.058835,12.126432,23.761695306061497
1673610105.0598419,12.121336,23.75421968998175
1673610105.060849,12.085949,23.74674230368744
1673610105.061857,12.07941,23.739257836534904
1673610105.062864,12.088112,23.731780450240596
1673610105.063871,12.10696,23.72430483416085
1673610105.064878,12.104147,23.716827447866542
1673610105.065885,12.115519,23.709350061572238
1673610105.066892,12.136914,23.70187444549249
1673610105.067899,12.152228,23.694397059198185
1673610105.068906,12.157685,23.686919672903876
1673610105.069913,12.167903,23.679444056824128
1673610105.07092,12.186006,23.671966670529823
1673610105.071927,12.198579,23.66448928423552
1673610105.072934,12.175548,23.65701366815577
1673610105.073941,12.092175,23.64953628186146
1673610105.074949,12.041257,23.642051814708925
1673610105.0759559,12.03455,23.634576198629176
1673610105.076963,12.046426,23.627098812334868
1673610105.07797,12.038228,23.619621426040563
1673610105.0789769,12.013803,23.612145809960815
1673610105.079984,12.013899,23.60466842366651
1673610105.080991,12.051739,23.597191037372202
1673610105.0819979,12.128356,23.589715421292457
1673610105.083005,12.155522,23.593437355030996
1673610105.084012,12.135569,23.603586
1673610105.0850189,12.130136,23.603586
1673610105.086026,12.13088,23.59526609513591
1673610105.087034,12.138814,23.585497
1673610105.088041,12.14266,23.594090892014304
1673610105.089048,12.123693,23.586152586075347
1673610105.090055,12.077559,23.593946296852646
1673610105.091062,12.054215,23.594754945887964
1673610105.092069,12.082751,23.56553419012797
1673610105.093076,12.103763,23.561781239488116
1673610105.094083,12.054143,23.558028288848263
1673610105.09509,11.99272,23.55427622669104
1673610105.096097,11.968102,23.550523276051187
1673610105.097104,12.003153,23.546770325411334
1673610105.098111,12.068375,23.543018263254115
1673610105.099118,12.117417,23.53926531261426
1673610105.100126,12.120591,23.535508808043875
1673610105.1011329,12.148694,23.531756745886653
1673610105.10214,12.202353,23.5280037952468
1673610105.103147,12.211007,23.524250844606946
1673610105.1041539,12.192737,23.520498782449724
1673610105.105161,12.19918,23.51674583180987
1673610105.106168,12.196295,23.512992881170018
1673610105.1071749,12.189131,23.5092408190128
1673610105.108182,12.179659,23.505487868372942
1673610105.109189,12.164056,23.50173491773309
1673610105.1101959,12.095228,23.49798285557587
1673610105.111203,12.026545,23.494229904936017
1673610105.112211,12.051787,23.49047340036563
1673610105.113218,12.102753,23.486720449725777
1673610105.114225,12.121817,23.482968387568555
1673610105.115232,12.113067,23.4792154369287
1673610105.116239,12.128019,23.475462486288848
1673610105.117246,12.158311,23.471710424131626
1673610105.118253,12.187737,23.467957473491772
1673610105.11926,12.16396,23.46420452285192
1673610105.120267,12.138188,23.4604524606947
1673610105.121274,12.152709,23.456699510054843
1673610105.122281,12.100493,23.45294655941499
1673610105.123288,12.083015,23.44919449725777
1673610105.124295,12.075659,23.445441546617914
1673610105.125303,12.069769,23.44168504204753
1673610105.1263099,12.072967,23.43793297989031
1673610105.127317,12.077943,23.434180029250456
1673610105.128324,12.099988,23.430427078610602
1673610105.1293309,12.123019,23.426675016453384
1673610105.130338,12.10946,23.422922065813527
1673610105.131345,12.108018,23.419169115173673
1673610105.1323519,12.099796,23.415417053016455
1673610105.133359,12.088881,23.411664102376598
1673610105.134366,12.095348,23.407911151736744
1673610105.1353729,12.056547,23.410990082021936
1673610105.13638,12.026953,23.45660595326657
1673610105.137388,12.036064,23.438370309012875
1673610105.138395,12.040512,23.430294435280096
1673610105.139402,12.114412,23.46898445350501
1673610105.140409,12.184491,23.422688
1673610105.141416,12.215936,23.43726413921335
1673610105.142423,12.233149,23.51010392274678
1673610105.14343,12.249905,23.495043
1673610105.144437,12.23702,23.495338936565005
1673610105.145444,12.188938,23.496974722054574
1673610105.146451,12.164152,23.498610894895666
1673610105.147458,12.150882,23.500247067736755
1673610105.148465,12.124581,23.501882853226324
1673610105.149473,12.095301,23.503520575473512
1673610105.15048,12.08453,23.505156748314604
1673610105.1514869,12.088088,23.506792533804173
1673610105.152494,12.096502,23.50842870664526
1673610105.153501,12.114172,23.510064879486354
1673610105.1545079,12.12338,23.511700664975923
1673610105.155515,12.143742,23.510969256085918
1673610105.156522,12.16634,23.49272701144492
1673610105.1575289,12.164104,23.474516711359847
1673610105.158536,12.165402,23.458866
1673610105.159543,12.176389,23.464227794033413
1673610105.1605499,12.140039,23.492225769230767
1673610105.161557,12.098763,23.47109785598474
1673610105.162565,12.094892,23.44693330405728
1673610105.163572,12.105878,23.480172846153845
1673610105.164579,12.104749,23.495993162592985
1673610105.165586,12.107441,23.501198722635493
1673610105.166593,12.11237,23.506404282678
1673610105.1676,12.122586,23.511608610343604
1673610105.168607,12.125591,23.516814170386112
1673610105.169614,12.12576,23.52201973042862
1673610105.170621,12.125976,23.527224058094227
1673610105.171628,12.108042,23.532429618136735
1673610105.172635,12.112104,23.53763517817924
1673610105.173642,12.146651,23.542839505844846
1673610105.17465,12.111527,23.54804999539497
1673610105.175657,12.075034,23.553255555437477
1673610105.1766639,12.086213,23.558459883103083
1673610105.177671,12.064216,23.563665443145588
1673610105.178678,12.041209,23.568871003188097
1673610105.1796849,12.016159,23.574075330853702
1673610105.180692,11.958197,23.57928089089621
1673610105.181699,11.956178,23.58448645093872
1673610105.1827059,11.992647,23.58969077860432
1673610105.183713,12.017553,23.59489633864683
1673610105.18472,12.025126,23.60010189868934
1673610105.185727,12.038156,23.60530622635494
1673610105.186734,12.070779,23.61051178639745
1673610105.187742,12.125351,23.615722275947576
1673610105.188749,12.146626,23.62092783599008
1673610105.189756,12.170691,23.626132163655686
1673610105.190763,12.197833,23.631337723698195
1673610105.19177,12.217739,23.636543283740703
1673610105.192777,12.238582,23.641747611406306
1673610105.193784,12.242092,23.646953171448814
1673610105.194791,12.235505,23.652158731491323
1673610105.195798,12.18538,23.657363059156925
1673610105.196805,12.124053,23.662568619199433
1673610105.197812,12.07501,23.667774179241942
1673610105.198819,12.038661,23.672978506907548
1673610105.199827,12.00284,23.652477502500595
1673610105.200834,11.98671,23.653440370767765
1673610105.2018409,12.009764,23.702113579952268
1673610105.202848,12.036233,23.70391746781116
1673610105.203855,12.059696,23.68570846249107
1673610105.2048619,12.10083,23.7012864182165
1673610105.205869,12.152084,23.730219
1673610105.206876,12.161123,23.70408661228864
1673610105.207883,12.204228,23.711248646638055
1673610105.20889,12.21745,23.743911562339836
1673610105.209897,12.202785,23.734970278776956
1673610105.210904,12.192569,23.726031111995226
1673610105.211911,12.153069,23.717089828432346
1673610105.212919,12.116913,23.708140077744883
1673610105.213926,12.122058000000001,23.699198794182006
1673610105.214933,12.133862,23.690259627400273
1673610105.21594,12.116937,23.681318343837397
1673610105.216947,12.109725,23.672377060274517
1673610105.217954,12.1448,23.663437893492787
1673610105.218961,12.179923,23.654496609929907
1673610105.219968,12.18716,23.64555532636703
1673610105.220975,12.182135,23.636616159585298
1673610105.221982,12.163047,23.62767487602242
1673610105.222989,12.157012,23.61873359245954
1673610105.223996,12.142877,23.609794425677812
1673610105.225004,12.139006,23.600844674990345
1673610105.226011,12.136963,23.59190339142747
1673610105.2270179,12.1354,23.582964224645735
1673610105.228025,12.134126,23.57402294108286
1673610105.229032,12.129679,23.55791909236277
1673610105.230039,12.11148,23.53610703810431
1673610105.231046,12.085276,23.559298711254172
1673610105.232053,12.088088,23.564999294749402
1673610105.23306,12.11047,23.507882166746068
1673610105.234067,12.110879,23.50041876972586
1673610105.235074,12.114124,23.51864115951359
1673610105.236081,12.117923,23.508731247973294
1673610105.237088,12.117417,23.4761256386174
1673610105.238096,12.137564,23.509772844743413
1673610105.239103,12.145425,23.4993622289396
1673610105.24011,12.154993,23.488954077770206
1673610105.241117,12.12963,23.478543461966392
1673610105.242124,12.082631,23.46813284616258
1673610105.243131,12.066115,23.457724694993185
1673610105.244138,12.067077,23.447314079189372
1673610105.245145,12.085924,23.43690346338556
1673610105.246152,12.097343,23.426495312216165
1673610105.247159,12.077823,23.41608469641235
1673610105.248166,12.064913,23.405674080608538
1673610105.249173,12.061811,23.395265929439145
1673610105.250181,12.066019,23.38484545509764
1673610105.251188,12.09845,23.374434839293823
1673610105.252195,12.125471,23.364026688124433
1673610105.253202,12.142227,23.35361607232062
1673610105.254209,12.1473,23.343205456516802
1673610105.255216,12.171893,23.332797305347412
1673610105.256223,12.165859,23.3223866895436
1673610105.25723,12.153791,23.311976073739782
1673610105.258237,12.151315,23.301567922570392
1673610105.259244,12.121336,23.304630427753935
1673610105.260251,12.121264,23.29674109511323
1673610105.261258,12.127226,23.286792021459227
1673610105.262265,12.140641,23.269169084009548
1673610105.263273,12.151868,23.26000292998333
1673610105.26428,12.149632,23.296417787553647
1673610105.265287,12.135905,23.295425208591887
1673610105.266294,12.127154,23.277967
1673610105.267301,12.13415,23.268359779022646
1673610105.268308,12.139342,23.2549655222084
1673610105.269315,12.068087,23.245767691449664
1673610105.270322,11.973198,23.236569860690928
1673610105.271329,11.865376,23.227374207448943
1673610105.272336,11.810684,23.218176376690206
1673610105.273343,11.806068,23.20897854593147
1673610105.27435,11.832201,23.199782892689484
1673610105.275358,11.881124,23.19057635186374
1673610105.276365,11.946946,23.181378521105003
1673610105.277372,12.039983,23.172182867863018
1673610105.278379,12.106744,23.16298503710428
1673610105.279386,12.154032,23.153787206345545
1673610105.280393,12.202954,23.14459155310356
1673610105.2814,12.255339,23.135393722344823
1673610105.282407,12.358472,23.126195891586086
1673610105.283414,12.276374,23.1170002383441
1673610105.284421,12.227668,23.107802407585364
1673610105.285428,12.209325,23.098604576826627
1673610105.286435,12.178456,23.089408923584642
1673610105.287442,12.156724,23.080211092825905
1673610105.28845,12.141554,23.07100455200016
1673610105.289457,12.130303,23.061806721241425
1673610105.290464,12.145449,23.05261106799944
1673610105.291471,12.151748,23.043413237240703
1673610105.292478,12.147156,23.034215406481966
1673610105.293485,12.12386,23.02501975323998
1673610105.294492,12.110229,23.015821922481244
1673610105.295499,12.104844,23.006624091722504
1673610105.296506,12.098281,22.99742843848052
1673610105.297513,12.093521,22.988230607721782
1673610105.29852,12.087487,22.979032776963045
1673610105.299527,12.08768,22.96983712372106
1673610105.300535,12.08744,22.960630582895316
1673610105.301542,12.083184,22.95143275213658
1673610105.302549,12.081237,22.942237098894594
1673610105.303556,12.089435,22.933039268135857
1673610105.304563,12.112705,22.92384143737712
1673610105.30557,12.119221,22.914645784135136
1673610105.306577,12.138405,22.9054479533764
1673610105.307584,12.137395,22.896250122617662
1673610105.308591,12.144054,22.887054469375677
1673610105.309598,12.154512,22.87785663861694
1673610105.310605,12.159296,22.868658807858203
1673610105.311612,12.127875,22.85946315461622
1673610105.313627,12.10684,22.841058783031738
1673610105.314634,12.122009,22.831860952273
1673610105.315641,12.137467,22.81363099737783
1673610105.316648,12.12225,22.79569768478779
1673610105.317655,12.085107,22.807619
1673610105.318662,12.075058,22.79477775041716
1673610105.319669,12.069097,22.777988234620885
1673610105.320676,12.054936,22.802886206008584
1673610105.321683,12.057989,22.81211282431466
1673610105.32269,12.073688,22.79645678445398
1673610105.323697,12.091526,22.800562823557463
1673610105.324704,12.11095,22.787745958713423
1673610105.325712,12.119774,22.78321567249141
1673610105.326719,12.132708,22.778689672254472
1673610105.327726,12.146026,22.7741647435138
1673610105.328733,12.163768,22.771441
1673610105.32974,12.182712,22.769669927554062
1673610105.330747,12.176942,22.765298659909877
1673610105.331754,12.165114,22.76092635715614
1673610105.332761,12.148117,22.756554054402404
1673610105.333768,12.143526,22.75218278675822
1673610105.334775,12.148069,22.747810484004482
1673610105.335782,12.140977,22.743438181250745
1673610105.336789,12.13552,22.73906691360656
1673610105.337796,12.119461,22.734694610852824
1673610105.338804,12.094724,22.730318167660872
1673610105.339811,12.065393,22.725945864907136
1673610105.340818,12.03604,22.72157459726295
1673610105.341825,12.028876,22.717202294509214
1673610105.342832,12.020054,22.712829991755477
1673610105.343839,11.990869,22.708458724111292
1673610105.344846,11.954687,22.704086421357555
1673610105.345853,11.951249,22.69971411860382
1673610105.34686,11.982718,22.695342850959634
1673610105.347867,12.031834,22.690970548205897
1673610105.348874,12.040993,22.68659824545216
1673610105.349881,12.047628,22.682226977807975
1673610105.350889,12.06852,22.677850534616027
1673610105.351896,12.062437,22.673478231862287
1673610105.352903,12.088137,22.669106964218106
1673610105.35391,12.098546,22.66473466146437
1673610105.354917,12.106047,22.66036235871063
1673610105.355924,12.126265,22.655991091066447
1673610105.356931,12.152156,22.65161878831271
1673610105.357938,12.129414,22.647246485558973
1673610105.358945,12.123933,22.64287521791479
1673610105.359952,12.143477,22.63850291516105
1673610105.360959,12.153479,22.634130612407315
1673610105.361966,12.160907,22.62975934476313
1673610105.362973,12.163263,22.625387042009393
1673610105.363981,12.184779,22.621010598817442
1673610105.364988,12.19365,22.616638296063705
1673610105.365995,12.214445,22.61226702841952
1673610105.367002,12.203819,22.607894725665783
1673610105.368009,12.192977,22.603522422912047
1673610105.369016,12.178937,22.59915115526786
1673610105.370023,12.131481,22.594778852514125
1673610105.37103,12.078256,22.590406549760388
1673610105.372037,12.039406,22.586035282116203
1673610105.373044,12.017601,22.581662979362466
1673610105.3740509,12.009115,22.57729171171828
1673610105.375058,12.014885,22.572919408964545
1673610105.376066,12.033949,22.568542965772593
1673610105.377073,12.037483,22.564170663018857
1673610105.37808,12.0358,22.559799395374675
1673610105.379087,12.026256,22.555427092620935
1673610105.380094,12.051667,22.554363
1673610105.381101,12.094483,22.540453361230327
1673610105.382108,12.124606,22.550309684147795
1673610105.383115,12.157277,22.526028516452076
1673610105.384122,12.195574,22.546761696709584
1673610105.385129,12.226201,22.554363
1673610105.386136,12.212017,22.568907463519313
1673610105.387143,12.197593,22.557783450643775
1673610105.38815,12.201175,22.50996206413925
1673610105.389158,12.179082,22.498450931797706
1673610105.390165,12.155666,22.496455267703478
1673610105.391172,12.148334,22.494460076067607
1673610105.392179,12.133285,22.49246441197338
1673610105.393186,12.118451,22.490468747879152
1673610105.394193,12.131625,22.48847355624328
1673610105.3952,12.160186,22.486477892149054
1673610105.3962069,12.137347,22.484482700513183
1673610105.397214,12.10494,22.482487036418956
1673610105.398221,12.096166,22.480491372324728
1673610105.3992279,12.09982,22.478496180688857
1673610105.400235,12.117417,22.47650051659463
1673610105.401243,12.134078,22.474502962666982
1673610105.40225,12.118187,22.472507298572754
1673610105.403257,12.093882,22.470512106936884
1673610105.404264,12.083761,22.468516442842656
1673610105.405271,12.062894,22.46652077874843
1673610105.406278,12.062965,22.464525587112558
1673610105.407285,12.078159,22.46252992301833
1673610105.408292,12.115735,22.460534258924103
1673610105.409299,12.131721,22.458539067288232
1673610105.410306,12.149993,22.456543403194004
1673610105.411313,12.171196,22.454547739099777
1673610105.41232,12.174874,22.452552547463906
1673610105.413327,12.17812,22.45055688336968
1673610105.414335,12.135857,22.44855932944203
1673610105.415342,12.096671,22.446563665347803
1673610105.416349,12.084987,22.444568473711932
1673610105.417356,12.064649,22.442572809617705
1673610105.4183629,12.046595,22.440577617981834
1673610105.41937,12.027193,22.438581953887606
1673610105.420377,12.008466,22.43658628979338
1673610105.4213839,12.001254,22.434591098157508
1673610105.422391,12.007144,22.43259543406328
1673610105.423398,12.001061,22.430599769969053
1673610105.4244049,12.028492,22.428604578333182
1673610105.425412,12.08066,22.426608914238955
1673610105.42642,12.111696,22.424611360311303
1673610105.427427,12.105638,22.42261569621708
1673610105.428434,12.094507,22.420620504581205
1673610105.429441,12.097512,22.41862484048698
1673610105.430448,12.063639,22.416629176392753
1673610105.431455,11.911462,22.41463398475688
1673610105.432462,11.843115,22.412638320662655
1673610105.433469,11.890739,22.410642656568427
1673610105.434476,11.985771,22.408647464932557
1673610105.435483,12.035007,22.40665180083833
1673610105.43649,12.050585,22.4046561367441
1673610105.437497,12.083496,22.40266094510823
1673610105.438504,12.139054,22.400665281014003
1673610105.439512,12.177375,22.39866772708635
1673610105.4405189,12.16884,22.39667253545048
1673610105.441526,12.152949,22.394676871356253
1673610105.442533,12.159392,22.392681207262026
1673610105.4435399,12.196054,22.39937899022646
1673610105.444547,12.20668,22.409643
1673610105.445554,12.220407,22.417729999284692
1673610105.4465609,12.196703,22.419521879380213
1673610105.447568,12.175716,22.409643
1673610105.448575,12.17824,22.409643
1673610105.4495819,12.191919,22.418232579976163
1673610105.450589,12.195068,22.436448225083453
1673610105.451597,12.184635,22.42809378755365
1673610105.452604,12.170788,22.4110870755945
1673610105.453611,12.144944,22.4140119347003
1673610105.454618,12.138044,22.416937486408305
1673610105.455625,12.143165,22.419863038116304
1673610105.456632,12.111311,22.422787897222104
1673610105.457639,12.081741,22.425713448930104
1673610105.458646,12.0665,22.428639000638107
1673610105.459653,12.048421,22.431563859743907
1673610105.46066,12.034262,22.434489411451906
1673610105.461667,12.03068,22.43741496315991
1673610105.462674,12.057341,22.440339822265706
1673610105.463681,12.105903,22.44326537397371
1673610105.464689,12.11035,22.446193696090525
1673610105.4656959,12.078833,22.449118555196325
1673610105.466703,12.088064,22.452044106904324
1673610105.46771,12.057941,22.454969658612328
1673610105.4687169,12.068855,22.457894517718124
1673610105.469724,12.120422,22.460820069426127
1673610105.470731,12.120855,22.46374562113413
1673610105.4717379,12.084338,22.466670480239927
1673610105.472745,12.105109,22.46959603194793
1673610105.473752,12.144487,22.472521583655933
1673610105.4747589,12.154056,22.47544644276173
1673610105.475766,12.165763,22.478371994469732
1673610105.476774,12.162157,22.481300316586548
1673610105.477781,12.142612,22.48422586829455
1673610105.478788,12.145785,22.487150727400348
1673610105.479795,12.150858,22.49007627910835
1673610105.480802,12.145377,22.49300183081635
1673610105.481809,12.129197,22.49592668992215
1673610105.482816,12.123644,22.498852241630154
1673610105.483823,12.129102,22.501777793338153
1673610105.48483,12.123693,22.504702652443953
1673610105.485837,12.10595,22.507628204151953
1673610105.486844,12.089602,22.510553755859956
1673610105.487851,12.089482,22.513478614965756
1673610105.488858,12.094267,22.516404166673755
1673610105.489866,12.093377,22.51933248879057
1673610105.4908729,12.114316,22.52225734789637
1673610105.49188,12.13415,22.525182899604374
1673610105.492887,12.135857,22.528108451312374
1673610105.4938939,12.122322,22.531033310418174
1673610105.494901,12.100541,22.533958862126173
1673610105.495908,12.076669,22.536884413834176
1673610105.4969149,12.027506,22.539809272939976
1673610105.497922,11.985771,22.542734824647976
1673610105.498929,11.955216,22.54566037635598
1673610105.4999359,11.933844,22.548585235461776
1673610105.500943,11.934662,22.55151078716978
1673610105.501951,11.952066,22.554439109286594
1673610105.502958,11.994402,22.557364660994597
1673610105.503965,12.056283,22.560289520100394
1673610105.504972,12.101743,22.563215071808397
1673610105.505979,12.146218,22.5661406235164
1673610105.506986,12.192953,22.569065482622197
1673610105.507993,12.215406,22.5719910343302
1673610105.509,12.200501,22.52642063662375
1673610105.510007,12.191222,22.56457359976162
1673610105.511014,12.186197,22.556860403433475
1673610105.512021,12.198339,22.57010000477327
1673610105.513028,12.180524,22.588301342544067
1673610105.514035,12.155714,22.526646896305127
1673610105.515043,12.141867,22.566538805436338
1673610105.5160499,12.148382,22.604939015259895
1673610105.517057,12.149536,22.592262503218116
1673610105.518064,12.140569,22.590905731311505
1673610105.5190709,12.120062,22.59130730969804
1673610105.520078,12.074073,22.59170898317773
1673610105.521085,12.041666,22.592110656657415
1673610105.5220919,12.025391,22.592512235043948
1673610105.523099,12.025198,22.592913908523634
1673610105.524106,12.049767,22.59331558200332
1673610105.5251129,12.064938,22.593717160389854
1673610105.52612,12.072582,22.594118833869544
1673610105.527128,12.089122,22.594520887721842
1673610105.528135,12.115302,22.59492256120153
1673610105.529142,12.130159,22.595324139588065
1673610105.530149,12.097007,22.59572581306775
1673610105.531156,12.055706,22.596127486547438
1673610105.532163,12.047869,22.59652906493397
1673610105.53317,12.059769,22.596930738413658
1673610105.534177,12.089291,22.597332411893348
1673610105.535184,12.062437,22.59773399027988
1673610105.536191,12.08703,22.598135663759567
