9.122948885183981282e-01 9.236119638940201160e-01
9.254183277143498421e-01 9.335913723022442046e-01
8.751866582639661329e-01 8.929923319011315863e-01
8.790419053246931735e-01 8.948491361488444262e-01
8.893451390532660650e-01 9.062205973943849857e-01
8.720162651565741552e-01 8.917444785510131311e-01
9.028005129825630304e-01 9.134311672220788436e-01
8.449964680569250763e-01 8.670667505213159876e-01
8.975696152387301341e-01 9.120865953809965676e-01
8.657828161076219775e-01 8.854994491803933609e-01
9.282321977321603690e-01 9.356081800934298309e-01
8.706994023930044735e-01 8.897498484642195615e-01
9.085943792520565498e-01 9.167293715706311685e-01
9.313439620223711302e-01 9.350644668289879169e-01
8.930363796245440744e-01 9.072551268533344260e-01
8.962667154631401845e-01 9.080048133664269105e-01
8.852810561048767291e-01 9.023494598011841950e-01
8.620617342488586798e-01 8.813903102428874980e-01
8.699765648892719971e-01 8.876509442224725932e-01
9.138400594420967860e-01 9.262970506299601503e-01
9.348187177034474882e-01 9.400074058541076916e-01
8.865555622896609256e-01 9.039019632397143900e-01
9.007500448362020240e-01 9.152343991944066337e-01
8.679529009053386090e-01 8.865040215578970928e-01
9.273261622058759368e-01 9.349366913764802778e-01
9.230189950197852378e-01 9.318128127297619079e-01
8.869605774863053016e-01 9.037960343858717494e-01
9.402727574272788935e-01 9.435929658952829646e-01
9.205694571852556241e-01 9.257284164286764261e-01
9.056201852430131316e-01 9.196986054599449734e-01
9.127321265230055047e-01 9.249815944394640388e-01
8.995473574817799411e-01 9.123440641097650960e-01
9.152256612815602432e-01 9.271234083279363825e-01
8.585975820550879600e-01 8.792139617022217690e-01
8.623886720371491954e-01 8.819157717931521701e-01
9.278766655505579219e-01 9.354726721212242024e-01
9.154962430483161162e-01 9.272904265004561219e-01
9.161155187544696155e-01 9.257172138954530283e-01
8.894884897003086932e-01 9.042651044412567396e-01
8.620885104580223723e-01 8.817284741405975179e-01
8.466630312532608116e-01 8.683819889372326184e-01
8.682135999990586717e-01 8.865358033061497833e-01
8.819620935786304239e-01 8.995092132508205607e-01
8.915869161431621004e-01 9.071057241235155333e-01
9.154225148254169220e-01 9.180958537691157328e-01
9.252535905897080193e-01 9.331312894560245264e-01
8.980818206580961638e-01 9.134000055010740304e-01
9.354521199789410657e-01 9.392052609060395074e-01
9.237063297347974933e-01 9.296452224578993784e-01
9.136514508456765604e-01 9.256194377170864351e-01
9.148479543606549136e-01 9.204109789375582995e-01
8.984277657250088200e-01 9.131321957944568135e-01
9.384725234096649160e-01 9.402934856475321235e-01
8.567094561998896962e-01 8.773308792200487094e-01
8.778126946758173510e-01 8.945532466505989877e-01
9.084647434011711153e-01 9.216722900448608424e-01
9.197010415127473415e-01 9.262882733633250876e-01
8.699316665420430139e-01 8.893771634729574771e-01
8.772846249015534559e-01 8.957076793893177236e-01
9.334453821300108256e-01 9.374313874813479108e-01
9.045450304024981181e-01 9.144055133526625134e-01
8.524699042841390462e-01 8.730600683999217848e-01
9.330298600660770214e-01 9.384982950667263291e-01
8.533801334142970818e-01 8.742394671216542346e-01
9.086880233472310886e-01 9.166577826651546301e-01
8.741337633304145927e-01 8.916566943869136397e-01
9.414327659074004373e-01 9.444199872805942864e-01
9.094575168954810440e-01 9.225760279534083175e-01
9.084861228852342263e-01 9.140042682878530833e-01
9.402640266474677766e-01 9.427204642608510987e-01
8.879253501344531729e-01 9.038740844139333541e-01
8.639231774297199129e-01 8.840192025385870123e-01
8.818628540692812212e-01 8.994724396621468498e-01
9.146465885629971870e-01 9.253503701281561300e-01
8.578949929259042095e-01 8.781899028887238945e-01
9.033602656232623263e-01 9.171383750925381495e-01
9.245505952883213974e-01 9.289669218608227474e-01
9.386899613578187918e-01 9.423081686059721074e-01
9.106574257379419501e-01 9.223172529674893427e-01
9.328395578838597491e-01 9.344956664423763604e-01
8.796260828145571198e-01 8.967027434979297773e-01
9.193695943869518716e-01 9.297367497802917491e-01
8.823626844360724641e-01 8.977378254336753072e-01
9.397483494793522629e-01 9.437420278863147827e-01
9.018908245155171644e-01 9.164679269273628970e-01
9.203554103539508535e-01 9.228526499510372183e-01
9.021923798114289683e-01 9.169037135331200572e-01
9.022221627182044346e-01 9.117988338295293094e-01
9.159372282403697163e-01 9.224520925426807905e-01
9.175917264841608745e-01 9.221274830250428822e-01
9.111710979453054859e-01 9.204767897902783602e-01
8.901374264834364114e-01 9.064385879764206289e-01
9.005074443179645893e-01 9.157639897368847759e-01
8.667240256527509734e-01 8.864963798004622531e-01
9.034200960894973598e-01 9.177297701498782212e-01
8.877886443254207061e-01 9.021940919358825139e-01
8.877303585792112317e-01 9.044807875500218142e-01
9.359299585628103602e-01 9.412728237558252165e-01
9.298462657194840331e-01 9.373293218599936250e-01
8.702370022541752181e-01 8.890777737111037471e-01
9.279163541784295477e-01 9.347930812084459529e-01
9.089958738087612344e-01 9.224863118061389367e-01
9.238010196149455400e-01 9.328707371620515998e-01
9.159148992580402604e-01 9.254374463282168950e-01
9.470811098515453663e-01 9.486481338378491834e-01
8.473392588639718781e-01 8.688884121839139940e-01
9.209560101940098553e-01 9.252065716060535738e-01
8.610314169934435435e-01 8.804321477123975281e-01
9.052828481946014749e-01 9.195176767420908392e-01
8.693861712059846036e-01 8.874737655325088959e-01
9.003109039347331199e-01 9.121312344101873970e-01
8.780808244089752801e-01 8.957178465352756414e-01
9.159885394522170321e-01 9.275502571231809545e-01
8.855302348312101834e-01 9.003256404561217341e-01
8.916406397785335836e-01 9.074549227641544036e-01
9.414726157058314060e-01 9.439755381519846500e-01
8.683163728409283300e-01 8.876490587667155152e-01
8.783083638088162726e-01 8.962698202885076570e-01
9.363804299298456035e-01 9.415200275130305441e-01
8.848959118438841642e-01 9.024066662502902014e-01
9.166554864584185447e-01 9.199836784987625027e-01
8.812766235732524267e-01 8.993297748828124050e-01
9.384425958575984827e-01 9.429008720299731916e-01
9.171695309483351988e-01 9.234154350686911705e-01
9.245260650692862514e-01 9.338249449162312477e-01
8.908353892861258227e-01 9.056717379508961718e-01
8.896084597229504398e-01 9.041487623327948420e-01
8.961669339612796659e-01 9.099891167235723000e-01
8.862302065540076379e-01 9.027830072718049381e-01
9.332106928786257916e-01 9.374549961628282357e-01
9.333315325870098489e-01 9.394656494620987619e-01
9.456342661919836523e-01 9.474930781883600384e-01
8.676994251333276509e-01 8.870320212413259631e-01
8.986474080640411977e-01 9.129061887203057113e-01
9.053027619136220228e-01 9.139753264898511365e-01
8.469113125864162761e-01 8.686152587079180032e-01
9.346806723222527147e-01 9.398981634707085364e-01
8.595225945416672397e-01 8.793211711474467895e-01
9.177827545180469171e-01 9.250590109617093937e-01
9.310540537269175188e-01 9.365735438471172181e-01
8.844577441529525297e-01 9.002244400127198398e-01
9.197531748305264321e-01 9.306813948596031061e-01
8.756420877679037540e-01 8.940596237318220174e-01
9.405375960124238155e-01 9.442810063237396800e-01
8.619882636864292236e-01 8.826227274185752814e-01
9.026177341701967505e-01 9.113564623872733028e-01
9.108343782923756793e-01 9.234812931350924181e-01
8.962325745387883513e-01 9.094397435857541900e-01
8.616199742846263332e-01 8.807584098517353688e-01
9.070463317104974221e-01 9.210670910993001836e-01
8.787651509408216377e-01 8.969315042719454567e-01
8.849697315579454493e-01 9.000609037126969803e-01
9.057286142220054570e-01 9.132671787422774745e-01
9.377369239907890064e-01 9.420943010110228721e-01
8.795487579095582209e-01 8.955395901197138464e-01
8.925526753242469802e-01 9.087918603425882980e-01
9.321187800634247456e-01 9.383658193134565284e-01
9.151365562558525513e-01 9.254449162428425302e-01
8.616480747687692565e-01 8.808578378323284053e-01
9.331111983618834982e-01 9.390899239299392853e-01
8.685884946849963262e-01 8.878597922708207912e-01
8.874174267913542691e-01 9.031966931007059385e-01
9.002303777938859275e-01 9.142124854317323912e-01
8.665947206645423506e-01 8.853371923094528473e-01
8.885492174328566417e-01 9.049836398303841012e-01
8.869953232448303249e-01 9.029358559331106537e-01
9.222971711521419369e-01 9.323019529065992295e-01
8.935898085289504245e-01 9.078434404894099030e-01
8.795141559339036963e-01 8.978265566253510466e-01
8.679977539612476756e-01 8.873933710135106789e-01
8.938557416884503892e-01 9.096248611724029320e-01
8.648828106649940617e-01 8.848025860132978648e-01
8.925516150911747548e-01 9.083405403131444844e-01
8.962655954420879478e-01 9.117978025533937103e-01
9.037384226957724254e-01 9.181906457087639639e-01
8.722083721763791431e-01 8.899885190883977115e-01
9.278844025450013744e-01 9.347203586508584516e-01
9.173892965522326692e-01 9.223292196488223071e-01
9.378560124917569851e-01 9.424579197766014271e-01
8.954653354863414405e-01 9.111386097864503375e-01
8.950156832798481510e-01 9.104426555021157830e-01
9.287427119473520287e-01 9.366140932635513838e-01
9.030020383992517496e-01 9.122083289946358864e-01
9.089372081958339011e-01 9.162450108695161521e-01
8.792806531814363336e-01 8.955192207213482636e-01
8.752114774033643574e-01 8.938959083189125243e-01
9.438201585869511190e-01 9.465150513169063862e-01
9.097019523145647435e-01 9.205283969383905029e-01
9.221762475742980580e-01 9.321510121602094578e-01
8.862070875908593104e-01 9.008281504186409494e-01
9.162221166991372234e-01 9.275639776570440143e-01
8.740319698390409675e-01 8.918132063424017986e-01
8.781898082569623565e-01 8.951738080843630874e-01
8.824599715245818876e-01 8.993131655144785963e-01
9.282479213970057375e-01 9.319409075804030440e-01
8.800169748232634648e-01 8.983013780473064758e-01
8.869567896024401765e-01 9.023303496039282168e-01
9.107860820188025119e-01 9.184239910364140336e-01
8.850256729522182342e-01 9.001019936319012427e-01
9.034621877078484742e-01 9.169399327847552739e-01
9.234327365947954114e-01 9.327851811033798235e-01
8.843400500996239089e-01 9.016796465224944379e-01
8.918229824457616361e-01 9.061417736615828833e-01
9.189856856984225386e-01 9.302026993066304650e-01
9.028995706062471482e-01 9.121881451944079400e-01
9.135531684579465406e-01 9.260452949157185198e-01
8.713976583935919562e-01 8.905746549331998718e-01
8.817399065690523230e-01 8.993163591969783877e-01
8.557414118964065119e-01 8.769681092856006499e-01
8.668902020418429721e-01 8.863413723858712956e-01
9.208777238965961676e-01 9.313621235643265717e-01
9.203373687321234620e-01 9.281783113162701548e-01
8.705604236486707004e-01 8.881057626416813955e-01
9.276146891357527346e-01 9.361656528413018208e-01
8.861153723386347991e-01 9.014335865412361759e-01
8.724145461956801517e-01 8.914383387982928175e-01
9.399374440666363739e-01 9.426106618986864749e-01
9.229449932738246209e-01 9.327381329325904469e-01
9.215718563252840445e-01 9.324243205086185649e-01
8.666339460500330771e-01 8.862754155951965140e-01
9.139552911392513357e-01 9.180284336919487531e-01
9.176371713007879238e-01 9.224690292011593629e-01
9.031963398697132606e-01 9.142944288568539690e-01
9.461574345249049722e-01 9.480027545546524381e-01
9.344509216465124446e-01 9.401534786507166341e-01
8.660392911952526918e-01 8.845594314609320774e-01
9.163603156971384944e-01 9.262874544326604731e-01
9.354141501291183269e-01 9.403697638114090207e-01
9.031697913714282766e-01 9.179328699697666405e-01
8.678742516446977806e-01 8.863457261303369084e-01
9.148150583540939351e-01 9.271251155986224290e-01
9.047812273615922773e-01 9.190012113584651310e-01
9.246203171572502377e-01 9.340421799242171197e-01
9.303684562866461061e-01 9.371219767596457029e-01
9.331457427554350481e-01 9.393928123307697664e-01
9.006191689169261716e-01 9.157861277659152810e-01
8.567549115529190518e-01 8.767802605766935597e-01
9.056841078431243641e-01 9.200571666226513567e-01
9.042254204722766087e-01 9.188765714743820645e-01
8.964211030247692946e-01 9.119312352239158370e-01
9.303814020227714199e-01 9.381659716344025179e-01
9.294206572338657990e-01 9.329492601633624371e-01
9.378993102413635263e-01 9.428791774747161680e-01
9.209515143674448234e-01 9.274843361640877637e-01
8.726521837542394744e-01 8.914700161225729280e-01
9.047755781774384776e-01 9.184071477022788255e-01
9.487767162502713791e-01 9.498308744524008862e-01
9.054577450754948131e-01 9.142890037082621602e-01
9.334105702296874307e-01 9.385955998493353825e-01
9.116997869884403416e-01 9.171652312954814423e-01
9.223224335675510588e-01 9.306554088291421056e-01
8.845432584508148288e-01 9.000337001851317353e-01
8.796971817922744075e-01 8.972984599370275038e-01
9.277490302111456311e-01 9.300717313794758523e-01
9.118617904700248022e-01 9.205410326478548066e-01
9.184713405377517015e-01 9.302644972347116070e-01
9.255359392677052766e-01 9.342216616069607404e-01
9.295461957880788439e-01 9.347111924202735622e-01
9.191262432934326210e-01 9.275396432685596437e-01
9.246978658949218666e-01 9.346631136893784886e-01
9.367133269381038296e-01 9.412528797875595599e-01
8.798785555611063902e-01 8.973756149538656413e-01
9.179044570089646138e-01 9.290784720875856495e-01
9.317052631176820920e-01 9.375202434066481905e-01
8.991226465566720671e-01 9.138135341486940399e-01
9.221002651643867010e-01 9.257871425034263080e-01
8.607468544057065296e-01 8.809033725358936806e-01
9.202382266222741691e-01 9.295636357357399682e-01
8.899616827984967449e-01 9.050323741920768272e-01
8.864571318523820631e-01 9.023072397609180895e-01
8.557003517242630641e-01 8.758706275711354294e-01
9.416884032425382189e-01 9.454745456243938140e-01
9.021777891270249539e-01 9.170631718215364048e-01
9.245742935795037143e-01 9.309958898525382276e-01
9.104569066964264268e-01 9.196259119139474913e-01
9.131522870704806838e-01 9.228597236713466101e-01
9.195578711962765217e-01 9.238369816900590115e-01
9.103614756410907116e-01 9.209929278013120335e-01
9.248253251793464580e-01 9.343681149987032031e-01
8.972469071964274123e-01 9.118120691709080683e-01
9.397646499058713854e-01 9.438859375129097229e-01
9.334802539299690283e-01 9.403082978971453176e-01
8.627436345433977527e-01 8.831733484639348042e-01
9.273165817680962819e-01 9.361503311428218677e-01
8.956149239500318382e-01 9.114307732162619802e-01
8.906443125736722699e-01 9.070470559206690320e-01
9.016571398823597372e-01 9.110141969731311296e-01
8.624928573461401182e-01 8.820454326058356775e-01
9.395083669273980309e-01 9.425797093477633615e-01
9.087320087494855647e-01 9.199069318406611906e-01
9.439074473685352684e-01 9.471700801380664725e-01
9.218472679778757506e-01 9.277706701721221139e-01
9.252640409075925110e-01 9.288099949752450790e-01
9.370584032119756435e-01 9.384697513855115858e-01
8.884274669892682219e-01 9.056359845671756448e-01
8.835492065363674818e-01 9.010993845128310031e-01
8.736113535466265567e-01 8.910538283165420070e-01
9.026032806901874705e-01 9.144101389640550970e-01
8.975554933186155049e-01 9.131065907088188327e-01
9.082846253974266038e-01 9.213897981035814588e-01
8.995163774868318862e-01 9.095591738479439359e-01
9.408899549955765940e-01 9.435106886480367772e-01
9.389158538789097452e-01 9.430827500098969418e-01
8.596870963786397146e-01 8.797822324712748498e-01
9.248016935114891091e-01 9.337445643209421053e-01
9.015081369868729322e-01 9.166070881815877591e-01
9.350240334547410548e-01 9.408756253117298574e-01
9.272961298307450528e-01 9.363776301842530181e-01
9.008428071056157060e-01 9.145785978216469658e-01
8.579817031161233176e-01 8.779565118281964509e-01
9.163719312325265820e-01 9.274130182747006845e-01
8.701095274284734726e-01 8.878009739049647076e-01
9.287805608864887486e-01 9.326091552427097087e-01
9.181481506588574648e-01 9.297456364320052513e-01
8.987077849216205117e-01 9.127885016593376699e-01
8.758681425906900131e-01 8.941243879425276875e-01
8.924861797892179593e-01 9.082900628296416423e-01
9.199157365217277560e-01 9.265331816742392590e-01
9.191131209981843186e-01 9.252975275187178550e-01
9.180266107632145678e-01 9.269164757632211149e-01
8.751287407773770122e-01 8.936871360986670121e-01
9.177617165710952873e-01 9.285812419845073107e-01
9.192540911124643666e-01 9.304223587497123527e-01
9.140592008167569560e-01 9.271136417735739155e-01
9.440468515266865479e-01 9.456036297221294129e-01
8.831258527260118507e-01 8.996045718859773110e-01
8.803849663900323863e-01 8.975254624446182827e-01
8.722191971368370433e-01 8.896378291545553596e-01
9.184011828981806236e-01 9.284661269659094662e-01
9.368141102656523111e-01 9.421923209156466417e-01
9.125187741327428492e-01 9.255115139267485747e-01
8.848473536011702834e-01 9.013693177946495716e-01
8.835153810864124768e-01 8.987837790951068717e-01
8.686643979513070102e-01 8.879452670359573307e-01
9.283240872299922675e-01 9.346275756794363287e-01
8.949731737952719701e-01 9.092024566036640554e-01
9.024741666172690913e-01 9.166379609868212652e-01
9.159419093427431102e-01 9.288584733862870202e-01
9.334267282938191190e-01 9.402598932414300004e-01
9.484420143065995790e-01 9.500342768629136403e-01
8.823820598222654743e-01 8.999566803882345090e-01
9.150002280478776173e-01 9.271008269261481471e-01
9.252236614924590485e-01 9.346419920337771803e-01
8.906043592258218178e-01 9.067654844321684227e-01
8.949656400791035082e-01 9.106701674714806627e-01
9.443143266349753873e-01 9.467405493248557402e-01
9.214764334621847741e-01 9.325298405927820999e-01
9.128698763191992471e-01 9.185125536665004198e-01
9.315556830261482180e-01 9.384131984037565877e-01
9.080344644626017203e-01 9.216705059575076575e-01
8.869481614963911076e-01 9.037599620740264239e-01
9.146345164470895961e-01 9.213909017164481075e-01
9.335076545714441343e-01 9.354720485520661155e-01
8.488065238726342221e-01 8.698682430324308212e-01
9.103703271602604508e-01 9.238387176037434756e-01
8.856541307539639307e-01 9.008017905017688953e-01
9.082745080235522517e-01 9.205852546037636142e-01
8.814633098440532999e-01 8.986657674721539868e-01
8.603750763500855880e-01 8.796770114900912541e-01
8.932751950497057614e-01 9.076017408385411711e-01
9.369916083237580517e-01 9.388781098067633391e-01
9.233384773592231420e-01 9.253948417141872884e-01
9.376793472939364271e-01 9.432679574162124991e-01
9.313184091832458211e-01 9.389396545888512025e-01
9.034959422136641383e-01 9.167803122838160679e-01
9.036009095233387134e-01 9.135492851954526428e-01
8.881380206360925955e-01 9.034731815903210839e-01
8.736109998209840022e-01 8.924641142077621714e-01
8.747977375976255798e-01 8.934499834902372983e-01
9.308342072565768399e-01 9.366770297471214146e-01
9.142401951608202237e-01 9.237253183583520322e-01
9.086626758114881852e-01 9.186048407550665429e-01
9.246454987185841468e-01 9.341487461460539210e-01
9.413325916897644641e-01 9.450364169049313423e-01
9.483883221342109815e-01 9.499638474103574426e-01
8.965451554994133820e-01 9.115350482306969759e-01
9.056792508479675208e-01 9.171293451417926734e-01
9.272821384396735533e-01 9.286225327862799306e-01
8.537286805932733369e-01 8.741954485773988370e-01
8.647450716322917508e-01 8.843328526046266846e-01
9.240146806238437316e-01 9.333513189474654803e-01
8.959030454581092817e-01 9.114226164887696546e-01
8.861517204705594564e-01 9.016496182187739850e-01
8.971780635189970932e-01 9.126068022083938525e-01
8.541927485514401175e-01 8.745361575636857454e-01
8.737577215109251227e-01 8.909323336447102504e-01
9.082808886011106697e-01 9.180888476278965538e-01
8.791715987005849220e-01 8.961715076240809319e-01
9.413156151708400587e-01 9.445893368254457689e-01
9.153241180738134197e-01 9.263728103979507189e-01
9.079136003993799608e-01 9.142758720882021573e-01
9.339203933398662061e-01 9.405551164990563207e-01
9.261020522150538170e-01 9.354524454854157289e-01
8.743370622345769672e-01 8.929685001023168756e-01
8.935319948705474635e-01 9.085692462518556445e-01
8.981654088599362318e-01 9.127543817519442326e-01
8.707768911859286032e-01 8.884209769205944074e-01
9.198282735475610261e-01 9.261500460996108242e-01
8.838411442024036724e-01 9.010950636683178194e-01
9.143507745613937976e-01 9.269181536735671134e-01
9.192453957346425897e-01 9.249698504943540955e-01
8.902315213376040814e-01 9.046415823249146504e-01
8.877046196299119840e-01 9.044256467564243396e-01
8.711633880003503139e-01 8.903900556990639314e-01
9.473446117580274217e-01 9.494382479331272551e-01
9.384079242863790915e-01 9.403146206473269597e-01
9.117902642851448691e-01 9.245515989566114312e-01
9.031836434492606092e-01 9.172224917855563708e-01
8.969891349167827821e-01 9.123411205431299908e-01
8.997890102535173185e-01 9.125741622080566495e-01
9.265097517086257062e-01 9.356858217815039458e-01
8.954583098774018257e-01 9.095148398819489222e-01
9.013956096889900182e-01 9.157537328034808244e-01
9.191000875201348341e-01 9.302932309483743500e-01
8.960754451314465463e-01 9.077741717878222705e-01
8.637570728877257409e-01 8.828253639630184724e-01
9.246715698051641841e-01 9.343409807733346062e-01
9.377481160136955651e-01 9.428230449017424020e-01
8.671956259336029982e-01 8.864002913554617225e-01
8.970467224980566145e-01 9.108341749672064225e-01
8.627814628794255869e-01 8.818098476210696202e-01
9.368228974124986896e-01 9.414312956451708070e-01
8.720849079107048096e-01 8.902388821467742686e-01
9.147973402880159588e-01 9.273254270504140973e-01
9.172723599896830393e-01 9.222501286755089289e-01
8.823745894167491777e-01 8.983616344985793090e-01
9.128921647452088450e-01 9.200132482829792568e-01
9.239020474370759350e-01 9.341760106459572333e-01
9.018656228591460655e-01 9.112025109447372540e-01
8.627954926400647206e-01 8.821067283935858372e-01
8.753093915044939388e-01 8.920335149854995427e-01
9.011674020759069537e-01 9.118607384652396286e-01
8.845820182889787553e-01 9.016476451605789366e-01
9.071083292555985889e-01 9.211464086407287200e-01
8.700475539445816642e-01 8.891908356478491759e-01
8.939565429124645135e-01 9.100944372867157961e-01
8.675285708800994922e-01 8.871948428399728526e-01
9.157746023933749369e-01 9.259120732712372570e-01
9.322885583892394079e-01 9.343049836315541201e-01
9.296645924728804689e-01 9.332019481436801822e-01
9.075105795600439951e-01 9.184429316400415377e-01
8.942698642156851063e-01 9.087145528705682374e-01
8.805464414096297876e-01 8.967455207667636152e-01
9.381161775778662504e-01 9.434340018741002032e-01
9.350655931824743972e-01 9.399213460214352889e-01
9.281715007308414256e-01 9.336323075224597368e-01
9.163283182241632741e-01 9.233318808358184082e-01
9.401176140858350516e-01 9.418354818306240439e-01
9.283283114681302184e-01 9.367629979658481654e-01
9.323418821321060035e-01 9.341440953427018190e-01
8.949155367433353492e-01 9.107268979219750316e-01
9.340248746786099510e-01 9.387420903642297310e-01
9.404496885020025010e-01 9.443918700450179005e-01
9.250835978350478994e-01 9.347859096558976955e-01
9.234833012894522186e-01 9.337356083031896903e-01
8.981783778843445143e-01 9.135356451945619849e-01
8.719825157182559128e-01 8.897071326816002879e-01
9.343402867181551663e-01 9.406053584810645241e-01
9.039423465223611620e-01 9.174293684296930262e-01
8.725733586751722726e-01 8.897950815388071533e-01
8.980048866803402863e-01 9.134144946134800103e-01
9.109835224462935477e-01 9.222102950393511467e-01
9.188128717680540403e-01 9.210075020682673141e-01
9.156767220849622024e-01 9.282883676165024633e-01
8.647038174212505757e-01 8.833646667649852624e-01
8.864115307958927437e-01 9.036763161673566636e-01
8.966579943160624122e-01 9.122909887216207325e-01
9.421189290126739113e-01 9.455464834039638555e-01
9.355541767804512743e-01 9.414617641603704179e-01
9.185103091867163894e-01 9.279660903897319901e-01
9.137761957765627718e-01 9.185983164713140692e-01
8.787711256884375155e-01 8.968832581177466068e-01
8.797513461230376253e-01 8.975279339266163392e-01
8.686888169548070415e-01 8.873244661618238105e-01
9.191957218478504776e-01 9.297384209444726766e-01
9.126735170452917600e-01 9.252901251680226702e-01
9.068265112997903055e-01 9.206876011513501767e-01
8.944432837015159343e-01 9.104071558972062217e-01
9.278726122882242633e-01 9.365861408543035838e-01
9.284434214151509046e-01 9.327661999655032510e-01
9.075333330210633154e-01 9.207543371828456058e-01
9.336023783501388174e-01 9.406086582716766120e-01
8.738561500391441861e-01 8.921822095909184291e-01
8.793322856653448261e-01 8.973955736606622491e-01
8.674496692917054164e-01 8.864792150656968239e-01
8.792467796507772437e-01 8.952254575423927996e-01
9.470729560130892732e-01 9.494768613945374636e-01
9.103219731597124165e-01 9.238613703112739106e-01
9.088440142422656853e-01 9.187128500242960349e-01
9.251454671956790277e-01 9.349802439130038278e-01
8.822761332133345347e-01 8.984889050796950327e-01
8.900688485031081898e-01 9.058452840335990963e-01
8.873599025589562483e-01 9.033246643450928426e-01
8.732251506400260377e-01 8.914401275917857026e-01
8.740235572003430820e-01 8.928112978453924820e-01
9.256087190933506292e-01 9.355309169739934871e-01
8.802609618710121042e-01 8.980364180016501274e-01
9.236883788753840197e-01 9.278660511203126182e-01
8.824283427173782446e-01 8.999971323658358946e-01
8.782483700065727428e-01 8.963132024597160186e-01
8.998629281008189151e-01 9.124230143037138641e-01
9.151927176421701393e-01 9.277301713020216223e-01
9.380828986852116635e-01 9.435200056447676786e-01
9.375043814384526053e-01 9.388038672375697002e-01
9.230073317987511627e-01 9.336074048860300012e-01
9.470130473296065610e-01 9.487080638754245010e-01
9.262430140599778872e-01 9.345062817458688054e-01
8.793826980992546227e-01 8.955457426426585155e-01
8.883645984518943051e-01 9.030724814366017927e-01
9.338724919434702176e-01 9.390061078752303114e-01
8.910644621465794168e-01 9.073994405810661412e-01
8.690314948589540345e-01 8.868175286497534948e-01
9.176809696945736894e-01 9.296892252662575240e-01
9.241277445106249600e-01 9.344648384539375741e-01
9.154499034243994693e-01 9.214561125931248764e-01
9.337459432932926351e-01 9.407896088376752619e-01
9.330020027052463583e-01 9.398745324235379117e-01
8.797002995297454886e-01 8.966212255116795538e-01
8.909342737642843568e-01 9.052997075539119809e-01
9.197948998758173067e-01 9.274766941700388623e-01
8.978374081224165248e-01 9.128492754426098532e-01
9.182230162761871872e-01 9.293902232394126717e-01
9.361081039997591891e-01 9.383484368307585255e-01
9.212733718449359621e-01 9.314766486230551257e-01
9.308236075659473974e-01 9.322389553748968716e-01
9.229000842494362589e-01 9.304845432602416588e-01
9.061690236652301111e-01 9.182515468127542269e-01
8.940917260079038753e-01 9.082918514256832498e-01
8.922776677486436991e-01 9.082232279335009650e-01
9.172541915598043660e-01 9.297875659333195708e-01
9.047760685003607417e-01 9.162507387194324115e-01
9.086018126041902621e-01 9.223669292871906622e-01
8.705389235082938715e-01 8.885016443787064899e-01
8.854011721693484382e-01 9.004633132617528846e-01
9.000843087536105624e-01 9.152012598424735801e-01
8.608685321426570169e-01 8.805904500501997578e-01
8.737668343949998029e-01 8.916833433841456769e-01
9.455279762917131459e-01 9.473176634409244956e-01
9.051240217040824598e-01 9.169812383652146126e-01
8.888907098600893342e-01 9.045756305411127851e-01
8.954473836041642043e-01 9.106038274992476200e-01
8.658240985389588085e-01 8.841449018380987956e-01
8.570333420571975003e-01 8.766645580094353241e-01
8.797952929257099042e-01 8.958592673264231809e-01
8.753074679719926587e-01 8.921392152923817154e-01
9.096386286787165876e-01 9.233393136812840796e-01
9.171650771935345725e-01 9.296670320490856287e-01
9.237416322029037286e-01 9.341772761713499351e-01
9.094862276027796399e-01 9.181409529382402734e-01
8.920854077166631146e-01 9.061169331314034014e-01
8.542729397024488858e-01 8.744790723056594661e-01
8.666030406984145396e-01 8.859926703411108440e-01
9.321338006564017231e-01 9.384458870637354400e-01
9.313714547751867912e-01 9.327251534750654605e-01
9.300729452771135941e-01 9.313449413522046916e-01
9.030858138664669132e-01 9.144786075532620462e-01
9.314867277141777313e-01 9.387707020172461059e-01
9.275886146093481610e-01 9.367358814200638095e-01
8.608595228487714301e-01 8.799756459881062920e-01
9.117922484155099871e-01 9.194440173204202482e-01
9.193902531757002228e-01 9.284701608648711080e-01
9.300948460263845918e-01 9.383462033579275108e-01
8.859677486173498373e-01 9.026891438720440197e-01
9.167878247154805926e-01 9.269567721873156474e-01
8.992958450490099453e-01 9.112987651922445087e-01
9.305676918692610267e-01 9.390563821677718748e-01
9.237273931420554307e-01 9.309642278228515977e-01
8.734116367741134868e-01 8.914154132276453923e-01
8.807405675086383834e-01 8.984822587197318633e-01
9.078233629164096374e-01 9.217370551314884031e-01
8.693347735047581848e-01 8.879031027564570078e-01
8.993607153367527696e-01 9.134569883818366431e-01
9.463390915028795369e-01 9.488348595124691531e-01
9.325542298592389701e-01 9.372172345037986796e-01
8.677361020515814705e-01 8.858006453958398030e-01
8.930510797544453094e-01 9.064160740728868237e-01
9.191643719824871273e-01 9.309454534996072228e-01
8.792997045404288281e-01 8.972736369875947693e-01
9.223401811656505300e-01 9.245132141665673986e-01
9.159753182822966133e-01 9.285563811622659092e-01
8.775033505057147076e-01 8.957292425484271181e-01
9.018388485665178589e-01 9.137089332277561482e-01
9.283645566913825142e-01 9.374419876110281491e-01
9.173746141224599082e-01 9.296443603298883973e-01
8.940360882969112799e-01 9.068156650778740335e-01
9.279651397261041712e-01 9.370749356838816713e-01
9.281816693065267909e-01 9.347009725104780120e-01
8.836964554968708141e-01 8.996750609297804457e-01
9.210879234484656841e-01 9.272037408401232472e-01
9.210415867018825198e-01 9.320283993391522692e-01
8.805709503326869525e-01 8.980993218908814857e-01
9.095394195707292573e-01 9.231755151130801584e-01
9.216631505409930147e-01 9.251477994748564804e-01
9.463207606820080997e-01 9.484633454742389391e-01
9.106858548921710206e-01 9.242031656475461210e-01
8.730154779151981792e-01 8.914982342822638239e-01
9.169838930448528380e-01 9.252707279105164551e-01
9.153571996651019838e-01 9.220769216403268409e-01
9.191201371454820190e-01 9.306961343670551168e-01
8.662544936207553503e-01 8.845276562881749793e-01
9.181565561492721628e-01 9.220898008386170241e-01
9.384630059582452777e-01 9.421263854312643682e-01
9.008628238950380229e-01 9.158223399750262672e-01
9.189000730104710524e-01 9.304263711088579525e-01
9.427627803268714413e-01 9.466222587903329044e-01
9.260985032845149290e-01 9.340214744140825642e-01
8.892160792760281929e-01 9.035237557052882007e-01
8.823512951576191199e-01 8.997424891153419368e-01
8.722570902861320752e-01 8.893016094373540348e-01
8.641044987957948731e-01 8.841866048277278178e-01
9.279789246972581784e-01 9.292592778726525005e-01
8.674654646176555017e-01 8.854413152973101830e-01
9.108182082476681263e-01 9.195931491503330779e-01
8.801309576303464333e-01 8.977692777238434063e-01
9.287467369397376382e-01 9.303917434537088971e-01
9.080201493195627638e-01 9.218146608193144020e-01
8.678114386254399681e-01 8.856967698873894346e-01
9.215412866005328052e-01 9.310114488363739893e-01
9.234893499284885232e-01 9.261102672445967743e-01
9.471870782436205838e-01 9.484369650104039762e-01
9.380593263539426241e-01 9.408536017930596573e-01
9.280296519138573341e-01 9.373895341013864790e-01
9.199130161360123958e-01 9.302050984158704017e-01
9.342178049162190856e-01 9.406125720963804948e-01
9.283536512636797466e-01 9.348670588999572484e-01
8.851450858391803900e-01 9.020375456480582699e-01
8.652332382805441036e-01 8.834714982609093159e-01
8.774250826226793754e-01 8.938509946188312183e-01
9.031267449565123506e-01 9.178510514360366246e-01
8.966665954157908569e-01 9.096574121078873087e-01
9.037526931507525729e-01 9.131189130919222796e-01
9.242100747513636305e-01 9.288273619214001409e-01
8.963302456731341294e-01 9.105498928158723970e-01
8.903994062832172318e-01 9.045966096772041221e-01
8.634261638813204298e-01 8.832840664867706026e-01
9.374165844909911893e-01 9.425244718989779225e-01
9.291638288309967963e-01 9.367770452979237161e-01
8.843206056301332607e-01 9.008629070727522947e-01
8.827675928322611387e-01 8.998102722381066121e-01
8.775147062469729198e-01 8.956812276049138655e-01
9.345910698627583058e-01 9.409923679353326964e-01
8.768575718474079794e-01 8.942539910141674708e-01
9.056924029791914021e-01 9.185661623749876714e-01
9.394139139571140440e-01 9.407717706039281369e-01
8.815757503870221834e-01 8.978053377053504258e-01
9.302044110854660319e-01 9.350714647805511426e-01
8.884596373353914611e-01 9.036071900253422884e-01
9.437719769360417565e-01 9.465958014419778577e-01
8.905489918536573235e-01 9.062818508722578770e-01
9.426404234615035627e-01 9.443381046727401529e-01
9.321342744125584723e-01 9.364422061244911388e-01
9.106785810646130797e-01 9.231371557326840671e-01
9.228158287336608590e-01 9.332548436530156977e-01
8.716361378626680256e-01 8.887916824160063678e-01
8.760797151510300029e-01 8.941178504012609052e-01
9.168313119173447934e-01 9.271047079396494972e-01
9.420100166552707321e-01 9.463254288126388136e-01
9.502390103774571717e-01 9.516961131382836170e-01
9.204945950708010027e-01 9.307315033090589607e-01
8.996237838650109619e-01 9.130941588041125989e-01
9.299604540614435644e-01 9.325709229991151483e-01
8.760839603630472538e-01 8.941835939646792797e-01
8.957138821367486292e-01 9.106671834239016272e-01
8.793815512834231019e-01 8.972005458167273684e-01
9.102879445090831245e-01 9.209100913597253468e-01
9.185638724978211211e-01 9.300294623957553464e-01
8.825470937863789667e-01 8.998139824045591206e-01
8.955892569510254253e-01 9.094443277759978184e-01
9.322386225834543572e-01 9.399844120336811049e-01
9.426501545574070828e-01 9.464092097690099958e-01
9.189447754095019238e-01 9.264453975577474631e-01
9.326473203612385410e-01 9.363382987872026497e-01
8.786245476659400033e-01 8.957709555900159604e-01
8.662859856610990450e-01 8.858437486144786766e-01
9.058672089119211845e-01 9.201225348206543142e-01
9.367339015204129149e-01 9.427035947045534492e-01
8.766690810421091662e-01 8.949625258375476511e-01
9.198052683460505863e-01 9.253988734657420112e-01
9.446864652579639587e-01 9.476371632340964135e-01
9.285416526323064801e-01 9.360371387679707889e-01
9.016856019735932648e-01 9.165155702058214171e-01
9.190021723079464522e-01 9.243416031675423250e-01
9.168036941898500825e-01 9.263006987273069148e-01
9.121985591131359650e-01 9.204118276417194711e-01
8.627003041954756091e-01 8.812746348160200860e-01
9.257249831452617483e-01 9.321403557204898105e-01
9.280666688666318054e-01 9.305990733890190381e-01
9.145518330367923276e-01 9.268211942498528755e-01
8.716791037663891295e-01 8.889384358256843255e-01
8.989346834164648747e-01 9.139835085745737775e-01
8.892490985958644290e-01 9.040139570571587013e-01
8.742892832159733230e-01 8.922924326714546384e-01
8.626292017608315765e-01 8.813700430999350521e-01
8.676964566152152170e-01 8.868897223765065396e-01
8.810019151705810181e-01 8.984609750579072296e-01
8.872358993864354337e-01 9.029093401643837336e-01
9.161305257505162336e-01 9.252141123486772312e-01
8.813614704475817296e-01 8.988458988927443549e-01
8.943878146079587976e-01 9.078306113562807367e-01
9.088506330561646473e-01 9.220988899399532590e-01
9.355189560326909737e-01 9.414956708050674639e-01
9.030958287495510772e-01 9.175523116686801206e-01
9.428156573733035284e-01 9.467104719889276598e-01
9.387197816049061005e-01 9.440732068563583157e-01
8.614932142766549283e-01 8.803784069251990863e-01
9.304708121931615228e-01 9.326764284623486612e-01
9.298350921166697036e-01 9.334775819948306630e-01
9.247171291634371793e-01 9.304658763745982109e-01
8.899281789512738516e-01 9.058129457916865857e-01
9.145234964691356661e-01 9.264024004913625765e-01
9.293752219519411106e-01 9.379862482892378228e-01
9.470676495165769593e-01 9.498217393162806665e-01
8.865710946126031944e-01 9.014505716316445483e-01
9.182976396912362338e-01 9.227724239703533060e-01
9.326804458389977848e-01 9.370947409365982805e-01
9.099791955728521176e-01 9.177051612004001324e-01
9.492403412111591887e-01 9.507133848133726417e-01
8.789583265803956325e-01 8.965019975219138404e-01
9.100177957567499032e-01 9.231564764792871136e-01
9.208769202495779016e-01 9.260093801516596779e-01
9.278798688429931163e-01 9.360010199994147628e-01
9.165483962367882986e-01 9.243473419694067106e-01
9.289350197477528326e-01 9.372703388696504989e-01
8.767087037746364997e-01 8.943975207711931663e-01
9.091687423077690067e-01 9.223532487651181500e-01
8.904575216297954121e-01 9.056445643903997533e-01
8.687925894288122119e-01 8.877442582702330665e-01
9.170802572962070132e-01 9.296611177060111197e-01
9.300353898978056533e-01 9.378062394398281043e-01
9.240952512356879200e-01 9.338367828368101531e-01
9.018917554075717158e-01 9.165099728143004665e-01
9.415335964828798199e-01 9.454154537484934506e-01
8.983708419301736914e-01 9.119782708133926663e-01
9.033443164084297150e-01 9.177573936589488168e-01
9.089362172695277797e-01 9.160781884481293824e-01
9.217010801286932287e-01 9.310512358983348280e-01
9.287485829124209058e-01 9.349267775990846019e-01
8.957187095773782026e-01 9.114815208263107316e-01
9.012746730072068724e-01 9.160709767222001698e-01
9.425132254917104602e-01 9.438967616189266607e-01
9.113197300992389449e-01 9.237327318243442331e-01
8.807115235024994826e-01 8.979882356215308503e-01
9.125162712852195046e-01 9.250364380295297284e-01
8.796558241412000267e-01 8.963030472706685625e-01
9.355914111359242558e-01 9.417925609530048980e-01
8.859783042048923196e-01 9.021960749932909085e-01
8.729333037145775576e-01 8.917372218791835836e-01
9.176111607077057641e-01 9.301538634397761296e-01
8.861578097073928850e-01 9.009985723576289240e-01
8.819889688432219765e-01 8.994725478805715158e-01
8.930717018150537978e-01 9.069350129048234788e-01
9.296776688247094800e-01 9.335916730135930264e-01
9.262649348494117474e-01 9.330028171812957405e-01
8.798601982519063114e-01 8.975116376171855537e-01
9.420190338621303727e-01 9.449676722455182531e-01
8.562965805619865423e-01 8.759461830895015622e-01
9.424750464713668174e-01 9.432898130292104444e-01
8.683311372365067893e-01 8.866288138398668028e-01
9.203246918436940316e-01 9.319797406407179796e-01
9.318577463875036271e-01 9.400335519824053465e-01
9.117694219488973184e-01 9.250419295923290042e-01
9.308851829792449406e-01 9.390365370905782161e-01
9.111671780378434171e-01 9.246729205384576211e-01
8.963455100797576014e-01 9.119001565827004052e-01
8.897523537943158312e-01 9.042713834564563014e-01
9.448129859795643126e-01 9.472162984073159153e-01
9.395381309349127852e-01 9.402470256177566377e-01
9.146718979027900209e-01 9.236023100491709270e-01
9.254576849859078580e-01 9.320606088712234394e-01
9.450558581178009065e-01 9.481897318833909516e-01
9.276856010491397742e-01 9.324049804017211507e-01
9.330460010082904931e-01 9.379306095176758173e-01
8.698698907056875429e-01 8.874113082653800610e-01
9.360791302047923867e-01 9.378741724400627700e-01
8.813462315943249026e-01 8.986704952511626043e-01
9.163186159296315969e-01 9.278978835410708337e-01
9.192609462987892943e-01 9.310618911621822980e-01
9.179289223961552002e-01 9.222076887497185904e-01
9.230846449453420366e-01 9.334207782255093955e-01
9.060450582182439927e-01 9.165870438391656716e-01
9.068872666766997215e-01 9.174906500270222365e-01
8.812021152160760540e-01 8.988230659159114344e-01
8.968783597225343796e-01 9.121366466904282655e-01
9.325379508694785491e-01 9.385021826188656435e-01
9.475049807731932283e-01 9.491702954157666960e-01
8.771480639110771360e-01 8.935091580912207787e-01
8.824688903351475266e-01 8.996407733063989109e-01
8.838312762691997726e-01 9.009572329561003068e-01
8.905105683656425741e-01 9.055310411011823213e-01
8.757645070094988160e-01 8.939724871847378740e-01
9.219154602928532061e-01 9.247904944307323571e-01
9.167420679933080407e-01 9.229050019106905811e-01
8.699173537158017000e-01 8.874323092173107552e-01
9.067609534875769040e-01 9.163118218558382599e-01
8.759555975735965339e-01 8.925170852431161261e-01
9.224620871027134905e-01 9.328377218575735208e-01
9.327731718286190743e-01 9.398229896797960503e-01
8.679601070303463173e-01 8.858170338751701900e-01
9.477259533671400504e-01 9.494781471538384920e-01
9.086158387303210349e-01 9.221259616270205406e-01
8.819302537545645748e-01 8.991205346593941217e-01
9.290679580382394942e-01 9.330519310433236235e-01
9.291695804288319094e-01 9.334860717518994599e-01
9.288781538750334743e-01 9.375625909645654010e-01
9.104818891217801857e-01 9.221751603741181746e-01
9.265668859664282220e-01 9.362849688654126812e-01
9.091977557060250126e-01 9.217171420862547704e-01
9.265391388349413226e-01 9.353699872538352444e-01
8.903242670676170256e-01 9.043502914433712014e-01
9.229146738122019356e-01 9.339560967111663059e-01
9.314713983694576926e-01 9.367506484539734890e-01
9.109124928481038275e-01 9.230566578688922386e-01
9.090960722753405054e-01 9.215639860796550620e-01
8.879489897707070201e-01 9.042686858884838585e-01
9.048199699104912952e-01 9.192510912179365778e-01
9.366722699844436395e-01 9.432189306294366249e-01
9.287800505869409085e-01 9.373129144226980403e-01
9.205326614944590036e-01 9.316805776238454850e-01
9.422377076860090073e-01 9.426004509923704422e-01
9.401377855252845972e-01 9.441022971343381309e-01
9.186969725105975648e-01 9.213156193469027588e-01
9.247012921434965005e-01 9.339041479297979231e-01
9.124488189628919832e-01 9.250132972303112266e-01
9.371460496956628416e-01 9.431716061582198218e-01
8.866030625605026971e-01 9.018349094518910425e-01
8.697178159547905851e-01 8.883969141494164612e-01
9.312410843658179838e-01 9.389354617298283356e-01
9.416310921361049635e-01 9.454090108237711565e-01
9.195126226941581216e-01 9.279435414617692723e-01
9.270535127485816096e-01 9.366051942377879858e-01
9.051118628231079599e-01 9.193335499499881713e-01
8.984853977070071940e-01 9.120698985614316134e-01
8.689846063447516089e-01 8.864406512370396340e-01
8.800289784674271143e-01 8.975620151800958180e-01
9.313976245011749144e-01 9.358356018164286638e-01
9.261985580805464080e-01 9.348338671715874515e-01
9.350354674358271057e-01 9.421172992903966703e-01
8.953727435984775163e-01 9.108816943945361455e-01
9.476203237440842253e-01 9.497362165736690232e-01
8.910339966299212211e-01 9.047947787926488017e-01
9.027868539671277670e-01 9.172473655716774088e-01
8.878471938895986515e-01 9.043338532610614156e-01
9.355517371689692219e-01 9.424588929241186630e-01
9.370623276038083649e-01 9.378850836225117726e-01
9.157523161321902139e-01 9.284697986893066801e-01
9.041120897857172212e-01 9.185525319137759492e-01
9.271518488170584771e-01 9.369344576272815583e-01
9.096515782226780589e-01 9.178533819627108237e-01
9.393485118943888379e-01 9.439021896810033674e-01
8.990065198022760828e-01 9.121846952817804777e-01
9.173406111046288336e-01 9.298976329299795118e-01
9.020279713597708637e-01 9.158072576756972616e-01
9.209414877844274150e-01 9.298292500017329987e-01
8.792572245736055558e-01 8.966815792799243123e-01
9.250865495426169316e-01 9.265554693564642674e-01
9.220306228495105394e-01 9.332102837747100477e-01
8.982888059339302345e-01 9.124221988017193752e-01
9.043688694892761948e-01 9.170162979141025517e-01
9.209627435431635423e-01 9.326442922660811430e-01
9.477147674891044371e-01 9.487883540177953767e-01
9.163786241189105786e-01 9.206317923969372652e-01
8.826547714231058883e-01 8.982339807763347617e-01
8.997143104711807782e-01 9.148010861143808237e-01
9.216723971982657693e-01 9.330353099771275804e-01
9.093450109025630335e-01 9.210565939290056292e-01
8.833698228412991682e-01 8.984779559889947143e-01
9.238338850829060922e-01 9.344415062498491187e-01
9.024646880171898200e-01 9.145165973829111339e-01
9.282734076994809680e-01 9.365364526979771398e-01
8.790019858355293536e-01 8.949387488374220823e-01
8.921756453895478556e-01 9.082748680967644983e-01
9.007047600557919198e-01 9.150747922476871743e-01
9.117527652579097142e-01 9.252524010538092369e-01
9.016339245323439222e-01 9.161541162691289042e-01
8.897064418138450614e-01 9.041310751913989030e-01
9.447534700184724299e-01 9.476912198335394333e-01
9.090558380103808123e-01 9.166826328903527887e-01
8.949770008284237965e-01 9.103005291406172095e-01
9.333542466397042325e-01 9.404263346434101889e-01
8.772278671150220974e-01 8.942228346900349401e-01
9.352713570003637900e-01 9.417275279047120362e-01
9.084895055908366324e-01 9.222709522670132776e-01
9.198335979930332140e-01 9.311109347145465343e-01
8.970271428597407226e-01 9.115369402738299209e-01
9.516730683742651298e-01 9.525710679477936704e-01
9.454665835381302896e-01 9.472959446328421684e-01
9.391496440707050031e-01 9.442019816979861924e-01
9.055791510679758183e-01 9.193154403169513378e-01
8.762893332209217290e-01 8.927022689609963590e-01
8.970905652415229747e-01 9.102170900128219166e-01
9.352210169173810206e-01 9.418435341131146110e-01
8.839812323516748060e-01 8.995850350851315458e-01
9.147894938310568991e-01 9.225469105614663157e-01
9.162220238047906751e-01 9.215388111860068898e-01
9.235031016130610393e-01 9.345083763303173585e-01
8.612603468966706366e-01 8.798581370343983021e-01
9.275498638558465903e-01 9.306443974489219118e-01
9.313678516146026709e-01 9.387320680313074872e-01
9.321947716597824840e-01 9.400132094395403648e-01
9.439101460563433799e-01 9.454280087042495895e-01
9.359931871373630141e-01 9.420869841869000672e-01
8.740452863169891895e-01 8.905898351248121569e-01
9.343994338286819579e-01 9.388484106114715066e-01
8.769938419360129300e-01 8.949544931699507933e-01
9.000474193568362979e-01 9.141565572075392998e-01
8.690710826706332659e-01 8.876634446749190888e-01
9.219195348465547557e-01 9.279850202613216803e-01
9.056890194744655620e-01 9.196949962348127672e-01
9.448325713612751864e-01 9.455264888830863246e-01
8.894227818909855587e-01 9.049812767490901244e-01
9.160392473924177104e-01 9.271016541216833273e-01
9.172061419843672292e-01 9.267477241964674484e-01
8.657135350583425870e-01 8.846780786525267892e-01
8.795711423257313033e-01 8.970840686952765708e-01
8.881538225104657069e-01 9.042690088607717724e-01
9.491222279742898005e-01 9.499325557704786371e-01
8.905545043571263530e-01 9.067907171042112191e-01
9.164231714195713030e-01 9.250328538626096941e-01
9.335934573720573448e-01 9.398726583497633014e-01
9.311851443294154596e-01 9.375654036955685111e-01
8.746813963007012971e-01 8.920281976727884032e-01
8.729605167852888536e-01 8.912136956617473516e-01
8.738796961239575500e-01 8.909348914668189234e-01
9.197686444045388710e-01 9.256593582711105661e-01
9.005302506965601195e-01 9.120298777721095318e-01
8.925606433500536951e-01 9.066116368344665499e-01
9.015017353140374334e-01 9.159898834907136411e-01
9.115635784873462599e-01 9.242242091386988490e-01
9.115996483129189532e-01 9.193654015294449033e-01
9.186404570722890295e-01 9.308833131262220784e-01
8.860039084056967607e-01 9.005881854711018653e-01
9.508562973303457122e-01 9.518084424510799835e-01
9.137912246232448021e-01 9.207774172270440927e-01
8.959604283678909153e-01 9.104264991656669803e-01
9.253560248825540846e-01 9.351651617578705666e-01
9.005755099725339941e-01 9.132084524035325446e-01
9.257561536078781073e-01 9.337961774960721328e-01
8.751258185990625771e-01 8.916695549869246840e-01
8.985778126085317563e-01 9.128807421792595189e-01
8.890246890007260649e-01 9.032588538976767945e-01
8.965531520031427837e-01 9.099197027513020730e-01
9.387510994222879601e-01 9.446682904312120321e-01
9.466581534725441172e-01 9.491929339137249455e-01
8.836744564083824915e-01 8.989541486806047477e-01
8.798598452642375500e-01 8.954723703921246836e-01
8.879011643023212441e-01 9.038051479867286186e-01
8.750303293055261555e-01 8.922782192543491364e-01
9.067368849477903670e-01 9.195853928739966543e-01
8.814421283573435906e-01 8.970523117192071849e-01
8.788335528388276918e-01 8.950275733240036224e-01
9.273567990679859596e-01 9.364151028397148524e-01
9.017837871462538457e-01 9.159633506910384027e-01
9.152493990093220066e-01 9.279287367517431440e-01
9.178476290037291818e-01 9.211335694679865238e-01
9.095639785745092132e-01 9.185000701297150183e-01
8.849917901522706964e-01 9.015064188647577970e-01
8.892460397963246610e-01 9.032383471396178143e-01
9.159371421767488197e-01 9.248561308440169659e-01
8.706840428130537823e-01 8.889906328329642005e-01
9.211116171491776639e-01 9.294602277065643348e-01
9.187460187788974997e-01 9.266737994466772710e-01
8.592648203090119674e-01 8.782411720740622707e-01
9.202137278190410941e-01 9.317811912883168235e-01
9.280204458242393706e-01 9.348746191732704158e-01
9.260256399923577630e-01 9.294949815138902061e-01
9.305117376129721229e-01 9.339906067012863078e-01
9.248578925856217881e-01 9.315279180322512120e-01
8.882929149025702298e-01 9.024871925349039481e-01
8.907537255623505512e-01 9.066437002201741535e-01
8.737185942055532006e-01 8.916660616883930190e-01
9.428326026942300819e-01 9.452044715959652121e-01
8.711742743328065863e-01 8.898122301617057417e-01
9.280966556780523291e-01 9.312512696307641002e-01
9.079652476855523124e-01 9.198988478728838958e-01
9.340507068345101915e-01 9.392546905388138301e-01
8.756714215854161099e-01 8.928023108180479506e-01
8.708895012036440564e-01 8.890838636861040367e-01
9.266890670235278238e-01 9.307406589154110232e-01
9.188617118832861363e-01 9.311112182808388704e-01
9.134020411349922375e-01 9.229188934318386384e-01
9.235462957427877928e-01 9.269899109969407247e-01
8.859338216226737561e-01 9.019853844417107247e-01
9.036226112072335281e-01 9.171378061574547713e-01
9.209229665493793293e-01 9.324191316850243272e-01
9.424511959014261198e-01 9.468259504204613597e-01
9.133192919364007123e-01 9.259404311009963306e-01
8.807820980974817582e-01 8.962148254772631661e-01
8.634125242133987577e-01 8.816302153926893759e-01
9.056809125906096769e-01 9.190686262765805914e-01
9.113369352155739067e-01 9.244154022353495703e-01
9.249260976370848875e-01 9.284026148269449719e-01
8.731266218854238925e-01 8.910306988640411818e-01
8.980711824884437533e-01 9.107024756264082699e-01
8.956712476023184211e-01 9.083881770202133499e-01
9.128328443783870760e-01 9.185375702332285730e-01
8.734544820986571700e-01 8.905835828535492160e-01
8.937106968601270518e-01 9.095343721157278516e-01
8.987743730315705948e-01 9.134812411404467092e-01
9.204575589075646436e-01 9.303843737187629248e-01
8.698842543562953500e-01 8.876903837109112461e-01
9.403162327215875971e-01 9.435070184983820329e-01
8.802789980346192866e-01 8.974428827460265712e-01
9.144523522130216797e-01 9.198271844203278480e-01
9.300120844095004502e-01 9.360786392759501418e-01
8.735792236441090042e-01 8.914864344120119188e-01
9.477795367622726674e-01 9.502757878900618405e-01
9.270994602117875738e-01 9.368586812236899819e-01
8.983724315750819533e-01 9.134013744213625996e-01
8.754412968553242358e-01 8.930542716767078115e-01
9.247654438536145882e-01 9.289386879093830540e-01
9.014314042688246209e-01 9.155617688909755136e-01
9.132264208457309129e-01 9.200253067758488168e-01
9.068487133127863808e-01 9.163652363794969613e-01
8.987716600286513868e-01 9.137268449332898168e-01
9.134779692950486529e-01 9.245200492313315754e-01
9.277498902058823882e-01 9.328897647667804272e-01
9.150128671694035543e-01 9.267639237485860715e-01
8.825171909763876998e-01 8.979152829044092510e-01
9.193515859881516983e-01 9.304863856372050934e-01
9.361016644257219577e-01 9.427953797806639669e-01
8.819638230347049968e-01 8.991794556921794968e-01
9.338691724944742090e-01 9.412374796096460994e-01
9.313444402781543285e-01 9.347734061440332587e-01
9.012708808771060509e-01 9.157920193834637734e-01
9.046839396817190071e-01 9.172156878084213316e-01
8.829274729997365068e-01 8.997200497799575647e-01
9.074920008481043299e-01 9.178008748632404679e-01
8.961525061686314020e-01 9.103277226214601114e-01
9.000883188141366453e-01 9.150678668120865167e-01
9.225037922814963709e-01 9.337294093766133063e-01
8.676642367409657108e-01 8.855089898963135475e-01
9.397610770737979680e-01 9.416119220813791157e-01
8.980114254833890808e-01 9.101735251492797385e-01
8.876632656387637432e-01 9.038577001339288541e-01
8.864759345950123937e-01 9.027214475663765114e-01
9.193394019760413594e-01 9.241329300046206008e-01
8.960087057632432073e-01 9.100559094554647732e-01
8.834943847699240349e-01 9.002588397735876713e-01
9.206851517759501169e-01 9.323490826160839573e-01
9.320247807339010482e-01 9.387523719369842423e-01
9.412726508568080019e-01 9.458456338683924880e-01
9.077504709898797097e-01 9.190275494908115572e-01
9.389930934567708443e-01 9.439977653185265272e-01
8.836038234009403469e-01 8.999243940267599440e-01
9.156446661954059651e-01 9.281808122826954444e-01
8.912708118358313447e-01 9.058293169367007680e-01
9.096275766234913629e-01 9.220823215096172198e-01
8.975099121497390753e-01 9.124589972899500578e-01
9.257836924087801123e-01 9.353813572601425985e-01
9.515092061727604689e-01 9.524958572654084188e-01
9.235683287876859104e-01 9.260283183584788747e-01
9.317207043562507618e-01 9.374633713149499448e-01
9.104397414436040670e-01 9.236493032252865998e-01
9.217387913555001866e-01 9.328930707822491453e-01
9.163215530879098569e-01 9.236458767167869954e-01
8.936098743176962289e-01 9.080743997902255282e-01
9.367673891164458588e-01 9.378956591243942098e-01
9.043561500511259066e-01 9.141415673304937872e-01
9.128132206071113419e-01 9.258180713734200928e-01
9.445562176869884974e-01 9.480199072960152629e-01
8.947320683671742270e-01 9.103795049784181304e-01
9.253912579543867034e-01 9.269071931348130677e-01
9.455995406068635756e-01 9.470437917909794168e-01
9.307192731305586886e-01 9.362957977005639254e-01
9.391179757391653338e-01 9.444028366728755008e-01
9.057410594975635609e-01 9.180080727674191365e-01
9.401736295326643678e-01 9.413492408587782467e-01
8.922047375572840222e-01 9.081420012091762084e-01
8.957815023228550277e-01 9.106223356818327064e-01
8.744719826584644862e-01 8.911258210942084590e-01
9.120803919323441367e-01 9.195103460341481627e-01
9.272013750209460170e-01 9.283348524663305179e-01
9.217686125195848623e-01 9.293311674321869109e-01
9.380057657862905796e-01 9.427673451054158216e-01
9.203391220119639948e-01 9.309431551263874782e-01
8.773038716899517198e-01 8.936153983936574452e-01
9.051959803944704674e-01 9.194480060845103830e-01
9.324787372199985214e-01 9.342152574263169473e-01
9.279803193337801126e-01 9.288133330127777976e-01
9.194950569930054884e-01 9.314120695828539409e-01
9.002639887943783004e-01 9.130105327712604302e-01
8.726591035901493099e-01 8.900994572078203548e-01
9.337009444855809415e-01 9.408816930684843483e-01
9.133941983055692271e-01 9.262073500634800949e-01
9.335296804912576185e-01 9.366329860263299389e-01
9.307615649848668404e-01 9.387131772034714716e-01
8.782600767192519919e-01 8.939550896597852070e-01
9.357412158551007275e-01 9.372586069746798865e-01
9.269089338340976703e-01 9.323358513506774248e-01
8.818577194496065585e-01 8.971573991095679323e-01
9.210968170210006578e-01 9.232442459512877342e-01
9.325406674400190665e-01 9.403325552750855243e-01
9.151090213322372602e-01 9.271028856359655457e-01
8.770019389123840936e-01 8.941545031907877084e-01
9.125028604047770164e-01 9.239180453926386649e-01
9.217593329203046526e-01 9.331664563978618876e-01
9.179012843132938748e-01 9.287330397168094276e-01
8.767627764516460198e-01 8.940408313912892035e-01
9.397990408669011364e-01 9.429461273405330690e-01
8.957244979273476515e-01 9.089888662696269384e-01
9.410489068183601757e-01 9.451587575250380846e-01
9.292082240469433652e-01 9.371473755918283688e-01
8.969986788612843709e-01 9.120179603653358891e-01
8.924508428441871866e-01 9.059034635856342277e-01
9.334869225187560904e-01 9.386432803653158574e-01
9.198132776335755656e-01 9.315224024699614302e-01
8.833307002090791116e-01 9.001226333660755641e-01
9.061518776899880612e-01 9.202596438146416480e-01
8.881854408278394564e-01 9.026039949803854601e-01
8.583667694517758129e-01 8.773967443595626081e-01
9.429903633742460212e-01 9.464743737374223809e-01
8.835262468831717175e-01 9.000325619240480135e-01
8.739953754833662547e-01 8.902683852027918343e-01
8.875949017222650728e-01 9.019121172667460273e-01
9.291766365736432443e-01 9.370154377692790915e-01
9.239359977277804559e-01 9.343897427149874257e-01
9.320186945391966127e-01 9.398459135413844701e-01
9.168357037822090216e-01 9.271946998577155208e-01
9.215298677259110560e-01 9.284898541088050239e-01
9.278961997840901033e-01 9.337390056603851463e-01
9.117594188912053754e-01 9.223299905138837573e-01
8.953039236519332311e-01 9.105884618158358590e-01
8.725763771718711981e-01 8.902216351089875523e-01
8.675238312366860827e-01 8.850204493299246300e-01
8.741807765766794747e-01 8.915503580136483475e-01
8.772170437238211438e-01 8.932032922168861022e-01
8.728125569905708092e-01 8.898535506537998963e-01
8.964711902709974201e-01 9.099173272567752102e-01
8.866773676573945773e-01 9.019618786711337544e-01
9.088491351279249786e-01 9.166594426501031290e-01
8.712827005245874501e-01 8.883047264239838370e-01
9.340078048198804384e-01 9.413993468979495738e-01
9.305423424330037108e-01 9.391171969889238191e-01
8.726419735197279426e-01 8.893800013254615777e-01
9.212087127492420979e-01 9.326953662501918929e-01
9.173853713125208476e-01 9.296982455657160083e-01
9.157968232306019640e-01 9.283022604549455714e-01
9.353762472765494440e-01 9.419448171829382099e-01
8.962203278015673513e-01 9.100373635260935457e-01
8.735430360227024460e-01 8.911187718330355612e-01
8.936522965657789364e-01 9.086275705381603451e-01
8.589973896494823569e-01 8.779397993305375625e-01
9.342209610331361214e-01 9.412519162089852953e-01
9.329669520478819367e-01 9.401594691877617205e-01
9.065887039470730269e-01 9.169854639296119991e-01
8.884427012976511273e-01 9.045924569306210694e-01
9.209017102633737517e-01 9.274620018417575329e-01
9.017170276500987569e-01 9.155727560647710650e-01
9.080605704119359967e-01 9.204057188775193188e-01
9.055874124187035523e-01 9.186456790230875802e-01
8.887409321796939654e-01 9.030031945008225591e-01
8.898070319673683226e-01 9.044549464934361627e-01
9.233647304961596358e-01 9.320359321788126428e-01
8.750539484117274558e-01 8.912857186487713745e-01
9.273912200546873263e-01 9.369293825405230480e-01
9.371814522209628295e-01 9.404349682456026871e-01
9.428638440028684897e-01 9.434097739198000765e-01
8.839657189197944742e-01 8.989982228967622335e-01
9.058741151692503157e-01 9.189867874467964048e-01
9.177146418815405049e-01 9.297641840102019994e-01
9.124007694726914419e-01 9.252724780041249319e-01
8.952202555168768949e-01 9.101613945758796342e-01
8.637545171590196302e-01 8.816089374559961112e-01
8.791904242431604066e-01 8.961259819455620335e-01
8.825191756530571530e-01 8.992342531999351074e-01
9.382789666844556509e-01 9.434995029627535335e-01
9.321176106878147349e-01 9.324141504070400099e-01
9.217723773494821415e-01 9.242004912806642825e-01
9.466245728500274348e-01 9.483353452248611815e-01
8.690314199617958923e-01 8.870375021645143798e-01
9.022982977658563497e-01 9.143158445887015207e-01
8.713383552752479444e-01 8.887548875821396077e-01
9.271592765308308559e-01 9.365589808700598429e-01
8.842662624141581773e-01 8.993149374173997623e-01
9.005519282527016944e-01 9.144658033330712588e-01
9.164127069355383348e-01 9.261281819143397653e-01
9.197230779709594239e-01 9.238300337083953373e-01
9.189038983037999264e-01 9.237681194427792564e-01
8.950498486135010090e-01 9.083443884497227616e-01
9.483305996926395531e-01 9.496218377059589821e-01
9.091093274749869613e-01 9.220277828155832855e-01
8.781491481507274210e-01 8.946347765401516661e-01
8.918651951695678592e-01 9.070497050343261369e-01
9.283962131804912588e-01 9.312044967434626175e-01
8.710001115654278925e-01 8.882905330529843324e-01
9.076566890000374865e-01 9.167593229084621820e-01
8.713574444117403450e-01 8.892135579214257568e-01
9.263453852206741113e-01 9.346106036828971675e-01
9.361852042339452451e-01 9.430443098722242068e-01
9.369279420067030406e-01 9.420295058539679411e-01
9.075355269780885914e-01 9.180165699869431428e-01
9.455231573825243485e-01 9.473653430946948895e-01
9.034318089727448875e-01 9.179142455614788254e-01
9.484193199940579300e-01 9.493257379673185614e-01
9.199240414557454670e-01 9.317604044154103038e-01
8.992933783527600200e-01 9.111735428906304612e-01
9.221176780282779317e-01 9.328634849204687773e-01
9.014218517556668031e-01 9.162144890268568709e-01
8.694271963085837829e-01 8.867123420836989789e-01
8.744645164926347913e-01 8.923088309241251626e-01
8.669979637101318248e-01 8.842452862408407555e-01
9.197486174668285663e-01 9.312024173497859270e-01
9.029692391378294491e-01 9.151389287680079532e-01
8.844645986365322621e-01 8.994292453913337315e-01
8.686452010714080796e-01 8.860551256324959990e-01
8.901251165911856500e-01 9.054844614527740587e-01
8.855021781852470131e-01 9.003907571208613625e-01
9.448297897695401293e-01 9.485429421012331330e-01
9.389177114252007517e-01 9.407350333939050735e-01
9.089033519259802629e-01 9.224180942833807295e-01
8.884110469051366143e-01 9.040063095740601407e-01
8.893726014621435860e-01 9.055700048103918487e-01
9.324176299304292037e-01 9.350302580663473195e-01
9.371764551063780369e-01 9.400305508962171208e-01
9.478244090031661129e-01 9.495344110047516661e-01
9.046608754029191735e-01 9.171203663147007301e-01
8.734169781896973239e-01 8.896361673587226404e-01
8.849115890879042379e-01 9.010333716894275424e-01
9.117708694483824816e-01 9.251315908746192695e-01
9.077856695646098206e-01 9.214973094785031682e-01
9.083105906597191970e-01 9.215735443084737133e-01
9.428552156244599525e-01 9.467830918708484145e-01
8.902642519265102639e-01 9.041874491052148688e-01
9.004941692798756891e-01 9.148526706067727776e-01
9.367942600799412656e-01 9.422399168566617522e-01
9.341140920357935418e-01 9.391463065345978523e-01
8.753357352021886584e-01 8.916827409023196926e-01
9.173454753156262687e-01 9.293525856428007659e-01
8.999270800191360165e-01 9.141193138059648948e-01
8.932960047823107486e-01 9.079149680099597441e-01
9.231523452632828253e-01 9.279868072441596061e-01
9.012667318037720365e-01 9.150491813346925962e-01
9.450240195009277366e-01 9.481428194374041940e-01
9.010630597269480013e-01 9.138655320170577800e-01
9.200929848807525291e-01 9.262343258842186122e-01
9.207462831678251414e-01 9.251216296325885935e-01
8.948628271345379082e-01 9.092397388522575064e-01
9.504959357754179106e-01 9.516303711241544949e-01
9.076918943824825448e-01 9.210743369159068994e-01
9.274040507960076285e-01 9.370387403163279449e-01
8.857429347798384534e-01 9.006445884919676015e-01
8.642476059014255751e-01 8.822319701437334460e-01
9.055603541043869553e-01 9.195450294584078810e-01
8.781693567340297379e-01 8.936482401973614431e-01
9.056159582112388584e-01 9.180713263496068643e-01
9.159384128142203929e-01 9.288154611441952202e-01
8.980561271664380119e-01 9.131769935116234027e-01
9.309135094370541985e-01 9.391444584152134345e-01
9.156123194490014550e-01 9.228349562497178971e-01
9.273183616836040422e-01 9.329409697602319973e-01
9.475258131826114205e-01 9.490738947050220142e-01
8.816834014786800733e-01 8.968412203602763588e-01
9.398121616849391957e-01 9.453103231427724129e-01
8.685264978106757017e-01 8.863694199258940198e-01
9.229050433594513381e-01 9.286948662827765322e-01
9.323110124697985279e-01 9.363044953123600411e-01
8.751695140224455827e-01 8.910777148340495168e-01
9.206633034556808148e-01 9.292534352296016875e-01
9.034288278672009120e-01 9.143888266521361663e-01
9.250813516609114329e-01 9.324019419565051647e-01
8.833194616072935768e-01 8.984771899946687457e-01
9.186438840315970245e-01 9.261023149944299648e-01
9.088947364363658687e-01 9.226096317479371978e-01
8.802066003319896081e-01 8.966646974319602004e-01
9.138821743624325755e-01 9.264218291670087702e-01
9.428204111270328536e-01 9.447355240350049366e-01
8.973349860826638213e-01 9.102446289169544569e-01
8.802107396156798602e-01 8.961876925889520340e-01
9.259976203213200474e-01 9.277851102054373023e-01
9.405541372364986108e-01 9.446865855239864329e-01
9.272406860348320068e-01 9.330288913997555333e-01
9.233686460229982851e-01 9.306710329250702518e-01
8.838682393714726304e-01 9.003792263343073365e-01
8.949567225981068797e-01 9.086231548335341746e-01
9.328614400752018865e-01 9.386816605787583478e-01
8.748319969137382524e-01 8.915652571931357295e-01
9.288731715237135145e-01 9.341332924285062900e-01
8.995866992845448218e-01 9.142626764917710647e-01
9.067866919117700819e-01 9.183382019385084583e-01
9.455387222050393170e-01 9.476145036025227508e-01
8.920058055886446180e-01 9.075982968302371834e-01
9.211796163194372333e-01 9.328775763447819669e-01
9.446146443041346652e-01 9.481052561535301404e-01
8.770341957430893842e-01 8.932978550943558860e-01
9.098998335394049564e-01 9.173564303435379763e-01
8.987253764584544058e-01 9.133002941369661176e-01
8.789479515229261519e-01 8.954852594201447857e-01
8.892077661465047633e-01 9.049203907968015326e-01
8.820941629481158230e-01 8.984017425920099997e-01
9.052801908192528169e-01 9.153141633465754490e-01
9.131924064703326183e-01 9.261466723291567060e-01
9.093018493281749270e-01 9.223965638877194007e-01
9.243472253525896187e-01 9.348402112953431153e-01
8.855196943875879301e-01 9.000128447932936870e-01
8.718862659202041288e-01 8.880724929126704303e-01
9.324866088070736803e-01 9.378582909199594253e-01
9.501500012761138203e-01 9.510762900368260331e-01
8.747894351873634067e-01 8.920016810372358718e-01
9.336998534316162113e-01 9.363371459475472447e-01
8.813333967335429397e-01 8.982299337560610830e-01
9.333370566205277941e-01 9.409476914337295828e-01
8.924420736754614669e-01 9.067462948096338682e-01
9.419467187365405669e-01 9.434909657679118045e-01
9.337204376612422418e-01 9.408589403403391227e-01
9.181262172645895392e-01 9.217231838201664917e-01
9.071822285328765556e-01 9.200041251680362020e-01
9.300508393599529189e-01 9.311139296880261984e-01
9.150031856194227320e-01 9.262506022999549282e-01
9.153731417291108841e-01 9.272868229493982373e-01
8.696073818619626250e-01 8.872919362477363903e-01
8.746568429564566260e-01 8.911908261821409605e-01
9.444121738480594219e-01 9.478968698149621286e-01
9.330937890903260312e-01 9.351813925626475399e-01
9.225113067186323512e-01 9.314720735719190792e-01
9.416024237782651962e-01 9.442576424043601646e-01
9.348838115623003819e-01 9.385964445412749990e-01
9.121792397160929378e-01 9.191958278217575717e-01
9.288723880353255691e-01 9.364718836125013324e-01
8.759624513793499156e-01 8.932759426462253405e-01
9.390115557247298295e-01 9.441363230369536064e-01
9.226847293361012392e-01 9.321211435140210888e-01
8.756792864877084304e-01 8.925698487972023587e-01
8.713545483281789350e-01 8.877457682023054408e-01
8.841730095363738995e-01 9.007252065164921273e-01
9.488486888312120948e-01 9.510537123873133991e-01
8.882808971070127457e-01 9.033034048017344331e-01
9.105665889780717448e-01 9.238951075451029560e-01
9.092635598473037817e-01 9.213596154804327698e-01
9.428827815180966798e-01 9.467771540267776453e-01
8.980938927508671510e-01 9.104142789461383556e-01
8.999941321499237423e-01 9.131948985218188986e-01
9.197154184111376862e-01 9.239175159069838994e-01
9.264255062914682481e-01 9.364192351826478022e-01
9.493898160721429003e-01 9.509195977656609289e-01
9.406163456023688418e-01 9.455817038705819355e-01
9.131193614766371924e-01 9.220504784786320851e-01
9.305567720387756259e-01 9.320823698226923248e-01
8.734704969953558384e-01 8.906756365920588392e-01
9.271848909910483938e-01 9.337776584603290075e-01
9.294260339670985527e-01 9.382966288747949246e-01
9.257837686811892786e-01 9.267120497702246995e-01
8.812667349541030148e-01 8.975889319117513754e-01
9.090277177524459518e-01 9.212467274304090292e-01
8.957264357488921025e-01 9.103372103639738588e-01
9.314989034240431787e-01 9.399428763819901445e-01
8.916447206101759670e-01 9.071148263154386049e-01
9.516627268643733650e-01 9.526714171465175962e-01
9.325636314254328596e-01 9.396019023650585833e-01
8.800697250903724012e-01 8.958221014265786986e-01
8.940474952092735128e-01 9.084118865147982058e-01
9.362395794983722208e-01 9.426531890270564151e-01
9.263647514885370304e-01 9.320164405672658470e-01
9.222790872450461475e-01 9.321655443765579641e-01
9.223915272725683456e-01 9.328370167542849867e-01
8.766664793082092899e-01 8.921013168556103379e-01
9.290618109735209185e-01 9.371487314472541907e-01
8.721986278246540714e-01 8.886991237695982537e-01
9.056818059799277565e-01 9.175564907926847535e-01
8.932387828572874167e-01 9.082250430971974264e-01
8.889512827987930965e-01 9.027561297014473629e-01
9.435367393369776812e-01 9.439544294603628982e-01
9.422438974626717867e-01 9.465804159672395190e-01
9.047718302357891096e-01 9.175165485594594106e-01
9.092621319411918757e-01 9.212825555906996033e-01
9.026035941929351214e-01 9.161920393764161341e-01
8.984194479694213031e-01 9.126470797431593951e-01
9.159386038150609810e-01 9.260693182013284286e-01
9.487204802297034556e-01 9.505532064265778125e-01
9.118919053986112022e-01 9.248370229084986738e-01
9.471620396896133220e-01 9.498057699591452296e-01
8.939523687085696446e-01 9.087784703650946261e-01
8.749573170419583379e-01 8.910929506034118708e-01
8.949122808111422689e-01 9.094683810693999781e-01
9.301468840704956165e-01 9.387844268170404405e-01
9.350058944399605165e-01 9.384060948282447745e-01
9.207912582969591808e-01 9.317696137265636391e-01
9.114581834359272161e-01 9.245865996225924865e-01
9.098271971515118350e-01 9.207725414732330638e-01
8.752933181884076097e-01 8.919681488488445664e-01
9.098990093779061317e-01 9.229902976985953078e-01
9.233392281616698005e-01 9.332688618915797596e-01
9.008380102300298509e-01 9.142140869203955189e-01
8.975485980457083013e-01 9.115841147632346431e-01
9.036472952595312469e-01 9.171791582088235639e-01
9.185431023782784088e-01 9.223359064988017053e-01
9.179980876707867221e-01 9.270192214918581142e-01
8.896377518576953358e-01 9.037736621673196913e-01
9.046984835553524285e-01 9.150975559320330133e-01
9.116871803804627028e-01 9.243672578412613916e-01
9.340557059932588224e-01 9.406774992190006790e-01
8.793671732648048467e-01 8.943726857150301468e-01
8.989641259960649000e-01 9.115478431655439362e-01
9.421578050192700449e-01 9.438686983812155651e-01
8.932909814305465268e-01 9.063528033804921780e-01
9.429391645291320678e-01 9.465580936743194229e-01
9.382897833838672597e-01 9.413128730436088887e-01
9.387805041691597019e-01 9.426434961329916984e-01
9.106990826356280433e-01 9.232088760442774822e-01
9.422097097594505088e-01 9.457746260862988086e-01
8.764186186054877536e-01 8.928968977535496343e-01
9.173869655617182817e-01 9.293329604783983067e-01
8.796759759986577665e-01 8.959033731762946484e-01
9.118368898486756136e-01 9.209364415912559831e-01
9.222052381420692280e-01 9.328735396849923145e-01
9.288558051809844285e-01 9.355918551820003870e-01
9.125870126542242611e-01 9.237350567586298800e-01
9.222258886664733701e-01 9.331590040266842800e-01
9.282184855147889158e-01 9.373683269482540048e-01
9.229523554861492896e-01 9.321740317504972895e-01
8.727286033776373575e-01 8.892762170831308710e-01
9.258909641125067091e-01 9.359897427226229194e-01
9.142106800496622165e-01 9.264860552558903395e-01
9.200711549654690957e-01 9.232389654551548253e-01
9.044282667611259763e-01 9.175444729208256378e-01
9.126177956427484750e-01 9.251976187479645786e-01
9.067598535586439690e-01 9.201257189017693072e-01
8.884957577663588069e-01 9.034633520998230916e-01
9.309461501711026044e-01 9.392478635029403167e-01
8.807267920709208608e-01 8.960728458339725089e-01
8.777003187358691783e-01 8.939966315796150642e-01
9.075064450098501156e-01 9.208602457518073603e-01
8.830186038633420775e-01 8.982837697792910303e-01
9.276511593629539476e-01 9.368671182334143976e-01
9.399239504653634780e-01 9.445931713015479625e-01
9.440136214837361317e-01 9.472045724009231504e-01
9.410728324266949274e-01 9.457060729800804699e-01
9.161859181158288346e-01 9.228663485724246662e-01
8.785724937752589225e-01 8.947586023720144333e-01
8.984914449439410644e-01 9.129961983848560170e-01
8.916827653729083591e-01 9.072439986899590858e-01
9.072706531184545620e-01 9.175031421641409723e-01
8.976692972902863277e-01 9.117561804689832128e-01
8.821229261417944389e-01 8.973005380022882616e-01
8.889354722847138124e-01 9.039887280341276643e-01
8.988752961399714136e-01 9.128943656853011346e-01
8.754136714452501744e-01 8.920129469074006279e-01
8.932305291346327447e-01 9.081184380222417918e-01
9.330115693019813694e-01 9.404946419019856174e-01
8.929034040715401188e-01 9.063026034763640437e-01
9.052915409548487613e-01 9.141559985543246114e-01
9.260041062299677606e-01 9.274172168646006575e-01
9.174449869080469888e-01 9.260092509830915031e-01
9.091309134633384081e-01 9.170158906640435426e-01
9.200559174030982224e-01 9.221160685196054807e-01
9.038936119565447180e-01 9.161963648538363758e-01
9.230779713101530115e-01 9.276585961316150541e-01
9.244505664419276902e-01 9.291864905916970008e-01
8.677047201817175148e-01 8.857292121408043561e-01
9.360679130614629750e-01 9.426021988301793719e-01
9.312206543020254967e-01 9.388648251289374302e-01
9.157714033694818179e-01 9.213818393212055424e-01
9.306285769344494474e-01 9.331642348434077139e-01
9.448437308254071798e-01 9.454631970018456677e-01
8.955670677121231327e-01 9.099365441080762285e-01
9.360472847561509546e-01 9.371353676802302024e-01
9.298440447278275567e-01 9.318121151400592383e-01
9.330942317539772102e-01 9.390632577507116441e-01
9.331446265617722169e-01 9.404822232701235407e-01
8.783338537882209307e-01 8.952266558983309475e-01
9.073871159715819479e-01 9.207613338646665202e-01
9.118875609906262891e-01 9.248807708023817353e-01
9.341944863558571122e-01 9.413430835448155509e-01
8.730429092132516722e-01 8.888168722770500851e-01
8.923002524623523390e-01 9.072254115980604716e-01
9.461352875879479596e-01 9.465276557887906117e-01
9.272239764597075551e-01 9.351033293603414620e-01
9.208235251715527481e-01 9.242808676737450657e-01
8.810165693712465051e-01 8.973865082442794572e-01
9.032122090314942398e-01 9.157754596869457364e-01
9.157380811086947014e-01 9.284425436171920287e-01
9.089272273105990507e-01 9.215608734398248458e-01
8.919843081885193703e-01 9.058096938391912989e-01
8.883752603049172025e-01 9.032047725470407906e-01
9.248868537090851882e-01 9.339698217473688668e-01
8.732622666881115769e-01 8.901280377484521722e-01
9.494490210916007866e-01 9.506606642929201767e-01
9.420426554637805205e-01 9.432864739874271542e-01
8.872681125693723247e-01 9.016651047967721988e-01
9.015242748855396560e-01 9.142795153589241552e-01
9.137062422923064586e-01 9.250683186446612138e-01
8.879956699772734163e-01 9.033029968004536725e-01
9.157501665463428919e-01 9.219340246740022060e-01
9.337170054294715582e-01 9.412518321450306091e-01
9.407281427947482566e-01 9.449531218040710945e-01
9.311177386885091112e-01 9.340782699626134500e-01
9.360943665518121071e-01 9.427674375785997096e-01
9.029270182061633898e-01 9.150609257468929059e-01
9.222761429043156989e-01 9.292790913979599443e-01
9.296541584418653859e-01 9.334378960617374377e-01
8.934836105385771665e-01 9.070468131111086851e-01
9.316235656839075840e-01 9.398681267355939450e-01
8.766186539129009470e-01 8.922113660837147631e-01
8.722049082635641160e-01 8.885587926019848926e-01
9.255549019234533548e-01 9.353829754006669495e-01
9.260124785156168548e-01 9.355028573839810901e-01
9.219371420008349860e-01 9.331671542583144241e-01
9.305033688398669511e-01 9.374504421951986854e-01
8.798491806926799219e-01 8.959773935347640217e-01
9.102134548954022852e-01 9.199474388106613221e-01
8.947189635283662179e-01 9.101552985692126230e-01
9.378841338332551958e-01 9.427519336108481918e-01
9.264427254084351970e-01 9.328042803448545195e-01
9.240687080907732387e-01 9.346041378636769092e-01
9.090643867536438716e-01 9.216594203953586417e-01
9.204847127303458221e-01 9.308091966241403004e-01
9.038622304923380479e-01 9.139537150019092504e-01
8.979573593547436339e-01 9.101242672094432828e-01
9.350615910337884973e-01 9.400180973969082254e-01
8.991291913101363553e-01 9.131772218923923656e-01
8.940297648076904746e-01 9.068763084144659814e-01
9.181009041059456921e-01 9.242727720855614670e-01
9.479558556150444737e-01 9.496760470469047810e-01
9.345954389613636559e-01 9.398535768036936355e-01
9.033124795138960383e-01 9.144771713853750983e-01
8.794076102618473278e-01 8.955271350318336765e-01
8.721883724207284416e-01 8.883148957617967856e-01
9.235180228891882726e-01 9.339171690729176634e-01
9.181229422112243688e-01 9.235602535386153722e-01
8.740210092459437252e-01 8.901229147466017677e-01
9.008230933906843374e-01 9.141122021162388922e-01
9.306694617424192684e-01 9.375053041978708146e-01
8.951495135690810123e-01 9.081845386985312185e-01
9.477906038767202057e-01 9.487816830031184923e-01
8.961169687886023638e-01 9.103870490902372659e-01
8.677667411463511060e-01 8.860642836862434590e-01
9.209075668482599175e-01 9.289363810419254408e-01
8.966071345688473304e-01 9.104871850340370276e-01
8.949072662057808714e-01 9.078210263131478719e-01
9.141894599632265361e-01 9.254195111032058607e-01
9.035219258246235396e-01 9.140780165829255344e-01
9.179271131922775995e-01 9.278512695882557004e-01
9.322354565336447019e-01 9.400171930712702961e-01
9.087962682511591117e-01 9.224766297422543060e-01
9.276738195957229260e-01 9.357740173691447838e-01
9.302940636201139091e-01 9.327582693282143733e-01
9.274490584469883281e-01 9.354567052792973625e-01
9.004129653586218085e-01 9.144240261139013892e-01
9.133760616168224988e-01 9.213680937436060647e-01
8.733143514363763682e-01 8.907936633749092836e-01
8.775355879015628302e-01 8.931088517924717918e-01
9.120394981040446103e-01 9.242971614212234233e-01
9.002739410510769424e-01 9.121348873342660646e-01
9.258061419458069041e-01 9.353357182269635972e-01
8.764127426448437008e-01 8.921134475946771447e-01
9.008322609664153324e-01 9.148116321607385748e-01
8.907475274725266123e-01 9.060916627335988682e-01
9.437537564540866564e-01 9.451757282293286044e-01
8.843981115293076956e-01 8.990731356385521789e-01
9.245718060102111613e-01 9.255427919545559101e-01
8.873224991368539039e-01 9.024434287985435565e-01
8.966714207621542254e-01 9.100465653739673311e-01
8.773174582144331879e-01 8.933809903812786057e-01
9.264177645960505192e-01 9.326432811414914203e-01
9.320550791863256856e-01 9.372878231209662570e-01
9.262998729588602931e-01 9.355159885672843512e-01
9.239286942775897238e-01 9.304896268831669426e-01
8.976220861810033647e-01 9.121112727657813002e-01
9.156299939071936844e-01 9.266293334182070796e-01
8.984096793610478748e-01 9.108954676291998176e-01
8.878748301404162380e-01 9.029248789996782154e-01
9.072411611308359713e-01 9.208791773197017028e-01
8.988389479010908678e-01 9.124970392495282967e-01
9.511939954344406090e-01 9.516181628005164761e-01
9.435504362978232029e-01 9.453896621091838481e-01
9.301282204675510590e-01 9.344434076844024828e-01
9.443996298510699550e-01 9.464178148663441315e-01
9.387697492479515349e-01 9.439841233088296368e-01
9.271212671057297294e-01 9.359552936984143479e-01
9.351607579274346937e-01 9.413551956591241776e-01
9.045416040638047939e-01 9.165368897022342365e-01
8.819405810779715749e-01 8.985660945051510140e-01
9.123289032174418667e-01 9.244994279402032333e-01
9.344854420555510632e-01 9.362180322411953748e-01
9.269942670877482360e-01 9.368128201443663983e-01
8.858695642423266570e-01 9.009720787857060653e-01
9.290278508270468638e-01 9.381620015378951960e-01
8.890993355669086773e-01 9.038017663352483355e-01
9.065672715324838427e-01 9.188535710917947741e-01
8.721032003019281165e-01 8.895519135536774646e-01
8.819661697828750091e-01 8.962480633801245267e-01
8.919748945564389686e-01 9.067317580168906543e-01
9.418240182330405164e-01 9.424281542698171865e-01
8.896399507209904467e-01 9.031962976212619676e-01
8.942111554063335577e-01 9.095598267702420525e-01
9.147606860707482301e-01 9.260477255068769731e-01
9.130636347551105425e-01 9.249684223149028384e-01
9.310340337427884805e-01 9.386071860866366245e-01
8.950169859745009671e-01 9.099125621790109530e-01
9.069987745830325743e-01 9.190006435132077600e-01
9.436904476474551329e-01 9.473284802846335673e-01
8.934815182628920160e-01 9.065090959561229456e-01
9.346768733967046883e-01 9.414798352346349652e-01
9.211253822829823523e-01 9.319774821651516383e-01
9.367325381099257386e-01 9.414782858920723863e-01
8.737133690778541295e-01 8.899313001477523466e-01
8.798328884094650526e-01 8.963909914875518581e-01
9.295240367207454613e-01 9.301244975682739780e-01
9.057075248066254192e-01 9.149520659992833593e-01
9.436177169543574772e-01 9.460238971716049550e-01
9.237415158084991695e-01 9.335981196615867894e-01
9.268507383790708376e-01 9.330910664745244443e-01
9.300870917235980473e-01 9.333579417530522004e-01
8.796744654914632200e-01 8.954094442276823163e-01
8.867926437646207471e-01 9.004714180289815628e-01
9.014124535494256740e-01 9.134065407070439679e-01
9.255974441933833008e-01 9.339890300253406163e-01
9.433726503381774098e-01 9.471870931881901656e-01
9.256723145151420917e-01 9.295258381407940362e-01
9.182263610365779538e-01 9.272622546218821649e-01
9.356012875463115552e-01 9.353118321150368786e-01
8.986696087961065782e-01 9.111544978786663140e-01
9.223967985254133417e-01 9.272083085598572527e-01
9.277988999653633551e-01 9.323774358903761383e-01
9.329969653252073725e-01 9.405177669394271245e-01
9.300421863684070756e-01 9.321706498529199747e-01
9.273591568271394303e-01 9.356114434938453961e-01
9.297876379840628314e-01 9.368114493136359133e-01
9.327855981680337472e-01 9.326654384544538212e-01
9.081267576811029585e-01 9.188938530342924960e-01
8.730584892330374158e-01 8.886107490934662678e-01
8.891445935225441577e-01 9.026960921310469566e-01
8.893743378757620333e-01 9.045006804400297362e-01
9.244227008446170846e-01 9.316321728077908704e-01
9.304832640311868630e-01 9.387232038360109332e-01
8.914204440719031286e-01 9.051105702307143952e-01
9.278626943265035898e-01 9.306023039489358384e-01
9.221990618949135188e-01 9.334293734864677061e-01
9.247112497399230246e-01 9.348194561945195602e-01
8.989408156245964898e-01 9.126235835207794356e-01
9.402264555767988474e-01 9.440403541010726762e-01
8.706500845722834336e-01 8.880442269176331838e-01
9.095869577035797793e-01 9.206110094986310610e-01
9.022305874259235470e-01 9.138250362992151876e-01
9.130444067844528666e-01 9.252894071535895382e-01
8.641808068253399311e-01 8.821902569720323495e-01
9.161030175607906001e-01 9.225259487129182645e-01
9.502043787998457613e-01 9.507006262887223169e-01
9.019571213394270703e-01 9.134158103349883095e-01
9.413538218775386879e-01 9.455634815142369698e-01
9.362972557771918058e-01 9.420727442567720100e-01
9.376129262415527910e-01 9.413798994842518253e-01
8.942870306936634428e-01 9.070200026801180648e-01
8.813913660388019711e-01 8.967058382442734121e-01
9.167782215502733312e-01 9.278106800206766813e-01
9.313931351609684439e-01 9.356647643981393925e-01
8.696533247950418710e-01 8.861621485243547092e-01
8.721759610932646734e-01 8.876328330884468709e-01
9.274496043862637817e-01 9.369707593146566760e-01
9.368049746840244607e-01 9.366527960922622631e-01
9.095937915850590416e-01 9.225945088658576987e-01
9.160161634304535561e-01 9.279684833710265535e-01
9.053721294344455606e-01 9.167118396102821309e-01
9.481323656338375150e-01 9.485122929548454040e-01
9.123468620652341876e-01 9.218563226106912811e-01
9.056238208205301676e-01 9.186272761387700436e-01
8.806781781364362294e-01 8.959718775357043974e-01
9.197626009481763010e-01 9.312921649817842429e-01
8.969682979481348184e-01 9.099543857965195492e-01
8.752352031964860668e-01 8.906258762094318993e-01
8.836784490515959822e-01 8.981123687879105644e-01
9.138067988789561058e-01 9.232635370204278491e-01
9.129425596927217557e-01 9.258521572968863023e-01
8.795236811360441775e-01 8.948118871382390038e-01
9.038454291779449701e-01 9.150134363101781743e-01
9.442585342655220870e-01 9.458271818802633790e-01
9.333140684071478121e-01 9.404852807900303535e-01
9.083313617892866398e-01 9.175488022691973278e-01
9.277624755759331654e-01 9.370478897235290372e-01
9.359326175474349530e-01 9.373635682038695682e-01
9.306607856711789362e-01 9.382145795560100643e-01
9.400858456144369768e-01 9.443261269134599623e-01
9.413268141018599211e-01 9.426668168820639959e-01
8.793942574334903117e-01 8.944402853554638266e-01
8.953929438556468279e-01 9.101326049852592748e-01
9.321986293612827268e-01 9.400882142806283870e-01
9.212414118995847501e-01 9.319707504016030430e-01
9.086817286811382788e-01 9.215231586378856976e-01
9.190249194566656454e-01 9.305719627392547988e-01
9.403793030429088429e-01 9.450414978252678067e-01
9.351474716870555870e-01 9.375865195683069642e-01
9.207647771952797155e-01 9.242110911390025718e-01
9.049038339762582872e-01 9.178123102683808376e-01
9.015723905702929253e-01 9.141201586439104965e-01
8.944777145718052491e-01 9.075746548508797362e-01
8.813734372062310696e-01 8.964438669515591984e-01
9.021900534418674233e-01 9.162418452825191739e-01
9.031687973535211800e-01 9.166387137024089027e-01
8.993942935847829556e-01 9.139238397685389703e-01
9.027207054844470502e-01 9.157445410488128656e-01
9.102215748524472572e-01 9.209582294759588450e-01
9.047240462639021263e-01 9.146455951195072709e-01
8.963383150806520927e-01 9.107819980128281090e-01
9.175784717669518420e-01 9.245432255461254467e-01
9.062327716993117122e-01 9.198150655755028549e-01
8.760062197292374231e-01 8.915075645655951009e-01
9.498438901048286143e-01 9.508783849780930719e-01
9.154714109550494694e-01 9.249884963808585603e-01
9.151936308514323493e-01 9.277592035171075002e-01
9.069770909982345364e-01 9.197612163286751352e-01
8.764504774244008534e-01 8.925649269401551011e-01
9.184891181830577844e-01 9.258440895048445363e-01
9.392289941833681377e-01 9.431177223633725459e-01
8.876536644600494519e-01 9.030113054713508891e-01
9.345747089133216168e-01 9.348832540153939608e-01
8.861029371408631894e-01 8.998510608261592880e-01
8.965192752805483112e-01 9.090755110486358204e-01
8.909871934707567220e-01 9.040206495201678072e-01
8.779315840997145015e-01 8.939993830049314250e-01
8.939004483868941975e-01 9.067997655215321862e-01
9.346589135222969080e-01 9.402979803339517328e-01
8.995407434093503074e-01 9.123277086514052225e-01
9.023176361545507396e-01 9.152061189783821105e-01
9.199265723529520544e-01 9.249304815552783499e-01
9.397523117865494990e-01 9.444577977662831358e-01
9.212968626839199704e-01 9.326017378480601083e-01
9.172170056833397478e-01 9.292569573872527799e-01
9.168673133770270933e-01 9.288783526822689263e-01
9.025817923712650126e-01 9.146031938382558346e-01
8.919441607755911328e-01 9.072470571114997773e-01
9.237054035735278168e-01 9.341750307142527854e-01
8.955189298659419483e-01 9.077562250370355690e-01
9.121289602603261937e-01 9.241601729492928685e-01
9.022743910913028076e-01 9.136473973006304927e-01
9.370824568351907580e-01 9.432885933231240916e-01
8.986072062402388205e-01 9.133930796348951331e-01
9.508728573906775061e-01 9.517533424404264197e-01
8.758966781472071750e-01 8.909344563509280501e-01
9.120902971789279778e-01 9.204396273403659956e-01
8.921784846210665254e-01 9.051302366161901869e-01
9.403472496161028316e-01 9.445962088136171664e-01
9.304019049818980092e-01 9.377818432809187366e-01
9.131715575737042734e-01 9.218951833769675197e-01
9.147765078286338447e-01 9.267230210759119791e-01
8.755316935583065119e-01 8.921265493531695956e-01
9.065997000746723877e-01 9.202081475038632608e-01
9.122975155863634056e-01 9.243418697210952217e-01
8.964176113269790580e-01 9.094648168830115065e-01
9.250566869158507455e-01 9.321736888567418999e-01
8.970660714850176021e-01 9.098055823179689305e-01
9.206200565090095767e-01 9.268865968139569089e-01
9.385634819544722562e-01 9.435215529263730749e-01
9.003926735821919936e-01 9.138785455835449767e-01
9.056915814370579687e-01 9.189497117541041149e-01
9.266617871030400355e-01 9.364685896611025795e-01
8.843059088771724197e-01 8.993620613815570541e-01
9.496405295914872591e-01 9.501676021415974560e-01
9.322904808189795833e-01 9.400023721819459332e-01
9.266488449995941012e-01 9.337618388886513854e-01
9.491482986444341741e-01 9.506033483299105580e-01
9.249155406587062922e-01 9.331889905879170444e-01
9.053532022124405332e-01 9.178722122189564292e-01
8.811505649649375993e-01 8.961928419985550898e-01
8.927767764164379338e-01 9.068244497744988308e-01
9.130414792894168130e-01 9.251638285245860072e-01
9.257390156644073054e-01 9.302384717937032255e-01
9.241196954029758936e-01 9.342274861531308927e-01
9.092667617428643601e-01 9.226422207643711904e-01
8.916905497019457227e-01 9.047890107501699308e-01
9.438317578952398756e-01 9.475247411431816369e-01
9.009140205109904542e-01 9.127279380580778367e-01
8.732904153731282371e-01 8.888983449281959714e-01
9.170920705112775018e-01 9.280541767401235820e-01
9.163065035734004882e-01 9.280067844527178922e-01
8.701351971781527972e-01 8.868208483847390688e-01
9.438417541394603649e-01 9.439541539526452585e-01
8.973194875832948281e-01 9.108007396123696253e-01
9.012401015767326218e-01 9.130421467949590975e-01
9.117018879194007663e-01 9.240851850671431000e-01
9.422550780070311216e-01 9.461085131766997502e-01
9.265626816109227004e-01 9.293895837276762162e-01
9.067630551400718275e-01 9.195896144748594292e-01
9.426100320839807534e-01 9.463192896612642180e-01
9.128959162636972602e-01 9.252175757437390846e-01
9.287008272292450739e-01 9.331912554434403928e-01
8.805368597200395886e-01 8.956974768077118343e-01
9.187101207202746922e-01 9.281061701404706987e-01
9.268569888095861131e-01 9.350318012381018118e-01
9.286134449092728893e-01 9.371646726869010680e-01
9.287816118538373411e-01 9.310059550880436241e-01
9.304297251218542897e-01 9.375431569706498269e-01
8.875695195831847517e-01 9.010645148629166101e-01
9.198729415461174286e-01 9.300471818320744655e-01
9.449606839812053627e-01 9.473953845965430443e-01
9.349818808050108787e-01 9.407771754209548476e-01
8.916828923005276630e-01 9.054286094104084803e-01
9.035356087120830493e-01 9.160489963335946006e-01
8.740922565740536498e-01 8.901432990643785015e-01
8.758222688313335169e-01 8.912891992814258035e-01
8.821218222766620265e-01 8.977836450468819063e-01
9.236617599212236795e-01 9.340210978060896618e-01
9.173416682841832870e-01 9.225074676379821925e-01
8.753677310108471943e-01 8.903147104083352081e-01
9.223408855138385265e-01 9.291064973875190480e-01
9.281757802618250119e-01 9.363786956200447209e-01
9.458311604123416094e-01 9.485748101639067675e-01
8.933894769118726487e-01 9.060425058313400504e-01
8.909625049592684309e-01 9.046193577973071775e-01
9.431374881300219615e-01 9.459680054019319329e-01
9.260743999092232448e-01 9.339017565429814649e-01
9.204048348672289048e-01 9.251392788256798116e-01
9.349772072514518362e-01 9.400200534898873750e-01
8.837384656868777499e-01 8.991314990772137916e-01
9.421428364411059686e-01 9.456197153971790392e-01
9.389600833853108952e-01 9.432098920721971869e-01
9.055964317575776468e-01 9.146197809384536415e-01
9.525723661589686753e-01 9.528677793250949213e-01
8.954687136346634047e-01 9.083750623058755025e-01
8.791841072398944856e-01 8.947612424749937787e-01
9.355169145605468639e-01 9.408630817363439203e-01
8.763850930526762006e-01 8.919913832154413580e-01
9.310169070483399478e-01 9.331235620952916809e-01
9.466743690644704445e-01 9.476793341051923392e-01
9.197770680101504670e-01 9.220274368370117157e-01
8.995161625746875833e-01 9.120090985352253821e-01
9.344692461215698964e-01 9.403601246743599207e-01
8.961843253941664811e-01 9.096767657125950368e-01
9.078168384006432001e-01 9.190553261480992608e-01
8.936797012625665726e-01 9.060649474894170163e-01
9.189360654624548763e-01 9.249021464073300391e-01
9.020029048955370277e-01 9.157590856269701707e-01
9.163892442519138148e-01 9.269767164141313742e-01
8.901092257146642206e-01 9.046804556916085982e-01
8.945709951141157523e-01 9.076455948616037883e-01
9.263961016228330347e-01 9.348118653222676766e-01
9.191820693475800663e-01 9.248688092825809726e-01
8.984357947820410528e-01 9.107364424120120150e-01
8.823776756708042734e-01 8.974538165760160835e-01
9.142632781409166798e-01 9.204122090496884567e-01
9.008519551012472704e-01 9.130244985946652791e-01
9.227189665051244161e-01 9.327449727118176659e-01
8.805888222402021848e-01 8.956843265040461688e-01
9.452049359555082519e-01 9.475050208347208791e-01
9.180668725913391226e-01 9.233949484375264527e-01
9.358423464552922955e-01 9.402232959110214949e-01
8.935900761715394047e-01 9.072645960285025124e-01
9.123300682831501085e-01 9.200586399613606137e-01
9.385283234579306910e-01 9.407422377655050294e-01
8.767014205854933850e-01 8.913599682066675189e-01
8.788866656836391567e-01 8.945594213154559604e-01
9.125085642637870142e-01 9.248756133978779381e-01
8.765227540110479554e-01 8.909690391272592214e-01
9.261028056747782067e-01 9.278377224341255447e-01
9.071512312945102519e-01 9.189405181658522048e-01
8.791618069726820917e-01 8.953511370429284577e-01
8.666379678137238196e-01 8.846802124139566681e-01
8.813394777287272275e-01 8.963698819396539452e-01
8.665062016439701864e-01 8.831148761926886914e-01
8.923779670733406055e-01 9.063663326912485552e-01
9.328524897119709891e-01 9.345780927370840319e-01
9.040534849560667441e-01 9.179200468258515988e-01
9.339761161102481113e-01 9.399164722863727617e-01
8.974588954798259355e-01 9.105171000508941459e-01
9.316419469526496799e-01 9.335836707654785460e-01
9.245538934026391598e-01 9.328995470033617510e-01
9.139197150466861208e-01 9.246435898763558647e-01
9.075317610140735125e-01 9.203446273697536428e-01
9.025796344429205531e-01 9.153662067177140704e-01
8.832775357946532901e-01 8.969031562663939416e-01
9.091281471320533658e-01 9.216763944321603175e-01
9.305694480853563544e-01 9.387582365478378543e-01
9.035394465646571227e-01 9.148628432371650465e-01
9.283065988709023886e-01 9.360292451633533961e-01
8.727950811744021875e-01 8.880482712088605401e-01
9.053567384243909055e-01 9.175344087345496114e-01
8.810685169415271023e-01 8.961462726049874705e-01
9.285582209961583677e-01 9.288017987501980821e-01
9.331792497609499026e-01 9.403226702788285429e-01
9.274927822865326466e-01 9.362586673760147082e-01
9.162229698919777121e-01 9.258416641247251277e-01
9.266902948949192753e-01 9.319609137007696109e-01
9.187417208164583293e-01 9.265322556886068650e-01
8.735573706260434390e-01 8.891037063820292907e-01
9.203971092252526409e-01 9.316712190160068019e-01
9.419721392250981484e-01 9.413840775536889138e-01
9.227111986152211065e-01 9.334728602676456433e-01
9.314716958504184463e-01 9.389296003116803790e-01
8.948109200243684613e-01 9.090469655598841792e-01
9.327931404350748856e-01 9.375830848434127951e-01
8.768704565788278948e-01 8.916082276528175532e-01
8.955355289572776156e-01 9.093378143322602414e-01
9.002510970321265793e-01 9.134323038450149479e-01
8.922166226897580987e-01 9.065435513500145204e-01
9.001996576167936581e-01 9.128336222287464219e-01
9.148930813116611382e-01 9.266676809484243327e-01
9.353366644005439712e-01 9.381873075592360722e-01
9.375756567823668730e-01 9.432029986302121749e-01
9.118887638850662336e-01 9.191721225892144354e-01
9.134522807350060614e-01 9.255280056248885723e-01
9.492033147117378000e-01 9.506337747087116874e-01
9.439496250244532316e-01 9.449441719557075681e-01
9.328523549874443432e-01 9.384351954007759122e-01
9.484234109599795071e-01 9.494064289453488792e-01
9.144724620074643484e-01 9.263888265803910116e-01
9.170860018522559720e-01 9.276995867513992966e-01
8.778727967865965764e-01 8.936852748250961875e-01
8.812607771722881234e-01 8.965047806476150738e-01
9.281433360160887824e-01 9.367477353461252099e-01
9.081877738932836452e-01 9.214013828694931352e-01
8.756762533132871340e-01 8.915418463337638766e-01
8.842039478909906602e-01 8.977708714495168385e-01
9.256043929869528508e-01 9.312149216181681011e-01
9.238264547773731294e-01 9.301592121196708973e-01
9.285863955853221885e-01 9.374764703904034935e-01
9.191611104824803924e-01 9.225249612220397522e-01
9.418717322841513306e-01 9.450609547887246498e-01
9.211528350880041627e-01 9.319155765920020817e-01
9.220453002301839396e-01 9.269922038955832333e-01
9.356197903460334864e-01 9.418415192320815921e-01
9.341580707006039708e-01 9.380627047475379454e-01
9.339846297049371193e-01 9.411816878921051011e-01
8.951015357930864891e-01 9.086204229413570310e-01
9.465559847571215490e-01 9.479099990670367681e-01
9.102101774211968088e-01 9.222495204726166573e-01
8.811141607585832869e-01 8.957440193652385085e-01
9.402298268122575298e-01 9.446055315029665556e-01
9.268437200682683175e-01 9.331157476010497609e-01
9.310686015320990272e-01 9.308929165270324324e-01
9.220320796007167585e-01 9.325502689307298976e-01
9.267541488665068661e-01 9.339463040001011462e-01
9.205308544797343728e-01 9.267374645440916714e-01
9.318278943366088418e-01 9.388532872009386354e-01
9.153862478004461956e-01 9.231315273916862463e-01
9.080790109185092884e-01 9.210747424885707968e-01
9.068377580879576350e-01 9.152048312416003473e-01
8.987416782831961770e-01 9.125275032615902671e-01
9.338044919042224334e-01 9.404418276712811497e-01
9.035618957190462153e-01 9.143758417425218443e-01
9.099590578803128382e-01 9.214350068687368056e-01
9.259381143953706594e-01 9.334146634510231966e-01
9.238214710233639826e-01 9.331502999146003008e-01
8.849346974453768944e-01 8.997738013538836288e-01
9.165059275624292123e-01 9.259000670931194499e-01
9.047178898035140859e-01 9.177595788855215098e-01
9.071691022540323557e-01 9.157580723031486514e-01
8.861825733647887837e-01 9.007979122236877689e-01
9.129230941836123936e-01 9.234586931402043453e-01
8.839411445311528004e-01 8.983692364851628698e-01
9.190735317492969569e-01 9.304755281621790441e-01
9.381698555116797511e-01 9.387478750014667250e-01
9.238109988267458883e-01 9.287926105830164314e-01
9.017189430352098301e-01 9.125038927017655732e-01
9.398660718080001919e-01 9.424217834064019250e-01
8.824820938547695004e-01 8.985051950119500308e-01
9.077906463985615515e-01 9.170580431566091040e-01
9.235157389092034652e-01 9.239488789605937447e-01
9.337132046447631506e-01 9.393408703112644531e-01
9.111332871808277556e-01 9.211126604761220582e-01
9.186909927503019713e-01 9.228387211446118510e-01
8.762401857443448128e-01 8.912577646886928884e-01
9.143206142182804808e-01 9.226638460622094140e-01
9.315613114834743191e-01 9.322782767436625928e-01
9.150386780085096872e-01 9.270810770209834129e-01
8.987209439379637566e-01 9.123221207106233521e-01
8.903578213137216535e-01 9.036595615944131854e-01
9.048849538927181690e-01 9.177283879955994150e-01
8.985829893879999641e-01 9.101887384279147009e-01
9.111272856536378750e-01 9.224060753025734583e-01
9.007262127713845379e-01 9.125028768100703624e-01
9.370267942165451114e-01 9.427266800320293072e-01
9.289657481317185050e-01 9.292083915830240404e-01
9.027180520950892628e-01 9.160001145371174935e-01
9.154333252096564788e-01 9.273897455963654446e-01
9.331707530061792433e-01 9.402799456318047255e-01
8.943738091777977406e-01 9.088471078874673648e-01
8.927588535075039466e-01 9.059501693452776117e-01
8.874225281095605711e-01 9.007666613342263373e-01
9.283071670093939742e-01 9.366257581111422370e-01
8.879007170608178567e-01 9.031911365838475314e-01
8.764511984219033325e-01 8.922148647053596004e-01
9.350207311667600996e-01 9.412163726129487706e-01
9.146763444375847207e-01 9.263914287450915053e-01
8.750615017177634236e-01 8.900567839130570924e-01
8.979124454030542601e-01 9.107728228984197649e-01
9.507150877463101946e-01 9.509938755256261977e-01
8.979789984099399991e-01 9.115737549065602296e-01
8.839354974801383324e-01 8.977065059086286603e-01
8.847539997010465118e-01 8.989304575598457969e-01
8.809066314553724020e-01 8.962692052313655511e-01
9.009818819601694839e-01 9.126207348590552604e-01
9.232046711657704297e-01 9.326967137491529725e-01
9.329867533480761255e-01 9.370701768287933442e-01
9.336195433880583039e-01 9.394244632014241425e-01
8.991106639305895820e-01 9.104559072660126651e-01
8.683973271969777086e-01 8.849020924523236520e-01
8.761089515453083232e-01 8.925331619586260867e-01
9.327809397520978596e-01 9.400471720279738319e-01
9.038969646664634094e-01 9.163615130756066485e-01
8.753351816012433506e-01 8.909190730878558950e-01
9.325117131256294156e-01 9.381932403822376143e-01
8.836602706393344997e-01 8.977421560736361661e-01
9.034443761797356087e-01 9.139754247586543423e-01
8.888406905293846361e-01 9.021246351261621443e-01
9.059660850823020306e-01 9.175356924520333690e-01
8.841937038362756018e-01 8.999032590155102707e-01
9.138794784542526584e-01 9.241986250812962433e-01
8.930121323200927996e-01 9.073324543331752201e-01
9.073475427317829745e-01 9.185395199830079793e-01
9.123187166079405053e-01 9.236044557265636890e-01
9.304773878605259174e-01 9.332841959232994755e-01
9.277284035748257773e-01 9.363724240549137212e-01
